Data from WindowProjectSample_Transmission__84__00084.txt Node

Date: Sat May 03 18:09:18 EDT 2025
User: jessi
Spectrometer: SR400872
Trigger mode: 0
Integration Time (sec): 5.000010E-1
Scans to average: 6
Electric dark correction enabled: true
Nonlinearity correction enabled: true
Boxcar width: 0
XAxis mode: Wavelengths
Number of Pixels in Spectrum: 3648
>>>>>Begin Spectral Data<<<<<
184.909	3347.06165
185.132	4157.27632
185.355	-4140.74818
185.578	4154.35031
185.801	-478.75335
186.024	-5124.51571
186.247	1598.88733
186.47	565.87048
186.693	-65.24338
186.916	4121.91166
187.139	3081.72975
187.362	-1925.23404
187.585	5558.40763
187.808	26360.40031
188.031	29.85648
188.254	-4288.51059
188.476	855.75852
188.699	3530.52771
188.922	-279.43147
189.145	-6895.56491
189.368	-348.0314
189.591	-745.40802
189.813	-2940.62356
190.036	922.78397
190.259	-9672.16453
190.482	1291.56965
190.705	3987.19803
190.927	-2003.59076
191.15	-6794.36874
191.373	6390.96049
191.595	-1136.54714
191.818	2143.76329
192.041	-569.44162
192.263	1880.18121
192.486	-2741.91941
192.709	-23490.35892
192.931	1746.04469
193.154	-3689.52881
193.377	-2448.85655
193.599	4570.43676
193.822	1760.79805
194.044	5813.22411
194.267	1003.92283
194.489	-128.98912
194.712	2515.63265
194.934	8546.34994
195.157	-24042.4204
195.379	2132.46654
195.602	1747.96355
195.824	1527.28378
196.047	47683.69062
196.269	3175.57742
196.492	-1941.92802
196.714	-1305.52131
196.936	1872.25565
197.159	-11548.2327
197.381	-391.0062
197.604	-4358.71618
197.826	-16248.1624
198.048	10558.19139
198.271	-8437.87998
198.493	4379.41474
198.715	3494.08889
198.938	-748.98539
199.16	-17410.58732
199.382	1178.2214
199.604	-1797.37446
199.827	-3581.46842
200.049	2280.72329
200.271	-6991.93526
200.493	-46941.40511
200.715	3740.2235
200.938	-3024.44976
201.16	-2651.2193
201.382	-1644.44237
201.604	-3093.6499
201.826	3292.4483
202.048	3680.41539
202.27	-1162.07534
202.492	-3454.5185
202.715	-1317.59897
202.937	-17171.23247
203.159	2540.73912
203.381	2381.83729
203.603	-2992.72909
203.825	-1057.63933
204.047	56139.77589
204.269	-1293.66874
204.491	-1196.22721
204.713	65713.57913
204.935	-3314.21072
205.156	-997.22299
205.378	-4919.06428
205.6	-1299.53884
205.822	2348.82873
206.044	-468.84313
206.266	6791.62271
206.488	828.1765
206.71	3216.34781
206.932	1633.64538
207.153	-1547.39704
207.375	-2761.28443
207.597	3938.79504
207.819	29266.56508
208.041	4355.55025
208.262	-1511.81646
208.484	-1000.07196
208.706	-1521.30658
208.927	3343.6333
209.149	4154.05142
209.371	-5500.33049
209.593	516.02832
209.814	-30228.49814
210.036	2604.71621
210.258	-845.80337
210.479	4330.79379
210.701	-3015.53358
210.922	-11568.62959
211.144	-869.10881
211.366	5176.73443
211.587	-2125.32881
211.809	-5077.59572
212.03	-882.80117
212.252	-715.80535
212.473	3395.56231
212.695	-705.76675
212.916	-885.20947
213.138	554.93215
213.359	-1504.90645
213.581	12996.10534
213.802	-1897.84829
214.024	-2366.10184
214.245	-6950.86735
214.466	-378.42981
214.688	-3072.28689
214.909	-21004.07476
215.131	-4563.09848
215.352	-2261.46851
215.573	11491.72455
215.795	1632.61042
216.016	6425.16539
216.237	-610.28933
216.459	6192.14866
216.68	-3458.81543
216.901	-2950.13911
217.122	-1925.25296
217.344	-6907.06095
217.565	-3029.21675
217.786	2218.48638
218.007	1558.02077
218.228	-612.00466
218.45	-4328.17352
218.671	1473.4633
218.892	3683.45827
219.113	1644.23178
219.334	219.38062
219.555	-7028.02018
219.776	12278.39554
219.997	4142.10783
220.219	1702.83621
220.44	1089.33947
220.661	1073.53013
220.882	-2746.17514
221.103	-1134.30178
221.324	2621.39279
221.545	3045.55788
221.766	-3463.80919
221.987	-537.61627
222.208	-10422.07009
222.429	168749.87231
222.65	-147.62493
222.87	-9848.67293
223.091	2694.47862
223.312	-1255.60273
223.533	2496.48759
223.754	2092.74475
223.975	2743.81434
224.196	-6060.6399
224.417	-2903.30079
224.637	7958.28354
224.858	1481.7215
225.079	1273.03108
225.3	1122.76213
225.521	4880.76267
225.741	886.47227
225.962	1211.22408
226.183	-525.17267
226.404	1486.48979
226.624	1149.0096
226.845	1413.10803
227.066	914.85574
227.286	543.84473
227.507	207.28654
227.728	206.89058
227.948	289.18291
228.169	92.84292
228.389	95.58927
228.61	46.72617
228.831	65.36071
229.051	4.43956
229.272	38.04673
229.492	50.05443
229.713	14.92545
229.933	36.52307
230.154	33.87022
230.374	55.18139
230.595	40.09303
230.815	27.34143
231.036	39.86915
231.256	-8.50528
231.477	77.45749
231.697	47.85799
231.917	47.0152
232.138	68.34778
232.358	130.37733
232.579	124.05884
232.799	19.63933
233.019	110.15543
233.24	141.68792
233.46	47.81499
233.68	90.33858
233.901	55.85025
234.121	34.3569
234.341	15.47546
234.561	-4.57537
234.782	32.13015
235.002	85.39412
235.222	0.39628
235.442	69.62856
235.662	34.44454
235.883	77.56832
236.103	66.19672
236.323	49.57151
236.543	36.28863
236.763	48.42004
236.983	48.40029
237.203	49.74158
237.423	74.77275
237.643	104.33267
237.864	89.23549
238.084	25.15954
238.304	36.51848
238.524	63.50337
238.744	45.93957
238.964	75.24969
239.184	69.47344
239.404	71.35816
239.624	39.67998
239.843	68.82196
240.063	39.40533
240.283	25.29175
240.503	27.22502
240.723	27.59478
240.943	13.55565
241.163	21.29365
241.383	15.11866
241.603	7.24599
241.822	8.88469
242.042	7.36163
242.262	8.64552
242.482	10.13937
242.702	11.37334
242.921	3.89681
243.141	8.05653
243.361	6.88713
243.581	9.59359
243.8	8.757
244.02	5.6347
244.24	10.43639
244.459	10.60426
244.679	20.02456
244.899	13.02392
245.118	15.76922
245.338	12.75924
245.558	17.12556
245.777	9.7091
245.997	11.06369
246.216	10.59194
246.436	6.05655
246.655	4.42618
246.875	3.4134
247.094	6.55334
247.314	2.09512
247.533	3.62262
247.753	4.86271
247.972	3.71094
248.192	1.49915
248.411	2.35142
248.631	4.11292
248.85	5.28238
249.07	3.90543
249.289	7.178
249.508	4.85116
249.728	8.02115
249.947	8.86641
250.166	8.98163
250.386	5.53416
250.605	7.69178
250.824	11.56627
251.044	8.39866
251.263	27.07755
251.482	13.92667
251.701	14.26179
251.921	0.29376
252.14	4.85665
252.359	4.39861
252.578	10.95803
252.798	3.89559
253.017	10.4662
253.236	5.56464
253.455	7.06502
253.674	13.02523
253.893	5.23391
254.112	8.60552
254.331	13.34599
254.551	10.32449
254.77	4.95063
254.989	17.03111
255.208	14.68273
255.427	16.63131
255.646	16.46735
255.865	23.86343
256.084	9.87587
256.303	12.97159
256.522	15.00762
256.741	3.21579
256.96	4.42693
257.179	10.58082
257.397	11.86933
257.616	5.48232
257.835	7.30273
258.054	16.59152
258.273	10.49284
258.492	12.20457
258.711	7.37723
258.93	3.15673
259.148	4.49566
259.367	4.79606
259.586	6.02598
259.805	2.93099
260.023	5.43986
260.242	4.14172
260.461	2.93519
260.68	1.68028
260.898	4.84827
261.117	1.74882
261.336	1.12037
261.554	4.07076
261.773	4.22436
261.992	0.8652
262.21	4.48706
262.429	5.28745
262.648	8.20034
262.866	8.85061
263.085	6.13623
263.303	5.34188
263.522	9.74105
263.74	10.11523
263.959	16.54943
264.178	8.27677
264.396	7.7397
264.615	5.39826
264.833	12.81807
265.051	11.51784
265.27	11.35125
265.488	12.09428
265.707	7.4006
265.925	12.38057
266.144	5.51384
266.362	7.07901
266.58	6.80449
266.799	5.79508
267.017	6.69023
267.235	5.99999
267.454	3.57752
267.672	2.53969
267.89	5.05061
268.109	5.31572
268.327	5.04316
268.545	1.28779
268.763	4.42224
268.982	1.70673
269.2	5.89167
269.418	3.83881
269.636	2.78679
269.854	4.81201
270.073	3.70426
270.291	2.03366
270.509	2.56936
270.727	4.96361
270.945	7.65206
271.163	8.21828
271.381	1.94024
271.599	3.19209
271.817	5.76281
272.036	2.05443
272.254	3.41842
272.472	2.8877
272.69	3.04992
272.908	2.8465
273.126	4.85106
273.344	6.05697
273.562	2.17881
273.779	3.05623
273.997	4.30246
274.215	5.0368
274.433	3.4043
274.651	5.24764
274.869	5.15686
275.087	3.30421
275.305	5.02061
275.523	2.89253
275.74	3.64603
275.958	5.9231
276.176	8.52081
276.394	3.04698
276.612	3.66187
276.829	3.48328
277.047	2.93172
277.265	3.72188
277.483	3.93552
277.7	4.83989
277.918	3.86671
278.136	6.89016
278.353	3.70688
278.571	1.98362
278.789	5.70774
279.006	1.37667
279.224	3.29302
279.442	5.81087
279.659	4.06266
279.877	2.87581
280.094	6.3748
280.312	1.44825
280.529	4.23446
280.747	1.2123
280.964	3.17554
281.182	6.88551
281.399	2.92794
281.617	4.50316
281.834	2.75214
282.052	2.59912
282.269	3.43561
282.487	2.76315
282.704	2.25704
282.921	2.56233
283.139	3.53268
283.356	4.90894
283.574	4.02301
283.791	2.31084
284.008	5.86316
284.226	2.9525
284.443	3.74166
284.66	4.81037
284.877	3.98875
285.095	2.57762
285.312	1.72741
285.529	1.26139
285.746	0.73806
285.964	2.44796
286.181	1.37813
286.398	2.25327
286.615	2.9512
286.832	3.09625
287.05	0.85135
287.267	2.16033
287.484	2.38267
287.701	3.05313
287.918	2.90866
288.135	2.96095
288.352	1.44848
288.569	1.92874
288.786	2.56959
289.003	2.12352
289.22	3.12127
289.437	2.05949
289.654	3.34683
289.871	3.57309
290.088	3.5089
290.305	2.61352
290.522	2.00318
290.739	2.4394
290.956	3.48843
291.173	4.21626
291.39	3.92427
291.607	2.65865
291.824	2.13799
292.04	1.33201
292.257	3.4543
292.474	3.44302
292.691	2.2385
292.908	1.27212
293.125	2.20755
293.341	1.29166
293.558	5.79282
293.775	2.33453
293.992	2.42985
294.208	1.14578
294.425	1.42264
294.642	2.20404
294.858	3.27072
295.075	0.91795
295.292	2.29366
295.508	2.72786
295.725	4.23628
295.942	2.04272
296.158	1.52006
296.375	2.38079
296.591	1.86694
296.808	2.06771
297.024	2.21514
297.241	2.41581
297.458	2.71045
297.674	0.24776
297.891	2.15572
298.107	1.7051
298.323	1.3074
298.54	3.08304
298.756	1.61074
298.973	0.727
299.189	3.35556
299.406	1.56094
299.622	3.31535
299.838	3.39239
300.055	3.05317
300.271	0.95325
300.487	1.28636
300.704	1.66245
300.92	1.16067
301.136	4.69903
301.353	3.23532
301.569	2.51045
301.785	2.81108
302.001	3.20665
302.218	2.97324
302.434	3.01618
302.65	1.22583
302.866	2.06209
303.083	4.79848
303.299	4.68741
303.515	2.64512
303.731	3.11014
303.947	1.52694
304.163	1.95592
304.379	2.80599
304.595	3.17402
304.812	1.94465
305.028	1.75813
305.244	2.3355
305.46	3.45377
305.676	3.53788
305.892	4.37005
306.108	3.32579
306.324	2.46476
306.54	4.88286
306.756	3.41039
306.972	3.1584
307.187	2.69851
307.403	4.303
307.619	2.10823
307.835	3.83377
308.051	4.30266
308.267	1.45128
308.483	4.26656
308.699	3.49536
308.914	2.97862
309.13	2.85787
309.346	1.52905
309.562	2.19508
309.778	1.51735
309.993	3.52552
310.209	3.33814
310.425	1.85453
310.641	3.04054
310.856	2.14993
311.072	1.90451
311.288	2.86284
311.503	3.44048
311.719	1.39685
311.935	1.57045
312.15	3.79016
312.366	3.44316
312.581	3.76298
312.797	3.422
313.013	3.85187
313.228	2.6773
313.444	2.87783
313.659	2.39259
313.875	3.67115
314.09	2.99264
314.306	4.3397
314.521	3.91088
314.737	3.82339
314.952	3.11135
315.168	3.1935
315.383	3.60694
315.599	2.61363
315.814	3.10117
316.029	3.86005
316.245	2.27823
316.46	1.35471
316.675	4.37865
316.891	5.01712
317.106	5.9093
317.321	3.70595
317.537	3.66806
317.752	4.12383
317.967	4.28717
318.183	2.3157
318.398	2.72332
318.613	4.156
318.828	4.60325
319.043	3.69104
319.259	2.75192
319.474	3.37968
319.689	4.0843
319.904	1.42204
320.119	4.35624
320.334	3.34044
320.549	3.07697
320.765	4.25801
320.98	3.4944
321.195	3.80938
321.41	3.44753
321.625	3.95596
321.84	4.70774
322.055	4.92688
322.27	2.45049
322.485	1.97413
322.7	3.53376
322.915	4.32218
323.13	2.85533
323.345	5.12321
323.56	3.81599
323.775	4.03403
323.989	4.02556
324.204	3.43725
324.419	4.37567
324.634	2.29732
324.849	3.18237
325.064	5.77355
325.279	4.72947
325.493	3.89204
325.708	4.42585
325.923	2.63696
326.138	3.07079
326.352	4.93678
326.567	4.09904
326.782	2.89485
326.997	2.90695
327.211	4.12054
327.426	3.69568
327.641	3.36252
327.855	1.96471
328.07	4.3087
328.285	5.59584
328.499	3.0979
328.714	3.86703
328.928	3.86535
329.143	3.85841
329.358	4.52157
329.572	4.46547
329.787	5.09906
330.001	6.36104
330.216	1.7256
330.43	5.73419
330.645	4.98401
330.859	4.29975
331.074	2.56519
331.288	3.65881
331.503	5.42574
331.717	2.46821
331.931	3.56267
332.146	3.88203
332.36	5.63181
332.575	3.90472
332.789	3.52963
333.003	3.8342
333.218	4.20498
333.432	3.17618
333.646	4.38854
333.86	5.40888
334.075	5.38685
334.289	3.25921
334.503	2.36386
334.717	4.44693
334.932	3.98942
335.146	4.64236
335.36	2.76117
335.574	4.44624
335.788	3.9986
336.003	4.60756
336.217	4.79529
336.431	4.14251
336.645	3.0596
336.859	2.6082
337.073	3.77691
337.287	4.03713
337.501	2.62043
337.715	4.21702
337.929	4.26041
338.143	2.51645
338.357	3.74792
338.571	3.60658
338.785	4.83438
338.999	3.06453
339.213	3.53143
339.427	2.55988
339.641	5.00245
339.855	3.323
340.069	2.93379
340.283	4.88535
340.497	5.29083
340.711	4.36367
340.924	3.73846
341.138	2.92012
341.352	2.52372
341.566	4.004
341.78	2.62574
341.993	3.50592
342.207	3.09278
342.421	4.21307
342.635	3.87707
342.848	3.67556
343.062	1.54116
343.276	3.13203
343.49	5.85415
343.703	3.05171
343.917	4.79615
344.131	5.19846
344.344	3.01053
344.558	3.57331
344.771	2.83874
344.985	4.9757
345.199	5.62808
345.412	4.37617
345.626	4.38194
345.839	2.24939
346.053	2.92137
346.266	3.25577
346.48	4.5509
346.693	4.4483
346.907	4.33574
347.12	3.0546
347.334	3.99647
347.547	4.28412
347.76	4.03082
347.974	4.87159
348.187	4.21197
348.401	3.74908
348.614	2.94224
348.827	4.02606
349.041	4.34331
349.254	2.41849
349.467	3.58956
349.681	3.07431
349.894	2.99868
350.107	5.15899
350.32	5.85647
350.534	2.49875
350.747	3.54648
350.96	3.27378
351.173	3.44435
351.386	3.71837
351.6	3.51143
351.813	3.70672
352.026	4.01901
352.239	3.00502
352.452	3.42222
352.665	5.11919
352.878	3.50233
353.092	6.00744
353.305	4.78102
353.518	3.99324
353.731	2.82793
353.944	5.194
354.157	3.33494
354.37	3.6157
354.583	2.82184
354.796	3.07574
355.009	4.90294
355.222	4.1336
355.435	4.1972
355.647	5.35285
355.86	3.469
356.073	4.34314
356.286	3.63129
356.499	5.07651
356.712	4.86917
356.925	4.55336
357.138	5.15004
357.35	3.43783
357.563	3.80948
357.776	4.47233
357.989	4.40743
358.201	4.77664
358.414	4.58203
358.627	5.54931
358.84	4.2069
359.052	3.24329
359.265	3.67381
359.478	5.22025
359.69	2.17407
359.903	5.15018
360.116	5.35151
360.328	3.06474
360.541	5.23645
360.753	4.01883
360.966	4.23509
361.179	4.59865
361.391	4.28738
361.604	3.7992
361.816	4.20744
362.029	4.26331
362.241	3.98089
362.454	4.61546
362.666	3.88405
362.879	5.05294
363.091	4.3201
363.304	4.15765
363.516	4.35958
363.728	3.73123
363.941	4.99866
364.153	4.63821
364.366	2.93654
364.578	3.66828
364.79	5.07898
365.003	4.80372
365.215	4.15018
365.427	5.24602
365.639	5.69494
365.852	4.91791
366.064	6.0195
366.276	4.46677
366.488	4.90247
366.701	4.46171
366.913	4.43685
367.125	4.57878
367.337	4.23915
367.549	4.40773
367.762	4.51232
367.974	4.67217
368.186	4.66839
368.398	5.49034
368.61	5.04701
368.822	5.28762
369.034	4.50667
369.246	5.78876
369.458	6.85558
369.67	4.08707
369.882	6.13648
370.094	3.11879
370.306	6.11241
370.518	4.59826
370.73	4.60338
370.942	4.5891
371.154	4.88806
371.366	4.9315
371.578	5.56038
371.79	4.87102
372.002	5.86356
372.214	6.83971
372.425	4.81481
372.637	6.37017
372.849	5.43191
373.061	3.32526
373.273	5.52651
373.484	5.44481
373.696	5.78972
373.908	3.2145
374.12	5.83745
374.331	5.84091
374.543	4.63425
374.755	4.45473
374.967	5.20629
375.178	6.19174
375.39	5.03079
375.602	5.32517
375.813	4.1148
376.025	4.36363
376.236	5.56982
376.448	5.52332
376.66	5.37436
376.871	5.57112
377.083	6.25857
377.294	7.1817
377.506	5.23356
377.717	6.50223
377.929	5.79207
378.14	5.44585
378.352	6.02393
378.563	6.49745
378.775	6.6805
378.986	4.88252
379.197	6.097
379.409	5.26244
379.62	6.3195
379.832	6.08877
380.043	5.59774
380.254	6.11069
380.466	4.75153
380.677	8.0797
380.888	7.39598
381.1	8.08417
381.311	8.14149
381.522	6.43029
381.733	8.16548
381.945	5.97825
382.156	5.69629
382.367	5.96689
382.578	8.61594
382.789	8.47552
383.001	5.52498
383.212	7.63699
383.423	7.661
383.634	7.14521
383.845	7.00858
384.056	5.9101
384.267	6.41626
384.478	6.5205
384.69	5.50334
384.901	6.96717
385.112	6.72614
385.323	8.15316
385.534	6.96769
385.745	7.02726
385.956	6.79971
386.167	5.87685
386.378	7.09915
386.588	6.29225
386.799	5.99169
387.01	5.66354
387.221	7.34649
387.432	6.78858
387.643	8.08109
387.854	6.44094
388.065	6.51189
388.275	6.70615
388.486	6.46509
388.697	7.01954
388.908	6.36453
389.119	7.87533
389.329	8.14058
389.54	7.12237
389.751	7.47838
389.962	8.13258
390.172	7.03013
390.383	7.05337
390.594	6.49461
390.804	6.58599
391.015	6.96282
391.226	7.25473
391.436	7.90263
391.647	7.65137
391.858	7.64264
392.068	6.20022
392.279	6.83964
392.489	7.65534
392.7	7.99876
392.91	7.00173
393.121	7.14
393.331	7.83075
393.542	8.50791
393.752	8.31917
393.963	7.82108
394.173	8.00844
394.384	8.12284
394.594	7.78929
394.804	6.94316
395.015	7.89781
395.225	8.08286
395.436	6.9547
395.646	8.09945
395.856	7.5275
396.067	6.79228
396.277	8.50781
396.487	7.87592
396.697	8.17791
396.908	8.56884
397.118	8.38354
397.328	7.93056
397.538	8.52378
397.749	7.49558
397.959	8.73234
398.169	8.24323
398.379	7.03524
398.589	8.14847
398.8	8.5002
399.01	8.34499
399.22	8.01633
399.43	9.60607
399.64	8.15587
399.85	8.52778
400.06	8.33454
400.27	7.76521
400.48	7.78484
400.69	8.92236
400.9	7.74335
401.11	7.44795
401.32	8.72085
401.53	7.96342
401.74	9.22493
401.95	8.51103
402.16	7.99478
402.37	8.46626
402.58	7.94299
402.79	8.66265
403	8.81885
403.209	7.88603
403.419	9.10361
403.629	8.00415
403.839	9.11085
404.049	9.36835
404.258	8.06203
404.468	8.20321
404.678	9.19373
404.888	9.33638
405.097	8.54217
405.307	8.39392
405.517	9.14927
405.727	9.11679
405.936	8.39295
406.146	8.99692
406.356	9.74044
406.565	8.7759
406.775	8.45574
406.984	8.33817
407.194	10.37499
407.404	8.87847
407.613	9.25689
407.823	9.48059
408.032	9.66333
408.242	9.51934
408.451	8.45492
408.661	8.73449
408.87	9.8833
409.08	8.54143
409.289	9.09574
409.499	9.09927
409.708	8.90453
409.918	7.49981
410.127	9.33437
410.336	10.06793
410.546	9.56328
410.755	8.81032
410.964	8.74171
411.174	8.26958
411.383	9.65742
411.592	9.12744
411.802	8.46406
412.011	9.58883
412.22	9.09231
412.429	9.77595
412.639	10.10027
412.848	9.65652
413.057	10.19473
413.266	9.69047
413.475	9.37213
413.685	9.59397
413.894	9.82322
414.103	9.79218
414.312	9.69934
414.521	8.97998
414.73	9.53262
414.939	10.54797
415.148	9.65236
415.357	9.53029
415.566	9.28852
415.776	9.11385
415.985	9.1924
416.194	10.05609
416.403	10.88969
416.611	8.69255
416.82	9.14673
417.029	9.95905
417.238	9.20375
417.447	9.20548
417.656	9.67286
417.865	9.43754
418.074	10.01887
418.283	10.9157
418.492	12.12821
418.7	11.71895
418.909	13.49858
419.118	12.16958
419.327	12.77903
419.536	12.57596
419.744	12.84479
419.953	14.42261
420.162	14.59631
420.371	13.99321
420.579	14.73926
420.788	15.72063
420.997	15.95281
421.205	16.36481
421.414	15.80318
421.623	16.15845
421.831	15.52767
422.04	16.10091
422.249	15.13707
422.457	15.3927
422.666	14.50568
422.874	15.47905
423.083	15.59034
423.291	15.48846
423.5	15.558
423.708	16.08125
423.917	16.75551
424.125	16.07598
424.334	15.81057
424.542	17.87981
424.751	17.11418
424.959	16.54202
425.167	16.65491
425.376	16.44895
425.584	15.0349
425.793	14.85466
426.001	13.7051
426.209	13.81885
426.418	12.3613
426.626	11.59531
426.834	11.08897
427.042	11.02276
427.251	10.5254
427.459	11.17805
427.667	10.77553
427.875	9.82901
428.084	10.19285
428.292	11.40343
428.5	11.08142
428.708	9.85856
428.916	10.04415
429.124	10.5054
429.333	10.42498
429.541	10.48105
429.749	10.76406
429.957	10.72793
430.165	12.07525
430.373	9.77548
430.581	10.63573
430.789	11.53607
430.997	10.37629
431.205	10.0553
431.413	10.98699
431.621	10.4268
431.829	11.13954
432.037	10.59779
432.245	11.00699
432.453	11.10128
432.661	10.74114
432.869	12.43001
433.076	11.11979
433.284	11.72882
433.492	12.72164
433.7	13.04676
433.908	11.96423
434.116	12.35022
434.323	11.88456
434.531	11.7324
434.739	11.81436
434.947	11.49358
435.154	11.627
435.362	11.16724
435.57	10.91109
435.778	10.61259
435.985	11.25346
436.193	10.6597
436.401	11.93371
436.608	10.92264
436.816	11.00228
437.023	11.85136
437.231	12.23448
437.439	11.07265
437.646	11.51524
437.854	11.3642
438.061	11.91369
438.269	11.42807
438.476	11.83972
438.684	11.80199
438.891	12.1001
439.099	12.19039
439.306	11.92146
439.514	12.35399
439.721	13.97655
439.929	13.48056
440.136	14.63312
440.343	14.75091
440.551	14.56615
440.758	16.47425
440.965	14.99964
441.173	14.79072
441.38	14.46312
441.587	13.93847
441.795	13.80533
442.002	13.28043
442.209	13.02359
442.416	12.63996
442.624	12.40775
442.831	11.979
443.038	11.31874
443.245	11.06267
443.452	11.2226
443.66	11.73024
443.867	11.28589
444.074	11.26928
444.281	11.76207
444.488	12.27219
444.695	12.76219
444.902	12.94779
445.109	14.61913
445.316	14.42532
445.523	15.16438
445.73	15.43511
445.937	16.28107
446.144	17.01008
446.351	17.67755
446.558	16.38088
446.765	18.50781
446.972	17.67617
447.179	17.2212
447.386	17.6629
447.593	15.74273
447.8	16.78228
448.007	14.99991
448.214	14.11693
448.42	13.59766
448.627	13.80822
448.834	12.94597
449.041	12.33514
449.248	12.02366
449.454	12.07885
449.661	12.6163
449.868	11.24432
450.075	11.34783
450.281	10.66604
450.488	10.82608
450.695	10.94388
450.901	11.0571
451.108	11.1911
451.315	12.32782
451.521	11.31763
451.728	12.23824
451.935	11.09488
452.141	11.40642
452.348	11.56071
452.554	11.48095
452.761	11.26222
452.967	12.66012
453.174	11.75484
453.38	11.68139
453.587	10.91756
453.793	11.61703
454	11.96652
454.206	12.84612
454.413	12.12743
454.619	12.00128
454.825	11.18099
455.032	11.82917
455.238	12.07804
455.445	10.91524
455.651	11.73781
455.857	10.61844
456.064	11.40216
456.27	11.51667
456.476	11.38261
456.682	10.9306
456.889	11.73579
457.095	12.00368
457.301	12.88919
457.507	11.77231
457.714	11.78241
457.92	11.71091
458.126	11.20454
458.332	11.65587
458.538	12.03167
458.744	12.99666
458.951	13.69609
459.157	16.19087
459.363	15.6753
459.569	16.16231
459.775	16.92561
459.981	16.94142
460.187	17.34815
460.393	17.42261
460.599	17.50649
460.805	16.14078
461.011	14.9606
461.217	14.66744
461.423	13.34593
461.629	12.33735
461.835	12.42764
462.041	12.10324
462.247	13.23852
462.453	11.93021
462.658	11.95857
462.864	12.45139
463.07	12.14105
463.276	12.14553
463.482	12.03062
463.688	13.13207
463.893	11.55888
464.099	11.83608
464.305	12.94804
464.511	11.83722
464.716	12.10391
464.922	12.72729
465.128	11.43393
465.333	12.99793
465.539	12.68172
465.745	12.30514
465.95	12.0194
466.156	13.81046
466.362	12.86776
466.567	12.32857
466.773	11.84626
466.978	13.16344
467.184	11.60257
467.389	11.20743
467.595	12.45067
467.8	11.74144
468.006	13.09567
468.211	13.08911
468.417	11.67274
468.622	12.52473
468.828	12.55691
469.033	12.41874
469.239	14.00977
469.444	11.96703
469.649	12.68663
469.855	12.33382
470.06	12.37069
470.266	11.55415
470.471	12.8016
470.676	12.67441
470.881	11.16623
471.087	13.3815
471.292	13.33612
471.497	11.53944
471.703	12.35627
471.908	11.97831
472.113	12.53204
472.318	13.03017
472.523	11.72013
472.729	12.68212
472.934	12.62123
473.139	12.26217
473.344	12.81901
473.549	13.41543
473.754	12.06388
473.959	13.90623
474.164	12.22507
474.369	12.33291
474.575	12.72154
474.78	12.38611
474.985	12.17449
475.19	11.30894
475.395	12.03437
475.6	12.30913
475.804	13.33999
476.009	12.47302
476.214	12.38777
476.419	12.24291
476.624	11.5898
476.829	12.0936
477.034	12.80512
477.239	12.26755
477.444	12.5749
477.648	13.10333
477.853	12.8048
478.058	12.44709
478.263	12.21368
478.468	12.15584
478.672	12.1997
478.877	13.60343
479.082	13.75981
479.287	13.01229
479.491	12.72753
479.696	12.2536
479.901	13.2198
480.105	13.1293
480.31	12.28934
480.515	12.82667
480.719	14.36455
480.924	13.05334
481.128	13.0281
481.333	14.39875
481.538	14.89925
481.742	15.44362
481.947	17.32274
482.151	18.82018
482.356	20.12072
482.56	23.52474
482.765	26.64216
482.969	31.30459
483.174	35.25597
483.378	40.68568
483.582	42.30532
483.787	44.94774
483.991	45.64565
484.196	46.09856
484.4	45.13529
484.604	44.9968
484.809	41.18
485.013	38.41215
485.217	34.64368
485.422	30.83387
485.626	27.9463
485.83	26.64212
486.034	25.73817
486.239	26.44553
486.443	26.88958
486.647	27.81447
486.851	29.71977
487.055	31.96558
487.26	32.30851
487.464	33.81898
487.668	33.25034
487.872	33.94891
488.076	34.26309
488.28	32.72828
488.484	30.62278
488.688	29.44019
488.892	28.00179
489.096	25.78934
489.3	23.85175
489.504	22.23596
489.708	21.23837
489.912	20.83841
490.116	20.33466
490.32	20.12062
490.524	21.77801
490.728	23.45796
490.932	24.77978
491.136	26.63227
491.34	28.29573
491.544	29.01053
491.748	28.8357
491.951	28.75439
492.155	27.97696
492.359	27.20352
492.563	24.66332
492.767	23.18382
492.97	20.67253
493.174	18.38551
493.378	16.91148
493.582	14.97948
493.785	14.23485
493.989	13.96956
494.193	12.99502
494.396	12.35394
494.6	12.79848
494.804	12.15875
495.007	12.09727
495.211	12.46342
495.414	12.39056
495.618	13.33419
495.822	14.03658
496.025	13.71178
496.229	14.45495
496.432	14.16114
496.636	14.45632
496.839	14.72832
497.043	15.83761
497.246	15.15908
497.45	14.67577
497.653	15.21619
497.856	14.62034
498.06	14.10281
498.263	14.03619
498.467	13.61277
498.67	14.27889
498.873	13.59288
499.077	13.16748
499.28	13.20805
499.483	13.4383
499.686	13.57827
499.89	13.28482
500.093	13.81868
500.296	12.72619
500.499	14.09173
500.703	13.11968
500.906	13.56281
501.109	14.20392
501.312	13.38973
501.515	13.16541
501.719	13.62972
501.922	13.93863
502.125	13.40297
502.328	13.34919
502.531	12.73704
502.734	13.48767
502.937	12.3886
503.14	13.50176
503.343	13.02061
503.546	13.24247
503.749	13.07715
503.952	13.47582
504.155	12.97771
504.358	13.65664
504.561	13.68287
504.764	12.54373
504.967	13.48211
505.17	13.44558
505.373	14.38489
505.576	13.24972
505.778	13.82351
505.981	12.90128
506.184	14.09857
506.387	12.24289
506.59	14.48974
506.793	14.22189
506.995	13.62533
507.198	12.41048
507.401	13.58549
507.604	13.53949
507.806	12.67716
508.009	12.9297
508.212	13.62612
508.414	13.0487
508.617	13.12308
508.82	13.25303
509.022	14.1943
509.225	13.66128
509.427	12.59752
509.63	14.02459
509.833	13.29268
510.035	13.05465
510.238	12.58924
510.44	14.26469
510.643	12.38906
510.845	14.52582
511.048	13.82533
511.25	13.10532
511.453	13.35959
511.655	13.69206
511.858	13.33676
512.06	13.93756
512.262	13.60797
512.465	14.13072
512.667	13.54534
512.869	12.8049
513.072	13.85916
513.274	13.87553
513.476	13.97853
513.679	13.89809
513.881	12.96441
514.083	14.59828
514.286	13.21234
514.488	12.99543
514.69	13.0144
514.892	12.80976
515.094	14.29719
515.297	13.15035
515.499	13.76003
515.701	13.0279
515.903	14.66267
516.105	14.59855
516.307	14.01369
516.509	12.45219
516.711	13.05504
516.913	13.44256
517.116	13.42602
517.318	13.30504
517.52	14.42557
517.722	14.74234
517.924	14.50404
518.126	15.90734
518.328	15.65134
518.529	16.54189
518.731	17.46006
518.933	15.61212
519.135	16.00943
519.337	16.50503
519.539	15.54516
519.741	13.64899
519.943	13.85182
520.145	13.36931
520.346	14.25395
520.548	13.40777
520.75	13.70298
520.952	13.39603
521.153	13.90929
521.355	13.95797
521.557	13.02933
521.759	13.5298
521.96	13.50623
522.162	13.05679
522.364	14.16553
522.565	13.12059
522.767	13.94299
522.969	14.28179
523.17	13.98599
523.372	13.57866
523.573	13.52396
523.775	13.65445
523.977	12.93909
524.178	14.57718
524.38	13.22615
524.581	14.2168
524.783	14.28734
524.984	15.79227
525.186	16.14228
525.387	17.05415
525.589	17.32486
525.79	17.39476
525.991	17.34188
526.193	18.27185
526.394	17.59079
526.596	18.76245
526.797	19.24062
526.998	18.97809
527.2	20.17549
527.401	23.25997
527.602	25.37569
527.803	29.43154
528.005	31.73878
528.206	34.05219
528.407	35.78968
528.608	36.25653
528.81	36.6427
529.011	35.4152
529.212	36.40567
529.413	33.88787
529.614	31.57656
529.815	29.25811
530.017	26.8007
530.218	23.68995
530.419	21.20445
530.62	20.08971
530.821	19.0417
531.022	17.33821
531.223	18.30625
531.424	17.78953
531.625	18.44195
531.826	17.97582
532.027	19.07606
532.228	21.11835
532.429	21.69033
532.63	22.73897
532.831	24.40781
533.032	24.45594
533.233	25.7101
533.433	24.99315
533.634	25.34037
533.835	23.96769
534.036	23.06239
534.237	21.86108
534.438	20.29763
534.638	18.22493
534.839	17.26482
535.04	16.6427
535.241	15.74649
535.441	17.08819
535.642	16.69935
535.843	16.1136
536.043	16.84462
536.244	17.17403
536.445	17.7683
536.645	18.65718
536.846	18.31102
537.047	18.55345
537.247	16.82078
537.448	16.55034
537.648	15.99161
537.849	14.90682
538.049	14.26825
538.25	14.2708
538.451	14.37928
538.651	13.54961
538.851	14.39624
539.052	14.79523
539.252	14.63385
539.453	13.83776
539.653	14.71735
539.854	15.27935
540.054	17.05843
540.254	19.68217
540.455	21.68547
540.655	22.57399
540.855	25.16716
541.056	26.8339
541.256	26.52312
541.456	28.037
541.657	27.65199
541.857	28.02213
542.057	25.91603
542.257	24.83902
542.458	24.75654
542.658	23.11857
542.858	20.75434
543.058	20.45841
543.258	19.21882
543.458	17.06676
543.659	16.42553
543.859	17.13804
544.059	16.40896
544.259	15.31204
544.459	15.45426
544.659	14.22538
544.859	14.582
545.059	13.64001
545.259	14.54462
545.459	14.10215
545.659	14.86926
545.859	14.34681
546.059	14.71828
546.259	14.28101
546.459	14.35519
546.659	14.09171
546.859	15.09257
547.059	14.66436
547.258	14.37442
547.458	14.41113
547.658	13.52568
547.858	13.52148
548.058	14.25364
548.258	13.88665
548.457	13.53629
548.657	15.60651
548.857	13.94943
549.057	14.64519
549.256	14.77636
549.456	13.78384
549.656	12.51145
549.855	15.2677
550.055	13.96222
550.255	15.52065
550.454	14.18324
550.654	14.71007
550.853	15.21072
551.053	14.62033
551.253	14.28967
551.452	14.34049
551.652	13.35564
551.851	12.95533
552.051	13.84857
552.25	13.55865
552.45	13.64077
552.649	13.69494
552.849	13.50156
553.048	13.84732
553.248	14.49348
553.447	13.38111
553.646	14.461
553.846	15.49778
554.045	14.70061
554.244	13.26972
554.444	15.25081
554.643	13.22513
554.842	15.35008
555.042	15.46593
555.241	13.51749
555.44	13.38325
555.64	14.82445
555.839	15.61595
556.038	14.57628
556.237	13.35703
556.436	14.31566
556.636	14.48097
556.835	13.76554
557.034	15.57521
557.233	14.05307
557.432	12.69033
557.631	15.05859
557.83	13.79436
558.029	13.58248
558.228	13.51987
558.427	13.37069
558.626	14.35724
558.825	13.27145
559.024	13.92873
559.223	15.63369
559.422	13.92583
559.621	14.48793
559.82	11.91497
560.019	14.03384
560.218	14.21379
560.417	11.95375
560.616	13.35915
560.815	16.73769
561.014	13.15432
561.212	15.4393
561.411	14.20545
561.61	12.87464
561.809	13.67321
562.008	14.94837
562.206	13.5315
562.405	14.27432
562.604	13.7974
562.803	14.50795
563.001	13.78238
563.2	13.05389
563.399	14.57857
563.597	13.067
563.796	13.89921
563.995	13.10091
564.193	14.51938
564.392	13.94248
564.59	15.87716
564.789	12.57998
564.988	13.51421
565.186	14.18906
565.385	13.64381
565.583	13.71861
565.782	13.91846
565.98	13.5621
566.179	13.8793
566.377	13.11311
566.575	13.51698
566.774	15.04294
566.972	14.66776
567.171	15.5462
567.369	15.07663
567.567	14.0897
567.766	14.36378
567.964	12.75362
568.162	14.23364
568.361	14.62813
568.559	13.72548
568.757	14.22064
568.956	13.81086
569.154	14.07105
569.352	14.54891
569.55	13.86275
569.748	14.01978
569.947	13.59783
570.145	13.19132
570.343	13.33443
570.541	14.59766
570.739	13.05722
570.937	13.98435
571.135	14.2724
571.333	15.2948
571.532	15.14851
571.73	14.19314
571.928	14.66479
572.126	14.0625
572.324	13.55746
572.522	15.09919
572.72	16.34246
572.918	14.21025
573.116	14.41208
573.313	14.07976
573.511	14.09254
573.709	13.55151
573.907	14.53387
574.105	13.64173
574.303	12.80867
574.501	12.80804
574.699	14.3433
574.896	14.48094
575.094	14.26716
575.292	12.82295
575.49	14.79317
575.688	13.95507
575.885	15.11885
576.083	15.64504
576.281	14.69613
576.478	13.36327
576.676	14.4943
576.874	12.78962
577.071	13.7896
577.269	16.39237
577.467	14.05478
577.664	14.12799
577.862	15.2268
578.059	13.09578
578.257	14.96388
578.455	13.72541
578.652	14.28752
578.85	12.13703
579.047	14.35747
579.245	13.73716
579.442	13.79449
579.64	14.10144
579.837	12.26608
580.034	16.3526
580.232	13.84188
580.429	12.50862
580.627	14.45516
580.824	15.34836
581.021	14.92581
581.219	13.54586
581.416	12.92967
581.613	15.33229
581.811	15.30034
582.008	13.2857
582.205	14.60957
582.402	14.25716
582.6	15.96904
582.797	13.98704
582.994	13.92093
583.191	14.57467
583.388	13.88215
583.586	14.69893
583.783	14.73866
583.98	13.61316
584.177	14.20922
584.374	11.43053
584.571	13.77797
584.768	13.91205
584.965	13.38002
585.162	14.94491
585.359	15.75326
585.556	14.17316
585.753	14.28797
585.95	12.57972
586.147	13.38089
586.344	14.3939
586.541	13.47705
586.738	12.91678
586.935	13.84759
587.132	13.21684
587.329	15.10263
587.526	14.12287
587.722	19.03137
587.919	12.6759
588.116	14.60145
588.313	15.11373
588.51	16.30768
588.706	13.48665
588.903	14.10878
589.1	14.99748
589.297	16.34535
589.493	14.13222
589.69	14.45963
589.887	13.37173
590.083	12.95436
590.28	13.35126
590.477	14.7854
590.673	15.57197
590.87	15.51054
591.067	13.95557
591.263	14.47594
591.46	14.06508
591.656	13.53706
591.853	15.08374
592.049	13.15104
592.246	13.42994
592.442	15.44226
592.639	15.63129
592.835	13.11601
593.032	14.55246
593.228	12.57583
593.425	12.23291
593.621	12.30409
593.817	14.48439
594.014	13.38034
594.21	14.02842
594.406	14.95605
594.603	14.83353
594.799	13.50231
594.995	11.76339
595.192	15.13049
595.388	13.78743
595.584	14.06597
595.78	12.85725
595.977	16.24177
596.173	15.70623
596.369	13.7801
596.565	12.9076
596.761	12.56733
596.957	15.5135
597.154	13.34289
597.35	13.75384
597.546	13.4761
597.742	15.10875
597.938	14.19797
598.134	13.18668
598.33	14.24554
598.526	15.48176
598.722	14.67964
598.918	16.0335
599.114	14.26249
599.31	12.70244
599.506	13.74081
599.702	13.26709
599.898	13.87502
600.094	14.6326
600.29	14.68027
600.485	14.98873
600.681	13.40694
600.877	16.16873
601.073	13.91374
601.269	15.95029
601.465	15.34961
601.66	12.97218
601.856	12.09593
602.052	15.65855
602.248	13.49512
602.443	12.20912
602.639	12.83104
602.835	13.46858
603.03	12.90157
603.226	14.86685
603.422	13.06752
603.617	13.6553
603.813	13.66668
604.009	13.73467
604.204	15.24118
604.4	12.73446
604.595	14.86785
604.791	13.35029
604.986	14.28343
605.182	13.38641
605.377	13.59282
605.573	13.67024
605.768	14.33623
605.964	14.84337
606.159	14.63487
606.355	15.21117
606.55	13.49215
606.746	15.39076
606.941	13.81637
607.136	16.44293
607.332	17.76677
607.527	12.55128
607.722	14.06739
607.918	13.91726
608.113	13.56747
608.308	15.14898
608.503	14.47657
608.699	14.64334
608.894	14.85851
609.089	13.36622
609.284	14.42708
609.479	13.64
609.675	14.99459
609.87	13.64472
610.065	14.99361
610.26	15.30607
610.455	15.06849
610.65	14.41095
610.845	14.17278
611.04	15.5298
611.235	14.2395
611.43	13.86511
611.625	12.90548
611.82	16.32492
612.015	13.51268
612.21	15.72934
612.405	12.57179
612.6	16.34502
612.795	15.55542
612.99	14.6508
613.185	12.84612
613.38	13.10329
613.575	14.30161
613.77	17.87739
613.965	12.02492
614.159	13.03457
614.354	16.03897
614.549	15.63023
614.744	15.66306
614.938	13.19701
615.133	12.75663
615.328	16.13582
615.523	14.73394
615.717	18.22747
615.912	12.64079
616.107	14.45681
616.301	13.6988
616.496	13.56121
616.691	16.2064
616.885	15.37834
617.08	18.26543
617.274	15.42925
617.469	17.06357
617.664	15.0201
617.858	13.64048
618.053	14.80003
618.247	14.20548
618.442	11.23691
618.636	16.60579
618.831	13.22221
619.025	13.20092
619.219	18.16128
619.414	9.95991
619.608	14.00006
619.803	13.78496
619.997	17.25245
620.191	16.03953
620.386	14.63948
620.58	14.35096
620.774	12.03244
620.969	12.29058
621.163	14.34185
621.357	12.95418
621.551	14.14657
621.746	14.24168
621.94	13.86915
622.134	19.34597
622.328	17.20891
622.522	12.4852
622.716	15.43719
622.911	16.3957
623.105	16.04751
623.299	15.21682
623.493	18.7534
623.687	13.03994
623.881	13.7371
624.075	14.90591
624.269	16.33318
624.463	11.48778
624.657	12.26004
624.851	15.12362
625.045	15.75131
625.239	16.08989
625.433	14.42536
625.627	16.46621
625.821	13.39383
626.015	13.52187
626.209	14.6645
626.403	12.32362
626.596	15.23542
626.79	15.73771
626.984	13.13836
627.178	15.17034
627.372	15.3412
627.565	15.74993
627.759	12.81915
627.953	12.91164
628.147	15.30154
628.34	15.51151
628.534	17.4289
628.728	14.44604
628.921	15.81213
629.115	15.30801
629.309	15.95274
629.502	16.08863
629.696	14.3245
629.89	14.26622
630.083	14.95241
630.277	15.28179
630.47	16.8621
630.664	14.61995
630.857	11.99544
631.051	15.40196
631.244	15.90554
631.438	15.71964
631.631	13.62282
631.825	17.10833
632.018	15.4893
632.212	17.65836
632.405	16.69808
632.598	13.19714
632.792	14.76326
632.985	10.92147
633.178	13.99384
633.372	13.91341
633.565	14.07268
633.758	17.12908
633.952	13.20627
634.145	13.03099
634.338	14.11602
634.531	13.70788
634.724	13.99043
634.918	14.51938
635.111	14.41421
635.304	13.94582
635.497	18.13196
635.69	14.97829
635.883	16.77448
636.077	13.25039
636.27	15.19649
636.463	15.21125
636.656	15.27075
636.849	14.25751
637.042	15.76682
637.235	16.93201
637.428	16.17435
637.621	16.20489
637.814	17.12503
638.007	17.13951
638.2	16.88023
638.393	17.67867
638.586	12.22686
638.778	14.02192
638.971	14.35787
639.164	17.56196
639.357	15.10317
639.55	17.42029
639.743	16.05906
639.935	15.06077
640.128	17.80186
640.321	16.06321
640.514	15.81319
640.707	18.93012
640.899	16.06708
641.092	11.48673
641.285	28.6058
641.477	11.2878
641.67	19.32199
641.863	17.20529
642.055	15.47433
642.248	14.69853
642.441	13.74859
642.633	16.51064
642.826	17.36347
643.018	17.43977
643.211	19.07626
643.403	18.58877
643.596	19.67412
643.788	18.54664
643.981	15.07048
644.173	17.02784
644.366	15.12164
644.558	11.5405
644.751	17.84444
644.943	12.69354
645.135	18.48254
645.328	18.43018
645.52	16.35412
645.712	17.00088
645.905	21.67009
646.097	13.58847
646.289	15.59833
646.482	19.94992
646.674	14.48793
646.866	18.20074
647.058	16.19389
647.251	13.19575
647.443	14.39387
647.635	15.76293
647.827	12.9213
648.019	14.44547
648.211	15.34384
648.404	15.24303
648.596	19.31942
648.788	16.05057
648.98	15.90406
649.172	16.4044
649.364	16.41733
649.556	12.18789
649.748	22.22924
649.94	13.95871
650.132	16.4727
650.324	13.54736
650.516	14.90462
650.708	18.49227
650.9	12.59691
651.092	14.83945
651.284	12.84453
651.476	13.84815
651.667	17.09676
651.859	18.16603
652.051	15.17071
652.243	16.00558
652.435	14.96934
652.627	17.10614
652.818	16.64462
653.01	12.12157
653.202	13.71775
653.394	14.88685
653.585	17.14122
653.777	25.81827
653.969	18.53435
654.16	17.95748
654.352	13.32813
654.544	14.86789
654.735	17.67453
654.927	16.70694
655.118	18.88444
655.31	17.01504
655.502	18.32812
655.693	15.2369
655.885	17.64195
656.076	18.16697
656.268	16.46571
656.459	19.32051
656.651	18.49271
656.842	15.3985
657.034	14.06816
657.225	17.82284
657.416	18.94803
657.608	19.19509
657.799	15.91505
657.99	18.89309
658.182	14.88998
658.373	15.11822
658.564	17.24231
658.756	16.20801
658.947	15.49147
659.138	14.082
659.33	15.21504
659.521	14.82702
659.712	15.94733
659.903	15.74434
660.094	15.10111
660.286	13.12166
660.477	19.96446
660.668	17.3534
660.859	15.83345
661.05	12.89227
661.241	17.65323
661.432	17.20011
661.623	15.59503
661.814	15.26106
662.006	12.84972
662.197	16.64016
662.388	18.6932
662.579	16.6773
662.77	21.53671
662.96	22.64838
663.151	17.93225
663.342	12.53864
663.533	17.83354
663.724	16.44447
663.915	20.53707
664.106	15.79545
664.297	21.08642
664.488	18.60079
664.678	14.61504
664.869	18.62953
665.06	19.5569
665.251	17.04208
665.442	17.39319
665.632	13.70809
665.823	20.37652
666.014	9.22547
666.204	18.7425
666.395	19.62469
666.586	23.34962
666.776	18.87515
666.967	20.66235
667.158	16.97526
667.348	20.01684
667.539	14.64128
667.729	18.53631
667.92	15.11948
668.111	19.33659
668.301	18.15257
668.492	16.2815
668.682	17.73537
668.873	16.42962
669.063	13.60592
669.253	17.88393
669.444	18.71834
669.634	16.48096
669.825	22.04925
670.015	20.21771
670.206	13.92212
670.396	21.84194
670.586	16.44568
670.777	17.87567
670.967	12.15823
671.157	15.36544
671.347	15.14762
671.538	20.5173
671.728	18.37714
671.918	22.93795
672.108	19.25812
672.299	16.44197
672.489	17.94238
672.679	15.35988
672.869	18.06533
673.059	22.47182
673.249	18.76669
673.44	13.88499
673.63	16.89962
673.82	19.90718
674.01	14.85413
674.2	18.24229
674.39	25.25588
674.58	20.01633
674.77	17.80628
674.96	16.75202
675.15	28.49818
675.34	21.0585
675.53	17.86254
675.72	17.12861
675.91	13.51313
676.099	22.48288
676.289	23.1878
676.479	20.13028
676.669	16.06873
676.859	18.80856
677.049	14.71622
677.238	17.45588
677.428	23.17905
677.618	19.3909
677.808	20.9831
677.997	20.41731
678.187	14.8754
678.377	17.7266
678.567	16.48472
678.756	16.22128
678.946	17.76069
679.136	13.95501
679.325	16.50466
679.515	15.06784
679.704	14.49585
679.894	19.42236
680.084	18.4198
680.273	20.42156
680.463	16.22865
680.652	15.27781
680.842	17.48376
681.031	20.15448
681.221	15.5002
681.41	19.4232
681.6	17.67645
681.789	19.86552
681.978	21.30057
682.168	18.82859
682.357	18.35015
682.547	19.43425
682.736	19.44763
682.925	21.37379
683.115	21.37066
683.304	20.48017
683.493	19.62727
683.682	19.07099
683.872	19.45227
684.061	21.76816
684.25	19.58415
684.439	23.62775
684.629	20.44596
684.818	29.38368
685.007	18.38382
685.196	17.31428
685.385	23.87181
685.574	19.24821
685.763	21.17471
685.952	20.04997
686.142	15.66144
686.331	23.00393
686.52	13.09663
686.709	23.71168
686.898	23.32691
687.087	20.82383
687.276	24.1895
687.465	22.66579
687.654	19.65839
687.842	24.54072
688.031	16.47171
688.22	23.67601
688.409	20.0743
688.598	19.7249
688.787	28.22234
688.976	20.19593
689.165	26.6084
689.353	18.93429
689.542	21.70552
689.731	21.22486
689.92	25.0969
690.108	23.10537
690.297	18.62932
690.486	19.29414
690.675	23.13517
690.863	25.86374
691.052	25.41226
691.241	21.68879
691.429	20.80966
691.618	26.45675
691.806	16.65611
691.995	18.19003
692.184	19.8481
692.372	19.70047
692.561	21.31491
692.749	20.25477
692.938	29.5771
693.126	23.09534
693.315	20.29284
693.503	23.1807
693.692	22.2143
693.88	24.93161
694.068	28.75666
694.257	20.14118
694.445	22.34331
694.634	12.17599
694.822	24.82391
695.01	25.87865
695.199	25.50251
695.387	26.47787
695.575	24.42504
695.763	21.04145
695.952	18.4115
696.14	15.82107
696.328	19.16078
696.516	21.20064
696.705	22.65737
696.893	21.3057
697.081	14.06298
697.269	23.25592
697.457	17.15028
697.645	17.39131
697.833	23.08475
698.021	18.63481
698.21	19.69617
698.398	19.8315
698.586	17.04662
698.774	17.33857
698.962	19.09882
699.15	17.78094
699.338	15.98721
699.526	21.62553
699.714	18.7226
699.901	18.52061
700.089	24.04338
700.277	18.16881
700.465	20.20703
700.653	23.62387
700.841	22.47328
701.029	18.20344
701.217	25.31282
701.404	22.11021
701.592	26.44558
701.78	27.88959
701.968	19.85859
702.155	20.48984
702.343	16.13012
702.531	25.88276
702.718	22.23225
702.906	20.81098
703.094	18.70645
703.281	26.62573
703.469	22.2167
703.657	26.31894
703.844	33.90686
704.032	29.18751
704.219	18.67773
704.407	23.6001
704.595	27.10744
704.782	22.15845
704.97	20.0999
705.157	21.16192
705.345	27.30377
705.532	32.82762
705.719	23.52991
705.907	27.63551
706.094	22.83936
706.282	29.39259
706.469	20.80377
706.656	22.81782
706.844	20.95108
707.031	25.93186
707.218	22.96089
707.406	29.30642
707.593	26.87686
707.78	25.31634
707.968	21.97456
708.155	19.36351
708.342	25.13915
708.529	24.02147
708.716	24.29045
708.904	31.55359
709.091	26.71761
709.278	19.15937
709.465	32.35111
709.652	31.22275
709.839	28.13581
710.026	24.87768
710.213	17.15668
710.4	25.94762
710.587	27.80389
710.774	27.97089
710.961	28.33943
711.148	23.70195
711.335	29.07723
711.522	22.02834
711.709	25.9912
711.896	33.72183
712.083	27.91475
712.27	20.49909
712.457	25.20279
712.644	17.7497
712.831	33.88679
713.017	24.74242
713.204	26.79406
713.391	22.04193
713.578	29.30446
713.765	31.09128
713.951	27.00971
714.138	39.4168
714.325	28.38637
714.512	24.99729
714.698	20.76582
714.885	32.30569
715.072	26.36927
715.258	26.19943
715.445	23.02111
715.631	31.96347
715.818	14.39261
716.005	22.77884
716.191	28.00082
716.378	22.97111
716.564	29.64991
716.751	21.11815
716.937	22.95823
717.124	30.34446
717.31	21.05285
717.497	32.1703
717.683	22.74156
717.869	36.34449
718.056	23.95622
718.242	29.01727
718.429	24.78059
718.615	20.29016
718.801	26.98075
718.988	30.82766
719.174	27.7052
719.36	26.32728
719.547	31.35047
719.733	28.87491
719.919	26.98429
720.105	30.78928
720.291	26.48011
720.478	26.11182
720.664	27.22391
720.85	24.16694
721.036	41.67185
721.222	35.03179
721.408	27.91024
721.595	37.55858
721.781	36.28004
721.967	32.33769
722.153	37.41161
722.339	30.31305
722.525	28.84285
722.711	22.37866
722.897	21.81194
723.083	24.69522
723.269	34.03468
723.455	41.52705
723.641	43.33395
723.827	28.11711
724.012	30.63316
724.198	25.58979
724.384	36.73247
724.57	29.92121
724.756	19.94747
724.942	17.33958
725.127	32.9713
725.313	34.99371
725.499	36.72984
725.685	38.039
725.87	29.23981
726.056	23.75616
726.242	37.41646
726.428	19.26173
726.613	34.12127
726.799	25.32371
726.985	23.24426
727.17	19.47709
727.356	36.95113
727.541	22.60315
727.727	27.38305
727.913	32.44014
728.098	25.12192
728.284	32.7554
728.469	21.56183
728.655	23.01826
728.84	33.00084
729.026	34.06433
729.211	32.09139
729.397	31.58399
729.582	32.56173
729.767	28.01249
729.953	31.33366
730.138	34.61928
730.323	17.4476
730.509	22.52717
730.694	38.66662
730.879	32.33896
731.065	29.08461
731.25	41.52685
731.435	32.1752
731.621	20.46341
731.806	25.88464
731.991	29.61757
732.176	21.46287
732.361	37.82704
732.547	32.2327
732.732	20.27848
732.917	43.10153
733.102	22.12097
733.287	23.08663
733.472	28.5573
733.657	30.19046
733.842	20.45195
734.027	26.14074
734.212	28.65928
734.397	24.49314
734.582	30.91921
734.767	33.76351
734.952	37.72717
735.137	13.4185
735.322	37.0946
735.507	30.41283
735.692	31.39388
735.877	44.10502
736.062	42.34722
736.247	31.20924
736.431	26.39655
736.616	35.94923
736.801	30.40943
736.986	28.46467
737.171	24.10224
737.355	19.42954
737.54	36.96725
737.725	29.1746
737.909	47.71739
738.094	25.93476
738.279	35.45253
738.463	27.39181
738.648	32.50883
738.833	32.6127
739.017	41.45181
739.202	28.27532
739.386	29.04783
739.571	22.06911
739.756	34.18087
739.94	30.44222
740.125	34.1389
740.309	24.24748
740.494	34.4001
740.678	30.20235
740.863	35.02337
741.047	31.44488
741.231	38.15263
741.416	24.96334
741.6	40.30761
741.785	23.69392
741.969	36.12087
742.153	37.00974
742.338	17.11984
742.522	30.55932
742.706	35.05381
742.89	20.75309
743.075	30.18978
743.259	39.36801
743.443	35.3971
743.627	38.96969
743.812	46.25197
743.996	14.30703
744.18	28.81557
744.364	27.40168
744.548	48.04583
744.732	29.84736
744.916	36.30873
745.1	36.18776
745.285	30.60582
745.469	35.57957
745.653	46.39105
745.837	18.97643
746.021	49.01541
746.205	41.49158
746.389	30.51916
746.573	31.24836
746.757	44.9504
746.94	30.69701
747.124	39.97351
747.308	22.96298
747.492	39.43872
747.676	26.1272
747.86	51.00315
748.044	28.14076
748.227	17.57424
748.411	59.1889
748.595	33.45826
748.779	23.74312
748.963	34.33954
749.146	34.70318
749.33	28.14685
749.514	23.02628
749.697	38.98804
749.881	28.87454
750.065	21.87891
750.248	34.30234
750.432	51.35042
750.616	34.9741
750.799	21.30033
750.983	48.28609
751.166	51.65878
751.35	18.51778
751.533	39.90889
751.717	39.90665
751.9	43.56024
752.084	27.47772
752.267	21.7604
752.451	28.11335
752.634	33.07461
752.818	35.73468
753.001	38.44853
753.184	40.02689
753.368	36.26582
753.551	7.74742
753.734	24.67703
753.918	49.58998
754.101	26.24712
754.284	36.93451
754.467	29.62856
754.651	27.8141
754.834	26.56335
755.017	41.32234
755.2	42.40283
755.384	25.00528
755.567	40.42354
755.75	40.93695
755.933	30.85093
756.116	32.98788
756.299	26.37797
756.482	25.17331
756.665	35.93649
756.848	31.94232
757.032	37.09132
757.215	18.87425
757.398	23.70543
757.581	25.69889
757.764	55.88423
757.947	28.99393
758.129	42.78977
758.312	10.94898
758.495	30.35737
758.678	32.84996
758.861	30.35749
759.044	48.56097
759.227	27.46445
759.41	27.1608
759.592	39.58502
759.775	31.11553
759.958	41.66014
760.141	23.16002
760.324	52.50258
760.506	44.78295
760.689	38.80859
760.872	52.23299
761.054	36.52124
761.237	28.98196
761.42	36.18087
761.602	40.18021
761.785	35.00369
761.968	43.19978
762.15	47.84384
762.333	32.72829
762.515	37.94891
762.698	28.71448
762.88	39.12161
763.063	34.67604
763.245	37.79515
763.428	25.07725
763.61	26.51412
763.793	23.62099
763.975	33.93777
764.158	28.8614
764.34	28.01771
764.522	26.63364
764.705	31.60258
764.887	43.77949
765.069	21.30292
765.252	38.26584
765.434	38.80819
765.616	31.84015
765.799	28.09397
765.981	37.40829
766.163	27.92397
766.345	40.73451
766.528	24.45502
766.71	15.51162
766.892	34.56868
767.074	43.73829
767.256	32.32275
767.438	49.55341
767.62	37.17709
767.802	52.6209
767.985	39.09106
768.167	51.29009
768.349	28.38911
768.531	38.06088
768.713	36.35046
768.895	41.57209
769.077	34.50565
769.259	62.80454
769.441	83.18076
769.623	45.17393
769.804	49.7789
769.986	50.12736
770.168	58.60914
770.35	70.77725
770.532	57.53489
770.714	57.01645
770.896	60.86626
771.077	25.1007
771.259	62.54198
771.441	49.80177
771.623	66.72024
771.804	79.75921
771.986	23.5414
772.168	39.78728
772.35	64.93013
772.531	84.84937
772.713	50.9836
772.894	67.24808
773.076	48.37189
773.258	38.16609
773.439	68.35041
773.621	73.32554
773.802	35.2808
773.984	44.28396
774.166	52.92823
774.347	73.24728
774.529	63.421
774.71	17.90245
774.891	45.70608
775.073	41.88004
775.254	73.1431
775.436	36.68218
775.617	78.51538
775.799	38.03545
775.98	77.15587
776.161	77.45925
776.343	75.38342
776.524	50.28757
776.705	44.74619
776.886	24.63546
777.068	57.53261
777.249	91.5248
777.43	85.85869
777.611	31.50739
777.793	48.31093
777.974	75.53054
778.155	45.1316
778.336	30.64673
778.517	83.17829
778.698	40.2383
778.879	24.28572
779.061	8.80425
779.242	57.27721
779.423	57.45369
779.604	42.38175
779.785	46.16114
779.966	55.40347
780.147	65.94791
780.328	70.98298
780.509	90.88873
780.69	60.48527
780.871	41.3284
781.051	28.527
781.232	54.89265
781.413	48.56766
781.594	45.60137
781.775	41.4627
781.956	39.26756
782.137	22.27922
782.317	37.69045
782.498	50.64139
782.679	54.88334
782.86	51.11818
783.04	41.576
783.221	54.7178
783.402	84.82322
783.583	49.4905
783.763	59.72522
783.944	41.92116
784.124	27.03288
784.305	77.90794
784.486	56.54833
784.666	47.69573
784.847	28.25502
785.027	91.80113
785.208	37.93277
785.388	40.21822
785.569	44.82137
785.749	46.21022
785.93	44.28073
786.11	25.13125
786.291	53.15684
786.471	48.92994
786.652	60.85673
786.832	47.02394
787.012	55.19592
787.193	29.60137
787.373	55.00823
787.553	44.51346
787.734	53.00961
787.914	44.07978
788.094	57.84886
788.275	55.71196
788.455	45.14515
788.635	33.37922
788.815	53.49014
788.995	35.30881
789.176	31.00584
789.356	37.15731
789.536	45.21999
789.716	59.13128
789.896	36.61003
790.076	39.84604
790.256	52.82811
790.436	15.92318
790.616	32.96627
790.796	56.79704
790.976	42.46325
791.156	37.92821
791.336	62.52622
791.516	54.3551
791.696	48.75667
791.876	28.44581
792.056	53.01952
792.236	63.1867
792.416	60.15853
792.596	59.99477
792.776	56.48057
792.956	53.977
793.135	73.84153
793.315	30.50645
793.495	72.46444
793.675	57.38732
793.854	58.52919
794.034	65.62341
794.214	34.69642
794.394	65.29554
794.573	69.40885
794.753	48.97179
794.933	36.31773
795.112	51.21559
795.292	61.0533
795.472	77.34321
795.651	30.86656
795.831	48.56703
796.01	44.20701
796.19	43.11891
796.369	49.22655
796.549	56.74845
796.728	49.5651
796.908	29.96888
797.087	33.0749
797.267	43.89746
797.446	30.56184
797.626	55.09377
797.805	55.80941
797.984	38.91283
798.164	58.99323
798.343	37.77814
798.522	51.60173
798.702	52.4703
798.881	27.95051
799.06	44.92648
799.239	19.21404
799.419	36.33699
799.598	75.25765
799.777	56.57994
799.956	69.45251
800.136	44.96131
800.315	38.81756
800.494	54.72872
800.673	65.50168
800.852	60.22473
801.031	68.22469
801.21	63.52118
801.389	43.96922
801.568	51.8591
801.747	81.06977
801.926	47.38923
802.105	71.63918
802.284	44.03823
802.463	76.76832
802.642	52.46963
802.821	52.97411
803	71.90047
803.179	62.19402
803.358	72.01427
803.537	40.2695
803.716	55.18241
803.895	37.38855
804.073	47.25248
804.252	35.10055
804.431	59.45761
804.61	49.0626
804.789	67.78124
804.967	41.08255
805.146	44.11496
805.325	88.69698
805.503	58.28619
805.682	29.19069
805.861	93.99874
806.039	70.73521
806.218	40.65607
806.397	52.99798
806.575	51.09411
806.754	55.88261
806.932	34.25426
807.111	79.485
807.289	67.69435
807.468	48.15087
807.646	68.59856
807.825	58.50908
808.003	51.33868
808.182	66.41028
808.36	56.23998
808.539	38.46357
808.717	77.56758
808.895	41.411
809.074	56.64435
809.252	48.48496
809.43	67.87963
809.609	76.55322
809.787	81.77317
809.965	50.82411
810.144	54.11097
810.322	44.93671
810.5	66.29725
810.678	51.72912
810.856	95.57169
811.035	70.94653
811.213	71.7171
811.391	72.03235
811.569	58.50286
811.747	113.1492
811.925	76.15979
812.103	41.1853
812.281	49.76361
812.459	91.92901
812.637	91.75702
812.816	71.8389
812.994	95.80687
813.171	79.31476
813.349	64.6747
813.527	79.40484
813.705	81.04996
813.883	101.7319
814.061	74.40756
814.239	91.35719
814.417	105.40766
814.595	66.26428
814.773	66.93097
814.95	61.52951
815.128	63.33278
815.306	59.72291
815.484	56.50398
815.662	40.59111
815.839	39.48263
816.017	46.73298
816.195	80.03467
816.372	53.31979
816.55	79.47714
816.728	88.47262
816.905	59.87106
817.083	90.52423
817.261	54.66797
817.438	104.40584
817.616	96.2912
817.793	45.97998
817.971	75.35462
818.148	70.5559
818.326	84.29206
818.503	66.55693
818.681	85.46817
818.858	46.70177
819.036	57.24844
819.213	59.11436
819.391	42.53497
819.568	43.49483
819.745	40.88771
819.923	69.06388
820.1	45.60281
820.277	42.22271
820.455	46.69636
820.632	52.4209
820.809	51.95219
820.986	35.10548
821.164	28.52207
821.341	27.6342
821.518	35.99096
821.695	28.4457
821.872	28.25055
822.05	24.89951
822.227	21.49769
822.404	22.98856
822.581	24.25526
822.758	22.90974
822.935	22.85329
823.112	25.52558
823.289	22.58659
823.466	25.56883
823.643	24.36519
823.82	27.44042
823.997	26.26939
824.174	29.30593
824.351	34.40544
824.528	34.48371
824.705	32.35552
824.882	34.75788
825.059	42.88548
825.236	30.14248
825.412	31.29164
825.589	39.12302
825.766	51.59211
825.943	32.44585
826.12	38.31355
826.296	27.99232
826.473	34.29684
826.65	35.53343
826.827	42.81821
827.003	30.17291
827.18	32.8697
827.357	35.94492
827.533	32.58878
827.71	20.89315
827.887	30.0131
828.063	32.73161
828.24	29.93352
828.416	36.73739
828.593	30.76771
828.769	42.79593
828.946	47.58593
829.122	48.61689
829.299	48.12732
829.475	23.93722
829.652	45.47913
829.828	74.07231
830.005	45.19636
830.181	64.27004
830.357	41.84226
830.534	69.00884
830.71	50.18103
830.886	64.58925
831.063	64.77785
831.239	76.4166
831.415	33.61824
831.592	80.93474
831.768	51.85524
831.944	42.07266
832.12	83.90799
832.296	69.2442
832.473	63.93404
832.649	44.10512
832.825	60.94627
833.001	35.20981
833.177	54.43918
833.353	48.68609
833.529	27.36923
833.705	43.24254
833.881	31.832
834.058	31.70872
834.234	34.85162
834.41	33.69942
834.586	27.93164
834.761	31.54418
834.937	35.37935
835.113	37.19088
835.289	31.42648
835.465	40.75736
835.641	34.16991
835.817	38.69541
835.993	67.98379
836.169	33.63795
836.344	48.72983
836.52	56.94242
836.696	58.22903
836.872	41.97956
837.048	114.948
837.223	41.74538
837.399	97.31019
837.575	76.77446
837.75	68.65877
837.926	108.99452
838.102	159.11216
838.277	112.2978
838.453	163.25067
838.628	160.29002
838.804	53.89987
838.98	155.36506
839.155	69.90045
839.331	104.97828
839.506	74.36028
839.682	70.80567
839.857	87.37818
840.033	99.51147
840.208	53.09953
840.384	25.68274
840.559	47.74873
840.734	76.55477
840.91	105.75114
841.085	67.03223
841.26	68.68275
841.436	61.34991
841.611	59.75086
841.786	98.60879
841.962	125.28982
842.137	82.52872
842.312	48.83401
842.487	73.81105
842.663	70.63424
842.838	83.80864
843.013	251.33855
843.188	126.1794
843.363	109.49393
843.538	230.89983
843.714	230.65559
843.889	229.87978
844.064	201.66281
844.239	167.61049
844.414	254.25633
844.589	172.52036
844.764	274.12894
844.939	289.60651
845.114	264.53744
845.289	311.89475
845.464	361.96016
845.639	263.12632
845.814	151.57286
845.989	176.83116
846.163	188.44408
846.338	274.39077
846.513	324.21968
846.688	225.61905
846.863	223.79255
847.038	171.73752
847.212	216.16081
847.387	234.12345
847.562	235.82854
847.737	303.63346
847.911	138.66145
848.086	153.91974
848.261	374.15851
848.435	185.77221
848.61	294.87959
848.785	169.06121
848.959	303.62412
849.134	303.23926
849.308	641.45477
849.483	235.18171
849.658	363.40515
849.832	198.88264
850.007	127.50212
850.181	496.24738
850.356	252.99027
850.53	409.77
850.705	137.0346
850.879	103.39185
851.053	184.05504
851.228	235.60402
851.402	326.4048
851.577	291.83944
851.751	425.87019
851.925	194.85887
852.099	78.38529
852.274	171.92266
852.448	226.89189
852.622	282.84426
852.797	233.19749
852.971	239.20872
853.145	281.29029
853.319	457.7393
853.493	439.061
853.668	228.81626
853.842	503.4783
854.016	380.48753
854.19	468.02891
854.364	226.25563
854.538	308.65761
854.712	331.21023
854.886	219.24483
855.06	227.42614
855.234	81.89878
855.408	368.07622
855.582	334.90825
855.756	523.07938
855.93	378.67857
856.104	326.08501
856.278	360.7099
856.452	224.18301
856.626	256.33065
856.8	475.28936
856.973	352.82261
857.147	344.38623
857.321	316.88589
857.495	361.06305
857.669	261.82648
857.842	259.86899
858.016	395.06886
858.19	181.6003
858.364	520.60557
858.537	234.81434
858.711	359.07256
858.885	232.12532
859.058	176.12646
859.232	143.3655
859.405	137.21497
859.579	313.02115
859.753	401.69934
859.926	174.14155
860.1	156.90725
860.273	287.80548
860.447	392.84611
860.62	228.06671
860.794	515.30343
860.967	255.37432
861.141	309.90969
861.314	499.0414
861.487	301.30425
861.661	359.78892
861.834	549.47146
862.008	336.4395
862.181	334.1332
862.354	259.46117
862.528	401.38117
862.701	238.0418
862.874	142.55865
863.047	214.15629
863.221	205.36162
863.394	100.9911
863.567	305.10549
863.74	105.10464
863.913	325.412
864.087	291.00444
864.26	361.67881
864.433	236.0221
864.606	508.62752
864.779	307.34054
864.952	110.27844
865.125	265.22913
865.298	288.73605
865.471	309.99731
865.644	447.98546
865.817	360.55982
865.99	388.42693
866.163	419.50593
866.336	172.6345
866.509	316.10229
866.682	252.50753
866.855	459.99426
867.028	134.8788
867.2	262.94219
867.373	79.60321
867.546	252.70401
867.719	508.80996
867.892	340.49533
868.064	168.47786
868.237	260.80201
868.41	288.342
868.583	186.48919
868.755	186.13211
868.928	214.32288
869.101	527.24357
869.273	397.87867
869.446	288.13731
869.619	418.862
869.791	354.99088
869.964	407.67458
870.136	447.90469
870.309	223.43082
870.481	277.71538
870.654	121.37444
870.826	249.13852
870.999	206.44759
871.171	372.97731
871.344	174.49201
871.516	229.39585
871.689	181.52452
871.861	246.13437
872.033	175.77329
872.206	228.59087
872.378	270.02053
872.55	250.76038
872.723	157.38659
872.895	214.57101
873.067	351.84972
873.24	285.39066
873.412	193.97475
873.584	253.21847
873.756	225.22812
873.928	246.44501
874.101	240.64044
874.273	275.10655
874.445	114.05568
874.617	127.77754
874.789	195.78463
874.961	208.71242
875.133	269.51383
875.305	246.24569
875.477	145.4101
875.649	109.07349
875.821	151.71407
875.993	354.36913
876.165	223.56854
876.337	270.23695
876.509	226.01458
876.681	241.36914
876.853	229.51318
877.025	267.52902
877.197	164.99842
877.369	149.01923
877.541	270.76231
877.712	70.44771
877.884	147.26883
878.056	240.49442
878.228	139.51895
878.4	274.91845
878.571	139.24299
878.743	87.19705
878.915	186.72327
879.086	112.53349
879.258	133.75151
879.43	116.88344
879.601	105.82454
879.773	105.1391
879.945	27.19763
880.116	41.93682
880.288	28.42877
880.459	31.96364
880.631	26.79728
880.802	31.76922
880.974	29.67127
881.145	21.2942
881.317	28.92664
881.488	23.10793
881.66	25.63606
881.831	23.51274
882.002	29.49411
882.174	24.11343
882.345	28.53131
882.517	18.71702
882.688	33.94983
882.859	27.12017
883.03	42.72348
883.202	39.50845
883.373	35.38575
883.544	34.67216
883.715	56.58804
883.887	48.27236
884.058	40.4122
884.229	55.31597
884.4	59.67602
884.571	67.16806
884.742	55.89475
884.914	57.18684
885.085	91.98124
885.256	124.60273
885.427	105.98129
885.598	123.97993
885.769	118.77135
885.94	112.98802
886.111	78.74198
886.282	141.56873
886.453	119.19891
886.624	96.18999
886.795	151.36304
886.966	133.99738
887.136	168.75795
887.307	107.97409
887.478	210.77857
887.649	191.46764
887.82	212.65548
887.991	159.50678
888.161	228.37953
888.332	220.99517
888.503	123.12941
888.674	298.25578
888.844	347.07018
889.015	358.46956
889.186	163.58506
889.356	337.46729
889.527	135.94528
889.698	518.84374
889.868	182.8867
890.039	323.48158
890.209	223.67522
890.38	271.67792
890.551	272.26011
890.721	369.59555
890.892	334.60243
891.062	299.28453
891.233	349.42013
891.403	273.61864
891.574	187.60095
891.744	220.12908
891.914	261.04233
892.085	375.31582
892.255	77.28891
892.425	317.63152
892.596	214.03239
892.766	273.13372
892.936	383.94147
893.107	265.16985
893.277	128.66535
893.447	123.14692
893.618	67.85883
893.788	155.22029
893.958	85.6238
894.128	73.27937
894.298	84.06584
894.468	110.76036
894.639	50.96852
894.809	34.80141
894.979	54.37394
895.149	64.0924
895.319	48.45727
895.489	67.17323
895.659	97.90028
895.829	60.33022
895.999	70.95696
896.169	52.36019
896.339	67.06322
896.509	141.27222
896.679	158.29575
896.849	179.37973
897.019	246.68989
897.189	244.36373
897.358	168.8496
897.528	284.9838
897.698	125.69754
897.868	273.03837
898.038	552.34768
898.208	459.26483
898.377	123.65195
898.547	806.71013
898.717	832.91928
898.886	365.73583
899.056	591.14178
899.226	879.86272
899.395	634.99746
899.565	756.36752
899.735	443.19821
899.904	652.37586
900.074	898.72524
900.244	262.74955
900.413	1720.22459
900.583	311.57023
900.752	3671.39457
900.922	611.72569
901.091	122.89617
901.261	759.28995
901.43	545.96986
901.599	701.20308
901.769	1431.44938
901.938	709.49664
902.108	685.3059
902.277	742.7761
902.446	239.33096
902.616	283.28396
902.785	433.96916
902.954	539.1563
903.124	293.64257
903.293	224.00727
903.462	89.04474
903.631	160.63027
903.801	100.24109
903.97	51.0475
904.139	86.45507
904.308	63.65312
904.477	56.60473
904.646	31.49132
904.816	48.88741
904.985	78.80618
905.154	113.64909
