Data from WindowProjectSample3_Transmission__63__00063.txt Node

Date: Sun May 04 11:44:00 EDT 2025
User: jessi
Spectrometer: SR400872
Trigger mode: 0
Integration Time (sec): 5.000050E-1
Scans to average: 20
Electric dark correction enabled: true
Nonlinearity correction enabled: true
Boxcar width: 0
XAxis mode: Wavelengths
Number of Pixels in Spectrum: 3648
>>>>>Begin Spectral Data<<<<<
184.909	-1418.502
185.132	-1275.49852
185.355	-1511.06373
185.578	-1517.20559
185.801	1153.3795
186.024	-1283.13009
186.247	-23754.41815
186.47	-2154.1543
186.693	-4795.79674
186.916	-646.3925
187.139	-958.24076
187.362	-1261.42346
187.585	-1100.06331
187.808	-1263.71717
188.031	668.47308
188.254	-1150.89059
188.476	-916.98358
188.699	-1093.34728
188.922	323.63293
189.145	-1041.95496
189.368	7040.35069
189.591	4034.2287
189.813	-4383.66634
190.036	-1460.40514
190.259	-7757.99364
190.482	-3634.77314
190.705	-2870.12188
190.927	-1886.98534
191.15	-1335.34628
191.373	-3659.72744
191.595	31716.2864
191.818	-3114.8458
192.041	-1218.617
192.263	-1622.74044
192.486	-988.24994
192.709	-1940.19903
192.931	-4906.52188
193.154	-1383.52562
193.377	-1631.49271
193.599	1264.85407
193.822	9267.46051
194.044	-10380.02413
194.267	-3880.16923
194.489	-8.30896
194.712	-1868.40322
194.934	-2628.47413
195.157	-553.96728
195.379	-5316.30826
195.602	-1603.64313
195.824	-2449.5781
196.047	2731.99943
196.269	-1317.66202
196.492	-1410.72818
196.714	-982.6765
196.936	-2110.52301
197.159	-4043.82213
197.381	-1227.86785
197.604	-8065.96605
197.826	-2333.97156
198.048	-2350.04479
198.271	-1552.8539
198.493	-2287.9219
198.715	-3248.98418
198.938	-8979.29357
199.16	-4892.52319
199.382	-1503.2624
199.604	-1649.6657
199.827	-3811.66425
200.049	-20044.81091
200.271	-1173.57484
200.493	-4385.81995
200.715	-1081.12647
200.938	-927.30614
201.16	-962.61079
201.382	-3023.92259
201.604	-3711.66877
201.826	-1249.93217
202.048	-1726.66041
202.27	-1136.85046
202.492	-1574.03853
202.715	-1738.21457
202.937	-4261.29038
203.159	-4830.70839
203.381	6343.7562
203.603	-1447.84086
203.825	5846.87317
204.047	-2822.86948
204.269	3728.58078
204.491	-2442.68765
204.713	-1545.63682
204.935	-1036.84634
205.156	-4297.41362
205.378	-2848.03101
205.6	-1532.69977
205.822	-1649.86851
206.044	1284.66402
206.266	-19850.46738
206.488	-1420.73982
206.71	-3093.30826
206.932	25725.10899
207.153	-1412.87717
207.375	-2789.8047
207.597	-1325.79835
207.819	-1525.3728
208.041	-1324.00475
208.262	-1514.09452
208.484	-2042.18166
208.706	-9944.14023
208.927	-1981.87365
209.149	-10453.07848
209.371	-1356.98503
209.593	1324.08048
209.814	-2492.07511
210.036	536.88317
210.258	-1345.61777
210.479	-3016.88136
210.701	-6353.1658
210.922	-2679.64838
211.144	4133.81246
211.366	-2160.15989
211.587	1692.76731
211.809	-2373.51757
212.03	177696.35008
212.252	543.71551
212.473	-38537.27081
212.695	3397.27992
212.916	-2964.75755
213.138	878.62292
213.359	-1238.06048
213.581	-8785.34109
213.802	-1297.7458
214.024	-5902.07426
214.245	3405.33922
214.466	597.8453
214.688	-2263.22577
214.909	-1890.55438
215.131	-3402.32467
215.352	17667.20448
215.573	-1614.03671
215.795	-4544.98637
216.016	-1849.35751
216.237	1235.44583
216.459	10447.40073
216.68	-1615.00048
216.901	-3744.41802
217.122	18417.0255
217.344	-1796.96509
217.565	-1921.54133
217.786	-2344.96572
218.007	4854.01207
218.228	6578.06567
218.45	-2970.06045
218.671	21963.6326
218.892	-3427.53847
219.113	-7467.65865
219.334	-54.92441
219.555	-14816.8313
219.776	-2334.18228
219.997	-2406.14285
220.219	-2629.67235
220.44	7924.53792
220.661	8759.78578
220.882	-5192.5898
221.103	2473.50375
221.324	7352.15319
221.545	-9577.8552
221.766	-2412.80616
221.987	1128.71284
222.208	1767.04715
222.429	-1611.20965
222.65	246.60298
222.87	811.99878
223.091	3686.04303
223.312	577.79301
223.533	6055.73855
223.754	-4878.19599
223.975	1790.10933
224.196	1190.47035
224.417	6585.41767
224.637	719.95499
224.858	67.74496
225.079	781.51391
225.3	512.61478
225.521	-2145.43685
225.741	619.1791
225.962	626.31859
226.183	128.00677
226.404	1337.89029
226.624	488.3596
226.845	693.24211
227.066	482.56769
227.286	273.04849
227.507	123.512
227.728	105.50741
227.948	204.35007
228.169	63.18527
228.389	72.06469
228.61	44.0866
228.831	56.47992
229.051	5.08519
229.272	34.16082
229.492	48.28071
229.713	14.40454
229.933	34.49641
230.154	29.66937
230.374	49.2434
230.595	36.75245
230.815	23.13817
231.036	36.08965
231.256	-5.14449
231.477	64.39803
231.697	38.20422
231.917	41.56849
232.138	56.35816
232.358	115.69278
232.579	95.49804
232.799	16.62405
233.019	80.5068
233.24	100.99394
233.46	39.55514
233.68	50.03494
233.901	39.40228
234.121	25.20505
234.341	9.7385
234.561	-4.54465
234.782	18.71649
235.002	60.14241
235.222	0.79582
235.442	52.00212
235.662	26.8937
235.883	53.02589
236.103	42.58824
236.323	31.68333
236.543	23.13478
236.763	35.31916
236.983	37.40738
237.203	35.0548
237.423	51.04955
237.643	75.85477
237.864	63.0126
238.084	18.68362
238.304	22.85062
238.524	38.45505
238.744	33.43905
238.964	56.19448
239.184	47.00143
239.404	54.51565
239.624	28.86303
239.843	46.80658
240.063	28.69459
240.283	19.40818
240.503	21.02621
240.723	21.00115
240.943	14.10758
241.163	17.7069
241.383	12.50916
241.603	6.89431
241.822	7.58533
242.042	5.86349
242.262	7.6839
242.482	7.8153
242.702	8.92287
242.921	3.10771
243.141	6.44317
243.361	6.03457
243.581	8.5211
243.8	7.09149
244.02	4.84926
244.24	8.86496
244.459	8.25211
244.679	16.06009
244.899	10.16931
245.118	12.02804
245.338	10.97767
245.558	12.17496
245.777	7.50288
245.997	8.58302
246.216	9.04717
246.436	5.30918
246.655	3.89981
246.875	3.03012
247.094	5.65038
247.314	2.10091
247.533	3.48251
247.753	3.85754
247.972	3.25282
248.192	1.2522
248.411	2.05976
248.631	3.22037
248.85	4.12942
249.07	4.05651
249.289	5.5568
249.508	4.07776
249.728	6.65221
249.947	6.75186
250.166	8.57361
250.386	4.34125
250.605	6.17792
250.824	10.43266
251.044	7.23726
251.263	19.3572
251.482	11.55193
251.701	9.60124
251.921	0.37965
252.14	3.42721
252.359	4.15278
252.578	8.84238
252.798	3.48204
253.017	7.72541
253.236	3.79795
253.455	5.38089
253.674	10.3041
253.893	4.55359
254.112	7.57389
254.331	10.38452
254.551	8.58548
254.77	4.83381
254.989	11.68546
255.208	8.58912
255.427	13.37878
255.646	11.51792
255.865	17.03285
256.084	8.41182
256.303	9.9625
256.522	11.21674
256.741	2.94025
256.96	3.53711
257.179	7.59003
257.397	9.18424
257.616	5.1656
257.835	5.24913
258.054	12.97194
258.273	9.1846
258.492	9.11373
258.711	5.79373
258.93	2.8245
259.148	4.02302
259.367	3.83987
259.586	4.82092
259.805	2.26807
260.023	4.21919
260.242	3.09555
260.461	2.39509
260.68	1.30096
260.898	3.71416
261.117	1.35104
261.336	1.01138
261.554	3.22593
261.773	3.38346
261.992	0.95032
262.21	3.03549
262.429	3.65656
262.648	6.15473
262.866	7.0049
263.085	5.62045
263.303	4.47858
263.522	7.4679
263.74	7.3631
263.959	12.7218
264.178	6.8054
264.396	5.52649
264.615	4.17035
264.833	9.74459
265.051	8.10527
265.27	9.38458
265.488	9.18938
265.707	5.73242
265.925	8.99317
266.144	4.44903
266.362	4.97669
266.58	5.02269
266.799	4.42156
267.017	5.21756
267.235	4.60562
267.454	3.23642
267.672	1.70654
267.89	3.87587
268.109	4.1
268.327	4.10695
268.545	0.97418
268.763	3.69633
268.982	1.62772
269.2	4.26482
269.418	2.9486
269.636	2.37766
269.854	4.06848
270.073	3.01872
270.291	1.97886
270.509	1.76821
270.727	3.92472
270.945	6.22943
271.163	6.13526
271.381	1.60106
271.599	2.79794
271.817	4.38756
272.036	1.70745
272.254	3.12208
272.472	2.16797
272.69	2.28065
272.908	2.34184
273.126	3.44999
273.344	4.72193
273.562	1.6981
273.779	2.44633
273.997	3.76631
274.215	3.69839
274.433	2.67018
274.651	4.039
274.869	3.85834
275.087	2.50333
275.305	3.7319
275.523	2.37322
275.74	2.63843
275.958	4.84122
276.176	6.79927
276.394	2.29599
276.612	2.91677
276.829	2.89531
277.047	2.69043
277.265	2.62287
277.483	3.13437
277.7	3.51083
277.918	3.08812
278.136	5.4953
278.353	2.7506
278.571	1.776
278.789	4.05299
279.006	1.20886
279.224	2.58286
279.442	4.27619
279.659	3.23502
279.877	2.11483
280.094	4.59339
280.312	1.19675
280.529	3.16777
280.747	1.22574
280.964	2.58004
281.182	4.78842
281.399	2.6017
281.617	3.16825
281.834	2.13771
282.052	1.76644
282.269	2.95094
282.487	2.36888
282.704	2.09099
282.921	1.84469
283.139	2.85739
283.356	3.72347
283.574	3.54304
283.791	1.72376
284.008	4.494
284.226	2.71516
284.443	3.05078
284.66	3.69713
284.877	3.18716
285.095	2.07459
285.312	1.56452
285.529	0.94883
285.746	0.87235
285.964	1.88733
286.181	1.33726
286.398	1.78058
286.615	2.46069
286.832	2.36036
287.05	0.75482
287.267	1.74371
287.484	1.78183
287.701	2.35407
287.918	2.29482
288.135	2.38723
288.352	1.0677
288.569	1.32136
288.786	2.3657
289.003	1.77618
289.22	2.73283
289.437	1.5563
289.654	2.47137
289.871	2.5217
290.088	2.54752
290.305	2.04357
290.522	1.78385
290.739	1.90881
290.956	2.64347
291.173	3.16796
291.39	3.00846
291.607	2.11779
291.824	1.78046
292.04	1.31322
292.257	2.66116
292.474	2.89919
292.691	2.01449
292.908	1.07511
293.125	1.63539
293.341	1.15994
293.558	4.27192
293.775	2.06005
293.992	2.20783
294.208	1.05588
294.425	1.5394
294.642	1.98022
294.858	2.90012
295.075	1.01297
295.292	2.07475
295.508	2.59521
295.725	3.60482
295.942	2.22041
296.158	2.05019
296.375	2.75317
296.591	2.33988
296.808	2.51529
297.024	3.00495
297.241	3.19825
297.458	3.50247
297.674	1.87795
297.891	3.22291
298.107	3.22644
298.323	2.78566
298.54	4.29132
298.756	3.21552
298.973	2.64415
299.189	4.79032
299.406	3.58353
299.622	4.83825
299.838	5.1373
300.055	4.69698
300.271	3.45173
300.487	3.7013
300.704	4.01771
300.92	3.65719
301.136	6.40177
301.353	5.46356
301.569	4.87554
301.785	5.08817
302.001	5.50587
302.218	5.27642
302.434	5.70108
302.65	4.29502
302.866	4.86842
303.083	7.13584
303.299	7.20364
303.515	5.49946
303.731	6.02649
303.947	4.58682
304.163	5.3752
304.379	5.81235
304.595	6.06779
304.812	5.31588
305.028	5.30852
305.244	5.55955
305.46	6.35386
305.676	6.66461
305.892	7.12344
306.108	6.65978
306.324	5.94359
306.54	7.43097
306.756	6.42377
306.972	6.35985
307.187	6.32806
307.403	7.10875
307.619	5.77352
307.835	7.03256
308.051	7.23655
308.267	5.58938
308.483	7.44147
308.699	6.78222
308.914	6.51221
309.13	6.6321
309.346	5.55016
309.562	5.91799
309.778	5.69602
309.993	7.04782
310.209	6.99331
310.425	5.91467
310.641	6.87604
310.856	6.34171
311.072	6.22832
311.288	7.01701
311.503	7.31265
311.719	5.92704
311.935	6.09897
312.15	7.58274
312.366	7.42131
312.581	7.63407
312.797	7.31607
313.013	7.77787
313.228	6.71715
313.444	6.92487
313.659	6.45516
313.875	7.22652
314.09	6.87429
314.306	8.01208
314.521	7.55762
314.737	7.63951
314.952	7.17821
315.168	7.30138
315.383	7.46123
315.599	6.83053
315.814	7.03887
316.029	7.82615
316.245	6.47552
316.46	5.70175
316.675	7.99349
316.891	8.52292
317.106	9.44114
317.321	7.31241
317.537	7.6327
317.752	7.83995
317.967	7.8385
318.183	6.63586
318.398	6.97246
318.613	7.92035
318.828	8.30721
319.043	7.75222
319.259	7.05481
319.474	7.27068
319.689	8.12283
319.904	5.88991
320.119	8.12506
320.334	7.3822
320.549	7.24089
320.765	8.04667
320.98	7.63795
321.195	7.68968
321.41	7.32318
321.625	7.86531
321.84	8.73992
322.055	8.52997
322.27	7.03464
322.485	6.2625
322.7	7.74481
322.915	8.05464
323.13	7.08889
323.345	8.71621
323.56	7.98279
323.775	8.0973
323.989	8.01495
324.204	7.76802
324.419	8.32001
324.634	6.75278
324.849	7.74308
325.064	9.20578
325.279	8.56633
325.493	7.94565
325.708	8.43894
325.923	7.18644
326.138	7.55946
326.352	8.96038
326.567	8.40747
326.782	7.50678
326.997	7.52896
327.211	8.26217
327.426	8.04445
327.641	7.7655
327.855	6.7133
328.07	8.31103
328.285	9.36346
328.499	7.56184
328.714	8.05083
328.928	8.13594
329.143	7.78629
329.358	8.80713
329.572	8.55305
329.787	8.98208
330.001	9.86972
330.216	6.69447
330.43	9.57375
330.645	8.83269
330.859	8.54133
331.074	6.98526
331.288	7.86947
331.503	9.33723
331.717	7.08918
331.931	7.84205
332.146	8.23343
332.36	9.60998
332.575	8.35575
332.789	7.94853
333.003	8.07638
333.218	8.36027
333.432	7.6252
333.646	8.74971
333.86	9.48472
334.075	9.4198
334.289	7.64232
334.503	6.90669
334.717	8.65852
334.932	8.29624
335.146	8.71043
335.36	7.58566
335.574	8.88131
335.788	8.71851
336.003	8.96562
336.217	9.00466
336.431	8.29869
336.645	7.67426
336.859	7.22254
337.073	7.96884
337.287	8.2217
337.501	7.05589
337.715	8.57532
337.929	8.49645
338.143	7.52109
338.357	8.18952
338.571	8.16446
338.785	9.23318
338.999	8.1067
339.213	8.18818
339.427	7.60819
339.641	9.47079
339.855	8.06621
340.069	7.75613
340.283	9.23183
340.497	9.45148
340.711	8.96887
340.924	8.51061
341.138	7.80169
341.352	7.45918
341.566	8.51145
341.78	7.3512
341.993	8.00202
342.207	7.9737
342.421	8.94255
342.635	8.35538
342.848	8.21484
343.062	6.75448
343.276	8.16006
343.49	9.90708
343.703	8.05968
343.917	9.23375
344.131	9.51652
344.344	7.99649
344.558	8.37303
344.771	7.70806
344.985	9.40268
345.199	10.02824
345.412	8.76188
345.626	9.11666
345.839	7.65541
346.053	8.05374
346.266	8.17439
346.48	9.12084
346.693	9.06616
346.907	9.03341
347.12	8.05011
347.334	8.67097
347.547	9.05062
347.76	8.59915
347.974	9.46145
348.187	8.79505
348.401	8.58382
348.614	7.90046
348.827	8.63281
349.041	8.90335
349.254	7.40943
349.467	8.51981
349.681	8.15346
349.894	8.00688
350.107	9.49998
350.32	10.25494
350.534	7.73424
350.747	8.64741
350.96	8.3452
351.173	8.33157
351.386	8.63911
351.6	8.31694
351.813	8.76147
352.026	8.65998
352.239	8.29504
352.452	8.5879
352.665	9.87086
352.878	8.64988
353.092	10.49151
353.305	9.52232
353.518	9.0828
353.731	8.21251
353.944	9.58306
354.157	8.67269
354.37	8.81234
354.583	8.26451
354.796	8.22142
355.009	9.78616
355.222	9.34945
355.435	9.16479
355.647	9.9983
355.86	8.78154
356.073	9.37393
356.286	8.94367
356.499	9.92876
356.712	9.72922
356.925	9.66962
357.138	10.06296
357.35	8.89204
357.563	9.13477
357.776	9.63372
357.989	9.68211
358.201	10.00051
358.414	9.9285
358.627	10.35549
358.84	9.46114
359.052	8.88948
359.265	9.07202
359.478	10.12969
359.69	7.98992
359.903	10.24437
360.116	10.25854
360.328	8.76419
360.541	10.17281
360.753	9.39254
360.966	9.54713
361.179	9.70006
361.391	9.81172
361.604	10.06357
361.816	10.54156
362.029	10.45229
362.241	10.09347
362.454	10.20335
362.666	9.67263
362.879	10.40542
363.091	9.88543
363.304	9.80881
363.516	9.90155
363.728	9.4244
363.941	10.31793
364.153	10.27942
364.366	8.81952
364.578	9.45703
364.79	10.23954
365.003	10.25107
365.215	9.80283
365.427	10.52286
365.639	10.78778
365.852	10.22546
366.064	11.10115
366.276	9.98878
366.488	10.33227
366.701	10.0887
366.913	10.00591
367.125	10.31806
367.337	9.94384
367.549	10.05581
367.762	10.19248
367.974	10.40288
368.186	10.23426
368.398	10.92505
368.61	10.63497
368.822	10.87677
369.034	10.12788
369.246	11.0186
369.458	12.04379
369.67	9.87096
369.882	11.52104
370.094	9.29557
370.306	11.24251
370.518	10.24636
370.73	10.28005
370.942	10.28131
371.154	10.59762
371.366	10.56745
371.578	11.1996
371.79	10.75676
372.002	11.518
372.214	12.23388
372.425	10.91784
372.637	12.09191
372.849	11.27054
373.061	9.76556
373.273	11.37408
373.484	11.27389
373.696	11.45557
373.908	9.63281
374.12	11.62543
374.331	11.44641
374.543	10.56353
374.755	10.43343
374.967	11.15493
375.178	11.82938
375.39	10.93396
375.602	11.36236
375.813	10.34023
376.025	10.76653
376.236	11.29678
376.448	11.47846
376.66	11.4187
376.871	11.41972
377.083	11.96161
377.294	12.50074
377.506	11.41065
377.717	12.47069
377.929	11.8792
378.14	11.50393
378.352	12.09331
378.563	12.23816
378.775	12.58175
378.986	11.38696
379.197	12.1569
379.409	11.42864
379.62	12.20783
379.832	11.93364
380.043	11.79428
380.254	12.13515
380.466	11.243
380.677	13.61539
380.888	13.29835
381.1	13.87562
381.311	13.8156
381.522	12.32765
381.733	14.0178
381.945	12.19994
382.156	12.12468
382.367	12.01201
382.578	13.89636
382.789	14.13327
383.001	11.88442
383.212	13.69677
383.423	13.51477
383.634	13.22401
383.845	13.00079
384.056	12.37323
384.267	12.66348
384.478	12.69883
384.69	12.16614
384.901	13.1447
385.112	13.02014
385.323	14.01829
385.534	13.09935
385.745	13.09439
385.956	13.34722
386.167	12.44451
386.378	13.40729
386.588	12.63406
386.799	12.57404
387.01	12.24266
387.221	13.71501
387.432	13.29999
387.643	14.26152
387.854	13.1069
388.065	13.09223
388.275	13.19912
388.486	12.95317
388.697	13.36598
388.908	13.0834
389.119	14.04066
389.329	14.31534
389.54	13.57352
389.751	13.72447
389.962	14.34196
390.172	13.61764
390.383	13.52105
390.594	13.09024
390.804	13.24381
391.015	13.45913
391.226	13.81678
391.436	14.25684
391.647	14.12768
391.858	14.23051
392.068	13.06804
392.279	13.48231
392.489	14.28518
392.7	14.61387
392.91	13.61686
393.121	13.66454
393.331	14.40782
393.542	14.82178
393.752	14.67931
393.963	14.40149
394.173	14.38671
394.384	14.67218
394.594	14.35332
394.804	13.72254
395.015	14.38967
395.225	14.86679
395.436	13.93794
395.646	14.71389
395.856	14.2286
396.067	13.65935
396.277	15.08688
396.487	14.75714
396.697	14.79618
396.908	15.01195
397.118	14.85472
397.328	14.67239
397.538	15.17723
397.749	14.26782
397.959	15.32089
398.169	14.97427
398.379	13.99477
398.589	15.04892
398.8	14.92033
399.01	15.01497
399.22	14.69187
399.43	16.0875
399.64	14.90764
399.85	15.16089
400.06	15.04061
400.27	14.61648
400.48	14.90165
400.69	15.65213
400.9	14.67541
401.11	14.44441
401.32	15.52179
401.53	14.76891
401.74	15.97863
401.95	15.30658
402.16	14.86303
402.37	15.52434
402.58	14.99325
402.79	15.46449
403	15.6824
403.209	14.84649
403.419	15.81376
403.629	15.02848
403.839	15.92608
404.049	15.90378
404.258	15.22649
404.468	15.09104
404.678	15.92149
404.888	16.08565
405.097	15.4376
405.307	15.53795
405.517	15.9907
405.727	15.85609
405.936	15.51917
406.146	15.89349
406.356	16.39317
406.565	15.70565
406.775	15.54962
406.984	15.55429
407.194	16.83473
407.404	15.73079
407.613	15.99529
407.823	16.16976
408.032	16.61059
408.242	16.34865
408.451	15.47604
408.661	15.84015
408.87	16.8304
409.08	15.48889
409.289	16.13916
409.499	15.99794
409.708	15.99859
409.918	14.91174
410.127	16.08247
410.336	16.89432
410.546	16.45732
410.755	15.91991
410.964	15.96649
411.174	15.79174
411.383	16.45872
411.592	16.4151
411.802	15.86588
412.011	16.64792
412.22	16.17173
412.429	17.0699
412.639	16.96652
412.848	16.92555
413.057	17.21855
413.266	16.85829
413.475	16.40811
413.685	16.7595
413.894	16.88076
414.103	16.91795
414.312	16.70517
414.521	16.25425
414.73	16.45507
414.939	17.34798
415.148	16.88299
415.357	16.64116
415.566	16.46016
415.776	16.51616
415.985	16.4676
416.194	17.05641
416.403	17.79192
416.611	16.22964
416.82	17.01412
417.029	17.6857
417.238	17.94531
417.447	18.23335
417.656	19.5351
417.865	19.91425
418.074	20.36657
418.283	22.12949
418.492	23.41546
418.7	23.19691
418.909	25.65132
419.118	24.59371
419.327	25.14813
419.536	25.35572
419.744	25.82066
419.953	27.60922
420.162	28.4488
420.371	28.25813
420.579	29.81825
420.788	30.8361
420.997	30.89849
421.205	32.04883
421.414	31.33234
421.623	31.66187
421.831	30.99263
422.04	31.40385
422.249	29.90826
422.457	29.93335
422.666	28.56171
422.874	29.69875
423.083	29.87118
423.291	30.04184
423.5	30.48387
423.708	31.36632
423.917	32.14226
424.125	31.55663
424.334	31.43501
424.542	33.58009
424.751	32.92423
424.959	32.15108
425.167	31.54561
425.376	31.23454
425.584	28.75892
425.793	28.25298
426.001	26.69606
426.209	26.0016
426.418	24.19844
426.626	22.81135
426.834	21.89865
427.042	21.38459
427.251	20.53563
427.459	20.98055
427.667	19.37839
427.875	18.0652
428.084	18.19309
428.292	18.38555
428.5	18.14718
428.708	17.26808
428.916	17.29582
429.124	17.7874
429.333	17.59206
429.541	17.60127
429.749	17.8388
429.957	17.86196
430.165	19.07539
430.373	17.1942
430.581	17.91307
430.789	18.57107
430.997	17.75185
431.205	17.73792
431.413	18.48626
431.621	18.30483
431.829	19.29977
432.037	20.09926
432.245	20.19611
432.453	21.08902
432.661	21.39909
432.869	23.13131
433.076	22.33427
433.284	23.1911
433.492	24.23098
433.7	24.40617
433.908	23.44921
434.116	23.85755
434.323	22.80068
434.531	22.76221
434.739	22.08145
434.947	21.72173
435.154	21.21213
435.362	20.03992
435.57	19.70857
435.778	19.47887
435.985	19.55864
436.193	19.35417
436.401	20.49047
436.608	19.35684
436.816	18.7195
437.023	20.72969
437.231	20.66514
437.439	21.04961
437.646	21.12285
437.854	21.04196
438.061	21.29384
438.269	22.09285
438.476	22.39473
438.684	22.73682
438.891	23.83985
439.099	23.87241
439.306	24.00939
439.514	24.51877
439.721	26.54037
439.929	26.65193
440.136	28.03939
440.343	28.33401
440.551	28.27861
440.758	30.19512
440.965	28.34008
441.173	27.98396
441.38	27.80643
441.587	26.54185
441.795	26.3155
442.002	25.32974
442.209	24.7783
442.416	23.83266
442.624	23.25983
442.831	22.61402
443.038	21.67573
443.245	21.22343
443.452	20.85592
443.66	22.24763
443.867	21.81845
444.074	22.08831
444.281	23.27604
444.488	24.00621
444.695	24.69196
444.902	25.67718
445.109	27.72773
445.316	28.30681
445.523	29.49777
445.73	30.42929
445.937	31.81248
446.144	32.72498
446.351	33.5481
446.558	31.93404
446.765	34.95547
446.972	33.0302
447.179	32.64531
447.386	32.79867
447.593	30.17205
447.8	31.22217
448.007	28.27506
448.214	26.86875
448.42	25.84371
448.627	25.51919
448.834	24.39407
449.041	23.71755
449.248	22.8098
449.454	22.10525
449.661	22.12107
449.868	20.26238
450.075	20.13452
450.281	18.70621
450.488	18.65604
450.695	18.62916
450.901	18.82805
451.108	19.05957
451.315	19.62103
451.521	19.25603
451.728	20.75924
451.935	19.57756
452.141	20.34564
452.348	20.77346
452.554	20.32599
452.761	20.67258
452.967	21.68715
453.174	21.07474
453.38	20.83427
453.587	19.67705
453.793	20.43283
454	20.08453
454.206	20.62968
454.413	19.82505
454.619	19.48153
454.825	19.10584
455.032	19.5151
455.238	19.73274
455.445	18.73383
455.651	19.32362
455.857	18.41274
456.064	19.17492
456.27	19.12343
456.476	19.08621
456.682	18.65621
456.889	19.3676
457.095	19.50808
457.301	20.13298
457.507	19.22193
457.714	19.61258
457.92	20.12831
458.126	20.65858
458.332	22.27044
458.538	23.4342
458.744	24.90252
458.951	26.68853
459.157	29.94228
459.363	30.64854
459.569	31.37129
459.775	32.13532
459.981	32.22234
460.187	32.83271
460.393	32.30313
460.599	31.65178
460.805	29.94744
461.011	28.02375
461.217	26.7308
461.423	24.1035
461.629	22.99409
461.835	21.86926
462.041	20.5107
462.247	20.52572
462.453	19.39719
462.658	19.44176
462.864	19.95574
463.07	19.57253
463.276	19.63434
463.482	19.57549
463.688	20.18498
463.893	19.32993
464.099	19.41583
464.305	20.37377
464.511	19.43926
464.716	19.6295
464.922	19.97882
465.128	19.19142
465.333	20.56843
465.539	19.91174
465.745	19.69967
465.95	19.8013
466.156	21.09169
466.362	20.25389
466.567	19.68729
466.773	19.60839
466.978	20.63249
467.184	19.40526
467.389	18.95159
467.595	20.12816
467.8	19.48408
468.006	20.59903
468.211	20.46485
468.417	19.46446
468.622	20.3235
468.828	20.20967
469.033	20.17833
469.239	21.29866
469.444	19.70827
469.649	20.31358
469.855	19.79478
470.06	20.03934
470.266	19.5741
470.471	20.24458
470.676	20.15196
470.881	19.2626
471.087	20.92782
471.292	20.77243
471.497	19.4991
471.703	19.93667
471.908	19.66999
472.113	20.09031
472.318	20.4614
472.523	19.58296
472.729	20.31404
472.934	20.18982
473.139	19.99921
473.344	20.41159
473.549	20.72891
473.754	19.87561
473.959	21.13825
474.164	19.85588
474.369	20.07942
474.575	20.4664
474.78	20.09617
474.985	19.776
475.19	19.21475
475.395	19.71548
475.6	20.09694
475.804	20.6848
476.009	20.09038
476.214	20.03032
476.419	20.00412
476.624	19.33079
476.829	19.93521
477.034	20.83045
477.239	20.48253
477.444	21.04521
477.648	21.59029
477.853	21.72057
478.058	21.30143
478.263	21.38923
478.468	20.86551
478.672	20.86846
478.877	22.38137
479.082	22.02885
479.287	21.66174
479.491	21.1697
479.696	20.82829
479.901	21.65702
480.105	22.36928
480.31	21.87152
480.515	22.5569
480.719	24.94526
480.924	24.25713
481.128	25.07081
481.333	26.56471
481.538	27.57455
481.742	29.11751
481.947	31.61969
482.151	34.38703
482.356	37.40134
482.56	43.46326
482.765	49.26781
482.969	58.21701
483.174	66.19085
483.378	75.49892
483.582	79.18332
483.787	83.18958
483.991	84.86863
484.196	84.5173
484.4	82.62554
484.604	80.60751
484.809	74.21115
485.013	68.32917
485.217	61.33486
485.422	54.48552
485.626	49.69151
485.83	46.88436
486.034	45.93918
486.239	47.51977
486.443	49.67666
486.647	51.95094
486.851	54.87245
487.055	58.43902
487.26	60.23969
487.464	62.42771
487.668	62.27656
487.872	63.54376
488.076	62.4473
488.28	59.97482
488.484	56.10714
488.688	53.47335
488.892	50.25856
489.096	46.03677
489.3	42.52661
489.504	39.54924
489.708	37.58108
489.912	36.6805
490.116	35.98167
490.32	36.698
490.524	40.0327
490.728	43.01911
490.932	46.42807
491.136	49.55934
491.34	52.26305
491.544	53.18842
491.748	53.16451
491.951	52.67147
492.155	51.08234
492.359	48.9284
492.563	44.65448
492.767	41.44051
492.97	36.96991
493.174	32.8104
493.378	29.77572
493.582	26.89493
493.785	25.52097
493.989	24.79487
494.193	23.7598
494.396	22.74477
494.6	23.13499
494.804	22.33011
495.007	22.24486
495.211	22.49736
495.414	22.79662
495.618	23.91631
495.822	25.0987
496.025	25.55379
496.229	26.53316
496.432	26.48215
496.636	27.32587
496.839	27.46339
497.043	28.742
497.246	27.93565
497.45	27.57617
497.653	27.6778
497.856	27.02578
498.06	26.23813
498.263	25.70905
498.467	24.99637
498.67	25.39534
498.873	24.77604
499.077	23.6797
499.28	23.3973
499.483	23.3049
499.686	23.11722
499.89	22.52594
500.093	22.02507
500.296	21.02071
500.499	21.6951
500.703	20.90518
500.906	21.0766
501.109	21.81398
501.312	20.93665
501.515	21.019
501.719	21.20623
501.922	21.63198
502.125	21.07078
502.328	20.97305
502.531	20.56391
502.734	21.07947
502.937	20.26876
503.14	21.11414
503.343	20.74108
503.546	20.94018
503.749	20.90256
503.952	21.53992
504.155	20.91651
504.358	21.49515
504.561	21.49514
504.764	20.75684
504.967	21.32597
505.17	21.15387
505.373	22.06694
505.576	21.18394
505.778	21.55451
505.981	20.94877
506.184	21.91804
506.387	20.4775
506.59	22.03087
506.793	21.84431
506.995	21.64186
507.198	20.49075
507.401	21.69913
507.604	22.3267
507.806	22.10408
508.009	22.46888
508.212	23.63967
508.414	23.48469
508.617	23.82572
508.82	24.2119
509.022	25.0383
509.225	24.3421
509.427	23.7327
509.63	24.65942
509.833	23.77713
510.035	23.65316
510.238	22.57823
510.44	23.99879
510.643	22.27137
510.845	24.03052
511.048	23.46407
511.25	22.83241
511.453	23.17119
511.655	23.67267
511.858	23.23089
512.06	23.69134
512.262	23.2695
512.465	23.85246
512.667	22.60509
512.869	22.03857
513.072	22.68795
513.274	22.31818
513.476	21.95842
513.679	21.92699
513.881	21.04342
514.083	22.25914
514.286	21.19941
514.488	21.228
514.69	21.18558
514.892	20.82248
515.094	21.85315
515.297	21.17782
515.499	21.41028
515.701	21.23767
515.903	22.27254
516.105	22.28715
516.307	21.76136
516.509	20.61992
516.711	21.07786
516.913	22.01697
517.116	23.17054
517.318	24.11835
517.52	26.15587
517.722	27.43073
517.924	27.55567
518.126	29.48573
518.328	29.67154
518.529	30.57153
518.731	31.2991
518.933	29.49173
519.135	29.60401
519.337	29.50622
519.539	28.12875
519.741	26.15538
519.943	25.29861
520.145	24.28017
520.346	23.982
520.548	22.41364
520.75	22.48699
520.952	21.65493
521.153	21.89456
521.355	22.0789
521.557	21.21479
521.759	21.70851
521.96	21.77992
522.162	21.25847
522.364	22.19189
522.565	21.37051
522.767	22.03549
522.969	22.2618
523.17	21.94086
523.372	22.02603
523.573	21.45475
523.775	21.62954
523.977	21.8345
524.178	23.77739
524.38	24.11377
524.581	26.1678
524.783	27.20114
524.984	29.36894
525.186	30.41178
525.387	31.83266
525.589	32.29482
525.79	32.77408
525.991	33.05304
526.193	33.8899
526.394	33.15756
526.596	34.44868
526.797	35.34735
526.998	35.45389
527.2	37.81048
527.401	42.89835
527.602	47.31126
527.803	54.48792
528.005	59.14534
528.206	63.79928
528.407	66.61656
528.608	67.63957
528.81	67.45911
529.011	65.75036
529.212	65.68619
529.413	61.67636
529.614	57.09893
529.815	52.36657
530.017	47.33497
530.218	42.0832
530.419	37.92735
530.62	35.92708
530.821	34.09755
531.022	32.04117
531.223	33.0144
531.424	32.364
531.625	33.00882
531.826	33.18474
532.027	35.14384
532.228	38.28839
532.429	40.09709
532.63	42.45844
532.831	44.95246
533.032	45.95021
533.233	47.13102
533.433	46.33827
533.634	46.14056
533.835	44.13443
534.036	42.22579
534.237	39.82621
534.438	36.85006
534.638	33.33351
534.839	31.16204
535.04	30.04762
535.241	28.93119
535.441	30.35804
535.642	30.41698
535.843	30.80044
536.043	31.73545
536.244	32.79521
536.445	33.21952
536.645	34.29944
536.846	33.61657
537.047	33.53383
537.247	31.67137
537.448	30.58462
537.648	29.28213
537.849	27.32867
538.049	25.80084
538.25	24.57727
538.451	23.86455
538.651	22.57665
538.851	23.27397
539.052	23.79121
539.252	24.11021
539.453	24.7336
539.653	26.22977
539.854	28.44251
540.054	31.24722
540.254	35.90207
540.455	39.89152
540.655	42.65462
540.855	46.87872
541.056	49.64522
541.256	49.98968
541.456	51.53782
541.657	50.92953
541.857	50.63773
542.057	48.07131
542.257	46.05355
542.458	44.51163
542.658	41.50675
542.858	37.90079
543.058	36.28955
543.258	34.60094
543.458	31.9532
543.659	30.5756
543.859	30.85427
544.059	29.69943
544.259	28.22967
544.459	27.58026
544.659	26.16668
544.859	26.14138
545.059	25.35657
545.259	25.96799
545.459	25.64944
545.659	26.69788
545.859	26.54865
546.059	27.42692
546.259	27.08344
546.459	27.1323
546.659	26.99378
546.859	27.26981
547.059	26.88997
547.258	26.21145
547.458	25.21891
547.658	23.57599
547.858	22.28431
548.058	22.71018
548.258	22.56547
548.457	22.18828
548.657	23.87028
548.857	22.52291
549.057	23.08727
549.256	22.81223
549.456	22.36548
549.656	21.43883
549.855	23.48011
550.055	22.42364
550.255	23.66201
550.454	22.8583
550.654	23.11227
550.853	23.34607
551.053	23.00273
551.253	22.65119
551.452	22.66097
551.652	21.99656
551.851	21.66556
552.051	22.3022
552.25	22.3465
552.45	22.35783
552.649	22.46585
552.849	22.23628
553.048	22.60789
553.248	23.07961
553.447	22.19618
553.646	23.12861
553.846	23.60305
554.045	23.28363
554.244	22.02232
554.444	23.6918
554.643	22.37215
554.842	23.70559
555.042	23.97014
555.241	22.47676
555.44	22.2139
555.64	23.14814
555.839	23.9013
556.038	22.97719
556.237	22.43775
556.436	22.7525
556.636	23.00421
556.835	22.30547
557.034	23.82204
557.233	22.58822
557.432	21.92883
557.631	23.53914
557.83	22.71818
558.029	22.28315
558.228	22.36003
558.427	22.20652
558.626	23.14625
558.825	22.24103
559.024	22.75209
559.223	23.71944
559.422	22.6521
559.621	23.04627
559.82	21.32619
560.019	22.84745
560.218	22.6899
560.417	21.22469
560.616	22.40478
560.815	24.7392
561.014	21.97973
561.212	23.68166
561.411	22.94017
561.61	21.89914
561.809	22.61144
562.008	23.65297
562.206	22.60379
562.405	23.1456
562.604	22.74985
562.803	22.96363
563.001	22.52286
563.2	21.97317
563.399	23.04374
563.597	22.23612
563.796	22.76943
563.995	22.13557
564.193	23.15997
564.392	22.66908
564.59	24.21962
564.789	21.63863
564.988	22.38489
565.186	22.91679
565.385	22.69575
565.583	22.52352
565.782	22.58089
565.98	22.65409
566.179	22.81474
566.377	22.28696
566.575	22.50915
566.774	23.75728
566.972	23.32431
567.171	24.32763
567.369	23.5752
567.567	23.07033
567.766	23.23767
567.964	21.76592
568.162	23.27658
568.361	23.54591
568.559	22.85434
568.757	23.21689
568.956	22.97776
569.154	22.82396
569.352	23.35003
569.55	22.7822
569.748	22.79688
569.947	22.45129
570.145	22.3496
570.343	22.17193
570.541	23.37246
570.739	21.97937
570.937	22.92223
571.135	23.07147
571.333	23.66484
571.532	23.77343
571.73	23.07106
571.928	23.68405
572.126	23.2231
572.324	22.78691
572.522	23.86025
572.72	24.70362
572.918	23.04381
573.116	23.27315
573.313	23.10892
573.511	22.96767
573.709	22.89554
573.907	23.42846
574.105	22.68884
574.303	22.06724
574.501	22.02695
574.699	23.30704
574.896	23.24478
575.094	23.46904
575.292	22.30159
575.49	23.54048
575.688	22.94502
575.885	23.88877
576.083	24.36069
576.281	23.48224
576.478	22.82771
576.676	23.54214
576.874	22.45808
577.071	23.07515
577.269	24.83041
577.467	23.23486
577.664	23.12271
577.862	23.91749
578.059	22.66428
578.257	23.88689
578.455	22.83455
578.652	23.04962
578.85	21.91457
579.047	23.23282
579.245	23.2052
579.442	23.16539
579.64	22.89482
579.837	21.83579
580.034	24.73836
580.232	23.04621
580.429	22.11087
580.627	23.53408
580.824	24.21009
581.021	23.4917
581.219	22.76138
581.416	22.47854
581.613	24.1346
581.811	24.34142
582.008	22.66917
582.205	23.97193
582.402	23.32744
582.6	24.39305
582.797	23.22905
582.994	23.53238
583.191	23.77786
583.388	23.34768
583.586	23.79854
583.783	24.01655
583.98	22.60068
584.177	23.47393
584.374	21.41441
584.571	23.12605
584.768	23.25104
584.965	23.17433
585.162	23.70469
585.359	24.55327
585.556	23.09354
585.753	23.57843
585.95	22.50013
586.147	22.73996
586.344	23.74138
586.541	22.86271
586.738	22.60757
586.935	23.26642
587.132	22.86518
587.329	23.94386
587.526	23.16626
587.722	27.08222
587.919	22.30485
588.116	23.74388
588.313	24.70818
588.51	25.15703
588.706	23.13624
588.903	23.92777
589.1	24.05836
589.297	25.65713
589.493	23.42562
589.69	23.89424
589.887	23.03326
590.083	22.65559
590.28	22.93548
590.477	24.10106
590.673	24.23708
590.87	24.42085
591.067	23.12883
591.263	23.86793
591.46	23.7949
591.656	23.27464
591.853	24.4881
592.049	22.5859
592.246	22.90645
592.442	24.5497
592.639	24.34449
592.835	22.52065
593.032	23.93095
593.228	22.3313
593.425	22.50157
593.621	22.19844
593.817	23.79101
594.014	22.9139
594.21	23.61598
594.406	24.17822
594.603	24.02758
594.799	23.12621
594.995	21.73254
595.192	24.46706
595.388	23.24498
595.584	23.30978
595.78	22.41059
595.977	24.85463
596.173	24.75042
596.369	23.31562
596.565	22.76672
596.761	22.47467
596.957	24.59715
597.154	23.10105
597.35	23.32791
597.546	23.14069
597.742	24.31653
597.938	23.91726
598.134	23.34184
598.33	24.04095
598.526	25.08747
598.722	23.94586
598.918	25.27398
599.114	24.09351
599.31	22.88108
599.506	23.60333
599.702	22.86777
599.898	23.81298
600.094	24.56641
600.29	24.26041
600.485	24.42699
600.681	23.22281
600.877	25.25077
601.073	23.94405
601.269	25.13479
601.465	24.5941
601.66	22.78696
601.856	22.02938
602.052	24.79422
602.248	23.40135
602.443	21.96083
602.639	22.61689
602.835	22.95981
603.03	23.02266
603.226	24.3055
603.422	22.75653
603.617	23.2481
603.813	23.3356
604.009	23.22645
604.204	24.58017
604.4	22.65464
604.595	24.44993
604.791	23.0489
604.986	24.12851
605.182	23.38969
605.377	23.70707
605.573	23.62246
605.768	23.954
605.964	24.45904
606.159	24.58966
606.355	25.0965
606.55	23.56213
606.746	24.66996
606.941	23.88133
607.136	25.6523
607.332	26.3431
607.527	22.65282
607.722	24.1207
607.918	23.72713
608.113	23.03421
608.308	24.39188
608.503	24.05423
608.699	24.127
608.894	24.34705
609.089	23.43487
609.284	24.07036
609.479	23.62356
609.675	24.63952
609.87	23.76997
610.065	24.74323
610.26	25.18195
610.455	24.81955
610.65	24.05412
610.845	24.38928
611.04	25.08826
611.235	24.112
611.43	23.65367
611.625	23.01898
611.82	25.50915
612.015	23.4767
612.21	25.36809
612.405	22.75365
612.6	25.75777
612.795	25.12457
612.99	24.47637
613.185	22.93444
613.38	23.30586
613.575	24.26597
613.77	26.74605
613.965	22.66019
614.159	23.16113
614.354	25.40693
614.549	24.92916
614.744	24.91927
614.938	23.03599
615.133	22.31594
615.328	25.29429
615.523	24.6084
615.717	27.16252
615.912	23.34857
616.107	24.37221
616.301	23.91295
616.496	23.73124
616.691	25.9128
616.885	24.92893
617.08	27.14966
617.274	25.32264
617.469	26.1602
617.664	24.87652
617.858	23.68841
618.053	24.99734
618.247	23.98889
618.442	22.05273
618.636	25.92533
618.831	23.70897
619.025	23.7164
619.219	26.86868
619.414	21.10597
619.608	24.4272
619.803	23.94115
619.997	26.66641
620.191	25.61077
620.386	24.73872
620.58	24.27593
620.774	22.64791
620.969	23.04446
621.163	24.85816
621.357	23.29284
621.551	24.02974
621.746	24.50451
621.94	24.22422
622.134	27.99831
622.328	26.47347
622.522	22.44676
622.716	25.59671
622.911	25.64924
623.105	25.75595
623.299	25.17125
623.493	27.82984
623.687	23.63649
623.881	23.8378
624.075	25.03024
624.269	26.05457
624.463	22.58622
624.657	22.91539
624.851	24.87649
625.045	25.4489
625.239	25.54394
625.433	24.24766
625.627	26.03064
625.821	24.01889
626.015	23.7148
626.209	24.71706
626.403	23.23211
626.596	24.98939
626.79	25.65004
626.984	23.40554
627.178	25.2633
627.372	25.26041
627.565	25.55536
627.759	22.98556
627.953	23.48058
628.147	25.14475
628.34	25.45616
628.534	27.07441
628.728	24.47565
628.921	25.6902
629.115	25.17079
629.309	25.91488
629.502	25.77423
629.696	24.86975
629.89	24.47697
630.083	25.02207
630.277	25.24955
630.47	26.80066
630.664	24.5189
630.857	23.15091
631.051	25.62666
631.244	26.12777
631.438	25.71372
631.631	23.74911
631.825	26.40843
632.018	25.79036
632.212	27.33893
632.405	26.26886
632.598	24.14848
632.792	25.06679
632.985	22.28705
633.178	24.75696
633.372	24.85727
633.565	24.89203
633.758	26.43664
633.952	24.13837
634.145	24.03051
634.338	25.07195
634.531	24.59196
634.724	24.60282
634.918	25.04011
635.111	24.85323
635.304	24.72382
635.497	27.85503
635.69	25.24617
635.883	26.55817
636.077	23.67169
636.27	25.72987
636.463	24.96728
636.656	25.672
636.849	24.83791
637.042	25.65242
637.235	26.82945
637.428	26.02689
637.621	25.70658
637.814	27.02305
638.007	27.14022
638.2	27.06041
638.393	27.84621
638.586	23.56613
638.778	24.60925
638.971	25.12704
639.164	27.3706
639.357	25.37464
639.55	27.23835
639.743	26.37745
639.935	25.90108
640.128	27.78495
640.321	26.15477
640.514	25.74145
640.707	28.39232
640.899	26.1237
641.092	22.94702
641.285	34.65173
641.477	22.63665
641.67	28.3956
641.863	27.44687
642.055	25.32827
642.248	25.1124
642.441	24.71474
642.633	25.77902
642.826	26.97167
643.018	27.50689
643.211	28.46161
643.403	27.38781
643.596	28.74769
643.788	28.22236
643.981	25.10751
644.173	26.9651
644.366	25.53417
644.558	23.36268
644.751	27.11273
644.943	23.22774
645.135	28.02842
645.328	28.06708
645.52	26.46418
645.712	27.59949
645.905	30.23968
646.097	24.11297
646.289	25.81829
646.482	28.85962
646.674	24.87157
646.866	27.75712
647.058	26.96975
647.251	24.15312
647.443	25.1285
647.635	26.10507
647.827	24.20799
648.019	24.94885
648.211	25.94751
648.404	25.90791
648.596	28.44873
648.788	26.31371
648.98	26.4516
649.172	26.93142
649.364	26.52745
649.556	23.29184
649.748	30.61434
649.94	24.65316
650.132	26.79412
650.324	24.7566
650.516	25.08495
650.708	28.13623
650.9	23.69159
651.092	23.72642
651.284	24.01911
651.476	24.47215
651.667	27.21184
651.859	28.07039
652.051	26.17443
652.243	26.3605
652.435	25.60885
652.627	27.01832
652.818	27.07584
653.01	24.03564
653.202	24.68338
653.394	25.60043
653.585	27.05982
653.777	33.41543
653.969	28.42557
654.16	28.15828
654.352	24.648
654.544	25.95636
654.735	27.95018
654.927	26.92208
655.118	29.10549
655.31	27.58083
655.502	28.39358
655.693	25.78357
655.885	27.51618
656.076	28.29998
656.268	26.56232
656.459	28.87106
656.651	28.23124
656.842	25.69605
657.034	25.1681
657.225	27.83999
657.416	28.7165
657.608	28.70307
657.799	26.30551
657.99	28.37062
658.182	25.46271
658.373	25.67916
658.564	27.59873
658.756	26.68315
658.947	26.43825
659.138	25.14235
659.33	25.87415
659.521	25.50328
659.712	26.48669
659.903	26.22931
660.094	25.5793
660.286	24.32609
660.477	29.84838
660.668	28.03185
660.859	26.67108
661.05	24.48301
661.241	27.91314
661.432	27.42042
661.623	26.43634
661.814	26.09288
662.006	24.06137
662.197	27.65603
662.388	29.1338
662.579	27.38775
662.77	29.22943
662.96	31.49614
663.151	28.26481
663.342	23.69916
663.533	28.19642
663.724	27.19174
663.915	30.02305
664.106	26.59642
664.297	30.28281
664.488	28.27504
664.678	26.09093
664.869	28.30513
665.06	28.38019
665.251	27.63173
665.442	27.93181
665.632	25.26778
665.823	30.35213
666.014	21.7139
666.204	27.96196
666.395	29.82468
666.586	31.95438
666.776	28.57934
666.967	30.52754
667.158	27.49628
667.348	29.63676
667.539	25.16659
667.729	28.55697
667.92	25.72612
668.111	29.23443
668.301	28.17273
668.492	27.09282
668.682	27.41682
668.873	27.23243
669.063	25.25463
669.253	28.36087
669.444	28.75143
669.634	27.0609
669.825	31.08043
670.015	29.77977
670.206	26.01417
670.396	31.27914
670.586	26.99595
670.777	28.27031
670.967	23.5961
671.157	26.89104
671.347	26.22923
671.538	30.19494
671.728	27.92556
671.918	31.25068
672.108	29.71305
672.299	27.30201
672.489	28.39285
672.679	25.91492
672.869	28.76481
673.059	31.44677
673.249	28.50146
673.44	25.49642
673.63	27.50507
673.82	29.76983
674.01	26.1197
674.2	28.73765
674.39	34.09105
674.58	29.50087
674.77	28.10194
674.96	27.70122
675.15	36.10116
675.34	30.52619
675.53	27.92862
675.72	27.63868
675.91	25.00081
676.099	31.77473
676.289	32.14784
676.479	30.39953
676.669	27.04364
676.859	28.72034
677.049	25.82888
677.238	28.09616
677.428	32.6195
677.618	28.94257
677.808	30.18844
677.997	29.51956
678.187	25.82825
678.377	28.2466
678.567	27.68956
678.756	27.08396
678.946	27.90184
679.136	25.70195
679.325	26.93003
679.515	26.51853
679.704	26.21248
679.894	29.41492
680.084	28.84395
680.273	30.97158
680.463	27.2
680.652	27.17291
680.842	28.47312
681.031	30.66132
681.221	27.34662
681.41	30.18623
681.6	28.34901
681.789	30.17024
681.978	31.85152
682.168	29.10093
682.357	29.50577
682.547	29.96193
682.736	29.14799
682.925	31.55333
683.115	31.38199
683.304	30.3695
683.493	29.82931
683.682	29.99116
683.872	29.95018
684.061	31.69573
684.25	30.0559
684.439	32.87879
684.629	31.16669
684.818	36.97898
685.007	29.23039
685.196	28.71522
685.385	32.36902
685.574	30.2082
685.763	30.81443
685.952	29.59272
686.142	26.47863
686.331	32.75885
686.52	25.62677
686.709	32.81705
686.898	32.34141
687.087	31.50341
687.276	33.65887
687.465	31.77516
687.654	29.68693
687.842	33.41965
688.031	27.23516
688.22	32.57949
688.409	30.12312
688.598	30.88003
688.787	36.2926
688.976	29.94498
689.165	33.76324
689.353	28.60829
689.542	30.64487
689.731	31.4246
689.92	34.72337
690.108	32.22648
690.297	29.06467
690.486	30.27103
690.675	32.73556
690.863	34.40041
691.052	34.52214
691.241	31.64073
691.429	30.79885
691.618	34.67721
691.806	27.76333
691.995	29.34293
692.184	30.70945
692.372	29.5543
692.561	31.55376
692.749	30.0873
692.938	36.4152
693.126	31.49848
693.315	29.44566
693.503	32.32492
693.692	32.09599
693.88	33.33374
694.068	36.42654
694.257	30.72009
694.445	32.43662
694.634	25.56149
694.822	33.33565
695.01	33.84516
695.199	33.24441
695.387	34.82752
695.575	34.28483
695.763	30.67835
695.952	29.31334
696.14	27.10784
696.328	29.52016
696.516	30.51609
696.705	31.87585
696.893	31.61885
697.081	26.57032
697.269	32.75992
697.457	28.10484
697.645	28.04938
697.833	32.60387
698.021	28.98989
698.21	29.6098
698.398	30.83641
698.586	28.23592
698.774	27.99881
698.962	30.17354
699.15	29.02152
699.338	27.76667
699.526	32.35795
699.714	29.93617
699.901	30.15424
700.089	33.82607
700.277	29.65415
700.465	31.39706
700.653	33.45758
700.841	32.702
701.029	29.287
701.217	34.37715
701.404	31.8491
701.592	36.37432
701.78	36.44136
701.968	31.15462
702.155	31.17656
702.343	27.86392
702.531	35.04216
702.718	32.00922
702.906	30.65566
703.094	30.02794
703.281	34.58646
703.469	32.2459
703.657	34.34507
703.844	41.1056
704.032	36.74153
704.219	30.23873
704.407	33.01067
704.595	35.34336
704.782	32.36987
704.97	31.12477
705.157	30.87278
705.345	36.85981
705.532	39.83451
705.719	32.97546
705.907	36.21276
706.094	32.65108
706.282	37.0025
706.469	31.30993
706.656	32.43284
706.844	31.44446
707.031	35.7464
707.218	33.27061
707.406	37.57129
707.593	35.03223
707.78	34.82474
707.968	32.38897
708.155	30.66758
708.342	34.30072
708.529	33.65139
708.716	33.53986
708.904	38.34246
709.091	35.54447
709.278	29.91299
709.465	40.78393
709.652	39.23651
709.839	37.59814
710.026	33.69074
710.213	28.31596
710.4	34.98799
710.587	35.96765
710.774	37.25045
710.961	36.50012
711.148	33.65604
711.335	37.23611
711.522	32.6668
711.709	34.57298
711.896	41.47486
712.083	36.99141
712.27	30.79699
712.457	34.27197
712.644	29.40739
712.831	40.55574
713.017	34.61499
713.204	36.53629
713.391	32.75541
713.578	38.76861
713.765	38.60372
713.951	35.73446
714.138	45.24033
714.325	36.69884
714.512	35.28428
714.698	32.23662
714.885	40.45954
715.072	35.97079
715.258	35.3147
715.445	32.70133
715.631	39.67971
715.818	26.944
716.005	32.96504
716.191	37.44693
716.378	34.29831
716.564	39.34138
716.751	31.86854
716.937	33.03579
717.124	38.58008
717.31	32.6804
717.497	39.89037
717.683	33.15252
717.869	44.51547
718.056	32.83146
718.242	36.76997
718.429	34.83685
718.615	31.35989
718.801	35.68091
718.988	38.39045
719.174	36.80952
719.36	34.87976
719.547	40.06834
719.733	35.84448
719.919	37.12473
720.105	38.27867
720.291	35.13078
720.478	35.97516
720.664	35.36539
720.85	34.35477
721.036	47.17383
721.222	40.94183
721.408	36.02485
721.595	43.68272
721.781	41.88021
721.967	39.07529
722.153	42.87353
722.339	38.55649
722.525	37.8048
722.711	32.63102
722.897	31.62682
723.083	34.48694
723.269	40.16592
723.455	46.44126
723.641	48.16663
723.827	37.13599
724.012	37.98114
724.198	34.73564
724.384	42.38378
724.57	39.37808
724.756	31.20506
724.942	29.66332
725.127	40.07445
725.313	41.69327
725.499	42.3118
725.685	43.33531
725.87	37.88539
726.056	33.53007
726.242	42.95032
726.428	30.1382
726.613	40.54926
726.799	35.86899
726.985	33.38437
727.17	30.59552
727.356	42.95483
727.541	33.12034
727.727	36.97637
727.913	40.06042
728.098	34.87761
728.284	40.18024
728.469	31.98249
728.655	33.59014
728.84	39.66642
729.026	41.43917
729.211	40.99808
729.397	39.09975
729.582	39.62904
729.767	37.7795
729.953	38.36228
730.138	41.21608
730.323	28.82997
730.509	33.60432
730.694	45.4581
730.879	39.72445
731.065	37.8218
731.25	46.76344
731.435	40.36373
731.621	30.90018
731.806	35.02374
731.991	38.08891
732.176	31.16161
732.361	43.64023
732.547	38.61958
732.732	31.37667
732.917	48.37362
733.102	33.61507
733.287	34.52168
733.472	37.91998
733.657	37.9781
733.842	31.23007
734.027	36.46516
734.212	37.88997
734.397	35.35404
734.582	38.64674
734.767	41.87013
734.952	44.50579
735.137	27.67144
735.322	44.46259
735.507	40.02272
735.692	39.05269
735.877	47.79864
736.062	44.73198
736.247	40.35141
736.431	37.95765
736.616	42.78376
736.801	38.77193
736.986	38.02489
737.171	34.695
737.355	32.78544
737.54	43.05971
737.725	37.71766
737.909	51.07842
738.094	35.20195
738.279	43.72286
738.463	36.68551
738.648	41.89149
738.833	40.72941
739.017	45.61255
739.202	36.77945
739.386	38.10215
739.571	31.0855
739.756	40.61131
739.94	38.17015
740.125	43.38486
740.309	34.3374
740.494	43.46392
740.678	39.38529
740.863	41.78895
741.047	39.50268
741.231	45.00638
741.416	33.82939
741.6	47.04605
741.785	34.8653
741.969	42.57496
742.153	44.6033
742.338	29.91562
742.522	39.27927
742.706	41.86442
742.89	32.86737
743.075	39.61257
743.259	45.55608
743.443	42.56129
743.627	45.24375
743.812	50.78574
743.996	30.80612
744.18	37.38211
744.364	36.34602
744.548	52.10186
744.732	37.59057
744.916	42.68102
745.1	40.79233
745.285	37.024
745.469	41.79658
745.653	48.07308
745.837	31.39917
746.021	52.71389
746.205	45.76705
746.389	38.76317
746.573	39.2124
746.757	47.90716
746.94	37.95272
747.124	45.65634
747.308	34.25989
747.492	46.15933
747.676	35.67242
747.86	53.75145
748.044	36.38484
748.227	30.54463
748.411	58.33405
748.595	39.72513
748.779	34.62436
748.963	41.62261
749.146	40.09801
749.33	35.42292
749.514	34.81493
749.697	45.34915
749.881	35.67521
750.065	34.36653
750.248	40.02751
750.432	53.49008
750.616	39.03885
750.799	33.35638
750.983	50.94369
751.166	54.64384
751.35	32.41921
751.533	43.63471
751.717	45.50599
751.9	49.34975
752.084	37.23271
752.267	33.59578
752.451	36.6316
752.634	40.44298
752.818	43.51125
753.001	44.50062
753.184	45.27298
753.368	42.93221
753.551	23.10746
753.734	36.22716
753.918	50.27416
754.101	35.77546
754.284	44.45176
754.467	37.19066
754.651	35.71874
754.834	35.60053
755.017	46.80756
755.2	46.02291
755.384	35.14147
755.567	46.02038
755.75	46.21314
755.933	39.06004
756.116	41.33861
756.299	37.87562
756.482	34.96673
756.665	43.12373
756.848	39.19953
757.032	42.4282
757.215	32.11325
757.398	36.46474
757.581	35.63071
757.764	57.10898
757.947	39.27821
758.129	48.27675
758.312	25.98166
758.495	39.21201
758.678	40.55116
758.861	37.11453
759.044	51.06806
759.227	35.43485
759.41	36.96377
759.592	43.26866
759.775	39.12659
759.958	46.49181
760.141	33.9874
760.324	55.30272
760.506	49.42579
760.689	46.95221
760.872	54.71591
761.054	44.26878
761.237	39.64841
761.42	42.26105
761.602	44.96901
761.785	43.15091
761.968	47.10152
762.15	50.6711
762.333	39.0342
762.515	43.11897
762.698	37.77787
762.88	45.87811
763.063	41.70021
763.245	44.22056
763.428	35.23169
763.61	37.75558
763.793	33.43818
763.975	41.85386
764.158	38.02143
764.34	37.45832
764.522	35.72561
764.705	40.51337
764.887	47.3322
765.069	33.24911
765.252	45.41687
765.434	45.17857
765.616	41.03623
765.799	37.64464
765.981	45.19872
766.163	36.31337
766.345	47.5056
766.528	36.74486
766.71	28.31178
766.892	42.25072
767.074	49.18901
767.256	39.64046
767.438	52.54379
767.62	42.6821
767.802	54.29194
767.985	47.26747
768.167	56.3756
768.349	38.92658
768.531	44.51128
768.713	43.60885
768.895	47.00807
769.077	44.6243
769.259	58.13628
769.441	76.45769
769.623	47.77021
769.804	54.16851
769.986	51.24751
770.168	59.92554
770.35	67.05043
770.532	53.08694
770.714	57.31233
770.896	58.19687
771.077	37.33014
771.259	61.97507
771.441	51.1414
771.623	63.97689
771.804	72.25661
771.986	35.24912
772.168	44.16772
772.35	61.27703
772.531	76.56549
772.713	50.3501
772.894	64.0234
773.076	50.18304
773.258	47.29108
773.439	61.9297
773.621	70.26887
773.802	43.05922
773.984	46.03794
774.166	52.69469
774.347	64.77388
774.529	64.8831
774.71	35.02026
774.891	50.47079
775.073	48.11057
775.254	65.63788
775.436	44.77598
775.617	71.40336
775.799	46.36167
775.98	65.23128
776.161	69.46711
776.343	70.62062
776.524	49.78573
776.705	47.48722
776.886	35.49904
777.068	52.45867
777.249	78.79875
777.43	72.49247
777.611	41.55497
777.793	48.4483
777.974	68.17249
778.155	46.11314
778.336	44.64264
778.517	76.71798
778.698	44.02606
778.879	34.19256
779.061	27.10546
779.242	55.35271
779.423	57.90226
779.604	47.11887
779.785	50.87458
779.966	53.25521
780.147	61.93337
780.328	64.74351
780.509	84.01202
780.69	60.26511
780.871	43.738
781.051	39.033
781.232	56.30761
781.413	52.8705
781.594	50.27269
781.775	49.52982
781.956	44.89702
782.137	34.15603
782.317	45.44821
782.498	54.73668
782.679	53.61558
782.86	53.80526
783.04	45.48829
783.221	56.19266
783.402	71.85519
783.583	53.46478
783.763	60.38803
783.944	49.35958
784.124	38.58557
784.305	69.98602
784.486	56.07551
784.666	51.56554
784.847	39.63173
785.027	79.1834
785.208	45.32721
785.388	46.08659
785.569	48.95984
785.749	49.97054
785.93	47.91647
786.11	37.37621
786.291	60.12135
786.471	52.60209
786.652	61.68594
786.832	49.81804
787.012	55.83019
787.193	40.80298
787.373	53.3183
787.553	47.95956
787.734	55.99792
787.914	49.48784
788.094	57.28517
788.275	56.75373
788.455	48.85946
788.635	39.24705
788.815	54.86599
788.995	41.87596
789.176	39.58193
789.356	45.47936
789.536	50.51347
789.716	59.50964
789.896	44.58156
790.076	46.21951
790.256	55.22944
790.436	31.79449
790.616	43.24298
790.796	54.72714
790.976	47.84066
791.156	44.58685
791.336	60.98037
791.516	56.963
791.696	50.26557
791.876	38.91238
792.056	53.14243
792.236	60.36563
792.416	60.70792
792.596	54.86425
792.776	57.14263
792.956	57.17112
793.135	66.74018
793.315	42.06992
793.495	65.29972
793.675	60.65158
793.854	60.04527
794.034	61.44794
794.214	42.80918
794.394	59.15864
794.573	65.97636
794.753	53.99787
794.933	43.01625
795.112	55.94276
795.292	60.35391
795.472	73.194
795.651	41.04126
795.831	50.71749
796.01	48.47987
796.19	49.79231
796.369	53.01533
796.549	58.53845
796.728	49.97539
796.908	39.07898
797.087	41.52161
797.267	49.79449
797.446	41.37748
797.626	60.63484
797.805	57.24592
797.984	45.38557
798.164	61.07601
798.343	43.10406
798.522	56.62203
798.702	52.05713
798.881	40.29008
799.06	49.95342
799.239	33.28851
799.419	44.246
799.598	69.00261
799.777	57.52612
799.956	65.1168
800.136	48.06755
800.315	45.39211
800.494	56.2936
800.673	66.03096
800.852	58.85748
801.031	61.76061
801.21	58.61116
801.389	48.907
801.568	51.64326
801.747	72.2954
801.926	53.64177
802.105	68.04614
802.284	49.70134
802.463	69.55351
802.642	57.59834
802.821	56.30523
803	66.93433
803.179	63.38455
803.358	66.80597
803.537	45.70633
803.716	51.77319
803.895	46.54508
804.073	52.57067
804.252	45.73723
804.431	57.47679
804.61	50.18537
804.789	63.34176
804.967	48.05179
805.146	47.74061
805.325	73.22392
805.503	61.51424
805.682	38.83302
805.861	81.80124
806.039	67.27337
806.218	51.0352
806.397	57.22691
806.575	54.86314
806.754	56.43668
806.932	44.84118
807.111	71.97825
807.289	61.18394
807.468	55.49648
807.646	65.97331
807.825	64.0274
808.003	57.84176
808.182	63.8543
808.36	57.56122
808.539	45.32062
808.717	70.45934
808.895	44.89918
809.074	59.47008
809.252	54.93854
809.43	60.80343
809.609	66.21881
809.787	77.71844
809.965	52.90347
810.144	56.42995
810.322	55.46172
810.5	60.72447
810.678	50.71066
810.856	79.93516
811.035	66.51263
811.213	62.90103
811.391	73.63113
811.569	57.07837
811.747	89.27193
811.925	70.51035
812.103	45.18509
812.281	56.25813
812.459	73.2717
812.637	80.32309
812.816	65.94227
812.994	78.13236
813.171	68.81565
813.349	60.94727
813.527	69.56474
813.705	74.79959
813.883	88.86975
814.061	68.69691
814.239	80.64518
814.417	81.7139
814.595	61.41605
814.773	60.10083
814.95	57.48325
815.128	59.73683
815.306	53.35608
815.484	55.39384
815.662	48.25535
815.839	42.73576
816.017	48.13506
816.195	74.1332
816.372	52.20528
816.55	63.95965
816.728	73.19163
816.905	53.66941
817.083	78.65142
817.261	57.75133
817.438	80.11863
817.616	77.82528
817.793	51.01531
817.971	68.97106
818.148	66.00749
818.326	72.03861
818.503	62.43447
818.681	74.61183
818.858	52.05664
819.036	56.5216
819.213	58.19367
819.391	48.55793
819.568	47.9984
819.745	47.25367
819.923	65.46354
820.1	52.55749
820.277	46.7359
820.455	51.72697
820.632	52.54304
820.809	52.37573
820.986	43.58664
821.164	38.82499
821.341	36.57892
821.518	42.19939
821.695	37.38567
821.872	37.18794
822.05	35.68048
822.227	32.79964
822.404	33.86266
822.581	36.83986
822.758	34.29781
822.935	34.6912
823.112	36.82814
823.289	34.08247
823.466	37.43359
823.643	36.70556
823.82	40.33434
823.997	38.30251
824.174	41.67547
824.351	46.54606
824.528	45.81316
824.705	43.3154
824.882	45.7377
825.059	51.88663
825.236	43.18943
825.412	43.82221
825.589	47.96769
825.766	56.64907
825.943	44.75184
826.12	47.90738
826.296	40.04881
826.473	43.31855
826.65	44.52429
826.827	49.11957
827.003	40.52678
827.18	43.04928
827.357	46.2722
827.533	43.41111
827.71	34.14697
827.887	40.86982
828.063	43.5227
828.24	41.22331
828.416	48.01
828.593	42.95922
828.769	51.75191
828.946	54.86415
829.122	56.63767
829.299	52.0609
829.475	40.59539
829.652	53.46033
829.828	72.6394
830.005	52.76302
830.181	64.25384
830.357	51.24512
830.534	67.6272
830.71	55.00019
830.886	62.5338
831.063	65.89628
831.239	74.22578
831.415	46.04345
831.592	73.63602
831.768	54.61137
831.944	49.2472
832.12	71.34171
832.296	65.34592
832.473	61.83412
832.649	50.61983
832.825	59.61138
833.001	43.55825
833.177	58.17848
833.353	53.75873
833.529	39.48583
833.705	48.81751
833.881	42.01778
834.058	42.3914
834.234	44.44778
834.41	43.37209
834.586	39.38221
834.761	44.08835
834.937	45.49544
835.113	46.71238
835.289	43.84503
835.465	50.32315
835.641	44.1374
835.817	47.49826
835.993	69.88374
836.169	45.50897
836.344	58.09536
836.52	61.50476
836.696	59.55644
836.872	50.51946
837.048	94.95518
837.223	55.1842
837.399	80.9977
837.575	72.14094
837.75	68.2141
837.926	82.1364
838.102	121.31028
838.277	97.91258
838.453	116.63477
838.628	115.06766
838.804	64.41459
838.98	109.47435
839.155	64.25188
839.331	81.57877
839.506	62.74604
839.682	63.82524
839.857	73.74153
840.033	83.98488
840.208	55.45015
840.384	39.02902
840.559	55.00134
840.734	70.97739
840.91	96.8315
841.085	64.296
841.26	64.35986
841.436	60.83839
841.611	60.61869
841.786	86.76971
841.962	98.87185
842.137	73.14177
842.312	54.78885
842.487	64.93656
842.663	56.84749
842.838	65.91644
843.013	163.52535
843.188	92.2033
843.363	76.88593
843.538	140.93466
843.714	135.22171
843.889	147.94549
844.064	132.64127
844.239	126.24501
844.414	152.12809
844.589	99.89067
844.764	158.40782
844.939	157.6607
845.114	188.79487
845.289	185.84753
845.464	196.03259
845.639	160.02562
845.814	96.62548
845.989	108.1538
846.163	116.68624
846.338	134.08504
846.513	176.35802
846.688	120.2567
846.863	126.369
847.038	114.85429
847.212	133.01589
847.387	123.80226
847.562	137.49556
847.737	162.78875
847.911	79.31558
848.086	93.7997
848.261	267.74006
848.435	113.53166
848.61	162.73817
848.785	94.71854
848.959	159.30599
849.134	206.34532
849.308	243.59633
849.483	131.83298
849.658	185.6032
849.832	118.14816
850.007	107.26716
850.181	247.90484
850.356	107.78827
850.53	218.95071
850.705	85.28482
850.879	70.19396
851.053	119.1814
851.228	112.66285
851.402	151.86385
851.577	188.15914
851.751	189.22604
851.925	132.6833
852.099	79.31146
852.274	101.46477
852.448	124.17008
852.622	167.58424
852.797	127.52058
852.971	128.03974
853.145	134.23139
853.319	268.69652
853.493	198.39999
853.668	112.73027
853.842	222.96699
854.016	186.28097
854.19	216.86982
854.364	143.5869
854.538	150.73543
854.712	179.95858
854.886	139.71402
855.06	114.34081
855.234	64.89938
855.408	209.93662
855.582	182.29282
855.756	191.80756
855.93	223.94399
856.104	141.79782
856.278	179.15616
856.452	130.39243
856.626	154.84858
856.8	250.68172
856.973	156.53365
857.147	144.23772
857.321	157.84645
857.495	180.7256
857.669	133.52199
857.842	120.25935
858.016	186.17326
858.19	99.70963
858.364	322.65614
858.537	122.89934
858.711	150.45247
858.885	124.90021
859.058	112.65825
859.232	73.28611
859.405	84.95211
859.579	171.70173
859.753	153.05184
859.926	105.55961
860.1	75.24773
860.273	126.51384
860.447	205.69876
860.62	129.15139
860.794	233.28916
860.967	155.30764
861.141	192.1688
861.314	266.11646
861.487	150.49597
861.661	197.70977
861.834	223.00506
862.008	175.18329
862.181	135.44936
862.354	143.0877
862.528	160.57635
862.701	118.11524
862.874	84.73585
863.047	126.80394
863.221	114.91771
863.394	74.35319
863.567	197.59989
863.74	61.46112
863.913	184.62623
864.087	155.07318
864.26	170.08335
864.433	126.93765
864.606	235.47406
864.779	135.06223
864.952	80.61298
865.125	116.86603
865.298	135.82102
865.471	134.59777
865.644	207.48423
865.817	182.60788
865.99	176.90317
866.163	216.87349
866.336	117.65974
866.509	134.72735
866.682	114.34126
866.855	191.19769
867.028	92.37707
867.2	154.01771
867.373	69.9663
867.546	142.45322
867.719	230.31854
867.892	156.65882
868.064	99.81677
868.237	156.23897
868.41	137.8068
868.583	82.62212
868.755	93.74159
868.928	124.08406
869.101	259.11445
869.273	179.01574
869.446	155.80844
869.619	192.23564
869.791	127.45309
869.964	183.3514
870.136	173.31108
870.309	153.36614
870.481	136.32833
870.654	80.88871
870.826	157.63091
870.999	113.67983
871.171	157.3383
871.344	104.98373
871.516	133.62034
871.689	96.49158
871.861	140.46769
872.033	100.54181
872.206	119.45872
872.378	178.64928
872.55	116.64579
872.723	86.50443
872.895	122.8864
873.067	180.68068
873.24	183.09828
873.412	105.1914
873.584	130.55983
873.756	115.7566
873.928	149.26158
874.101	146.99902
874.273	155.73805
874.445	70.11449
874.617	92.02478
874.789	137.93384
874.961	119.98805
875.133	156.63707
875.305	129.85495
875.477	99.00837
875.649	83.84501
875.821	98.88851
875.993	190.61964
876.165	91.63866
876.337	145.08148
876.509	128.80285
876.681	136.66364
876.853	138.27593
877.025	135.95393
877.197	96.92129
877.369	90.94398
877.541	160.53568
877.712	61.66996
877.884	84.64133
878.056	139.11505
878.228	81.79898
878.4	144.57018
878.571	85.25868
878.743	68.58695
878.915	116.7752
879.086	86.86487
879.258	96.91145
879.43	86.38128
879.601	77.27538
879.773	83.13053
879.945	38.81222
880.116	47.48999
880.288	37.47548
880.459	40.33973
880.631	36.93152
880.802	39.8064
880.974	39.27036
881.145	35.15545
881.317	39.7531
881.488	35.50904
881.66	37.74975
881.831	36.0088
882.002	41.62263
882.174	36.96684
882.345	41.14564
882.517	33.16268
882.688	45.87797
882.859	41.09028
883.03	52.26604
883.202	51.42859
883.373	48.15331
883.544	47.25096
883.715	61.01274
883.887	55.1908
884.058	50.57009
884.229	62.9253
884.4	62.65885
884.571	68.98889
884.742	60.74567
884.914	64.35351
885.085	82.86922
885.256	101.96706
885.427	84.12067
885.598	96.39549
885.769	95.67902
885.94	100.70595
886.111	77.44034
886.282	112.99896
886.453	90.05213
886.624	77.06592
886.795	110.51359
886.966	98.0245
887.136	121.68795
887.307	88.19344
887.478	156.39771
887.649	124.51892
887.82	137.8973
887.991	114.25521
888.161	148.7359
888.332	133.65233
888.503	81.31636
888.674	184.38474
888.844	205.0096
889.015	159.43535
889.186	84.0502
889.356	195.2892
889.527	83.53404
889.698	258.02801
889.868	108.54688
890.039	142.96196
890.209	121.07743
890.38	152.14033
890.551	141.79441
890.721	194.77585
890.892	160.40964
891.062	121.20663
891.233	145.27656
891.403	113.86029
891.574	102.24777
891.744	119.32486
891.914	141.10194
892.085	130.65996
892.255	65.32922
892.425	177.33906
892.596	137.24514
892.766	146.90074
892.936	174.03098
893.107	152.08758
893.277	96.50906
893.447	76.61532
893.618	59.90275
893.788	100.77234
893.958	65.96869
894.128	63.71779
894.298	69.82706
894.468	85.47946
894.639	51.48183
894.809	44.33074
894.979	55.67417
895.149	64.32087
895.319	56.51909
895.489	69.17005
895.659	82.84442
895.829	62.34923
895.999	66.6135
896.169	57.36311
896.339	62.03058
896.509	105.64659
896.679	120.03083
896.849	124.65522
897.019	154.11315
897.189	117.9083
897.358	115.13141
897.528	160.93503
897.698	69.61469
897.868	144.01208
898.038	231.89981
898.208	232.66958
898.377	80.21435
898.547	232.03952
898.717	276.46348
898.886	148.31325
899.056	228.33741
899.226	301.56585
899.395	181.75802
899.565	263.42719
899.735	185.73394
899.904	260.69621
900.074	243.4837
900.244	117.37098
900.413	376.48664
900.583	100.73425
900.752	167.32415
900.922	288.07661
901.091	52.1846
901.261	230.11009
901.43	220.80959
901.599	202.25587
901.769	459.08885
901.938	262.54999
902.108	231.34201
902.277	316.6617
902.446	99.6093
902.616	109.78442
902.785	129.01771
902.954	214.9252
903.124	143.91922
903.293	108.97894
903.462	72.38716
903.631	94.28373
903.801	78.09206
903.97	51.75439
904.139	69.16712
904.308	59.13573
904.477	54.2919
904.646	40.80115
904.816	47.6938
904.985	69.0237
905.154	93.94489
