Data from WindowProjectSample_Transmission__39__00039__023490432460145094.txt Node

Date: Mon May 05 17:51:44 EDT 2025
User: jessi
Spectrometer: SR400872
Trigger mode: 0
Integration Time (sec): 5.000010E-1
Scans to average: 20
Electric dark correction enabled: true
Nonlinearity correction enabled: true
Boxcar width: 0
XAxis mode: Wavelengths
Number of Pixels in Spectrum: 3648
>>>>>Begin Spectral Data<<<<<
184.909	21440.9475
185.132	-5284.33216
185.355	-3162.98554
185.578	-18575.36069
185.801	1283.2832
186.024	10676.46863
186.247	-2064.60966
186.47	1199.11148
186.693	349.2426
186.916	306.97251
187.139	-3786.17883
187.362	3661.92553
187.585	4311.41418
187.808	3688.13448
188.031	35.89723
188.254	-54873.23936
188.476	-601.43981
188.699	6501.75132
188.922	552.82259
189.145	-16250.74555
189.368	-623.96007
189.591	-1355.46211
189.813	3147.48154
190.036	-52138.47463
190.259	-903.0999
190.482	-4883.62825
190.705	7387.49941
190.927	-2553.04928
191.15	13417.15016
191.373	3298.31097
191.595	-9402.91254
191.818	-4205.47712
192.041	-5853.95599
192.263	-3442.97558
192.486	-722.60985
192.709	-4022.22567
192.931	8281.87874
193.154	-28662.89559
193.377	-2935.19835
193.599	-2808.30469
193.822	-9360.54002
194.044	-1931.36354
194.267	1318.64832
194.489	273.41052
194.712	-45040.70841
194.934	-33448.46336
195.157	1312.79468
195.379	1463.42554
195.602	-7217.28206
195.824	-1354.02133
196.047	-8995.15812
196.269	2797.43676
196.492	-6625.33496
196.714	29634.31811
196.936	-8667.55073
197.159	-1221.43533
197.381	1262.24377
197.604	368.53138
197.826	12513.13295
198.048	-11671.29412
198.271	-2904.54258
198.493	7705.12613
198.715	2353.56355
198.938	-465.89892
199.16	7071.00247
199.382	-107348.10866
199.604	2998.64468
199.827	-1139.3251
200.049	-3183.50145
200.271	14881.99978
200.493	1242.19041
200.715	-39566.04171
200.938	-6372.04392
201.16	-4342.58434
201.382	21290.82825
201.604	2337.79408
201.826	2501.04404
202.048	-1988.82156
202.27	-1918.38579
202.492	-37328.65026
202.715	2990.1155
202.937	-4481.5054
203.159	-6310.84129
203.381	1473.56519
203.603	7069.54691
203.825	7107.38336
204.047	2122.87383
204.269	-2893.83471
204.491	2191.51254
204.713	5921.81966
204.935	-511294.05132
205.156	1275.77369
205.378	-3070.06128
205.6	1650.6378
205.822	158992.18576
206.044	-970.11392
206.266	1576.40744
206.488	4826.14059
206.71	-5337.5302
206.932	1105.80206
207.153	12329.61562
207.375	-7226.86366
207.597	-39169.70009
207.819	-2942.53999
208.041	2588.77695
208.262	471.05668
208.484	758.46672
208.706	-792.63777
208.927	-818.74166
209.149	596.15293
209.371	-3134.49844
209.593	-354.38833
209.814	-864.87697
210.036	581.8866
210.258	-615.77077
210.479	1789.75427
210.701	1596.82709
210.922	3315.78696
211.144	-4128.49804
211.366	2092.28333
211.587	8010.33529
211.809	-8715.82466
212.03	2508.9527
212.252	493.78883
212.473	2167.71716
212.695	-5695.07007
212.916	2970.83611
213.138	-663.8907
213.359	3771.43324
213.581	5611.29195
213.802	-776.13361
214.024	1170.25935
214.245	2081.61905
214.466	2792.03413
214.688	-3226.14294
214.909	-1345.70403
215.131	-1831.62198
215.352	-3171.55152
215.573	15353.52162
215.795	5182.12686
216.016	5582.3034
216.237	863.52039
216.459	3824.70101
216.68	1856.49857
216.901	5332.66784
217.122	-3064.50249
217.344	-11849.00778
217.565	3400.34498
217.786	9106.58354
218.007	17533.44466
218.228	-792.38264
218.45	6075.22819
218.671	806.92538
218.892	39958.54354
219.113	1533.11999
219.334	-439.58291
219.555	9027.1143
219.776	3225.23411
219.997	22675.89583
220.219	2805.8143
220.44	-11346.75612
220.661	458.00534
220.882	1528.62314
221.103	-1231.77654
221.324	2329.17915
221.545	2400.77101
221.766	-9421.53652
221.987	1008.77999
222.208	1735.2913
222.429	4375.70773
222.65	175.5303
222.87	19181.66372
223.091	770.11892
223.312	578.03084
223.533	1464.65871
223.754	1533.71436
223.975	1342.16487
224.196	2120.64658
224.417	1389.04695
224.637	580.83587
224.858	109.02406
225.079	1137.65077
225.3	678.88032
225.521	3840.46102
225.741	458.51632
225.962	527.01896
226.183	149.93205
226.404	696.69279
226.624	445.88112
226.845	679.71035
227.066	418.10829
227.286	256.80032
227.507	132.99988
227.728	120.59843
227.948	249.3714
228.169	76.33961
228.389	89.89569
228.61	49.50491
228.831	68.22298
229.051	2.13762
229.272	39.24993
229.492	57.50216
229.713	13.84253
229.933	37.95188
230.154	33.78407
230.374	54.49275
230.595	39.26301
230.815	23.5963
231.036	39.74098
231.256	-9.31253
231.477	72.70765
231.697	38.40404
231.917	41.33136
232.138	56.69318
232.358	109.20345
232.579	106.54337
232.799	17.57845
233.019	103.66967
233.24	116.35298
233.46	37.12191
233.68	62.86983
233.901	42.92125
234.121	28.85078
234.341	10.31822
234.561	-6.08171
234.782	20.45154
235.002	70.17111
235.222	-4.85315
235.442	66.54266
235.662	32.37358
235.883	63.10713
236.103	52.95131
236.323	39.64478
236.543	29.37612
236.763	42.94796
236.983	44.37641
237.203	40.02287
237.423	62.26707
237.643	91.89068
237.864	77.67457
238.084	18.65447
238.304	27.71358
238.524	48.27936
238.744	39.63924
238.964	77.5504
239.184	64.09739
239.404	66.59462
239.624	37.66309
239.843	65.16498
240.063	36.857
240.283	22.42327
240.503	26.32326
240.723	26.15973
240.943	14.8092
241.163	19.86859
241.383	14.76512
241.603	7.87145
241.822	9.58097
242.042	6.12481
242.262	8.53753
242.482	9.83867
242.702	10.76779
242.921	2.87752
243.141	6.73328
243.361	6.56993
243.581	9.73245
243.8	7.87461
244.02	5.3982
244.24	9.3787
244.459	9.76472
244.679	18.02749
244.899	11.77959
245.118	13.03839
245.338	12.51168
245.558	14.16109
245.777	9.42546
245.997	10.72898
246.216	10.9696
246.436	6.70617
246.655	4.9085
246.875	3.46857
247.094	6.30728
247.314	2.23161
247.533	3.76378
247.753	4.47912
247.972	3.64588
248.192	1.18866
248.411	1.95993
248.631	3.55908
248.85	4.6903
249.07	4.09218
249.289	6.091
249.508	5.32377
249.728	7.64069
249.947	7.24671
250.166	8.77024
250.386	4.16728
250.605	7.13109
250.824	11.36862
251.044	7.92271
251.263	29.65058
251.482	14.75667
251.701	12.25479
251.921	-0.04263
252.14	3.94497
252.359	4.07614
252.578	10.55544
252.798	3.64975
253.017	9.27511
253.236	3.96931
253.455	6.01435
253.674	10.45301
253.893	4.96207
254.112	7.6684
254.331	11.73033
254.551	9.65885
254.77	3.99418
254.989	13.58943
255.208	9.44845
255.427	15.62884
255.646	11.97931
255.865	22.32002
256.084	8.92824
256.303	10.634
256.522	14.25886
256.741	2.92285
256.96	2.96055
257.179	8.16583
257.397	11.51356
257.616	5.64885
257.835	6.17509
258.054	15.34003
258.273	11.28507
258.492	11.39091
258.711	6.7456
258.93	3.2927
259.148	4.82792
259.367	4.85507
259.586	5.81116
259.805	2.4148
260.023	5.41804
260.242	4.04981
260.461	2.81965
260.68	1.20791
260.898	4.44889
261.117	1.4566
261.336	0.87836
261.554	3.63194
261.773	3.61295
261.992	0.82557
262.21	3.51599
262.429	3.56463
262.648	7.61906
262.866	8.64764
263.085	5.94709
263.303	5.4363
263.522	8.85894
263.74	9.13447
263.959	16.17834
264.178	7.22449
264.396	6.63435
264.615	5.08228
264.833	11.10517
265.051	9.24449
265.27	10.93663
265.488	11.55814
265.707	6.30866
265.925	11.1765
266.144	4.82501
266.362	6.12403
266.58	5.62352
266.799	5.12999
267.017	6.14705
267.235	5.56806
267.454	3.39946
267.672	1.95575
267.89	4.41886
268.109	4.71477
268.327	4.4789
268.545	1.03921
268.763	3.88749
268.982	1.55983
269.2	4.37232
269.418	3.49359
269.636	1.90099
269.854	4.75749
270.073	3.14319
270.291	2.17327
270.509	1.88848
270.727	4.29784
270.945	7.50227
271.163	7.51883
271.381	1.48654
271.599	3.11944
271.817	5.50981
272.036	1.78346
272.254	3.24987
272.472	2.39566
272.69	2.50947
272.908	2.31781
273.126	4.66067
273.344	5.49522
273.562	1.86489
273.779	2.68199
273.997	3.99531
274.215	4.24304
274.433	2.82284
274.651	4.62642
274.869	4.94024
275.087	2.96766
275.305	4.23701
275.523	2.71964
275.74	3.09573
275.958	5.82487
276.176	8.58596
276.394	2.66948
276.612	3.39214
276.829	3.23571
277.047	2.70634
277.265	3.15495
277.483	3.69109
277.7	4.36932
277.918	3.49055
278.136	6.56314
278.353	2.82958
278.571	1.89831
278.789	4.49508
279.006	0.97258
279.224	2.96833
279.442	5.34662
279.659	3.81148
279.877	2.33106
280.094	5.93474
280.312	1.03066
280.529	3.519
280.747	0.88893
280.964	2.72648
281.182	6.14603
281.399	2.73322
281.617	4.09837
281.834	2.68451
282.052	2.0044
282.269	3.2437
282.487	2.71982
282.704	2.08265
282.921	2.3113
283.139	3.51
283.356	4.11502
283.574	3.96621
283.791	1.88157
284.008	5.84776
284.226	3.03972
284.443	3.26256
284.66	4.59129
284.877	3.56913
285.095	2.0734
285.312	1.624
285.529	0.8847
285.746	0.7604
285.964	2.09882
286.181	1.44677
286.398	1.95989
286.615	2.77527
286.832	2.54693
287.05	0.58899
287.267	1.94465
287.484	1.81504
287.701	2.61382
287.918	2.60626
288.135	2.66647
288.352	1.3646
288.569	1.43239
288.786	2.47336
289.003	2.14933
289.22	3.24379
289.437	1.67054
289.654	2.94108
289.871	3.11648
290.088	3.099
290.305	2.4035
290.522	1.83782
290.739	2.07094
290.956	3.20402
291.173	3.66171
291.39	3.57551
291.607	2.4151
291.824	1.7872
292.04	1.21572
292.257	2.97243
292.474	3.30804
292.691	1.9784
292.908	0.90405
293.125	1.69695
293.341	1.17106
293.558	5.0582
293.775	2.06357
293.992	1.96522
294.208	0.88945
294.425	1.27313
294.642	1.89486
294.858	2.59963
295.075	0.56756
295.292	2.01041
295.508	2.44227
295.725	4.14773
295.942	1.69576
296.158	1.25542
296.375	2.1149
296.591	1.59259
296.808	1.73192
297.024	2.07734
297.241	2.26784
297.458	2.50932
297.674	0.16338
297.891	1.87321
298.107	1.47363
298.323	1.23192
298.54	3.25241
298.756	1.43009
298.973	0.58457
299.189	3.34496
299.406	1.2811
299.622	2.89845
299.838	2.8876
300.055	2.78484
300.271	0.6545
300.487	1.01881
300.704	1.28507
300.92	0.7534
301.136	4.48809
301.353	2.80881
301.569	1.99628
301.785	2.3403
302.001	2.80195
302.218	2.38987
302.434	2.51496
302.65	0.83761
302.866	1.70251
303.083	4.24452
303.299	4.07249
303.515	2.18767
303.731	2.32195
303.947	0.86694
304.163	1.40878
304.379	2.36604
304.595	2.54309
304.812	1.49793
305.028	1.36819
305.244	1.83294
305.46	2.87408
305.676	2.88294
305.892	3.37185
306.108	2.56101
306.324	1.79281
306.54	3.92059
306.756	2.69889
306.972	2.52384
307.187	1.98613
307.403	3.59018
307.619	1.73642
307.835	3.37634
308.051	3.71787
308.267	1.21631
308.483	3.25247
308.699	2.68583
308.914	2.28588
309.13	2.05387
309.346	0.86956
309.562	1.22465
309.778	0.9152
309.993	2.77918
310.209	2.23305
310.425	1.16999
310.641	1.92399
310.856	1.29023
311.072	1.12731
311.288	2.03859
311.503	2.31933
311.719	0.54095
311.935	0.60607
312.15	2.6423
312.366	2.13225
312.581	2.61501
312.797	2.07886
313.013	2.91632
313.228	1.64162
313.444	2.02718
313.659	1.69821
313.875	2.76044
314.09	2.20202
314.306	3.44224
314.521	2.8904
314.737	2.9067
314.952	2.18833
315.168	2.12119
315.383	2.72972
315.599	1.9893
315.814	1.97612
316.029	2.83902
316.245	1.25518
316.46	0.7001
316.675	3.46705
316.891	3.90146
317.106	5.02349
317.321	2.57237
317.537	2.85326
317.752	3.20717
317.967	3.14581
318.183	1.46039
318.398	1.89924
318.613	3.07858
318.828	3.72743
319.043	3.07482
319.259	2.16189
319.474	2.65067
319.689	3.55142
319.904	0.8637
320.119	3.16985
320.334	2.67599
320.549	2.22816
320.765	3.3116
320.98	2.74886
321.195	2.9594
321.41	2.24221
321.625	3.09653
321.84	4.05537
322.055	3.98661
322.27	1.66835
322.485	1.41251
322.7	2.66036
322.915	3.30196
323.13	1.74913
323.345	4.03956
323.56	3.38376
323.775	3.02666
323.989	2.81509
324.204	2.6176
324.419	3.49776
324.634	1.26484
324.849	2.37105
325.064	5.53674
325.279	3.30423
325.493	2.82834
325.708	3.30663
325.923	1.8876
326.138	1.84483
326.352	3.99218
326.567	3.37689
326.782	1.99278
326.997	1.93944
327.211	3.0879
327.426	2.81031
327.641	2.17416
327.855	1.15989
328.07	2.96286
328.285	4.03717
328.499	2.07
328.714	2.80769
328.928	3.23318
329.143	2.3567
329.358	3.6268
329.572	3.52747
329.787	3.82881
330.001	4.89396
330.216	1.45505
330.43	4.43592
330.645	4.13462
330.859	3.38667
331.074	1.91113
331.288	2.78767
331.503	3.95522
331.717	1.63366
331.931	2.74776
332.146	2.90294
332.36	4.35011
332.575	3.04292
332.789	2.90135
333.003	2.77428
333.218	3.17405
333.432	2.0233
333.646	3.46471
333.86	4.31954
334.075	4.19019
334.289	2.30077
334.503	1.73885
334.717	3.20526
334.932	2.99132
335.146	3.58747
335.36	2.31293
335.574	3.34339
335.788	3.0039
336.003	3.67436
336.217	3.35715
336.431	3.23607
336.645	2.2781
336.859	1.6445
337.073	2.5655
337.287	2.93346
337.501	1.64921
337.715	3.04378
337.929	3.4605
338.143	1.68015
338.357	2.55581
338.571	1.97189
338.785	3.29372
338.999	2.30393
339.213	2.26877
339.427	1.5359
339.641	3.96641
339.855	2.3551
340.069	2.20455
340.283	3.4914
340.497	4.47171
340.711	3.07231
340.924	2.65194
341.138	1.84027
341.352	1.64322
341.566	2.94368
341.78	1.53944
341.993	2.30005
342.207	1.9927
342.421	2.95686
342.635	2.58011
342.848	2.35083
343.062	0.75133
343.276	2.13776
343.49	4.54348
343.703	2.15405
343.917	3.6478
344.131	3.70961
344.344	2.04767
344.558	2.39198
344.771	1.72432
344.985	4.10597
345.199	4.10227
345.412	2.97845
345.626	3.07523
345.839	1.33267
346.053	1.78602
346.266	1.9125
346.48	3.2894
346.693	3.06948
346.907	3.02502
347.12	1.85626
347.334	2.97103
347.547	3.05514
347.76	2.61677
347.974	3.73347
348.187	3.05159
348.401	2.53897
348.614	2.08461
348.827	2.42846
349.041	3.19067
349.254	1.26284
349.467	2.48707
349.681	1.76255
349.894	2.1985
350.107	3.75773
350.32	4.41241
350.534	1.53919
350.747	2.43803
350.96	2.10262
351.173	2.20547
351.386	2.40132
351.6	2.36487
351.813	2.404
352.026	2.57088
352.239	1.71873
352.452	2.17999
352.665	3.60045
352.878	2.68066
353.092	4.52477
353.305	3.50203
353.518	2.8974
353.731	1.99586
353.944	3.66893
354.157	2.48241
354.37	2.16992
354.583	1.92646
354.796	1.40465
355.009	3.44941
355.222	3.05332
355.435	2.74818
355.647	3.5578
355.86	2.1051
356.073	2.87051
356.286	2.3652
356.499	3.45679
356.712	3.08005
356.925	3.25958
357.138	3.45199
357.35	2.0054
357.563	2.50298
357.776	2.852
357.989	2.5957
358.201	3.15365
358.414	2.984
358.627	3.76097
358.84	2.63687
359.052	1.78993
359.265	2.09842
359.478	3.61066
359.69	0.8862
359.903	3.32028
360.116	3.65622
360.328	1.53862
360.541	3.47443
360.753	2.11998
360.966	2.51446
361.179	2.64692
361.391	2.51088
361.604	2.22638
361.816	2.54796
362.029	2.3836
362.241	2.22821
362.454	2.46996
362.666	2.19399
362.879	3.09673
363.091	2.51106
363.304	2.34987
363.516	2.67239
363.728	1.95496
363.941	3.2958
364.153	2.66529
364.366	1.33987
364.578	1.98846
364.79	3.0117
365.003	2.7993
365.215	2.31538
365.427	3.18181
365.639	3.61761
365.852	2.91228
366.064	4.57436
366.276	2.60842
366.488	3.11163
366.701	2.56789
366.913	2.79405
367.125	2.68101
367.337	2.29029
367.549	2.40732
367.762	2.88171
367.974	2.8874
368.186	2.48459
368.398	3.59567
368.61	3.25091
368.822	3.39399
369.034	2.77619
369.246	3.467
369.458	5.28068
369.67	2.28434
369.882	4.35193
370.094	1.60428
370.306	4.28461
370.518	2.76105
370.73	2.53205
370.942	2.52008
371.154	2.90608
371.366	2.62202
371.578	3.29456
371.79	2.66298
372.002	3.87512
372.214	4.56352
372.425	3.03417
372.637	4.12712
372.849	3.41083
373.061	1.73646
373.273	3.4385
373.484	3.33864
373.696	3.80939
373.908	1.54815
374.12	3.95828
374.331	3.45335
374.543	2.58876
374.755	2.51202
374.967	3.21378
375.178	3.77795
375.39	2.88592
375.602	3.26896
375.813	2.2778
376.025	2.48979
376.236	3.34155
376.448	3.45668
376.66	3.04714
376.871	3.02282
377.083	4.1812
377.294	4.525
377.506	2.95004
377.717	4.35547
377.929	3.52464
378.14	3.0676
378.352	3.65916
378.563	3.66586
378.775	4.43137
378.986	2.73706
379.197	3.705
379.409	2.94089
379.62	3.93033
379.832	3.86119
380.043	3.36712
380.254	3.56242
380.466	2.73189
380.677	5.67506
380.888	5.01652
381.1	5.43805
381.311	5.08035
381.522	3.79189
381.733	5.64391
381.945	3.55351
382.156	3.65711
382.367	3.36981
382.578	5.7534
382.789	5.67857
383.001	3.33477
383.212	4.87338
383.423	4.91583
383.634	4.69521
383.845	4.35119
384.056	3.67089
384.267	4.02854
384.478	3.83383
384.69	3.21634
384.901	4.26252
385.112	4.14311
385.323	5.12548
385.534	4.33548
385.745	4.32214
385.956	4.34481
386.167	3.51062
386.378	4.50618
386.588	3.53592
386.799	3.68391
387.01	3.13061
387.221	4.78441
387.432	4.13013
387.643	5.42933
387.854	4.03731
388.065	4.03863
388.275	4.18752
388.486	3.94077
388.697	4.16484
388.908	3.95836
389.119	5.1468
389.329	5.35708
389.54	4.40226
389.751	4.64941
389.962	5.34788
390.172	4.59138
390.383	4.20715
390.594	4.02601
390.804	4.07638
391.015	4.15491
391.226	4.73843
391.436	5.0042
391.647	4.93871
391.858	5.16302
392.068	3.76209
392.279	4.0812
392.489	4.90283
392.7	5.45288
392.91	4.34318
393.121	4.35018
393.331	5.17365
393.542	5.62682
393.752	5.08366
393.963	5.29922
394.173	5.15719
394.384	5.37484
394.594	5.07027
394.804	4.40175
395.015	5.19214
395.225	5.46879
395.436	4.51028
395.646	5.39076
395.856	4.83142
396.067	4.24593
396.277	5.75288
396.487	5.42444
396.697	5.47163
396.908	5.6361
397.118	5.47954
397.328	5.38117
397.538	6.00243
397.749	4.82881
397.959	5.83491
398.169	5.71353
398.379	4.51111
398.589	5.84272
398.8	5.54422
399.01	5.51432
399.22	5.1706
399.43	6.92585
399.64	5.50792
399.85	5.95773
400.06	5.66926
400.27	5.03686
400.48	5.55515
400.69	6.64702
400.9	5.27835
401.11	4.97302
401.32	6.05802
401.53	5.36986
401.74	6.84621
401.95	6.04133
402.16	5.32815
402.37	6.01173
402.58	5.54432
402.79	6.35666
403	6.54096
403.209	5.47637
403.419	6.63786
403.629	5.37146
403.839	6.69734
404.049	6.56255
404.258	5.75807
404.468	5.67971
404.678	6.45815
404.888	6.94896
405.097	6.02859
405.307	6.13436
405.517	6.75183
405.727	6.56275
405.936	6.02802
406.146	6.53632
406.356	7.18668
406.565	6.34364
406.775	6.15421
406.984	6.15107
407.194	7.55045
407.404	6.38572
407.613	6.88487
407.823	6.92187
408.032	7.11578
408.242	7.09681
408.451	6.05888
408.661	6.32087
408.87	7.6516
409.08	6.12077
409.289	6.81318
409.499	6.80734
409.708	6.7345
409.918	5.45673
410.127	6.78901
410.336	7.61628
410.546	7.23099
410.755	6.48142
410.964	6.65859
411.174	6.31186
411.383	7.12237
411.592	7.06389
411.802	6.20959
412.011	7.31804
412.22	6.77469
412.429	7.96935
412.639	7.95237
412.848	7.46518
413.057	7.73009
413.266	7.66526
413.475	6.99624
413.685	7.33423
413.894	7.62497
414.103	7.77197
414.312	7.58855
414.521	6.93365
414.73	7.25734
414.939	8.50021
415.148	7.61609
415.357	7.43611
415.566	7.1406
415.776	7.12903
415.985	7.22871
416.194	7.97335
416.403	8.63287
416.611	6.66363
416.82	7.28114
417.029	7.66704
417.238	7.27769
417.447	7.18771
417.656	7.57402
417.865	7.38674
418.074	7.65174
418.283	7.7613
418.492	8.41368
418.7	8.26763
418.909	9.22357
419.118	8.37787
419.327	8.77277
419.536	8.65478
419.744	8.62528
419.953	9.84478
420.162	10.03225
420.371	9.49882
420.579	9.97327
420.788	10.81971
420.997	10.95832
421.205	11.21288
421.414	11.03725
421.623	11.16062
421.831	10.74895
422.04	11.38176
422.249	10.46551
422.457	10.90311
422.666	10.13318
422.874	10.92955
423.083	10.93042
423.291	10.92338
423.5	10.73122
423.708	11.21456
423.917	11.59106
424.125	11.17861
424.334	11.12309
424.542	12.67414
424.751	12.21852
424.959	11.8325
425.167	11.91835
425.376	11.87552
425.584	10.73284
425.793	10.6118
426.001	9.81563
426.209	9.88521
426.418	8.86671
426.626	8.63206
426.834	8.37114
427.042	8.8882
427.251	8.44902
427.459	9.23626
427.667	8.73987
427.875	8.06394
428.084	8.47284
428.292	9.28401
428.5	9.07643
428.708	8.08236
428.916	8.11218
429.124	8.72287
429.333	8.41149
429.541	8.52797
429.749	8.64487
429.957	8.68147
430.165	10.23328
430.373	7.80323
430.581	8.78792
430.789	9.54165
430.997	8.60127
431.205	8.35517
431.413	8.9419
431.621	8.51324
431.829	9.18572
432.037	8.62759
432.245	8.78151
432.453	8.96958
432.661	8.68799
432.869	9.90805
433.076	8.54379
433.284	8.84912
433.492	9.33293
433.7	9.56117
433.908	8.83359
434.116	9.10025
434.323	9.17695
434.531	9.02174
434.739	9.40871
434.947	9.59586
435.154	9.57241
435.362	9.05674
435.57	8.9824
435.778	8.70126
435.985	9.20226
436.193	8.74869
436.401	9.71172
436.608	8.95103
436.816	8.8058
437.023	9.86543
437.231	9.88113
437.439	9.19922
437.646	9.31964
437.854	9.22967
438.061	9.54621
438.269	9.00604
438.476	9.5287
438.684	9.18337
438.891	8.96742
439.099	8.85585
439.306	8.65448
439.514	8.72284
439.721	9.74432
439.929	9.43304
440.136	10.33655
440.343	10.37217
440.551	10.24754
440.758	11.81934
440.965	10.63353
441.173	10.40674
441.38	10.16189
441.587	10.09514
441.795	9.86873
442.002	9.62048
442.209	9.64459
442.416	9.69522
442.624	9.72946
442.831	9.60341
443.038	9.13525
443.245	8.78309
443.452	9.1378
443.66	9.56649
443.867	8.96958
444.074	8.98983
444.281	8.97936
444.488	9.10206
444.695	9.35933
444.902	9.11167
445.109	10.11953
445.316	9.91527
445.523	10.34527
445.73	10.47988
445.937	11.42313
446.144	11.82293
446.351	12.29556
446.558	11.4379
446.765	13.0572
446.972	12.53879
447.179	12.21837
447.386	12.71027
447.593	11.21969
447.8	12.10242
448.007	10.7661
448.214	10.21479
448.42	9.72413
448.627	10.1176
448.834	9.53287
449.041	9.39087
449.248	9.37048
449.454	9.85076
449.661	10.26934
449.868	9.19715
450.075	9.13252
450.281	8.47004
450.488	8.84936
450.695	8.92253
450.901	8.97773
451.108	9.02585
451.315	9.85381
451.521	9.15197
451.728	9.91539
451.935	8.86915
452.141	9.31191
452.348	9.31379
452.554	9.2957
452.761	9.02354
452.967	10.1821
453.174	9.47067
453.38	9.72832
453.587	8.86915
453.793	9.53463
454	9.90706
454.206	10.59354
454.413	9.91135
454.619	9.69818
454.825	9.04178
455.032	9.76982
455.238	9.80958
455.445	8.8225
455.651	9.48698
455.857	8.57709
456.064	9.23965
456.27	9.17194
456.476	9.15222
456.682	8.75662
456.889	9.5911
457.095	9.59233
457.301	10.78224
457.507	9.40547
457.714	9.43334
457.92	9.42956
458.126	9.03469
458.332	9.41164
458.538	9.21308
458.744	9.28528
458.951	9.26126
459.157	11.2487
459.363	10.70476
459.569	11.06392
459.775	11.77175
459.981	11.46695
460.187	11.93246
460.393	12.28164
460.599	12.49894
460.805	11.66096
461.011	10.80089
461.217	10.73672
461.423	10.43683
461.629	9.84519
461.835	10.12031
462.041	9.725
462.247	10.6358
462.453	9.63488
462.658	9.67825
462.864	10.02338
463.07	9.82354
463.276	9.69302
463.482	9.60274
463.688	10.32553
463.893	9.29404
464.099	9.55437
464.305	10.48516
464.511	9.49781
464.716	9.60165
464.922	10.07117
465.128	9.25335
465.333	10.6061
465.539	9.99253
465.745	9.65418
465.95	9.64058
466.156	11.2773
466.362	10.35172
466.567	9.68761
466.773	9.38628
466.978	10.54589
467.184	9.23888
467.389	8.70398
467.595	9.97433
467.8	9.4186
468.006	10.49524
468.211	10.43651
468.417	9.15513
468.622	10.05157
468.828	10.17103
469.033	10.13398
469.239	11.31471
469.444	9.5994
469.649	10.26164
469.855	9.80617
470.06	9.86386
470.266	9.33635
470.471	10.17898
470.676	10.11662
470.881	9.00495
471.087	10.61802
471.292	11.36631
471.497	9.29998
471.703	9.91204
471.908	9.59143
472.113	9.93184
472.318	10.40627
472.523	9.34599
472.729	10.10281
472.934	10.1835
473.139	9.71351
473.344	10.11075
473.549	10.60372
473.754	9.64074
473.959	11.45837
474.164	9.46893
474.369	9.90009
474.575	10.37154
474.78	10.0282
474.985	9.59578
475.19	8.98841
475.395	9.49455
475.6	10.00874
475.804	10.86267
476.009	9.90928
476.214	9.98433
476.419	9.88198
476.624	9.21563
476.829	9.58718
477.034	10.42957
477.239	9.75774
477.444	10.38703
477.648	10.37962
477.853	10.40244
478.058	10.02587
478.263	9.74999
478.468	9.63924
478.672	9.64045
478.877	10.94834
479.082	11.05167
479.287	10.47898
479.491	10.17252
479.696	9.60843
479.901	10.47357
480.105	10.65419
480.31	9.7911
480.515	10.14299
480.719	11.30557
480.924	9.96223
481.128	9.6738
481.333	10.33722
481.538	10.32502
481.742	10.55804
481.947	11.66728
482.151	12.58405
482.356	13.34744
482.56	15.50568
482.765	17.21002
482.969	20.35369
483.174	22.94116
483.378	26.61462
483.582	28.07683
483.787	30.4341
483.991	31.57026
484.196	32.27726
484.4	32.22758
484.604	32.84709
484.809	30.46364
485.013	28.87643
485.217	26.41849
485.422	23.69665
485.626	21.47066
485.83	19.93076
486.034	18.89489
486.239	18.98599
486.443	19.18941
486.647	19.45755
486.851	20.52185
487.055	22.14233
487.26	22.23423
487.464	23.41781
487.668	23.19293
487.872	24.05903
488.076	24.35322
488.28	23.67416
488.484	22.41208
488.688	21.87717
488.892	20.95111
489.096	19.48922
489.3	18.00406
489.504	16.85341
489.708	15.82663
489.912	15.32027
490.116	14.82016
490.32	14.24773
490.524	15.29988
490.728	16.05646
490.932	16.86468
491.136	17.93177
491.34	19.24459
491.544	19.86748
491.748	20.08948
491.951	20.32254
492.155	19.95758
492.359	19.62342
492.563	18.25236
492.767	17.27059
492.97	15.74295
493.174	14.13944
493.378	12.90551
493.582	11.42488
493.785	10.91326
493.989	10.84481
494.193	10.82024
494.396	10.56283
494.6	11.12665
494.804	10.64254
495.007	10.20138
495.211	10.34934
495.414	10.44068
495.618	10.64866
495.822	11.20342
496.025	10.62971
496.229	10.90593
496.432	10.26211
496.636	10.74354
496.839	10.63218
497.043	11.43308
497.246	10.87239
497.45	10.6041
497.653	10.79
497.856	10.88425
498.06	10.43539
498.263	10.68374
498.467	10.6402
498.67	11.22737
498.873	11.05398
499.077	10.64028
499.28	10.74085
499.483	10.89989
499.686	11.2358
499.89	10.91097
500.093	11.29549
500.296	10.45774
500.499	11.56912
500.703	10.73329
500.906	10.98098
501.109	11.67476
501.312	10.79102
501.515	10.66627
501.719	10.9725
501.922	11.36466
502.125	10.90413
502.328	10.74205
502.531	10.1471
502.734	10.71365
502.937	9.90701
503.14	10.77189
503.343	10.29211
503.546	10.52871
503.749	10.44805
503.952	11.28814
504.155	10.348
504.358	10.94491
504.561	10.85108
504.764	10.13378
504.967	10.90941
505.17	10.73442
505.373	11.56145
505.576	10.87214
505.778	11.15921
505.981	10.44701
506.184	11.51627
506.387	10.12803
506.59	11.83463
506.793	11.36758
506.995	11.07006
507.198	9.86348
507.401	11.11063
507.604	11.12249
507.806	10.40372
508.009	10.4754
508.212	11.2852
508.414	10.47869
508.617	10.78856
508.82	10.96966
509.022	11.68351
509.225	11.17606
509.427	10.41303
509.63	11.61946
509.833	10.99433
510.035	10.68951
510.238	10.23865
510.44	11.68946
510.643	10.1571
510.845	12.0091
511.048	11.20114
511.25	10.75624
511.453	10.87643
511.655	11.15817
511.858	10.87242
512.06	11.45253
512.262	11.10224
512.465	11.52253
512.667	10.82008
512.869	10.4713
513.072	11.19775
513.274	11.38307
513.476	11.25978
513.679	11.46991
513.881	10.58245
514.083	11.85474
514.286	10.66613
514.488	10.74438
514.69	10.6101
514.892	10.22842
515.094	11.36078
515.297	10.61049
515.499	11.05363
515.701	10.51487
515.903	11.81961
516.105	11.87228
516.307	11.36149
516.509	9.97579
516.711	10.4268
516.913	11.02644
517.116	11.08328
517.318	10.76255
517.52	11.56028
517.722	11.32006
517.924	10.53532
518.126	11.28273
518.328	10.95311
518.529	11.69771
518.731	12.6833
518.933	11.28284
519.135	11.54873
519.337	12.16004
519.539	11.56
519.741	10.51508
519.943	11.12068
520.145	11.13622
520.346	11.72452
520.548	11.14539
520.75	11.36652
520.952	11.05656
521.153	11.35381
521.355	11.43438
521.557	10.65202
521.759	11.24178
521.96	11.19045
522.162	10.61461
522.364	11.65201
522.565	10.77033
522.767	11.41076
522.969	11.55582
523.17	11.4262
523.372	11.31027
523.573	10.84382
523.775	10.99305
523.977	10.69851
524.178	12.13069
524.38	10.79044
524.581	11.37532
524.783	10.93853
524.984	11.4086
525.186	11.26686
525.387	11.93838
525.589	11.97431
525.79	12.18593
525.991	12.22563
526.193	12.98811
526.394	12.41565
526.596	13.34919
526.797	13.61866
526.998	13.33947
527.2	13.82062
527.401	15.85427
527.602	17.09486
527.803	19.62599
528.005	21.05081
528.206	22.903
528.407	24.33765
528.608	24.83022
528.81	25.50481
529.011	25.3396
529.212	26.32678
529.413	25.22972
529.614	23.74799
529.815	22.53636
530.017	20.65336
530.218	18.48684
530.419	16.59881
530.62	15.71594
530.821	14.74937
531.022	13.137
531.223	13.73171
531.424	13.37092
531.625	13.25973
531.826	12.87706
532.027	13.49833
532.228	14.81532
532.429	14.93525
532.63	15.51504
532.831	16.69012
533.032	17.00743
533.233	17.86785
533.433	17.75477
533.634	18.14324
533.835	17.49703
534.036	16.90885
534.237	16.35607
534.438	15.37196
534.638	13.88244
534.839	13.20227
535.04	12.68369
535.241	11.91337
535.441	12.57928
535.642	12.12245
535.843	11.68382
536.043	11.88644
536.244	12.18014
536.445	12.55882
536.645	13.2598
536.846	13.02424
537.047	13.51811
537.247	12.39905
537.448	12.23037
537.648	11.94613
537.849	11.60637
538.049	11.51406
538.25	11.78963
538.451	11.76481
538.651	11.17219
538.851	11.79083
539.052	12.09483
539.252	11.81476
539.453	11.35414
539.653	11.46959
539.854	11.31698
540.054	11.35332
540.254	13.18901
540.455	14.47716
540.655	14.94179
540.855	16.80149
541.056	18.0875
541.256	18.40376
541.456	19.55889
541.657	19.51342
541.857	20.2199
542.057	19.03558
542.257	18.43041
542.458	18.56384
542.658	17.89045
542.858	15.92375
543.058	15.49628
543.258	14.68692
543.458	13.03357
543.659	12.51663
543.859	12.93427
544.059	12.37643
544.259	11.76238
544.459	12.3584
544.659	11.57422
544.859	11.93533
545.059	11.45859
545.259	11.97929
545.459	11.6313
545.659	12.03006
545.859	11.58199
546.059	11.78653
546.259	11.20705
546.459	10.92507
546.659	11.16113
546.859	11.95053
547.059	11.80842
547.258	11.89583
547.458	11.87592
547.658	11.22394
547.858	11.13565
548.058	11.72018
548.258	11.45653
548.457	11.16235
548.657	12.80864
548.857	11.46789
549.057	11.95204
549.256	11.63224
549.456	11.1229
549.656	10.33836
549.855	12.563
550.055	11.07138
550.255	12.26726
550.454	11.5261
550.654	11.74064
550.853	12.26189
551.053	11.72203
551.253	11.46719
551.452	11.68879
551.652	10.62112
551.851	10.45194
552.051	11.13118
552.25	10.99181
552.45	11.04809
552.649	11.07412
552.849	10.91713
553.048	11.4445
553.248	11.92618
553.447	10.70533
553.646	11.96482
553.846	13.007
554.045	12.31554
554.244	10.69551
554.444	12.33359
554.643	10.95914
554.842	12.38267
555.042	12.65549
555.241	10.93473
555.44	10.6026
555.64	11.6458
555.839	12.26994
556.038	11.58158
556.237	10.93461
556.436	11.38557
556.636	11.48296
556.835	10.78651
557.034	12.24168
557.233	11.2754
557.432	10.31157
557.631	11.94552
557.83	11.09692
558.029	11.00961
558.228	10.72831
558.427	10.57642
558.626	11.52685
558.825	10.63437
559.024	11.23341
559.223	12.54134
559.422	11.1487
559.621	11.46341
559.82	9.77528
560.019	11.25706
560.218	11.01495
560.417	9.61353
560.616	10.91228
560.815	13.516
561.014	10.26455
561.212	12.3156
561.411	11.28668
561.61	10.3862
561.809	10.95488
562.008	12.50054
562.206	11.13162
562.405	11.65745
562.604	11.19221
562.803	11.42813
563.001	11.24509
563.2	10.41697
563.399	11.67583
563.597	10.56984
563.796	11.1163
563.995	10.41271
564.193	11.93761
564.392	11.13509
564.59	12.68573
564.789	9.96734
564.988	11.09918
565.186	11.4216
565.385	11.16979
565.583	11.10495
565.782	11.3051
565.98	11.14746
566.179	11.24422
566.377	10.86163
566.575	10.97799
566.774	12.37486
566.972	12.03993
567.171	12.94032
567.369	12.49851
567.567	11.6754
567.766	11.57106
567.964	10.19712
568.162	12.007
568.361	12.34189
568.559	11.24961
568.757	11.4846
568.956	11.32002
569.154	11.40432
569.352	11.78446
569.55	11.20947
569.748	11.43879
569.947	10.79272
570.145	10.64654
570.343	10.66302
570.541	12.40381
570.739	10.49063
570.937	11.32989
571.135	11.69908
571.333	12.97284
571.532	12.78719
571.73	11.54035
571.928	12.18529
572.126	11.89935
572.324	11.38874
572.522	12.37188
572.72	13.46423
572.918	11.55475
573.116	11.97164
573.313	11.43796
573.511	11.49847
573.709	11.14222
573.907	12.18961
574.105	11.22151
574.303	10.50147
574.501	10.51173
574.699	11.8146
574.896	11.81304
575.094	12.05405
575.292	10.642
575.49	12.21965
575.688	11.3956
575.885	12.46763
576.083	13.2291
576.281	12.02344
576.478	10.92105
576.676	11.88283
576.874	10.43171
577.071	11.46081
577.269	13.0399
577.467	11.27194
577.664	11.28685
577.862	12.1497
578.059	10.79852
578.257	12.04496
578.455	11.31745
578.652	11.33838
578.85	9.93074
579.047	11.47456
579.245	11.16752
579.442	11.28459
579.64	11.09167
579.837	10.02884
580.034	13.50174
580.232	11.17243
580.429	10.3678
580.627	11.72202
580.824	12.31158
581.021	11.66461
581.219	10.97313
581.416	10.88051
581.613	12.52441
581.811	12.4834
582.008	10.65393
582.205	12.187
582.402	11.46201
582.6	12.65431
582.797	11.41567
582.994	11.52063
583.191	11.98681
583.388	11.30248
583.586	12.17193
583.783	12.11384
583.98	10.57837
584.177	11.43363
584.374	9.23937
584.571	11.07151
584.768	11.19328
584.965	10.91078
585.162	11.98057
585.359	12.62275
585.556	11.31892
585.753	11.69076
585.95	10.23795
586.147	10.59027
586.344	11.81584
586.541	11.18513
586.738	10.3492
586.935	11.25967
587.132	10.9189
587.329	12.21494
587.526	11.29743
587.722	15.62972
587.919	10.27331
588.116	11.82978
588.313	12.40196
588.51	13.21355
588.706	11.23922
588.903	12.03281
589.1	12.42659
589.297	13.88717
589.493	11.42004
589.69	11.90609
589.887	11.00892
590.083	10.74886
590.28	10.99327
590.477	12.18286
590.673	11.9114
590.87	12.48845
591.067	10.95804
591.263	11.94567
591.46	11.85975
591.656	11.14092
591.853	12.91552
592.049	10.76808
592.246	11.03972
592.442	12.36227
592.639	12.66687
592.835	10.53022
593.032	11.66551
593.228	10.00597
593.425	10.10556
593.621	10.28199
593.817	11.70473
594.014	10.76975
594.21	11.90342
594.406	12.42345
594.603	11.83602
594.799	11.01318
594.995	9.67738
595.192	12.47467
595.388	11.21127
595.584	11.19733
595.78	10.34385
595.977	14.01118
596.173	12.9503
596.369	11.30191
596.565	10.80047
596.761	10.54701
596.957	12.63921
597.154	11.11457
597.35	11.44283
597.546	11.18771
597.742	12.29876
597.938	12.17668
598.134	11.11158
598.33	11.89285
598.526	12.8544
598.722	11.84795
598.918	13.27999
599.114	12.2159
599.31	10.54411
599.506	11.71914
599.702	10.85411
599.898	11.61512
600.094	12.21411
600.29	12.23774
600.485	12.29368
600.681	10.74545
600.877	13.28539
601.073	11.52199
601.269	13.46965
601.465	12.87342
601.66	10.56182
601.856	9.83193
602.052	13.47936
602.248	11.30494
602.443	9.91515
602.639	10.57773
602.835	10.9307
603.03	10.97889
603.226	12.46297
603.422	10.94217
603.617	11.57452
603.813	11.54657
604.009	11.37964
604.204	12.79486
604.4	10.73559
604.595	12.69755
604.791	11.02893
604.986	12.11494
605.182	11.17908
605.377	11.70341
605.573	11.67893
605.768	11.88516
605.964	12.52656
606.159	12.47169
606.355	12.69838
606.55	11.49063
606.746	12.74388
606.941	11.70923
607.136	13.54941
607.332	14.40721
607.527	10.74303
607.722	11.96359
607.918	11.43709
608.113	10.90208
608.308	12.49555
608.503	12.16498
608.699	12.04923
608.894	12.38105
609.089	11.10972
609.284	12.23287
609.479	11.57296
609.675	12.55356
609.87	11.75976
610.065	12.73813
610.26	12.75566
610.455	12.73419
610.65	12.04123
610.845	12.44046
611.04	12.75721
611.235	11.94834
611.43	11.9296
611.625	11.19041
611.82	13.54003
612.015	11.329
612.21	13.69929
612.405	10.5298
612.6	13.7416
612.795	13.55471
612.99	12.72266
613.185	10.72395
613.38	11.13109
613.575	11.89596
613.77	15.02245
613.965	10.40527
614.159	11.10201
614.354	13.3314
614.549	13.03374
614.744	12.50311
614.938	10.62471
615.133	10.33689
615.328	13.30097
615.523	12.83071
615.717	15.12437
615.912	11.27123
616.107	12.04257
616.301	11.4665
616.496	10.92663
616.691	13.6542
616.885	12.62999
617.08	15.38055
617.274	12.92324
617.469	14.08669
617.664	12.74618
617.858	11.33959
618.053	12.50779
618.247	11.77709
618.442	9.40383
618.636	13.57444
618.831	11.08203
619.025	11.14917
619.219	15.27448
619.414	8.3879
619.608	11.6789
619.803	11.16105
619.997	14.31196
620.191	12.90867
620.386	12.31185
620.58	11.7675
620.774	9.99746
620.969	10.21724
621.163	12.00278
621.357	10.80276
621.551	11.5913
621.746	12.06116
621.94	11.56123
622.134	15.92128
622.328	14.64015
622.522	10.09667
622.716	13.20432
622.911	13.26891
623.105	13.14322
623.299	12.46584
623.493	15.93439
623.687	11.21797
623.881	11.20966
624.075	12.79445
624.269	13.37858
624.463	9.5069
624.657	10.1354
624.851	12.90617
625.045	12.94948
625.239	13.01635
625.433	11.45238
625.627	14.13991
625.821	11.41908
626.015	11.00155
626.209	12.33524
626.403	10.33477
626.596	12.58
626.79	13.12391
626.984	10.81166
627.178	12.87512
627.372	12.79
627.565	13.12396
627.759	10.78271
627.953	11.20611
628.147	12.59513
628.34	13.06997
628.534	15.03638
628.728	11.81392
628.921	13.4673
629.115	13.09954
629.309	13.38668
629.502	13.73396
629.696	12.42884
629.89	12.03677
630.083	12.71392
630.277	12.5524
630.47	14.22432
630.664	11.91361
630.857	10.51316
631.051	13.57673
631.244	13.70074
631.438	13.48253
631.631	11.4154
631.825	14.10585
632.018	12.95947
632.212	14.77414
632.405	13.68614
632.598	11.48948
632.792	12.53456
632.985	9.52159
633.178	11.92527
633.372	12.06881
633.565	12.11276
633.758	13.86598
633.952	11.19231
634.145	11.42222
634.338	11.62538
634.531	11.6376
634.724	11.36357
634.918	12.39347
635.111	12.04667
635.304	11.91053
635.497	15.59909
635.69	12.90277
635.883	14.02609
636.077	11.04381
636.27	13.0213
636.463	12.61301
636.656	12.66023
636.849	12.19217
637.042	13.17923
637.235	15.2012
637.428	13.43105
637.621	12.94961
637.814	14.56639
638.007	14.51308
638.2	14.56382
638.393	15.14633
638.586	10.58109
638.778	12.00083
638.971	12.34769
639.164	15.00256
639.357	12.99893
639.55	14.83751
639.743	13.61445
639.935	13.24026
640.128	16.11292
640.321	14.0762
640.514	13.02302
640.707	16.41104
640.899	13.81778
641.092	10.45204
641.285	28.44715
641.477	9.55896
641.67	16.77309
641.863	14.71512
642.055	13.0806
642.248	12.98745
642.441	12.59488
642.633	14.05511
642.826	14.16448
643.018	14.87772
643.211	16.01918
643.403	16.11084
643.596	16.77118
643.788	15.45057
643.981	12.72771
644.173	14.07419
644.366	12.32288
644.558	10.16779
644.751	14.76336
644.943	11.18489
645.135	15.86829
645.328	15.94369
645.52	14.24087
645.712	15.05147
645.905	18.31877
646.097	11.44431
646.289	13.82724
646.482	16.83677
646.674	11.90888
646.866	15.50476
647.058	13.84444
647.251	11.579
647.443	12.36119
647.635	13.06638
647.827	11.65467
648.019	11.46658
648.211	13.20868
648.404	13.28005
648.596	16.00082
648.788	13.89266
648.98	13.67812
649.172	13.96056
649.364	14.00997
649.556	10.29947
649.748	17.89384
649.94	12.1267
650.132	14.71181
650.324	12.41271
650.516	12.2529
650.708	15.42229
650.9	11.27133
651.092	10.77003
651.284	11.24395
651.476	11.5372
651.667	14.81429
651.859	16.1285
652.051	13.36696
652.243	13.54091
652.435	12.96011
652.627	14.20813
652.818	14.46853
653.01	11.07603
653.202	12.27598
653.394	12.97852
653.585	14.39725
653.777	21.3305
653.969	16.32997
654.16	16.03883
654.352	11.81017
654.544	13.32718
654.735	15.7257
654.927	13.89581
655.118	16.06336
655.31	15.13694
655.502	15.77377
655.693	13.16289
655.885	14.6087
656.076	16.36761
656.268	14.25998
656.459	16.25095
656.651	16.39249
656.842	12.96525
657.034	12.55399
657.225	15.52918
657.416	16.63873
657.608	16.65764
657.799	13.85898
657.99	16.4522
658.182	12.99634
658.373	12.8438
658.564	16.365
658.756	14.72711
658.947	13.69694
659.138	12.54615
659.33	13.32865
659.521	12.86094
659.712	13.86306
659.903	13.84437
660.094	13.36941
660.286	11.65096
660.477	17.28023
660.668	15.35366
660.859	14.17757
661.05	11.85278
661.241	15.48518
661.432	14.63086
661.623	13.56396
661.814	13.60211
662.006	11.69928
662.197	14.87682
662.388	16.81559
662.579	14.80872
662.77	16.67325
662.96	19.44924
663.151	16.32954
663.342	11.20305
663.533	15.44605
663.724	14.65805
663.915	18.34913
664.106	14.50918
664.297	17.82584
664.488	15.53203
664.678	13.07317
664.869	16.53433
665.06	16.60976
665.251	14.88694
665.442	15.87008
665.632	12.40359
665.823	18.67546
666.014	9.23221
666.204	16.26638
666.395	17.53837
666.586	19.50716
666.776	15.9738
666.967	18.89824
667.158	14.8544
667.348	17.83941
667.539	13.07125
667.729	16.71395
667.92	13.19194
668.111	16.89701
668.301	16.58602
668.492	14.18572
668.682	14.99478
668.873	14.75384
669.063	12.37155
669.253	15.75193
669.444	17.83594
669.634	14.88623
669.825	19.04031
670.015	18.04474
670.206	13.55343
670.396	19.49437
670.586	14.71854
670.777	16.15361
670.967	11.12018
671.157	14.75026
671.347	13.93386
671.538	18.66928
671.728	16.6905
671.918	19.0766
672.108	17.49211
672.299	14.48215
672.489	16.06565
672.679	14.02562
672.869	16.25346
673.059	20.34489
673.249	16.46675
673.44	13.30221
673.63	15.06692
673.82	17.52049
674.01	13.45965
674.2	16.22038
674.39	21.4791
674.58	17.18232
674.77	15.75607
674.96	15.0691
675.15	24.92649
675.34	18.10134
675.53	15.71883
675.72	14.96719
675.91	12.50683
676.099	20.33812
676.289	21.04622
676.479	18.27313
676.669	14.81038
676.859	17.20125
677.049	14.38345
677.238	16.04775
677.428	20.08704
677.618	17.02071
677.808	20.57228
677.997	17.14342
678.187	14.1195
678.377	15.79317
678.567	14.56384
678.756	15.22129
678.946	16.10293
679.136	13.13095
679.325	14.86687
679.515	14.01036
679.704	13.42631
679.894	18.24384
680.084	16.84591
680.273	18.88449
680.463	14.53404
680.652	14.41461
680.842	16.19473
681.031	18.20407
681.221	14.53369
681.41	17.31896
681.6	15.94494
681.789	17.88098
681.978	19.08208
682.168	17.12385
682.357	16.92513
682.547	17.63782
682.736	16.95501
682.925	19.60472
683.115	19.63535
683.304	17.8528
683.493	17.1443
683.682	17.67429
683.872	17.47909
684.061	19.13988
684.25	18.11298
684.439	22.1537
684.629	18.86349
684.818	25.57882
685.007	16.7328
685.196	16.42662
685.385	22.08697
685.574	18.23118
685.763	18.22999
685.952	18.2376
686.142	14.42711
686.331	20.82701
686.52	13.43887
686.709	22.59777
686.898	21.95077
687.087	19.44636
687.276	21.50665
687.465	21.06729
687.654	16.7131
687.842	21.44056
688.031	14.8009
688.22	21.67373
688.409	18.21977
688.598	18.77737
688.787	24.53572
688.976	18.52439
689.165	23.50333
689.353	17.0401
689.542	19.19242
689.731	21.20063
689.92	24.13098
690.108	19.98842
690.297	17.10131
690.486	18.33401
690.675	20.21108
690.863	22.89156
691.052	22.67285
691.241	19.25312
691.429	19.24497
691.618	22.1272
691.806	15.59742
691.995	17.9467
692.184	18.62116
692.372	17.87224
692.561	18.81107
692.749	19.69089
692.938	28.33004
693.126	20.42091
693.315	18.35758
693.503	21.20668
693.692	22.06942
693.88	21.23617
694.068	25.06866
694.257	19.53528
694.445	21.20053
694.634	13.87078
694.822	21.5737
695.01	22.55663
695.199	25.38669
695.387	23.8131
695.575	23.17745
695.763	19.0279
695.952	18.88688
696.14	15.38816
696.328	17.72134
696.516	19.2651
696.705	19.95869
696.893	19.74461
697.081	14.42648
697.269	21.50869
697.457	16.03079
697.645	15.53684
697.833	21.44372
698.021	16.93288
698.21	17.56119
698.398	18.23816
698.586	15.83489
698.774	15.60422
698.962	18.3327
699.15	16.02171
699.338	14.96716
699.526	20.26629
699.714	16.9749
699.901	17.31645
700.089	21.08852
700.277	16.9446
700.465	18.48264
700.653	21.1302
700.841	19.85321
701.029	17.21696
701.217	23.76672
701.404	19.35046
701.592	24.33005
701.78	26.84491
701.968	19.34095
702.155	18.35418
702.343	16.0033
702.531	24.20309
702.718	20.92684
702.906	18.56947
703.094	18.31389
703.281	24.39127
703.469	19.31234
703.657	24.06073
703.844	30.99618
704.032	27.35404
704.219	19.35487
704.407	22.56907
704.595	25.66792
704.782	22.56054
704.97	20.7124
705.157	20.40379
705.345	28.10262
705.532	33.28835
705.719	24.59002
705.907	28.14436
706.094	23.7027
706.282	31.16083
706.469	24.47606
706.656	26.03252
706.844	24.13394
707.031	29.17997
707.218	27.4636
707.406	31.49581
707.593	29.13061
707.78	28.39185
707.968	26.80979
708.155	23.95159
708.342	29.46655
708.529	28.95296
708.716	28.47168
708.904	32.90541
709.091	29.64871
709.278	23.26834
709.465	34.29134
709.652	32.53661
709.839	30.93958
710.026	26.79979
710.213	20.90479
710.4	27.12306
710.587	28.70808
710.774	28.93131
710.961	29.71074
711.148	26.44174
711.335	29.2739
711.522	25.75413
711.709	28.74831
711.896	34.16063
712.083	29.98822
712.27	24.07485
712.457	27.19806
712.644	21.36149
712.831	34.1565
713.017	27.75666
713.204	29.31241
713.391	24.44951
713.578	29.72373
713.765	31.76522
713.951	27.16078
714.138	37.32902
714.325	26.51719
714.512	25.19662
714.698	21.45372
714.885	30.19244
715.072	25.70745
715.258	24.35634
715.445	21.9426
715.631	28.67556
715.818	14.90127
716.005	21.65289
716.191	26.22143
716.378	22.4713
716.564	26.43855
716.751	20.46627
716.937	22.4621
717.124	27.38058
717.31	20.22253
717.497	31.21344
717.683	21.24452
717.869	32.24795
718.056	21.78795
718.242	25.9368
718.429	23.84384
718.615	19.75062
718.801	23.19716
718.988	28.75299
719.174	26.39782
719.36	22.79155
719.547	29.39448
719.733	25.25798
719.919	25.83352
720.105	26.12648
720.291	23.99888
720.478	25.14681
720.664	23.91409
720.85	22.70842
721.036	36.98985
721.222	31.48098
721.408	23.73155
721.595	32.46407
721.781	31.63689
721.967	29.53966
722.153	32.11491
722.339	27.03966
722.525	27.08005
722.711	21.29376
722.897	19.40907
723.083	23.0875
723.269	29.434
723.455	38.08515
723.641	43.64741
723.827	25.65373
724.012	27.40365
724.198	25.58629
724.384	31.70546
724.57	27.26315
724.756	19.6098
724.942	17.84096
725.127	30.30562
725.313	31.36685
725.499	31.36963
725.685	35.03121
725.87	27.65911
726.056	21.73097
726.242	30.9091
726.428	18.5942
726.613	29.67228
726.799	23.56693
726.985	21.76348
727.17	19.12062
727.356	34.90281
727.541	21.68227
727.727	25.10408
727.913	29.45774
728.098	23.45894
728.284	29.34576
728.469	20.48296
728.655	22.21566
728.84	31.11078
729.026	30.12004
729.211	30.41358
729.397	28.10618
729.582	30.08201
729.767	26.24908
729.953	28.11383
730.138	32.15485
730.323	16.02411
730.509	20.6883
730.694	34.41363
730.879	29.25416
731.065	27.04668
731.25	37.66054
731.435	29.79677
731.621	19.68997
731.806	24.25426
731.991	27.43265
732.176	19.78328
732.361	33.98422
732.547	27.66547
732.732	19.84749
732.917	37.40014
733.102	20.92473
733.287	23.22469
733.472	25.69962
733.657	26.25701
733.842	20.50139
734.027	23.46177
734.212	25.34657
734.397	23.38049
734.582	27.61035
734.767	31.59898
734.952	34.03708
735.137	15.43586
735.322	34.57723
735.507	29.02622
735.692	27.06852
735.877	37.50219
736.062	36.20531
736.247	28.84052
736.431	26.38036
736.616	32.38698
736.801	29.08676
736.986	27.13211
737.171	22.21323
737.355	21.41919
737.54	34.33319
737.725	27.31711
737.909	42.44388
738.094	24.54645
738.279	31.8826
738.463	26.83709
738.648	31.13498
738.833	30.16673
739.017	38.69678
739.202	25.82378
739.386	26.04561
739.571	23.00837
739.756	32.10757
739.94	27.63007
740.125	30.5825
740.309	24.10153
740.494	32.1288
740.678	28.92625
740.863	30.86358
741.047	28.27625
741.231	36.41326
741.416	24.3106
741.6	37.35564
741.785	25.1909
741.969	33.23921
742.153	36.90231
742.338	18.68279
742.522	28.74079
742.706	32.80691
742.89	20.97412
743.075	28.525
743.259	36.01594
743.443	34.69411
743.627	35.88809
743.812	41.24023
743.996	20.03702
744.18	27.42904
744.364	26.94564
744.548	43.21162
744.732	27.14953
744.916	34.08897
745.1	33.10436
745.285	27.85147
745.469	32.19318
745.653	39.21395
745.837	22.57759
746.021	43.34589
746.205	36.27827
746.389	30.90199
746.573	28.2775
746.757	38.43444
746.94	26.04533
747.124	36.2083
747.308	22.97278
747.492	36.11346
747.676	24.53458
747.86	45.34628
748.044	27.3027
748.227	19.9903
748.411	52.32707
748.595	30.88374
748.779	24.53574
748.963	32.1907
749.146	30.19685
749.33	26.19678
749.514	23.88773
749.697	36.50198
749.881	24.73581
750.065	23.05529
750.248	30.81143
750.432	45.89398
750.616	29.82412
750.799	23.22246
750.983	45.23466
751.166	46.05726
751.35	21.27205
751.533	37.30844
751.717	40.33425
751.9	40.20453
752.084	28.19736
752.267	25.4027
752.451	25.10121
752.634	29.79577
752.818	34.28886
753.001	35.66234
753.184	37.46592
753.368	32.74602
753.551	10.46082
753.734	25.50034
753.918	46.5928
754.101	26.20863
754.284	35.15953
754.467	27.55503
754.651	26.48922
754.834	24.61079
755.017	38.94527
755.2	38.25051
755.384	23.57154
755.567	35.89334
755.75	36.35323
755.933	27.7428
756.116	36.04046
756.299	27.22888
756.482	25.41678
756.665	34.31404
756.848	30.86062
757.032	33.80525
757.215	22.83239
757.398	24.40413
757.581	25.40987
757.764	50.27433
757.947	30.85897
758.129	37.22865
758.312	13.5347
758.495	29.76991
758.678	30.59574
758.861	28.33847
759.044	44.26662
759.227	24.65457
759.41	25.95531
759.592	36.41907
759.775	28.77369
759.958	37.19422
760.141	22.64149
760.324	48.13803
760.506	40.76159
760.689	36.21942
760.872	45.97944
761.054	33.91613
761.237	30.01227
761.42	33.25567
761.602	36.24695
761.785	33.65364
761.968	39.64934
762.15	43.90272
762.333	30.17714
762.515	34.81833
762.698	27.5719
762.88	36.75826
763.063	33.68445
763.245	38.58729
763.428	25.1337
763.61	27.25694
763.793	23.15481
763.975	32.69789
764.158	29.01095
764.34	27.33776
764.522	24.93189
764.705	29.55056
764.887	41.03326
765.069	21.50542
765.252	35.63978
765.434	36.18003
765.616	31.79869
765.799	26.20189
765.981	36.75848
766.163	26.95936
766.345	39.95644
766.528	27.35251
766.71	17.82881
766.892	32.54856
767.074	41.02888
767.256	28.8971
767.438	44.82378
767.62	33.27309
767.802	49.14496
767.985	36.72137
768.167	45.6625
768.349	28.43696
768.531	35.61097
768.713	34.81485
768.895	37.97434
769.077	35.15807
769.259	52.66457
769.441	70.56338
769.623	38.5247
769.804	44.13915
769.986	40.80442
770.168	50.12782
770.35	61.30881
770.532	48.05127
770.714	51.03155
770.896	49.48831
771.077	25.39316
771.259	54.11574
771.441	46.3778
771.623	55.78596
771.804	68.69172
771.986	26.62066
772.168	36.92951
772.35	52.95503
772.531	70.60428
772.713	44.71626
772.894	59.02594
773.076	42.74188
773.258	38.15687
773.439	58.66498
773.621	65.86304
773.802	34.62742
773.984	38.77824
774.166	47.5597
774.347	61.82567
774.529	57.01368
774.71	24.7077
774.891	43.75793
775.073	40.02734
775.254	60.01997
775.436	39.00806
775.617	71.71328
775.799	39.72624
775.98	58.10992
776.161	65.44073
776.343	66.16805
776.524	44.40802
776.705	40.52641
776.886	25.13234
777.068	47.51683
777.249	96.82028
777.43	67.27602
777.611	31.76317
777.793	40.98632
777.974	66.43097
778.155	37.74962
778.336	34.08664
778.517	76.14684
778.698	37.38201
778.879	25.32898
779.061	15.96071
779.242	51.04254
779.423	50.68426
779.604	38.80617
779.785	40.58736
779.966	48.53168
780.147	58.76846
780.328	58.14037
780.509	78.9264
780.69	55.52893
780.871	38.24868
781.051	29.78148
781.232	46.1915
781.413	45.35394
781.594	40.94451
781.775	39.47696
781.956	35.27995
782.137	24.23817
782.317	38.65995
782.498	47.77005
782.679	44.45691
782.86	48.51302
783.04	36.27235
783.221	47.97235
783.402	70.65305
783.583	47.37419
783.763	56.55338
783.944	39.4043
784.124	30.83532
784.305	68.43842
784.486	54.45902
784.666	45.89197
784.847	27.9328
785.027	88.74574
785.208	37.64584
785.388	39.31594
785.569	36.62827
785.749	44.31237
785.93	40.029
786.11	28.08326
786.291	51.55195
786.471	49.81011
786.652	56.24656
786.832	43.66353
787.012	47.97531
787.193	31.97181
787.373	46.55294
787.553	41.00949
787.734	49.70085
787.914	40.72638
788.094	57.86466
788.275	49.09854
788.455	41.54554
788.635	32.37338
788.815	48.91034
788.995	33.49248
789.176	28.78753
789.356	36.83958
789.536	43.3113
789.716	51.16654
789.896	36.54628
790.076	38.11322
790.256	49.66139
790.436	22.45101
790.616	33.64625
790.796	49.66492
790.976	40.07053
791.156	36.99437
791.336	52.33451
791.516	49.38475
791.696	42.60624
791.876	30.46515
792.056	47.90513
792.236	57.43521
792.416	55.51212
792.596	50.94207
792.776	52.00164
792.956	54.78639
793.135	69.80747
793.315	34.96771
793.495	60.47653
793.675	55.19664
793.854	54.72587
794.034	58.95308
794.214	33.97713
794.394	55.74969
794.573	62.10678
794.753	48.16231
794.933	35.94196
795.112	49.40726
795.292	58.46026
795.472	68.50565
795.651	31.17827
795.831	45.02545
796.01	42.35794
796.19	42.09792
796.369	45.8605
796.549	51.81706
796.728	44.05554
796.908	30.79547
797.087	34.09628
797.267	41.4001
797.446	32.47032
797.626	52.18491
797.805	51.27666
797.984	38.0138
798.164	54.74644
798.343	35.82296
798.522	48.46258
798.702	47.52499
798.881	31.93847
799.06	42.89921
799.239	24.37364
799.419	35.42344
799.598	68.01511
799.777	51.45768
799.956	61.70567
800.136	42.82408
800.315	34.76114
800.494	51.67261
800.673	57.77004
800.852	55.22766
801.031	59.86979
801.21	54.01028
801.389	41.90867
801.568	48.38905
801.747	73.04013
801.926	46.38769
802.105	65.37045
802.284	41.26528
802.463	67.46145
802.642	48.75708
802.821	48.40655
803	66.20877
803.179	59.36924
803.358	62.21729
803.537	38.71541
803.716	45.79183
803.895	38.44817
804.073	45.55885
804.252	37.28415
804.431	53.00722
804.61	43.74308
804.789	57.54628
804.967	39.91841
805.146	40.26347
805.325	77.4153
805.503	51.11905
805.682	31.61381
805.861	91.4998
806.039	64.524
806.218	40.15861
806.397	49.34626
806.575	45.81435
806.754	51.5154
806.932	35.97183
807.111	61.35011
807.289	58.42708
807.468	48.68387
807.646	60.52649
807.825	55.26649
808.003	50.67682
808.182	60.71187
808.36	47.47454
808.539	37.26272
808.717	69.32228
808.895	39.78738
809.074	53.50751
809.252	47.89334
809.43	55.41842
809.609	62.90071
809.787	68.75368
809.965	45.24953
810.144	49.4856
810.322	46.92972
810.5	54.60625
810.678	44.25776
810.856	78.89038
811.035	62.79872
811.213	57.59787
811.391	67.97048
811.569	52.58136
811.747	101.49206
811.925	65.69414
812.103	39.5285
812.281	48.92795
812.459	75.15028
812.637	74.98913
812.816	60.8781
812.994	82.63242
813.171	66.81456
813.349	56.91774
813.527	64.32025
813.705	69.76424
813.883	87.43786
814.061	61.34104
814.239	74.83809
814.417	83.68294
814.595	58.92807
814.773	55.65247
814.95	53.05893
815.128	59.40194
815.306	53.81002
815.484	48.84538
815.662	38.29996
815.839	35.07079
816.017	42.69957
816.195	67.15922
816.372	44.44882
816.55	61.79355
816.728	75.70545
816.905	48.22551
817.083	74.85397
817.261	51.25768
817.438	96.92127
817.616	76.73474
817.793	43.35375
817.971	64.23375
818.148	63.82901
818.326	72.07346
818.503	54.2516
818.681	75.55088
818.858	47.49293
819.036	51.51804
819.213	53.23112
819.391	43.4577
819.568	42.71503
819.745	37.75215
819.923	61.46587
820.1	47.51899
820.277	39.89626
820.455	46.00451
820.632	48.81067
820.809	51.7328
820.986	36.7512
821.164	31.938
821.341	29.45453
821.518	39.91778
821.695	30.62434
821.872	28.67994
822.05	26.10169
822.227	22.72256
822.404	23.9204
822.581	26.39447
822.758	24.01548
822.935	24.33244
823.112	26.59906
823.289	24.24411
823.466	27.42428
823.643	27.00157
823.82	30.87052
823.997	29.41352
824.174	33.25488
824.351	40.58146
824.528	39.68059
824.705	38.17321
824.882	41.11298
825.059	48.75773
825.236	40.40001
825.412	41.08236
825.589	45.18312
825.766	57.08729
825.943	41.05951
826.12	44.43447
826.296	35.88294
826.473	40.33614
826.65	39.68308
826.827	44.62371
827.003	32.82843
827.18	35.75442
827.357	38.55248
827.533	34.37899
827.71	24.72552
827.887	31.41083
828.063	34.83221
828.24	31.27756
828.416	38.20371
828.593	33.27031
828.769	43.72732
828.946	45.9647
829.122	47.34826
829.299	45.62395
829.475	36.03472
829.652	47.98508
829.828	68.63042
830.005	48.96557
830.181	60.85309
830.357	49.41093
830.534	63.28262
830.71	51.47668
830.886	63.01649
831.063	58.25108
831.239	72.44205
831.415	39.03009
831.592	72.37352
831.768	52.08166
831.944	44.86054
832.12	75.98243
832.296	71.99907
832.473	61.05891
832.649	46.00085
832.825	60.65971
833.001	40.11407
833.177	54.12065
833.353	50.26897
833.529	32.04698
833.705	46.24659
833.881	33.044
834.058	32.90209
834.234	34.99593
834.41	35.26414
834.586	29.03782
834.761	33.29398
834.937	37.26867
835.113	37.72364
835.289	33.84832
835.465	39.52954
835.641	37.19438
835.817	41.28124
835.993	60.03687
836.169	38.50003
836.344	53.28821
836.52	58.1628
836.696	55.06168
836.872	47.77932
837.048	105.53453
837.223	49.17541
837.399	79.9957
837.575	69.32489
837.75	65.42444
837.926	85.69909
838.102	116.71805
838.277	98.01721
838.453	130.60391
838.628	127.72756
838.804	57.7256
838.98	114.58839
839.155	63.32755
839.331	85.24425
839.506	61.92343
839.682	64.88117
839.857	83.2363
840.033	92.88315
840.208	49.71306
840.384	31.78851
840.559	53.04353
840.734	71.94409
840.91	90.46079
841.085	58.68924
841.26	58.15307
841.436	55.17486
841.611	54.53229
841.786	79.51394
841.962	94.95082
842.137	63.23396
842.312	47.46929
842.487	60.8686
842.663	54.58507
842.838	62.80132
843.013	170.52491
843.188	89.15035
843.363	97.87617
843.538	142.32786
843.714	144.44258
843.889	144.23115
844.064	155.79779
844.239	132.61658
844.414	147.54968
844.589	103.26241
844.764	180.25017
844.939	176.30937
845.114	194.14498
845.289	180.67567
845.464	244.1127
845.639	167.69542
845.814	91.81385
845.989	102.59949
846.163	127.33843
846.338	129.96441
846.513	178.1479
846.688	122.70546
846.863	122.79244
847.038	115.61249
847.212	134.16947
847.387	131.68439
847.562	135.93641
847.737	166.14049
847.911	70.40988
848.086	84.42534
848.261	273.9682
848.435	114.87599
848.61	177.83461
848.785	92.61542
848.959	179.17457
849.134	237.57265
849.308	242.49525
849.483	139.79933
849.658	202.98615
849.832	117.27891
850.007	106.01248
850.181	271.17083
850.356	104.00811
850.53	252.93685
850.705	89.53115
850.879	56.90558
851.053	125.97518
851.228	110.42125
851.402	141.99805
851.577	191.06683
851.751	201.50709
851.925	145.05417
852.099	71.95416
852.274	100.46891
852.448	122.34029
852.622	142.28919
852.797	126.30934
852.971	128.76109
853.145	132.33844
853.319	367.49273
853.493	195.13615
853.668	108.70693
853.842	242.10759
854.016	195.587
854.19	223.8407
854.364	141.64312
854.538	148.61249
854.712	199.91819
854.886	135.33262
855.06	120.9762
855.234	56.96246
855.408	208.28909
855.582	182.08232
855.756	179.8664
855.93	239.19894
856.104	155.39312
856.278	186.52341
856.452	138.50862
856.626	174.93934
856.8	274.97704
856.973	170.22736
857.147	157.15116
857.321	158.13775
857.495	196.89402
857.669	127.22989
857.842	124.09603
858.016	199.40131
858.19	108.21373
858.364	308.92044
858.537	125.69972
858.711	144.37537
858.885	129.82911
859.058	114.74474
859.232	69.45633
859.405	85.69097
859.579	184.5561
859.753	158.80401
859.926	119.17702
860.1	81.29617
860.273	138.0065
860.447	223.85233
860.62	123.92403
860.794	265.7829
860.967	162.10043
861.141	197.12191
861.314	281.18395
861.487	180.06277
861.661	221.54953
861.834	222.6805
862.008	200.03663
862.181	144.06341
862.354	144.94103
862.528	170.54329
862.701	112.28624
862.874	85.03977
863.047	129.28879
863.221	126.56332
863.394	68.20566
863.567	224.77984
863.74	55.49129
863.913	186.26796
864.087	161.03403
864.26	195.95282
864.433	137.48297
864.606	241.52986
864.779	149.5883
864.952	81.2383
865.125	118.3129
865.298	135.83475
865.471	145.2918
865.644	275.33579
865.817	233.94086
865.99	187.40948
866.163	217.37384
866.336	119.84899
866.509	143.55867
866.682	125.73448
866.855	208.78015
867.028	94.5464
867.2	179.70113
867.373	63.6264
867.546	153.25474
867.719	279.08888
867.892	181.47937
868.064	104.23031
868.237	174.74689
868.41	154.68415
868.583	99.37792
868.755	90.11866
868.928	148.99561
869.101	285.57262
869.273	211.72585
869.446	181.91198
869.619	202.18249
869.791	140.1396
869.964	203.74557
870.136	188.06303
870.309	156.39394
870.481	154.5959
870.654	81.03951
870.826	161.19242
870.999	126.28777
871.171	197.75716
871.344	122.46814
871.516	150.17313
871.689	112.05006
871.861	154.65499
872.033	113.14604
872.206	131.20415
872.378	202.9586
872.55	134.00048
872.723	87.11547
872.895	139.70524
873.067	202.53252
873.24	232.53709
873.412	120.19555
873.584	132.56738
873.756	129.57319
873.928	167.86225
874.101	164.35773
874.273	179.48467
874.445	71.77791
874.617	89.08141
874.789	160.33264
874.961	135.27365
875.133	175.61024
875.305	152.21505
875.477	100.70184
875.649	80.86496
875.821	110.43605
875.993	240.91054
876.165	106.37466
876.337	165.70748
876.509	129.51229
876.681	166.01006
876.853	157.90492
877.025	162.14588
877.197	106.66415
877.369	105.33455
877.541	197.24962
877.712	62.93709
877.884	101.34179
878.056	184.69303
878.228	100.67199
878.4	173.61808
878.571	94.93046
878.743	72.15441
878.915	161.28204
879.086	98.55915
879.258	120.12023
879.43	109.00165
879.601	96.5667
879.773	100.53507
879.945	32.79635
880.116	50.24797
880.288	33.93546
880.459	37.04456
880.631	29.63547
880.802	34.47534
880.974	33.13507
881.145	25.99158
881.317	31.89307
881.488	26.47122
881.66	28.90466
881.831	27.3307
882.002	34.75617
882.174	28.85978
882.345	35.19401
882.517	25.4649
882.688	40.35338
882.859	37.96639
883.03	52.46335
883.202	52.07587
883.373	51.23891
883.544	51.65749
883.715	76.16672
883.887	68.83214
884.058	63.39291
884.229	81.90249
884.4	84.85367
884.571	94.1344
884.742	85.76844
884.914	92.19125
885.085	117.28228
885.256	133.49013
885.427	118.12714
885.598	133.55856
885.769	137.22173
885.94	129.26245
886.111	96.00097
886.282	150.59226
886.453	123.71396
886.624	93.11593
886.795	141.2544
886.966	124.30244
887.136	155.93095
887.307	121.70594
887.478	181.65547
887.649	167.65524
887.82	171.05756
887.991	140.95097
888.161	184.49956
888.332	177.43596
888.503	100.02993
888.674	223.27148
888.844	240.35426
889.015	197.74235
889.186	96.79797
889.356	230.72573
889.527	96.59658
889.698	371.697
889.868	142.24074
890.039	169.51707
890.209	148.38744
890.38	194.35735
890.551	171.02907
890.721	235.9882
890.892	196.38972
891.062	142.03304
891.233	176.85682
891.403	140.77636
891.574	109.26842
891.744	142.50646
891.914	183.63645
892.085	149.66493
892.255	64.33232
892.425	231.81413
892.596	183.37182
892.766	178.87949
892.936	211.46533
893.107	193.05226
893.277	117.86412
893.447	90.42209
893.618	70.59505
893.788	129.7505
893.958	75.09619
894.128	80.05051
894.298	85.03998
894.468	111.7467
894.639	56.74815
894.809	44.72676
894.979	61.99065
895.149	69.8232
895.319	59.85464
895.489	71.65715
895.659	96.61933
895.829	72.68263
895.999	75.77887
896.169	61.49359
896.339	75.43291
896.509	137.06047
896.679	152.4507
896.849	150.72553
897.019	201.98714
897.189	155.71066
897.358	152.43059
897.528	216.37888
897.698	90.00083
897.868	194.46323
898.038	311.96317
898.208	283.05095
898.377	122.46193
898.547	294.49504
898.717	449.921
898.886	194.45737
899.056	284.521
899.226	423.9235
899.395	265.05766
899.565	324.18114
899.735	230.92443
899.904	360.76644
900.074	298.37138
900.244	154.99988
900.413	545.1232
900.583	146.14859
900.752	206.51257
900.922	333.3367
901.091	49.0347
901.261	287.66732
901.43	285.76619
901.599	278.40253
901.769	597.12169
901.938	316.2936
902.108	309.67397
902.277	383.15949
902.446	116.90396
902.616	125.58965
902.785	183.10861
902.954	305.17291
903.124	202.87064
903.293	164.57375
903.462	97.08062
903.631	128.67271
903.801	95.02981
903.97	57.75983
904.139	90.45846
904.308	67.46496
904.477	58.2665
904.646	41.16282
904.816	54.58649
904.985	78.08206
905.154	113.6542
