Data from WindowProjectSample3_Transmission__39__00039.txt Node

Date: Sun May 04 10:40:59 EDT 2025
User: jessi
Spectrometer: SR400872
Trigger mode: 0
Integration Time (sec): 5.000050E-1
Scans to average: 20
Electric dark correction enabled: true
Nonlinearity correction enabled: true
Boxcar width: 0
XAxis mode: Wavelengths
Number of Pixels in Spectrum: 3648
>>>>>Begin Spectral Data<<<<<
184.909	-1109.04962
185.132	-1361.26489
185.355	-1440.63879
185.578	-953.61833
185.801	638.82609
186.024	-1025.94033
186.247	1139.34061
186.47	-1018.31796
186.693	-312.9376
186.916	-729.41055
187.139	-801.48917
187.362	-938.24673
187.585	-936.89068
187.808	-727.29131
188.031	3056.97921
188.254	-2160.78914
188.476	-1123.97544
188.699	-1200.98246
188.922	821.23003
189.145	-948.94177
189.368	-2323.65564
189.591	-1540.21949
189.813	-1489.67809
190.036	-1079.83397
190.259	-1245.52251
190.482	-1539.02424
190.705	-1930.96602
190.927	-852.34709
191.15	-1174.87186
191.373	-1530.14577
191.595	-1534.26612
191.818	-1486.66295
192.041	-890.12341
192.263	-1188.67447
192.486	-505.49679
192.709	-1311.62383
192.931	-3106.07181
193.154	-1333.10515
193.377	-1273.03448
193.599	-1959.37357
193.822	-1643.67472
194.044	-1461.64629
194.267	-1348.6767
194.489	203.94094
194.712	-1265.20797
194.934	-1595.00281
195.157	-607.34112
195.379	-1626.49278
195.602	-801.37989
195.824	-1424.85127
196.047	-2088.96538
196.269	-1067.12899
196.492	-1375.27766
196.714	-768.72541
196.936	-1378.90836
197.159	-988.61522
197.381	-800.92895
197.604	-679.22419
197.826	-1373.26258
198.048	-1291.40545
198.271	-1000.0438
198.493	-1126.95128
198.715	-807.26023
198.938	-1042.61647
199.16	-2807.05641
199.382	-1250.66299
199.604	-925.09922
199.827	-1136.55491
200.049	-1583.15467
200.271	-1083.31455
200.493	-2245.2936
200.715	-1031.0221
200.938	-846.45286
201.16	-925.9942
201.382	-4351.46996
201.604	-1740.19181
201.826	-826.95773
202.048	-844.87284
202.27	-2122.05397
202.492	-2116.63633
202.715	-2229.6348
202.937	-2526.53112
203.159	-1871.64095
203.381	-2883.99449
203.603	-1070.66091
203.825	-6817.90504
204.047	-1159.52663
204.269	-1821.70484
204.491	-1431.34381
204.713	-960.74747
204.935	-1140.72482
205.156	-1346.12905
205.378	-1399.05852
205.6	-992.86565
205.822	-1006.86434
206.044	2416.10833
206.266	-2657.347
206.488	-803.6993
206.71	-1901.2226
206.932	-1345.29607
207.153	-1011.7571
207.375	-880.38901
207.597	-1084.92562
207.819	-829.43867
208.041	-1511.51032
208.262	-3539.08968
208.484	-2435.99927
208.706	-2296.19269
208.927	-3294.48688
209.149	-1334.33458
209.371	-1233.50572
209.593	-9963.79278
209.814	-760.60592
210.036	-4307.41315
210.258	-1462.47808
210.479	-1248.11048
210.701	-2341.60583
210.922	-2599.76561
211.144	-2224.63818
211.366	-2470.52564
211.587	2884.42126
211.809	-1188.59131
212.03	-3366.30074
212.252	-3174.52238
212.473	-1064.35169
212.695	-1158.23999
212.916	-9306.81268
213.138	-7401.52819
213.359	-997.69469
213.581	-2422.10978
213.802	-8293.7059
214.024	-1459.98971
214.245	99006.53874
214.466	2516.02135
214.688	-1205.16636
214.909	-775.35712
215.131	-2463.7987
215.352	-1751.88668
215.573	-1237.25394
215.795	-1388.18131
216.016	-2353.24364
216.237	2913.93695
216.459	-1784.24041
216.68	-2171.86289
216.901	-1131.03943
217.122	-1321.74728
217.344	-1117.10821
217.565	-1325.6199
217.786	-1264.30725
218.007	-1532.0838
218.228	-921.89709
218.45	-786.00583
218.671	-5515.31203
218.892	-1030.32091
219.113	-2031.97216
219.334	-143.5254
219.555	-1191.49519
219.776	-1113.31178
219.997	-1250.94219
220.219	-1098.6827
220.44	-1525.07953
220.661	-769.49772
220.882	-1466.37304
221.103	-3643.14156
221.324	-2347.73408
221.545	-2159.27494
221.766	-1127.26903
221.987	-2690.48023
222.208	-1016.58405
222.429	-946.01113
222.65	5361.90726
222.87	6156.87606
223.091	-2705.12896
223.312	-2581.27568
223.533	-2061.71995
223.754	-1158.23357
223.975	-3429.41592
224.196	-7488.75742
224.417	-1838.32165
224.637	1695.94796
224.858	163.34492
225.079	-2749.41547
225.3	3148.82185
225.521	-837.26739
225.741	30024.61069
225.962	-1937.60958
226.183	556.86722
226.404	-3672.76201
226.624	-5130.55998
226.845	9299.20841
227.066	-6234.90332
227.286	1340.28012
227.507	350.5287
227.728	384.94757
227.948	941.3
228.169	242.27941
228.389	244.48994
228.61	133.56213
228.831	178.30122
229.051	17.34354
229.272	99.62037
229.492	134.75125
229.713	38.11657
229.933	86.91706
230.154	74.88649
230.374	135.93089
230.595	95.31905
230.815	60.85793
231.036	93.2354
231.256	-14.43638
231.477	167.00796
231.697	105.158
231.917	100.4734
232.138	145.23288
232.358	327.73022
232.579	262.32388
232.799	49.58095
233.019	265.57305
233.24	315.30916
233.46	97.79568
233.68	165.33465
233.901	98.05302
234.121	75.80836
234.341	34.11938
234.561	-6.78589
234.782	51.32895
235.002	182.12097
235.222	-1.81007
235.442	154.25438
235.662	77.18714
235.883	161.82158
236.103	118.47545
236.323	90.01764
236.543	65.53409
236.763	104.24667
236.983	108.15163
237.203	97.44937
237.423	143.45177
237.643	214.51986
237.864	194.4024
238.084	47.53429
238.304	60.79097
238.524	108.09851
238.744	94.68243
238.964	163.68374
239.184	143.54992
239.404	161.49508
239.624	82.10738
239.843	142.04014
240.063	83.4669
240.283	49.83829
240.503	57.26516
240.723	55.76774
240.943	34.60701
241.163	41.95516
241.383	31.27679
241.603	16.94214
241.822	19.35871
242.042	13.93206
242.262	17.86519
242.482	19.26799
242.702	20.17743
242.921	6.71359
243.141	13.47979
243.361	12.99886
243.581	18.08053
243.8	15.16251
244.02	10.15671
244.24	18.54689
244.459	17.20067
244.679	34.8675
244.899	22.40349
245.118	27.06531
245.338	24.76787
245.558	27.43059
245.777	16.75118
245.997	20.47379
246.216	21.23938
246.436	12.92171
246.655	9.07309
246.875	6.95364
247.094	12.41781
247.314	4.48776
247.533	7.48752
247.753	8.3533
247.972	6.64376
248.192	2.43595
248.411	4.36993
248.631	6.68708
248.85	8.07301
249.07	7.70092
249.289	11.51939
249.508	8.55113
249.728	12.21161
249.947	13.44069
250.166	17.46895
250.386	8.58116
250.605	13.85056
250.824	22.12109
251.044	15.21473
251.263	47.5021
251.482	27.09928
251.701	24.0053
251.921	0.82224
252.14	8.03319
252.359	8.84003
252.578	20.00534
252.798	7.58204
253.017	16.64192
253.236	8.93164
253.455	11.39099
253.674	21.34524
253.893	10.22415
254.112	15.07474
254.331	23.66097
254.551	18.5912
254.77	10.53897
254.989	27.55959
255.208	22.36832
255.427	31.84841
255.646	27.77052
255.865	42.45358
256.084	17.95923
256.303	22.49963
256.522	27.38674
256.741	6.12894
256.96	6.50393
257.179	18.04405
257.397	22.1618
257.616	11.93704
257.835	12.49663
258.054	29.24453
258.273	20.10701
258.492	19.74063
258.711	13.47231
258.93	6.12252
259.148	9.4017
259.367	8.74232
259.586	10.92695
259.805	5.1919
260.023	9.06667
260.242	6.62772
260.461	5.19977
260.68	2.63791
260.898	7.63816
261.117	2.80864
261.336	2.10701
261.554	6.25517
261.773	6.07668
261.992	1.88888
262.21	6.27558
262.429	7.12182
262.648	12.63826
262.866	15.06248
263.085	11.30501
263.303	9.18629
263.522	16.68622
263.74	15.70434
263.959	27.97368
264.178	14.70159
264.396	12.52742
264.615	9.51442
264.833	21.19545
265.051	17.83743
265.27	20.81393
265.488	20.65224
265.707	13.42552
265.925	20.56337
266.144	10.35161
266.362	11.21453
266.58	12.11118
266.799	9.74796
267.017	11.20425
267.235	10.63366
267.454	6.96769
267.672	3.73803
267.89	8.38039
268.109	8.76796
268.327	8.7683
268.545	2.05224
268.763	7.57597
268.982	3.97874
269.2	9.3054
269.418	5.95434
269.636	4.56487
269.854	8.94642
270.073	6.16857
270.291	3.60687
270.509	3.97016
270.727	8.52243
270.945	14.10983
271.163	13.42832
271.381	3.6225
271.599	5.81779
271.817	9.50903
272.036	3.7403
272.254	6.68947
272.472	4.85737
272.69	4.5364
272.908	4.8871
273.126	7.4242
273.344	9.64089
273.562	3.68482
273.779	5.08662
273.997	8.21654
274.215	7.44934
274.433	5.29938
274.651	8.16013
274.869	8.451
275.087	5.12904
275.305	7.81384
275.523	5.08249
275.74	5.8324
275.958	10.63701
276.176	14.79637
276.394	4.57534
276.612	6.50023
276.829	6.28903
277.047	5.32002
277.265	5.82044
277.483	6.64891
277.7	7.52015
277.918	6.47275
278.136	11.65322
278.353	5.69426
278.571	3.48299
278.789	9.22879
279.006	2.2591
279.224	5.95654
279.442	9.29136
279.659	6.96983
279.877	4.28275
280.094	10.28775
280.312	2.27253
280.529	6.73738
280.747	2.3869
280.964	5.46851
281.182	10.45802
281.399	5.71792
281.617	7.18602
281.834	4.80221
282.052	3.90033
282.269	6.22296
282.487	4.9174
282.704	4.58746
282.921	4.01758
283.139	6.27504
283.356	7.68126
283.574	7.5912
283.791	3.63766
284.008	9.69217
284.226	5.71262
284.443	6.60878
284.66	8.1189
284.877	6.79325
285.095	4.25384
285.312	3.35255
285.529	2.01433
285.746	1.7453
285.964	4.02189
286.181	2.74192
286.398	3.73737
286.615	5.21473
286.832	4.98979
287.05	1.19615
287.267	3.42887
287.484	3.62962
287.701	4.97725
287.918	4.88421
288.135	5.17
288.352	2.24852
288.569	2.71086
288.786	4.72798
289.003	3.66206
289.22	5.91149
289.437	3.41761
289.654	5.40404
289.871	5.65422
290.088	5.64001
290.305	4.58503
290.522	3.7609
290.739	4.01748
290.956	5.85779
291.173	6.6579
291.39	6.40637
291.607	4.13059
291.824	3.53332
292.04	2.68476
292.257	5.50807
292.474	5.97909
292.691	3.93976
292.908	1.88911
293.125	3.33486
293.341	2.32993
293.558	9.09973
293.775	4.10306
293.992	4.28636
294.208	1.65924
294.425	2.72793
294.642	3.74883
294.858	4.73747
295.075	1.38334
295.292	3.854
295.508	4.7074
295.725	6.52083
295.942	3.4283
296.158	2.5117
296.375	3.98318
296.591	3.1816
296.808	3.05115
297.024	3.72615
297.241	4.19252
297.458	4.47448
297.674	0.55108
297.891	3.54199
298.107	2.68104
298.323	2.05488
298.54	4.86659
298.756	2.53203
298.973	1.11252
299.189	5.11764
299.406	2.38712
299.622	5.2583
299.838	5.27192
300.055	4.91425
300.271	1.26751
300.487	1.95361
300.704	2.43067
300.92	1.43319
301.136	7.01516
301.353	5.52033
301.569	3.9598
301.785	3.93549
302.001	4.89003
302.218	4.2392
302.434	4.53153
302.65	1.44605
302.866	2.86454
303.083	7.20556
303.299	7.08784
303.515	3.93154
303.731	3.96864
303.947	1.43452
304.163	2.64785
304.379	4.03154
304.595	4.60397
304.812	2.85487
305.028	2.33645
305.244	3.03764
305.46	4.98526
305.676	5.07708
305.892	5.99307
306.108	4.46078
306.324	3.1578
306.54	6.80927
306.756	4.88194
306.972	4.62517
307.187	3.31746
307.403	6.6837
307.619	2.96917
307.835	5.75609
308.051	5.91041
308.267	2.00597
308.483	5.4349
308.699	4.49257
308.914	3.62688
309.13	3.81283
309.346	0.9912
309.562	1.93808
309.778	1.09582
309.993	4.63908
310.209	3.42084
310.425	1.58907
310.641	3.07497
310.856	1.89544
311.072	1.96123
311.288	3.47186
311.503	3.63164
311.719	0.75292
311.935	0.65913
312.15	4.05617
312.366	3.61493
312.581	4.22776
312.797	3.19662
313.013	4.45312
313.228	2.48592
313.444	3.61176
313.659	2.17518
313.875	4.16122
314.09	3.32856
314.306	5.94566
314.521	5.04735
314.737	4.70609
314.952	4.17773
315.168	3.76955
315.383	4.33645
315.599	3.29273
315.814	3.36128
316.029	5.35502
316.245	1.61668
316.46	1.31157
316.675	5.83766
316.891	6.92026
317.106	8.6995
317.321	4.86154
317.537	4.46121
317.752	5.0811
317.967	5.17486
318.183	2.5387
318.398	3.19052
318.613	5.61128
318.828	6.16364
319.043	5.36299
319.259	3.39168
319.474	4.11268
319.689	5.8167
319.904	0.85691
320.119	5.10053
320.334	4.54769
320.549	3.29966
320.765	5.70493
320.98	4.29776
321.195	5.50703
321.41	3.74732
321.625	5.22775
321.84	6.94771
322.055	7.00453
322.27	3.23202
322.485	2.10659
322.7	4.31712
322.915	5.99083
323.13	2.44799
323.345	6.47208
323.56	4.57778
323.775	5.04152
323.989	5.12424
324.204	4.30617
324.419	5.36347
324.634	1.5878
324.849	3.66291
325.064	7.14142
325.279	5.33429
325.493	4.74882
325.708	5.55996
325.923	2.54908
326.138	2.62413
326.352	6.6121
326.567	5.40045
326.782	3.32823
326.997	2.54103
327.211	4.97835
327.426	4.60946
327.641	3.37138
327.855	1.8357
328.07	4.89719
328.285	6.84274
328.499	3.48693
328.714	4.50912
328.928	5.11219
329.143	4.05336
329.358	5.84103
329.572	5.70735
329.787	6.13195
330.001	8.22976
330.216	2.03226
330.43	6.78669
330.645	6.81508
330.859	5.49902
331.074	2.96225
331.288	4.16049
331.503	6.60206
331.717	2.54678
331.931	3.78488
332.146	4.33833
332.36	7.36665
332.575	5.01932
332.789	4.48389
333.003	3.91836
333.218	5.04947
333.432	2.97353
333.646	5.35874
333.86	6.86356
334.075	7.37234
334.289	3.36544
334.503	2.45832
334.717	4.72873
334.932	4.77674
335.146	5.91532
335.36	3.27704
335.574	4.52792
335.788	4.56711
336.003	5.35199
336.217	4.99708
336.431	4.50701
336.645	3.10628
336.859	2.39008
337.073	4.02566
337.287	4.56176
337.501	2.56018
337.715	4.89712
337.929	5.40427
338.143	2.36067
338.357	4.01961
338.571	2.78449
338.785	5.04137
338.999	3.20814
339.213	3.1377
339.427	1.50319
339.641	5.69443
339.855	3.57728
340.069	2.90345
340.283	5.53189
340.497	6.69573
340.711	4.67714
340.924	3.45415
341.138	2.21398
341.352	1.85654
341.566	4.07495
341.78	1.11657
341.993	2.91735
342.207	2.37276
342.421	4.25066
342.635	3.67651
342.848	2.83493
343.062	0.53599
343.276	2.84617
343.49	7.29098
343.703	2.91145
343.917	5.15609
344.131	5.35048
344.344	2.8695
344.558	3.11319
344.771	2.43115
344.985	5.72103
345.199	6.42898
345.412	4.30542
345.626	4.13139
345.839	1.0947
346.053	2.25955
346.266	2.15131
346.48	4.64741
346.693	4.07287
346.907	4.36788
347.12	2.43142
347.334	3.95682
347.547	4.29153
347.76	3.29307
347.974	5.68395
348.187	4.26928
348.401	3.31772
348.614	2.90351
348.827	3.32074
349.041	4.66669
349.254	1.1699
349.467	3.37311
349.681	1.85423
349.894	2.8628
350.107	5.63457
350.32	6.60747
350.534	1.29015
350.747	3.21254
350.96	2.09549
351.173	2.54262
351.386	3.01259
351.6	2.89623
351.813	2.54342
352.026	3.58835
352.239	1.69345
352.452	3.31838
352.665	5.02785
352.878	3.24806
353.092	6.82044
353.305	4.53626
353.518	3.89397
353.731	2.32927
353.944	5.09439
354.157	2.79965
354.37	2.34151
354.583	2.03087
354.796	1.03781
355.009	5.41917
355.222	3.54956
355.435	3.55229
355.647	5.06249
355.86	1.9483
356.073	3.15655
356.286	2.68372
356.499	4.62527
356.712	4.05072
356.925	3.76625
357.138	4.76773
357.35	1.85157
357.563	2.73174
357.776	3.42547
357.989	2.75836
358.201	4.05694
358.414	3.43337
358.627	4.87905
358.84	2.88735
359.052	1.57157
359.265	1.70094
359.478	4.5299
359.69	-0.35343
359.903	4.28292
360.116	4.33555
360.328	0.94096
360.541	4.36497
360.753	1.78508
360.966	2.2573
361.179	2.43569
361.391	2.2543
361.604	1.51708
361.816	2.25874
362.029	1.99654
362.241	1.66713
362.454	2.02804
362.666	1.69214
362.879	2.88529
363.091	2.36514
363.304	1.763
363.516	2.6472
363.728	1.21026
363.941	3.65174
364.153	2.12157
364.366	0.0428
364.578	1.51523
364.79	3.59332
365.003	2.65013
365.215	2.36843
365.427	3.52619
365.639	4.56002
365.852	3.19295
366.064	5.47284
366.276	2.22965
366.488	3.60784
366.701	2.29657
366.913	2.5857
367.125	2.72647
367.337	2.16275
367.549	2.19463
367.762	3.00879
367.974	3.01312
368.186	2.00555
368.398	4.25942
368.61	3.79321
368.822	3.92717
369.034	2.98328
369.246	3.97441
369.458	6.04288
369.67	1.54419
369.882	5.57613
370.094	0.28756
370.306	5.14258
370.518	2.439
370.73	2.14409
370.942	1.85852
371.154	2.71977
371.366	2.28866
371.578	3.38391
371.79	1.84266
372.002	4.50661
372.214	5.30635
372.425	3.3033
372.637	4.71393
372.849	3.27997
373.061	0.05694
373.273	3.6746
373.484	3.73703
373.696	4.21462
373.908	0.05815
374.12	4.4424
374.331	3.52391
374.543	1.8634
374.755	1.64857
374.967	3.19943
375.178	4.10009
375.39	2.64339
375.602	2.98836
375.813	1.24719
376.025	1.29817
376.236	2.63493
376.448	3.06842
376.66	2.27617
376.871	2.25855
377.083	4.0228
377.294	4.2533
377.506	2.18577
377.717	4.57292
377.929	3.03952
378.14	1.7641
378.352	3.52597
378.563	3.39622
378.775	4.52958
378.986	1.85804
379.197	3.14123
379.409	2.20212
379.62	4.10363
379.832	3.16143
380.043	2.50752
380.254	3.26088
380.466	1.34211
380.677	6.62978
380.888	5.93773
381.1	6.3866
381.311	6.09056
381.522	2.91126
381.733	7.01246
381.945	2.57176
382.156	3.09124
382.367	2.28737
382.578	6.69186
382.789	6.59879
383.001	2.29684
383.212	4.86122
383.423	5.20425
383.634	4.48029
383.845	3.66756
384.056	2.47497
384.267	2.89122
384.478	2.89155
384.69	1.60425
384.901	3.77602
385.112	3.43584
385.323	5.11306
385.534	3.59178
385.745	3.29529
385.956	3.66587
386.167	1.75075
386.378	3.72529
386.588	1.54702
386.799	2.06376
387.01	0.9432
387.221	3.98744
387.432	2.88148
387.643	5.55887
387.854	2.73261
388.065	2.65656
388.275	2.83252
388.486	2.54236
388.697	2.95839
388.908	2.62884
389.119	4.57873
389.329	5.37379
389.54	3.20187
389.751	3.55458
389.962	4.74431
390.172	3.50495
390.383	2.47131
390.594	2.39558
390.804	2.26317
391.015	2.50491
391.226	3.23678
391.436	3.9784
391.647	3.54053
391.858	4.07968
392.068	1.07266
392.279	1.62002
392.489	3.27642
392.7	4.43749
392.91	1.79996
393.121	2.22898
393.331	3.70204
393.542	4.75125
393.752	3.95104
393.963	3.51611
394.173	3.38055
394.384	4.19588
394.594	3.11022
394.804	1.68197
395.015	3.41013
395.225	4.09472
395.436	1.80875
395.646	3.96338
395.856	2.46038
396.067	1.83282
396.277	4.6695
396.487	3.98692
396.697	3.77413
396.908	4.4901
397.118	4.51926
397.328	3.77394
397.538	4.7599
397.749	2.84499
397.959	4.73764
398.169	4.47919
398.379	2.04106
398.589	4.64017
398.8	3.63255
399.01	3.69465
399.22	3.288
399.43	6.40966
399.64	3.26059
399.85	4.49191
400.06	3.62819
400.27	3.0242
400.48	3.67554
400.69	5.56467
400.9	3.05042
401.11	2.70761
401.32	4.843
401.53	3.34224
401.74	5.95877
401.95	4.87109
402.16	2.79379
402.37	4.73507
402.58	3.17026
402.79	4.84189
403	5.08968
403.209	3.31532
403.419	4.95421
403.629	3.30738
403.839	4.9509
404.049	5.02228
404.258	3.00523
404.468	2.7975
404.678	4.79331
404.888	4.8663
405.097	2.959
405.307	3.79133
405.517	4.62229
405.727	4.39336
405.936	3.5364
406.146	4.25726
406.356	5.76573
406.565	4.06023
406.775	3.44398
406.984	3.47082
407.194	6.22493
407.404	4.37372
407.613	4.70654
407.823	5.08542
408.032	5.74471
408.242	5.65556
408.451	3.71869
408.661	4.28528
408.87	6.73133
409.08	3.61952
409.289	4.98591
409.499	4.78725
409.708	4.72715
409.918	2.15594
410.127	4.56906
410.336	6.44248
410.546	5.19741
410.755	4.21074
410.964	3.90549
411.174	3.77466
411.383	5.22151
411.592	5.12997
411.802	3.4105
412.011	5.88804
412.22	4.5758
412.429	6.59438
412.639	6.2892
412.848	6.46805
413.057	6.72739
413.266	6.30619
413.475	4.89444
413.685	6.00625
413.894	5.99642
414.103	6.4448
414.312	5.74095
414.521	4.91462
414.73	5.16303
414.939	7.3587
415.148	5.60744
415.357	5.35089
415.566	4.68109
415.776	4.68716
415.985	4.42747
416.194	6.11921
416.403	7.02331
416.611	3.52542
416.82	4.42803
417.029	5.21332
417.238	4.28827
417.447	4.09206
417.656	4.53854
417.865	4.23512
418.074	4.50335
418.283	4.97662
418.492	5.95267
418.7	5.70683
418.909	6.68419
419.118	5.10439
419.327	5.35449
419.536	5.16619
419.744	4.53403
419.953	6.01677
420.162	5.92935
420.371	4.4452
420.579	4.30273
420.788	5.58039
420.997	5.59208
421.205	5.49196
421.414	5.1153
421.623	5.15684
421.831	4.54548
422.04	5.52912
422.249	4.47885
422.457	5.35287
422.666	4.64848
422.874	6.00718
423.083	5.94858
423.291	5.92761
423.5	5.42439
423.708	5.6423
423.917	6.19457
424.125	5.47333
424.334	5.05371
424.542	7.22412
424.751	6.32383
424.959	6.04838
425.167	6.59515
425.376	6.45922
425.584	5.58306
425.793	6.12131
426.001	4.98709
426.209	6.45376
426.418	5.11349
426.626	5.26838
426.834	5.14131
427.042	5.91818
427.251	5.1606
427.459	6.81497
427.667	6.10171
427.875	4.6279
428.084	5.3579
428.292	7.30051
428.5	6.52652
428.708	4.93369
428.916	4.89272
429.124	6.14537
429.333	5.77996
429.541	5.9769
429.749	6.18691
429.957	6.00936
430.165	8.50938
430.373	4.78728
430.581	6.46549
430.789	7.63697
430.997	5.51788
431.205	5.48387
431.413	6.21991
431.621	5.82084
431.829	6.91036
432.037	5.99448
432.245	6.86521
432.453	6.62412
432.661	5.98094
432.869	8.3786
433.076	5.27056
433.284	6.13962
433.492	6.85534
433.7	7.50943
433.908	5.83175
434.116	6.27724
434.323	6.48586
434.531	6.2568
434.739	6.70645
434.947	7.13277
435.154	6.97622
435.362	6.50042
435.57	6.0264
435.778	5.85959
435.985	6.76147
436.193	5.91301
436.401	7.6789
436.608	6.48174
436.816	6.10974
437.023	8.2472
437.231	8.40347
437.439	6.76533
437.646	7.18633
437.854	7.10193
438.061	7.34155
438.269	6.33627
438.476	7.36079
438.684	6.84737
438.891	6.25661
439.099	5.91368
439.306	5.26109
439.514	5.67377
439.721	6.98964
439.929	6.03586
440.136	7.00603
440.343	6.86854
440.551	6.25377
440.758	8.28922
440.965	7.11933
441.173	6.73361
441.38	5.983
441.587	6.97913
441.795	6.15537
442.002	6.76378
442.209	6.78309
442.416	7.20693
442.624	7.11429
442.831	7.04073
443.038	6.08859
443.245	5.82771
443.452	6.39008
443.66	7.63728
443.867	6.13173
444.074	6.34997
444.281	6.32037
444.488	6.60763
444.695	6.77556
444.902	6.33671
445.109	7.38153
445.316	6.55016
445.523	6.48141
445.73	5.87361
445.937	6.79004
446.144	7.18346
446.351	7.0135
446.558	5.93816
446.765	7.35971
446.972	7.48274
447.179	6.51165
447.386	7.75495
447.593	6.32645
447.8	7.70576
448.007	6.49488
448.214	6.6185
448.42	6.23887
448.627	7.83377
448.834	6.62875
449.041	6.41937
449.248	6.51276
449.454	7.67595
449.661	8.38827
449.868	6.44365
450.075	6.15549
450.281	4.90041
450.488	5.81866
450.695	6.15876
450.901	6.06838
451.108	6.79225
451.315	8.08726
451.521	6.96494
451.728	8.0015
451.935	6.35079
452.141	6.81521
452.348	6.90612
452.554	6.91035
452.761	6.63909
452.967	8.53573
453.174	7.15119
453.38	7.14856
453.587	5.69573
453.793	6.94032
454	7.65297
454.206	8.95279
454.413	8.04084
454.619	7.39036
454.825	6.25213
455.032	7.60272
455.238	7.96463
455.445	5.897
455.651	7.20582
455.857	5.15616
456.064	6.82631
456.27	6.79485
456.476	6.74575
456.682	5.50077
456.889	7.53545
457.095	7.5542
457.301	9.56049
457.507	7.25627
457.714	7.38903
457.92	7.14246
458.126	6.32474
458.332	6.93221
458.538	6.54592
458.744	6.68597
458.951	6.77421
459.157	8.64939
459.363	7.29967
459.569	6.88388
459.775	7.64638
459.981	6.35054
460.187	6.8354
460.393	7.55968
460.599	8.01842
460.805	7.00619
461.011	6.94513
461.217	7.79782
461.423	7.95878
461.629	6.78387
461.835	7.61597
462.041	6.83703
462.247	8.69885
462.453	6.91504
462.658	7.1359
462.864	7.98731
463.07	7.57476
463.276	7.46471
463.482	7.61162
463.688	8.74408
463.893	7.0276
464.099	7.05822
464.305	9.14791
464.511	6.859
464.716	7.31989
464.922	8.1561
465.128	6.66327
465.333	9.31117
465.539	7.99228
465.745	7.35694
465.95	7.74742
466.156	10.24783
466.362	8.66912
466.567	7.41919
466.773	7.08535
466.978	9.14197
467.184	6.46324
467.389	5.39151
467.595	8.06908
467.8	6.57873
468.006	8.85467
468.211	8.58085
468.417	6.43425
468.622	8.03991
468.828	8.21081
469.033	7.81135
469.239	10.50972
469.444	6.87343
469.649	8.63573
469.855	7.36557
470.06	7.65181
470.266	6.44137
470.471	8.33124
470.676	8.03088
470.881	5.96688
471.087	9.13227
471.292	9.31186
471.497	6.38897
471.703	7.59813
471.908	7.07067
472.113	7.80666
472.318	8.60855
472.523	6.57742
472.729	8.11484
472.934	8.13625
473.139	7.24432
473.344	8.30667
473.549	8.96959
473.754	6.79112
473.959	9.62582
474.164	6.82014
474.369	7.53886
474.575	8.37883
474.78	7.63685
474.985	7.28265
475.19	5.98401
475.395	6.95955
475.6	7.57061
475.804	9.11358
476.009	7.74429
476.214	7.79244
476.419	7.23518
476.624	5.82507
476.829	6.8025
477.034	8.1602
477.239	6.84909
477.444	7.7501
477.648	8.13064
477.853	8.21658
478.058	7.17707
478.263	6.92099
478.468	6.46417
478.672	6.60959
478.877	8.66207
479.082	9.50768
479.287	7.92245
479.491	7.60161
479.696	6.38041
479.901	8.43119
480.105	8.4351
480.31	7.00049
480.515	7.49596
480.719	9.8793
480.924	7.01647
481.128	6.48575
481.333	7.66943
481.538	7.78314
481.742	7.10263
481.947	7.79276
482.151	7.84337
482.356	7.37801
482.56	7.95949
482.765	7.79056
482.969	9.49841
483.174	10.71779
483.378	12.39694
483.582	12.40153
483.787	13.47534
483.991	13.47498
484.196	13.64482
484.4	13.35406
484.604	13.44791
484.809	11.86599
485.013	11.39552
485.217	10.12062
485.422	9.07213
485.626	8.30673
485.83	7.77958
486.034	7.70502
486.239	7.97659
486.443	8.07046
486.647	8.1297
486.851	8.94123
487.055	9.75662
487.26	9.32742
487.464	9.9845
487.668	9.38368
487.872	9.4228
488.076	9.96353
488.28	9.32203
488.484	8.61439
488.688	8.49646
488.892	8.33181
489.096	7.76939
489.3	6.99682
489.504	7.06988
489.708	7.66903
489.912	7.80931
490.116	7.76768
490.32	7.01305
490.524	7.80926
490.728	7.90828
490.932	7.54454
491.136	7.47001
491.34	8.48645
491.544	8.6785
491.748	8.28069
491.951	8.27839
492.155	8.02297
492.359	7.99422
492.563	6.86909
492.767	6.70355
492.97	6.83053
493.174	6.50506
493.378	6.83248
493.582	6.48901
493.785	7.22217
493.989	7.63491
494.193	7.60991
494.396	7.28919
494.6	8.24475
494.804	7.6446
495.007	7.08861
495.211	7.01968
495.414	7.54674
495.618	7.95065
495.822	8.78568
496.025	7.6912
496.229	8.54937
496.432	6.92712
496.636	7.55415
496.839	7.50574
497.043	8.89049
497.246	7.65679
497.45	6.98116
497.653	7.27715
497.856	7.67239
498.06	6.47053
498.263	7.12723
498.467	6.89189
498.67	8.2854
498.873	7.73101
499.077	6.93483
499.28	7.16151
499.483	7.71839
499.686	7.98135
499.89	7.78615
500.093	8.08823
500.296	6.87307
500.499	8.98676
500.703	7.46035
500.906	7.63728
501.109	9.42232
501.312	7.66355
501.515	7.49025
501.719	8.12239
501.922	9.09809
502.125	7.94447
502.328	7.38228
502.531	6.56358
502.734	7.72797
502.937	5.74353
503.14	7.73511
503.343	6.56712
503.546	7.33176
503.749	6.90724
503.952	8.11025
504.155	6.64613
504.358	8.21429
504.561	7.44788
504.764	6.33014
504.967	7.53758
505.17	7.39253
505.373	9.2097
505.576	7.6049
505.778	8.17369
505.981	6.89546
506.184	8.77458
506.387	5.98974
506.59	9.37813
506.793	8.60528
506.995	8.18121
507.198	5.77448
507.401	7.81767
507.604	7.95223
507.806	6.70349
508.009	6.84915
508.212	8.01574
508.414	6.96063
508.617	6.8972
508.82	7.45711
509.022	8.6036
509.225	7.75609
509.427	5.90473
509.63	8.63986
509.833	7.24313
510.035	7.12421
510.238	5.92371
510.44	8.44761
510.643	5.38103
510.845	9.58686
511.048	7.91263
511.25	7.01775
511.453	7.39894
511.655	7.88921
511.858	7.06945
512.06	8.32587
512.262	7.38079
512.465	8.3371
512.667	6.75636
512.869	6.37503
513.072	7.65183
513.274	8.17092
513.476	7.86911
513.679	8.14127
513.881	6.27466
514.083	9.0677
514.286	6.82927
514.488	6.89788
514.69	6.45794
514.892	6.19066
515.094	8.0798
515.297	6.96112
515.499	7.39925
515.701	6.80287
515.903	9.25401
516.105	9.10911
516.307	8.2172
516.509	5.72895
516.711	6.31471
516.913	7.61705
517.116	7.44004
517.318	7.02182
517.52	8.63593
517.722	8.06356
517.924	6.23582
518.126	7.90059
518.328	6.62645
518.529	7.56732
518.731	8.67979
518.933	6.70107
519.135	6.95974
519.337	8.05406
519.539	7.47347
519.741	5.48862
519.943	6.89449
520.145	6.72098
520.346	7.51091
520.548	6.76885
520.75	7.48384
520.952	6.80943
521.153	7.2993
521.355	7.76882
521.557	6.32179
521.759	7.55083
521.96	7.52681
522.162	6.36661
522.364	8.50094
522.565	6.7125
522.767	8.17105
522.969	8.64438
523.17	8.00986
523.372	7.89344
523.573	6.89556
523.775	7.31525
523.977	6.45999
524.178	8.9557
524.38	6.7898
524.581	8.12739
524.783	7.15379
524.984	7.98275
525.186	7.25428
525.387	7.81915
525.589	7.21061
525.79	6.86588
525.991	6.52536
526.193	7.39348
526.394	5.92222
526.596	7.28124
526.797	7.0988
526.998	6.71936
527.2	6.20156
527.401	7.72243
527.602	7.33139
527.803	8.43842
528.005	8.45141
528.206	9.25182
528.407	9.67057
528.608	9.30643
528.81	9.53476
529.011	8.80263
529.212	9.7551
529.413	8.80186
529.614	8.13229
529.815	7.85004
530.017	7.20972
530.218	6.7626
530.419	6.45028
530.62	6.96412
530.821	7.21646
531.022	6.07752
531.223	7.67858
531.424	7.69851
531.625	7.51633
531.826	7.41677
532.027	7.46088
532.228	8.41583
532.429	7.59881
532.63	7.22383
532.831	7.35488
533.032	7.1447
533.233	7.6047
533.433	7.30694
533.634	7.45649
533.835	6.79001
534.036	6.46979
534.237	6.84612
534.438	6.51532
534.638	6.04102
534.839	6.39909
535.04	7.3769
535.241	6.66036
535.441	8.72155
535.642	7.68594
535.843	6.50261
536.043	6.49897
536.244	6.77139
536.445	7.02901
536.645	7.97558
536.846	7.2943
537.047	8.06606
537.247	6.41829
537.448	6.75612
537.648	7.06044
537.849	6.8952
538.049	6.83658
538.25	7.86404
538.451	7.515
538.651	6.46583
538.851	7.65421
539.052	8.5637
539.252	8.2885
539.453	7.47394
539.653	7.70816
539.854	7.64816
540.054	7.51191
540.254	8.53152
540.455	8.37628
540.655	7.17635
540.855	7.58318
541.056	7.81893
541.256	7.0617
541.456	7.89274
541.657	6.94432
541.857	7.89744
542.057	6.38687
542.257	6.36257
542.458	7.25505
542.658	7.50914
542.858	6.25393
543.058	7.92765
543.258	7.49826
543.458	6.18037
543.659	6.01147
543.859	7.82059
544.059	7.64158
544.259	6.94085
544.459	7.86965
544.659	6.67364
544.859	7.71309
545.059	6.89373
545.259	8.03966
545.459	7.6257
545.659	8.34233
545.859	7.45212
546.059	7.80859
546.259	6.73563
546.459	5.99018
546.659	6.47343
546.859	8.16522
547.059	7.78256
547.258	7.8868
547.458	7.73495
547.658	6.40329
547.858	6.27573
548.058	7.44112
548.258	7.05829
548.457	6.36635
548.657	10.28476
548.857	7.24138
549.057	8.55185
549.256	8.35328
549.456	7.50904
549.656	5.7679
549.855	10.03656
550.055	7.7445
550.255	10.51327
550.454	8.55167
550.654	9.35412
550.853	9.64629
551.053	9.45792
551.253	8.63463
551.452	8.6026
551.652	6.73172
551.851	6.21641
552.051	7.90965
552.25	7.69191
552.45	7.10581
552.649	7.77236
552.849	6.92923
553.048	7.88315
553.248	8.59769
553.447	6.76298
553.646	8.84414
553.846	9.88369
554.045	9.05682
554.244	6.60561
554.444	10.22362
554.643	7.3609
554.842	10.01318
555.042	11.0892
555.241	7.31644
555.44	7.14121
555.64	8.69492
555.839	11.09606
556.038	9.10593
556.237	7.83819
556.436	8.33016
556.636	9.08356
556.835	7.33599
557.034	10.47616
557.233	8.2908
557.432	6.9159
557.631	9.97159
557.83	8.3839
558.029	7.70695
558.228	8.03299
558.427	7.25458
558.626	9.0955
558.825	7.39427
559.024	8.91916
559.223	10.85478
559.422	8.67911
559.621	9.27704
559.82	5.45475
560.019	8.64024
560.218	8.22529
560.417	4.89791
560.616	8.13257
560.815	13.1608
561.014	6.68937
561.212	10.26916
561.411	9.00319
561.61	6.53204
561.809	8.47317
562.008	10.66322
562.206	8.46484
562.405	9.41721
562.604	8.49759
562.803	8.72514
563.001	8.17017
563.2	6.75602
563.399	9.34515
563.597	7.02263
563.796	8.90208
563.995	7.02805
564.193	9.51058
564.392	7.94783
564.59	11.8299
564.789	6.03347
564.988	8.3288
565.186	8.82751
565.385	8.38304
565.583	7.99346
565.782	8.34208
565.98	7.88925
566.179	8.22559
566.377	6.63984
566.575	7.29617
566.774	9.47505
566.972	9.25272
567.171	10.74704
567.369	9.79916
567.567	8.25015
567.766	8.67357
567.964	5.47224
568.162	9.25313
568.361	9.9772
568.559	8.54449
568.757	9.21838
568.956	8.87323
569.154	8.42999
569.352	9.80624
569.55	8.46577
569.748	8.78656
569.947	7.53617
570.145	7.57432
570.343	6.98232
570.541	10.18016
570.739	6.85445
570.937	8.88444
571.135	9.09959
571.333	10.98341
571.532	10.70433
571.73	9.02655
571.928	9.938
572.126	9.12821
572.324	7.88171
572.522	10.19819
572.72	11.89604
572.918	8.30713
573.116	8.76758
573.313	8.45129
573.511	8.20609
573.709	7.98445
573.907	9.45951
574.105	8.04228
574.303	6.42849
574.501	6.74199
574.699	9.12816
574.896	9.06681
575.094	9.60658
575.292	6.90597
575.49	9.68962
575.688	8.3624
575.885	10.57608
576.083	11.14841
576.281	9.19534
576.478	7.96213
576.676	9.49632
576.874	6.99796
577.071	8.42619
577.269	12.35506
577.467	8.7689
577.664	9.11544
577.862	10.20857
578.059	8.05281
578.257	10.3783
578.455	8.85838
578.652	9.19156
578.85	6.42288
579.047	9.56611
579.245	9.32816
579.442	9.19514
579.64	9.39834
579.837	6.61166
580.034	13.40165
580.232	8.88102
580.429	7.9567
580.627	10.38038
580.824	11.88802
581.021	10.34464
581.219	8.84519
581.416	8.27876
581.613	12.26584
581.811	11.64865
582.008	8.29073
582.205	11.23568
582.402	10.03027
582.6	13.29231
582.797	10.12421
582.994	10.54534
583.191	10.88658
583.388	9.95005
583.586	11.0263
583.783	11.93994
583.98	8.31385
584.177	10.47447
584.374	5.30211
584.571	9.7073
584.768	9.63277
584.965	9.45246
585.162	11.24634
585.359	12.80712
585.556	10.07297
585.753	10.89659
585.95	7.93148
586.147	8.96734
586.344	10.94538
586.541	9.48567
586.738	8.32855
586.935	9.82742
587.132	8.51089
587.329	12.05456
587.526	10.05628
587.722	18.65677
587.919	7.82266
588.116	11.01141
588.313	12.81485
588.51	14.02202
588.706	9.82612
588.903	11.24048
589.1	11.8327
589.297	15.06412
589.493	9.80081
589.69	10.98257
589.887	9.10782
590.083	8.10297
590.28	8.74635
590.477	11.73201
590.673	11.46864
590.87	12.42223
591.067	9.43422
591.263	10.96964
591.46	11.18504
591.656	9.91899
591.853	12.95405
592.049	8.91388
592.246	9.44689
592.442	12.44125
592.639	11.71777
592.835	8.46811
593.032	11.34131
593.228	8.09447
593.425	7.94172
593.621	7.65595
593.817	10.54538
594.014	8.96147
594.21	10.31841
594.406	11.81591
594.603	10.9128
594.799	9.10861
594.995	6.15975
595.192	12.42883
595.388	9.30739
595.584	9.18046
595.78	7.59247
595.977	13.79083
596.173	13.02465
596.369	9.97239
596.565	8.47067
596.761	7.57847
596.957	11.76778
597.154	8.42835
597.35	8.71355
597.546	8.27855
597.742	10.30981
597.938	9.86663
598.134	8.00842
598.33	9.78638
598.526	12.11081
598.722	10.54368
598.918	13.07046
599.114	11.20434
599.31	9.029
599.506	10.96927
599.702	9.13011
599.898	11.34586
600.094	12.84039
600.29	12.31682
600.485	12.37863
600.681	9.99082
600.877	13.83398
601.073	10.95114
601.269	14.69645
601.465	13.45556
601.66	9.55394
601.856	7.58807
602.052	13.88261
602.248	10.21462
602.443	7.35261
602.639	8.42419
602.835	8.83195
603.03	9.12018
603.226	12.20064
603.422	8.55909
603.617	9.68657
603.813	9.49187
604.009	9.09231
604.204	11.91632
604.4	7.05213
604.595	11.3299
604.791	7.86503
604.986	10.11591
605.182	8.06784
605.377	8.75852
605.573	8.64596
605.768	9.8976
605.964	10.55597
606.159	10.71063
606.355	12.24991
606.55	9.51642
606.746	12.24562
606.941	10.33233
607.136	14.21172
607.332	16.11298
607.527	8.33056
607.722	11.53783
607.918	11.03408
608.113	9.44217
608.308	12.09057
608.503	11.97609
608.699	11.58097
608.894	11.55637
609.089	8.98887
609.284	10.70297
609.479	9.48129
609.675	11.28135
609.87	9.22965
610.065	11.26921
610.26	11.73317
610.455	11.60117
610.65	9.5925
610.845	10.53381
611.04	11.97908
611.235	10.00673
611.43	9.9104
611.625	8.26192
611.82	13.84923
612.015	9.29199
612.21	14.16905
612.405	8.03522
612.6	15.50577
612.795	13.83319
612.99	12.67937
613.185	9.16475
613.38	9.75429
613.575	12.01114
613.77	17.05331
613.965	8.30675
614.159	9.94249
614.354	14.52877
614.549	13.97089
614.744	13.43948
614.938	9.82765
615.133	8.56244
615.328	14.70285
615.523	14.78149
615.717	18.49527
615.912	10.47941
616.107	12.22624
616.301	11.28237
616.496	10.27082
616.691	15.9679
616.885	13.52557
617.08	17.9918
617.274	14.76945
617.469	17.33808
617.664	13.83371
617.858	10.76706
618.053	12.68009
618.247	11.35936
618.442	7.2222
618.636	15.41445
618.831	10.87208
619.025	10.81298
619.219	18.15885
619.414	4.69257
619.608	12.3805
619.803	10.40077
619.997	17.28351
620.191	14.87652
620.386	13.51955
620.58	12.79425
620.774	7.99551
620.969	8.96316
621.163	13.04179
621.357	9.54408
621.551	11.52652
621.746	12.63894
621.94	12.27098
622.134	20.94307
622.328	17.60887
622.522	8.77171
622.716	15.39936
622.911	14.90853
623.105	15.31921
623.299	13.55867
623.493	20.84212
623.687	10.74124
623.881	11.40768
624.075	14.24777
624.269	15.2685
624.463	8.44551
624.657	9.13285
624.851	14.21052
625.045	15.28539
625.239	15.29178
625.433	11.26146
625.627	16.50362
625.821	11.15669
626.015	10.62503
626.209	12.37638
626.403	8.97646
626.596	12.82053
626.79	13.86287
626.984	9.1603
627.178	12.8865
627.372	12.52704
627.565	13.54254
627.759	8.42551
627.953	8.81515
628.147	12.75816
628.34	13.52305
628.534	16.94557
628.728	11.28485
628.921	14.72369
629.115	14.26781
629.309	14.69608
629.502	14.87166
629.696	13.18747
629.89	12.29629
630.083	13.7534
630.277	14.00295
630.47	17.89934
630.664	12.3385
630.857	9.41541
631.051	15.046
631.244	16.35631
631.438	15.5762
631.631	11.20264
631.825	16.76634
632.018	14.90239
632.212	18.25253
632.405	16.52114
632.598	11.50723
632.792	13.83602
632.985	7.28011
633.178	12.61618
633.372	13.42956
633.565	13.53422
633.758	16.99386
633.952	11.31013
634.145	11.11031
634.338	12.10537
634.531	11.85589
634.724	11.49565
634.918	13.61477
635.111	12.63089
635.304	11.64172
635.497	19.0542
635.69	14.29817
635.883	16.65206
636.077	10.27174
636.27	14.67323
636.463	14.26368
636.656	15.07984
636.849	12.77552
637.042	14.85143
637.235	18.60291
637.428	16.17798
637.621	15.15681
637.814	18.22524
638.007	18.62369
638.2	18.90585
638.393	20.78453
638.586	10.74329
638.778	13.06303
638.971	14.78251
639.164	19.65262
639.357	15.77434
639.55	19.25643
639.743	17.37489
639.935	17.14488
640.128	21.25874
640.321	17.1396
640.514	15.31188
640.707	23.19352
640.899	17.60801
641.092	10.22116
641.285	38.55712
641.477	8.77521
641.67	22.92997
641.863	19.40766
642.055	16.38328
642.248	15.70382
642.441	14.83432
642.633	16.86983
642.826	21.2459
643.018	20.36094
643.211	22.33687
643.403	20.75534
643.596	23.55381
643.788	22.2849
643.981	14.42076
644.173	19.69223
644.366	15.70064
644.558	10.28091
644.751	19.37887
644.943	11.63177
645.135	22.37925
645.328	23.01989
645.52	19.31637
645.712	19.45532
645.905	27.80398
646.097	13.57773
646.289	17.53375
646.482	23.13467
646.674	14.67657
646.866	20.37348
647.058	18.73578
647.251	13.27982
647.443	14.97729
647.635	16.34263
647.827	12.58765
648.019	13.36345
648.211	17.05759
648.404	17.82974
648.596	22.28434
648.788	18.32512
648.98	17.82291
649.172	18.94538
649.364	18.36884
649.556	10.82299
649.748	26.43501
649.94	13.38759
650.132	19.24695
650.324	13.4354
650.516	14.52745
650.708	20.77031
650.9	12.27422
651.092	11.02718
651.284	11.57502
651.476	12.82065
651.667	18.49616
651.859	21.60956
652.051	16.53913
652.243	17.10558
652.435	15.10934
652.627	18.14339
652.818	19.21162
653.01	11.40466
653.202	13.77432
653.394	15.80536
653.585	19.15095
653.777	34.35693
653.969	22.42557
654.16	22.39839
654.352	13.76641
654.544	17.26727
654.735	21.48947
654.927	18.60228
655.118	23.69974
655.31	20.90835
655.502	21.14721
655.693	16.06674
655.885	19.83271
656.076	24.17465
656.268	18.55762
656.459	23.29947
656.651	23.36909
656.842	16.04744
657.034	14.80924
657.225	21.31949
657.416	24.26662
657.608	23.57859
657.799	17.69984
657.99	22.04495
658.182	14.89907
658.373	15.23632
658.564	19.94025
658.756	17.18508
658.947	16.17904
659.138	13.17938
659.33	14.28474
659.521	13.38969
659.712	15.80765
659.903	15.04099
660.094	13.71292
660.286	10.50398
660.477	23.36308
660.668	18.35092
660.859	16.37814
661.05	11.49929
661.241	19.26317
661.432	19.64489
661.623	16.16815
661.814	15.15133
662.006	11.13034
662.197	20.17305
662.388	22.80389
662.579	19.7055
662.77	24.5333
662.96	29.96133
663.151	22.82532
663.342	11.68419
663.533	21.00984
663.724	18.73599
663.915	26.24434
664.106	18.84404
664.297	27.53285
664.488	22.38604
664.678	17.44858
664.869	22.42816
665.06	23.2871
665.251	20.9012
665.442	21.6433
665.632	16.08661
665.823	28.35709
666.014	7.52574
666.204	22.92191
666.395	26.95037
666.586	33.26314
666.776	24.22361
666.967	28.53915
667.158	20.65022
667.348	27.86719
667.539	15.35177
667.729	24.84211
667.92	17.36315
668.111	25.20921
668.301	23.29276
668.492	19.37006
668.682	20.38432
668.873	19.12165
669.063	15.1923
669.253	20.87714
669.444	24.14814
669.634	20.12495
669.825	28.66114
670.015	24.81802
670.206	16.71498
670.396	30.08487
670.586	19.43772
670.777	23.09288
670.967	11.1777
671.157	20.25827
671.347	17.91092
671.538	27.47457
671.728	22.65831
671.918	30.32923
672.108	27.00241
672.299	20.86296
672.489	23.04948
672.679	18.85706
672.869	25.16951
673.059	29.80259
673.249	24.28396
673.44	17.56785
673.63	20.71506
673.82	26.50873
674.01	17.82015
674.2	24.8561
674.39	37.3029
674.58	24.82761
674.77	22.87947
674.96	22.18151
675.15	44.05056
675.34	28.1696
675.53	22.98249
675.72	21.17854
675.91	15.66973
676.099	31.09343
676.289	33.81127
676.479	28.05974
676.669	21.68049
676.859	25.26714
677.049	17.44245
677.238	22.98315
677.428	32.00111
677.618	22.91171
677.808	26.78387
677.997	25.74498
678.187	16.69561
678.377	23.16979
678.567	20.51444
678.756	20.16177
678.946	21.55434
679.136	15.62575
679.325	17.44943
679.515	17.27069
679.704	14.49737
679.894	23.52821
680.084	21.30588
680.273	26.67136
680.463	16.29584
680.652	17.00139
680.842	20.09202
681.031	24.08194
681.221	16.5274
681.41	22.94275
681.6	20.04768
681.789	24.60308
681.978	27.42434
682.168	22.67864
682.357	22.98453
682.547	24.38325
682.736	22.93539
682.925	27.72681
683.115	28.04964
683.304	26.68403
683.493	25.1169
683.682	25.39788
683.872	25.23893
684.061	31.10404
684.25	27.74382
684.439	33.62796
684.629	28.18196
684.818	43.91494
685.007	24.51521
685.196	22.604
685.385	32.48413
685.574	27.21227
685.763	27.70021
685.952	25.96976
686.142	18.99566
686.331	33.21195
686.52	15.06182
686.709	33.6553
686.898	33.78308
687.087	28.74655
687.276	35.76528
687.465	31.41724
687.654	23.95805
687.842	34.67479
688.031	18.44103
688.22	32.77722
688.409	27.08438
688.598	26.91523
688.787	40.83222
688.976	26.14578
689.165	37.09704
689.353	24.55988
689.542	28.69465
689.731	30.21655
689.92	38.03634
690.108	33.17296
690.297	24.34995
690.486	27.6971
690.675	31.74063
690.863	37.90379
691.052	38.77835
691.241	29.77304
691.429	29.39209
691.618	36.55842
691.806	20.95725
691.995	26.27592
692.184	28.48015
692.372	25.20729
692.561	29.03275
692.749	28.37979
692.938	43.9534
693.126	33.50749
693.315	26.61884
693.503	32.52604
693.692	33.24091
693.88	37.39693
694.068	43.81529
694.257	28.55814
694.445	33.14436
694.634	17.03516
694.822	37.43573
695.01	37.75291
695.199	37.88034
695.387	40.45549
695.575	38.62538
695.763	30.19489
695.952	29.09115
696.14	19.95924
696.328	26.40767
696.516	30.57391
696.705	31.54453
696.893	31.67067
697.081	18.63843
697.269	33.40228
697.457	21.90957
697.645	20.79013
697.833	33.2456
698.021	22.41597
698.21	22.83197
698.398	25.32554
698.586	18.64773
698.774	17.74555
698.962	22.74042
699.15	18.28946
699.338	15.38316
699.526	25.7204
699.714	19.17109
699.901	20.99417
700.089	29.04386
700.277	20.22889
700.465	23.29736
700.653	29.98691
700.841	29.28723
701.029	21.62886
701.217	34.97351
701.404	29.16481
701.592	37.87078
701.78	41.10119
701.968	26.65583
702.155	28.13615
702.343	21.69222
702.531	40.15747
702.718	33.17478
702.906	29.40346
703.094	26.68315
703.281	40.28793
703.469	29.90899
703.657	40.23665
703.844	58.05843
704.032	45.04587
704.219	29.14738
704.407	36.88993
704.595	43.54193
704.782	35.33302
704.97	31.47025
705.157	30.17085
705.345	46.71616
705.532	53.52642
705.719	36.69246
705.907	46.28503
706.094	36.71643
706.282	48.63081
706.469	31.67011
706.656	36.39547
706.844	33.4134
707.031	43.30586
707.218	36.27777
707.406	48.43252
707.593	41.65294
707.78	39.97296
707.968	34.06623
708.155	27.61614
708.342	40.15647
708.529	39.71599
708.716	36.43398
708.904	49.19961
709.091	40.89526
709.278	26.4039
709.465	50.55586
709.652	51.50043
709.839	46.04158
710.026	37.39825
710.213	23.30932
710.4	38.92783
710.587	42.91348
710.774	46.08022
710.961	45.33967
711.148	37.02411
711.335	46.07969
711.522	35.05989
711.709	38.4716
711.896	55.00107
712.083	44.94468
712.27	29.41707
712.457	38.0561
712.644	25.24915
712.831	54.09248
713.017	38.50701
713.204	43.38993
713.391	31.95353
713.578	48.98588
713.765	48.26542
713.951	42.38543
714.138	66.78592
714.325	44.95968
714.512	38.13396
714.698	32.03915
714.885	52.31896
715.072	41.09323
715.258	40.62874
715.445	33.34083
715.631	50.17256
715.818	18.81861
716.005	32.77647
716.191	43.50855
716.378	36.52774
716.564	46.72365
716.751	30.07448
716.937	34.29991
717.124	47.94733
717.31	33.21876
717.497	53.09228
717.683	32.94666
717.869	61.87177
718.056	36.85156
718.242	46.24282
718.429	41.46042
718.615	30.99132
718.801	43.03075
718.988	51.05841
719.174	46.51487
719.36	42.38607
719.547	55.21946
719.733	45.8994
719.919	46.3274
720.105	50.95986
720.291	42.78019
720.478	46.80608
720.664	41.5911
720.85	40.30545
721.036	76.45773
721.222	60.23333
721.408	44.02862
721.595	66.77658
721.781	65.13137
721.967	57.78224
722.153	62.82722
722.339	54.39803
722.525	49.97059
722.711	34.57699
722.897	32.6372
723.083	43.86206
723.269	59.27387
723.455	75.3443
723.641	80.83769
723.827	50.20981
724.012	52.68276
724.198	45.55639
724.384	61.95023
724.57	53.14829
724.756	31.96738
724.942	29.4996
725.127	58.06304
725.313	64.38281
725.499	64.38948
725.685	71.01039
725.87	53.48222
726.056	39.65145
726.242	62.17183
726.428	30.51235
726.613	59.92692
726.799	44.8691
726.985	37.38332
727.17	32.65353
727.356	66.82238
727.541	39.65791
727.727	45.36626
727.913	56.8876
728.098	42.95904
728.284	56.26796
728.469	34.35702
728.655	38.42648
728.84	56.31131
729.026	56.80432
729.211	58.52157
729.397	51.32664
729.582	54.83531
729.767	47.2032
729.953	51.95394
730.138	60.36794
730.323	24.46587
730.509	35.13363
730.694	65.63771
730.879	52.33146
731.065	50.60416
731.25	76.00997
731.435	55.50742
731.621	31.55457
731.806	40.99556
731.991	52.10771
732.176	31.32556
732.361	64.52056
732.547	48.71967
732.732	31.63493
732.917	73.8462
733.102	35.45046
733.287	39.27206
733.472	48.28003
733.657	48.42555
733.842	30.86428
734.027	44.39749
734.212	45.10258
734.397	37.9296
734.582	46.75938
734.767	56.622
734.952	64.48592
735.137	20.95493
735.322	64.76595
735.507	52.45416
735.692	53.35247
735.877	78.6317
736.062	72.23876
736.247	53.89339
736.431	51.29621
736.616	67.3359
736.801	54.5816
736.986	52.32035
737.171	42.15228
737.355	39.74983
737.54	69.08741
737.725	52.49997
737.909	93.05097
738.094	45.90903
738.279	64.81763
738.463	51.20512
738.648	62.72555
738.833	58.67324
739.017	79.62669
739.202	50.50105
739.386	52.94653
739.571	40.56073
739.756	62.80514
739.94	53.23109
740.125	65.68915
740.309	43.62484
740.494	63.72179
740.678	55.09925
740.863	61.88425
741.047	58.65073
741.231	71.30568
741.416	43.42554
741.6	78.41757
741.785	45.85646
741.969	66.95072
742.153	74.11942
742.338	27.62129
742.522	57.77195
742.706	65.27712
742.89	40.99623
743.075	58.11434
743.259	77.78014
743.443	68.61372
743.627	73.64765
743.812	93.48994
743.996	34.62476
744.18	55.33962
744.364	48.96874
744.548	97.40089
744.732	55.27273
744.916	69.00262
745.1	67.41559
745.285	55.36581
745.469	66.69756
745.653	86.82242
745.837	40.30689
746.021	99.72509
746.205	77.55196
746.389	62.36836
746.573	54.6856
746.757	88.00498
746.94	53.52351
747.124	80.07653
747.308	42.56027
747.492	76.61191
747.676	49.52819
747.86	101.17387
748.044	53.22224
748.227	33.22553
748.411	125.89233
748.595	65.53181
748.779	48.59338
748.963	68.30769
749.146	63.39671
749.33	50.68497
749.514	43.10295
749.697	80.16662
749.881	50.28091
750.065	44.86322
750.248	61.6289
750.432	99.77389
750.616	60.68645
750.799	39.8545
750.983	96.34367
751.166	110.35761
751.35	39.35384
751.533	79.9312
751.717	82.0206
751.9	87.64674
752.084	56.16068
752.267	47.2025
752.451	48.71775
752.634	62.60253
752.818	74.67112
753.001	76.40739
753.184	78.9057
753.368	68.78314
753.551	14.07124
753.734	48.51407
753.918	99.17704
754.101	51.31732
754.284	75.12769
754.467	55.3065
754.651	50.70903
754.834	48.97036
755.017	79.57452
755.2	75.96147
755.384	42.83865
755.567	74.41024
755.75	77.61349
755.933	55.20101
756.116	66.11423
756.299	55.23486
756.482	50.47678
756.665	73.16784
756.848	61.94209
757.032	70.28726
757.215	41.30952
757.398	54.20059
757.581	52.01281
757.764	115.6263
757.947	63.09915
758.129	86.78843
758.312	21.41225
758.495	59.52394
758.678	61.10915
758.861	59.76825
759.044	100.09627
759.227	51.46143
759.41	49.50721
759.592	74.44651
759.775	61.9985
759.958	82.97488
760.141	44.37854
760.324	104.75501
760.506	89.98363
760.689	80.69047
760.872	113.06496
761.054	73.91492
761.237	58.86493
761.42	70.05857
761.602	81.39738
761.785	69.58699
761.968	80.15765
762.15	98.67559
762.333	61.14704
762.515	70.76318
762.698	56.08693
762.88	80.86899
763.063	69.49461
763.245	78.80478
763.428	46.52117
763.61	51.53718
763.793	37.56188
763.975	59.76421
764.158	47.72412
764.34	46.15135
764.522	38.49339
764.705	47.83126
764.887	69.53605
765.069	31.04863
765.252	65.11035
765.434	66.73869
765.616	55.518
765.799	48.04953
765.981	74.36739
766.163	45.09869
766.345	76.06744
766.528	53.57584
766.71	25.70914
766.892	62.68836
767.074	81.65321
767.256	60.07273
767.438	95.64244
767.62	70.21294
767.802	106.93399
767.985	76.48816
768.167	106.65785
768.349	55.37666
768.531	78.76922
768.713	75.53363
768.895	89.02855
769.077	75.19008
769.259	122.37028
769.441	185.33219
769.623	86.75
769.804	109.41423
769.986	102.68928
770.168	131.55854
770.35	157.07579
770.532	114.68387
770.714	121.86209
770.896	129.15304
771.077	52.18628
771.259	123.35566
771.441	104.48366
771.623	145.43067
771.804	174.70179
771.986	49.24268
772.168	83.54777
772.35	131.64207
772.531	177.8345
772.713	101.50507
772.894	140.68385
773.076	102.2605
773.258	87.97851
773.439	139.4578
773.621	170.24345
773.802	72.72799
773.984	87.01725
774.166	108.52658
774.347	152.87264
774.529	139.23268
774.71	46.40043
774.891	99.49795
775.073	89.31582
775.254	152.18103
775.436	81.24345
775.617	175.85575
775.799	85.44853
775.98	154.74232
776.161	159.72109
776.343	164.59528
776.524	105.7964
776.705	91.00771
776.886	55.44567
777.068	123.12278
777.249	216.58734
777.43	185.74654
777.611	68.88973
777.793	90.90413
777.974	161.54299
778.155	88.91068
778.336	78.80771
778.517	187.94087
778.698	77.13312
778.879	44.09702
779.061	28.29235
779.242	120.93228
779.423	122.32429
779.604	87.64222
779.785	102.44911
779.966	115.51317
780.147	142.63182
780.328	144.7436
780.509	214.51709
780.69	130.3949
780.871	77.46456
781.051	62.55253
781.232	116.33944
781.413	104.07626
781.594	95.84978
781.775	87.19173
781.956	81.67103
782.137	46.54999
782.317	81.89241
782.498	117.02421
782.679	105.76958
782.86	108.01669
783.04	81.33995
783.221	116.7173
783.402	190.21572
783.583	108.16367
783.763	132.2662
783.944	92.51675
784.124	61.63036
784.305	166.71081
784.486	127.66228
784.666	107.57908
784.847	56.96427
785.027	216.74845
785.208	81.99761
785.388	86.11591
785.569	88.45265
785.749	92.83936
785.93	88.30054
786.11	59.78264
786.291	117.87631
786.471	114.40084
786.652	134.71527
786.832	105.3717
787.012	121.12454
787.193	67.70551
787.373	111.31262
787.553	89.78807
787.734	119.61778
787.914	92.4284
788.094	124.36462
788.275	121.01206
788.455	93.07023
788.635	64.81076
788.815	113.3515
788.995	69.07419
789.176	54.69004
789.356	76.21887
789.536	95.74806
789.716	121.47621
789.896	74.65769
790.076	82.7493
790.256	110.41971
790.436	36.57188
790.616	76.26492
790.796	110.23135
790.976	87.35689
791.156	77.80201
791.336	129.90989
791.516	112.81246
791.696	93.56493
791.876	58.70527
792.056	109.09936
792.236	135.38168
792.416	130.80825
792.596	124.19059
792.776	125.89103
792.956	122.81496
793.135	155.71167
793.315	71.77279
793.495	146.36101
793.675	125.78758
793.854	136.61941
794.034	135.73793
794.214	67.59073
794.394	129.81493
794.573	149.5308
794.753	108.84499
794.933	77.45233
795.112	114.88252
795.292	140.81588
795.472	187.94228
795.651	66.32993
795.831	103.88927
796.01	93.76267
796.19	96.45501
796.369	100.78976
796.549	122.46496
796.728	95.56191
796.908	59.54441
797.087	69.92693
797.267	93.01344
797.446	66.04551
797.626	122.93485
797.805	116.59786
797.984	72.67229
798.164	121.82878
798.343	72.96086
798.522	111.87246
798.702	101.79345
798.881	65.61006
799.06	99.17729
799.239	45.55597
799.419	70.62103
799.598	157.71077
799.777	126.02389
799.956	151.96916
800.136	93.1949
800.315	75.92244
800.494	117.73756
800.673	143.57741
800.852	123.17948
801.031	149.17856
801.21	129.43941
801.389	88.68155
801.568	110.36579
801.747	173.29288
801.926	105.85763
802.105	165.12884
802.284	88.18469
802.463	164.48793
802.642	116.64504
802.821	115.39936
803	165.74755
803.179	136.59496
803.358	154.22303
803.537	86.16645
803.716	112.31696
803.895	83.30226
804.073	104.79548
804.252	83.61596
804.431	120.81922
804.61	96.8782
804.789	150.69806
804.967	84.98131
805.146	84.62172
805.325	185.17298
805.503	127.85907
805.682	57.88211
805.861	212.539
806.039	160.9439
806.218	87.79135
806.397	116.66991
806.575	108.41489
806.754	121.72682
806.932	76.53666
807.111	168.38218
807.289	148.12623
807.468	105.57632
807.646	147.93354
807.825	132.96506
808.003	117.68784
808.182	140.45165
808.36	110.55041
808.539	82.46393
808.717	174.09642
808.895	83.76163
809.074	122.77781
809.252	106.82079
809.43	138.6994
809.609	154.93026
809.787	183.874
809.965	109.95543
810.144	114.52918
810.322	101.16321
810.5	139.92851
810.678	100.09871
810.856	204.76243
811.035	153.90504
811.213	138.46939
811.391	183.11844
811.569	123.76156
811.747	244.09503
811.925	164.64857
812.103	89.17735
812.281	111.88203
812.459	196.81869
812.637	193.28646
812.816	154.4613
812.994	201.73861
813.171	165.13229
813.349	142.51379
813.527	164.26033
813.705	176.70954
813.883	230.09345
814.061	166.66606
814.239	199.76105
814.417	219.91739
814.595	141.18895
814.773	131.02134
814.95	129.34569
815.128	141.37221
815.306	122.05409
815.484	112.39351
815.662	90.25619
815.839	75.59416
816.017	93.98309
816.195	177.93207
816.372	106.38478
816.55	156.79833
816.728	190.31743
816.905	111.25543
817.083	207.74667
817.261	113.85205
817.438	235.0099
817.616	208.70544
817.793	103.53953
817.971	156.80656
818.148	146.12941
818.326	184.45352
818.503	134.08589
818.681	195.73675
818.858	111.74573
819.036	129.72502
819.213	132.46757
819.391	95.23315
819.568	98.35404
819.745	86.85897
819.923	156.47352
820.1	100.8789
820.277	89.62842
820.455	103.11566
820.632	108.91392
820.809	111.53323
820.986	71.20485
821.164	56.9141
821.341	49.9969
821.518	71.07251
821.695	49.50881
821.872	47.18566
822.05	38.09534
822.227	28.42212
822.404	28.63608
822.581	34.4124
822.758	25.20047
822.935	25.52798
823.112	28.67746
823.289	21.23951
823.466	26.79644
823.643	23.48281
823.82	28.86007
823.997	24.69801
824.174	29.53164
824.351	39.20671
824.528	36.82526
824.705	34.50376
824.882	39.63754
825.059	54.14584
825.236	38.4357
825.412	43.09315
825.589	56.34497
825.766	79.54203
825.943	53.38354
826.12	66.70378
826.296	43.41165
826.473	58.88764
826.65	61.72269
826.827	77.59225
827.003	49.16789
827.18	52.4971
827.357	59.35461
827.533	52.70084
827.71	26.08346
827.887	41.53554
828.063	49.2696
828.24	40.54163
828.416	55.42975
828.593	42.20543
828.769	59.76985
828.946	66.52628
829.122	69.4207
829.299	62.16211
829.475	36.8681
829.652	65.49413
829.828	121.34461
830.005	73.44463
830.181	106.98229
830.357	79.88844
830.534	115.07349
830.71	94.5298
830.886	119.29506
831.063	117.49957
831.239	162.64816
831.415	76.51932
831.592	167.77433
831.768	108.38304
831.944	92.5114
832.12	185.25045
832.296	163.02692
832.473	146.92326
832.649	101.19381
832.825	137.5465
833.001	82.76527
833.177	134.71497
833.353	114.43839
833.529	62.44954
833.705	87.19479
833.881	62.25111
834.058	59.21057
834.234	62.01219
834.41	59.2321
834.586	46.23109
834.761	55.18719
834.937	58.23952
835.113	59.2596
835.289	51.91362
835.465	62.22191
835.641	52.23857
835.817	63.20145
835.993	107.68061
836.169	56.25946
836.344	84.65838
836.52	97.40405
836.696	101.2091
836.872	76.03802
837.048	212.0086
837.223	86.13515
837.399	190.32574
837.575	137.72229
837.75	145.2928
837.926	184.63646
838.102	328.35451
838.277	244.13724
838.453	325.24741
838.628	321.99159
838.804	133.21889
838.98	334.16588
839.155	158.56772
839.331	225.07036
839.506	165.4282
839.682	150.80952
839.857	206.15346
840.033	234.87373
840.208	113.32918
840.384	57.96843
840.559	111.661
840.734	165.20312
840.91	265.37571
841.085	139.75515
841.26	142.36453
841.436	114.24534
841.611	113.11371
841.786	176.24221
841.962	258.26128
842.137	151.56012
842.312	86.10194
842.487	129.30824
842.663	107.93787
842.838	131.96359
843.013	513.994
843.188	232.58755
843.363	185.51034
843.538	427.35583
843.714	425.73946
843.889	443.4223
844.064	442.50854
844.239	349.07641
844.414	481.63881
844.589	297.23698
844.764	590.9211
844.939	604.58798
845.114	780.17172
845.289	661.45969
845.464	729.21702
845.639	623.55234
845.814	244.11842
845.989	324.9174
846.163	365.89866
846.338	445.34219
846.513	706.60863
846.688	422.8559
846.863	350.08917
847.038	308.99255
847.212	331.79065
847.387	457.62832
847.562	557.59917
847.737	646.46647
847.911	194.26918
848.086	233.00531
848.261	781.86909
848.435	338.46128
848.61	598.86697
848.785	266.65711
848.959	542.84987
849.134	864.99967
849.308	1231.14753
849.483	369.03499
849.658	644.15567
849.832	353.96152
850.007	276.28681
850.181	1374.10673
850.356	305.92434
850.53	1011.65788
850.705	286.27889
850.879	195.46667
851.053	351.4576
851.228	345.40796
851.402	612.88807
851.577	578.95869
851.751	1245.72854
851.925	530.67632
852.099	181.3673
852.274	269.47383
852.448	365.94655
852.622	595.71381
852.797	383.19418
852.971	407.70001
853.145	419.73745
853.319	3272.85319
853.493	629.09672
853.668	338.22422
853.842	946.1398
854.016	678.98327
854.19	755.51319
854.364	474.33947
854.538	482.95192
854.712	804.54973
854.886	375.93666
855.06	353.60025
855.234	129.95015
855.408	892.07909
855.582	777.93881
855.756	843.70651
855.93	896.33451
856.104	404.73064
856.278	714.22332
856.452	395.58206
856.626	590.51439
856.8	1885.02418
856.973	571.1125
857.147	555.46426
857.321	667.20836
857.495	680.86646
857.669	491.00607
857.842	424.06635
858.016	651.29561
858.19	291.72589
858.364	3217.99856
858.537	411.98987
858.711	423.15813
858.885	423.9798
859.058	368.33716
859.232	172.74469
859.405	260.74191
859.579	751.15018
859.753	524.00836
859.926	358.43264
860.1	189.33235
860.273	576.41303
860.447	811.09265
860.62	416.96723
860.794	1406.61909
860.967	545.12417
861.141	928.85004
861.314	1982.96843
861.487	616.03958
861.661	958.96918
861.834	1171.02901
862.008	756.46275
862.181	535.36469
862.354	479.82133
862.528	726.02202
862.701	368.86683
862.874	286.49502
863.047	429.12227
863.221	337.57376
863.394	200.73829
863.567	1369.00066
863.74	124.50104
863.913	960.8978
864.087	661.82754
864.26	1059.15128
864.433	418.23586
864.606	1438.5755
864.779	437.12694
864.952	217.66773
865.125	416.39187
865.298	507.89078
865.471	443.96113
865.644	1279.32215
865.817	771.91941
865.99	802.43881
866.163	1115.31508
866.336	409.09159
866.509	382.09044
866.682	388.97953
866.855	790.92884
867.028	238.98891
867.2	539.47004
867.373	138.67929
867.546	508.80288
867.719	1504.48627
867.892	671.90487
868.064	298.1891
868.237	541.03594
868.41	496.61886
868.583	236.0982
868.755	268.93163
868.928	454.05453
869.101	1490.90275
869.273	884.16882
869.446	808.92341
869.619	1186.9608
869.791	497.91866
869.964	956.16038
870.136	900.52446
870.309	582.06422
870.481	526.07434
870.654	231.81428
870.826	609.28158
870.999	349.94365
871.171	620.52833
871.344	397.21378
871.516	449.90812
871.689	356.20906
871.861	585.36918
872.033	330.66208
872.206	363.39679
872.378	757.06694
872.55	467.11708
872.723	262.79618
872.895	470.96955
873.067	856.1495
873.24	709.36536
873.412	400.89411
873.584	458.63107
873.756	466.64191
873.928	542.19439
874.101	603.28256
874.273	718.8665
874.445	186.35842
874.617	242.63048
874.789	523.888
874.961	401.77464
875.133	657.28151
875.305	422.76877
875.477	273.48042
875.649	226.56442
875.821	311.81685
875.993	1157.43802
876.165	356.90016
876.337	531.48043
876.509	445.34884
876.681	505.14755
876.853	590.07534
877.025	540.92377
877.197	294.51029
877.369	288.67031
877.541	787.00174
877.712	136.66177
877.884	260.44343
878.056	511.59137
878.228	362.96395
878.4	572.32861
878.571	298.93735
878.743	201.88002
878.915	507.07202
879.086	259.13854
879.258	374.72911
879.43	319.50899
879.601	268.90983
879.773	310.25907
879.945	75.09342
880.116	116.34303
880.288	72.37685
880.459	87.59261
880.631	62.05664
880.802	73.49474
880.974	66.63405
881.145	44.45144
881.317	57.90184
881.488	40.30655
881.66	44.53343
881.831	38.1563
882.002	52.23355
882.174	35.45145
882.345	44.44212
882.517	21.22311
882.688	51.35039
882.859	37.50334
883.03	60.68982
883.202	58.45342
883.373	47.79418
883.544	46.93984
883.715	79.18502
883.887	67.39409
884.058	56.18806
884.229	84.5013
884.4	87.27314
884.571	105.90738
884.742	94.40376
884.914	98.86108
885.085	160.20221
885.256	235.65693
885.427	176.55873
885.598	218.87954
885.769	230.25883
885.94	221.74351
886.111	154.70693
886.282	307.69439
886.453	232.04432
886.624	171.16701
886.795	359.6894
886.966	249.69178
887.136	340.11455
887.307	239.54882
887.478	490.17361
887.649	444.9812
887.82	450.15779
887.991	342.93457
888.161	435.36718
888.332	429.86801
888.503	202.40711
888.674	701.21839
888.844	934.34357
889.015	575.0806
889.186	243.85648
889.356	748.33193
889.527	193.75477
889.698	4650.44286
889.868	396.79645
890.039	521.80828
890.209	426.33871
890.38	618.04078
890.551	580.80777
890.721	745.75674
890.892	719.46049
891.062	466.49827
891.233	554.94937
891.403	462.34942
891.574	266.58796
891.744	443.98834
891.914	511.05431
892.085	549.80795
892.255	140.25049
892.425	1144.25936
892.596	586.09931
892.766	612.05615
892.936	819.92631
893.107	752.47161
893.277	313.09071
893.447	263.17735
893.618	175.12679
893.788	478.33101
893.958	219.32424
894.128	206.13232
894.298	260.91612
894.468	373.17174
894.639	168.76919
894.809	93.76015
894.979	156.32368
895.149	184.25189
895.319	144.622
895.489	204.46952
895.659	252.46386
895.829	150.25004
895.999	160.05834
896.169	107.11539
896.339	144.23845
896.509	258.14216
896.679	303.5763
896.849	288.44751
897.019	427.04554
897.189	292.94505
897.358	289.74432
897.528	432.7149
897.698	144.74525
897.868	404.61345
898.038	1237.68848
898.208	989.52876
898.377	191.31834
898.547	1231.72397
898.717	2735.9511
898.886	589.37745
899.056	1070.1809
899.226	2272.91464
899.395	1019.94654
899.565	1143.46539
899.735	651.86042
899.904	2343.435
900.074	2268.71238
900.244	454.23509
900.413	2898.85447
900.583	412.10316
900.752	651.26262
900.922	-5595.48041
901.091	118.92089
901.261	1271.74725
901.43	1058.52717
901.599	845.1872
901.769	-14344.35703
901.938	2002.16972
902.108	4718.42641
902.277	7778.16913
902.446	388.70389
902.616	450.38641
902.785	585.29003
902.954	2576.53
903.124	1284.39703
903.293	690.18815
903.462	313.40721
903.631	471.15809
903.801	405.59905
903.97	171.76171
904.139	287.5416
904.308	192.74581
904.477	160.50159
904.646	93.67869
904.816	123.66627
904.985	199.16901
905.154	299.31571
