Data from WindowProjectSample_Transmission__88__00088.txt Node

Date: Sat May 03 18:14:35 EDT 2025
User: jessi
Spectrometer: SR400872
Trigger mode: 0
Integration Time (sec): 5.000010E-1
Scans to average: 6
Electric dark correction enabled: true
Nonlinearity correction enabled: true
Boxcar width: 0
XAxis mode: Wavelengths
Number of Pixels in Spectrum: 3648
>>>>>Begin Spectral Data<<<<<
184.909	3573.40306
185.132	3982.51446
185.355	-4235.7584
185.578	4278.55373
185.801	-332.76675
186.024	-4939.01821
186.247	1850.13771
186.47	549.1448
186.693	-67.95514
186.916	4496.86608
187.139	3172.7058
187.362	-1849.98614
187.585	6194.01964
187.808	24630.14975
188.031	-21.56607
188.254	-4334.44525
188.476	648.22437
188.699	3288.59353
188.922	-270.25144
189.145	-6838.34151
189.368	-413.54495
189.591	-844.29367
189.813	-2915.41635
190.036	953.10089
190.259	-8066.88153
190.482	1359.68413
190.705	3971.67508
190.927	-1939.17994
191.15	-6616.44312
191.373	5927.77724
191.595	-1172.50677
191.818	2023.97846
192.041	-566.73967
192.263	2005.84842
192.486	-2271.38126
192.709	-23179.95229
192.931	1770.90362
193.154	-3857.02527
193.377	-2243.90365
193.599	4562.68003
193.822	1717.32156
194.044	6037.09426
194.267	888.0266
194.489	-35.98415
194.712	2525.74207
194.934	8750.0604
195.157	-26617.74195
195.379	2236.50142
195.602	1751.53513
195.824	1512.69962
196.047	39785.99513
196.269	3404.26701
196.492	-1818.33392
196.714	-1319.04854
196.936	1897.59605
197.159	-13010.19925
197.381	-391.20417
197.604	-3883.03825
197.826	-17020.67551
198.048	10243.30358
198.271	-8391.05796
198.493	4476.3319
198.715	3561.88775
198.938	-727.58531
199.16	-17089.13649
199.382	1140.18147
199.604	-1642.76758
199.827	-3497.53767
200.049	2447.37377
200.271	-6712.80638
200.493	-44197.44062
200.715	3675.88082
200.938	-3011.88241
201.16	-2588.73114
201.382	-1706.86444
201.604	-3197.01149
201.826	3372.12008
202.048	3316.69303
202.27	-1128.20138
202.492	-3499.07165
202.715	-1464.57321
202.937	-16483.421
203.159	2581.17671
203.381	2243.76707
203.603	-2944.72737
203.825	-812.58462
204.047	54476.72703
204.269	-1342.20064
204.491	-1221.66762
204.713	70825.71
204.935	-3117.26555
205.156	-954.95281
205.378	-4236.95404
205.6	-1193.20035
205.822	2339.3692
206.044	-456.90165
206.266	6314.48498
206.488	800.49974
206.71	3263.57968
206.932	1607.60088
207.153	-1603.56082
207.375	-2728.94625
207.597	3864.69492
207.819	28871.79835
208.041	3930.46523
208.262	-1377.88122
208.484	-1113.8422
208.706	-1564.54374
208.927	2846.41525
209.149	5159.62453
209.371	-5306.27774
209.593	423.77622
209.814	-28126.34567
210.036	2201.51421
210.258	-781.95927
210.479	4404.27091
210.701	-3283.6885
210.922	-10697.73313
211.144	-862.66466
211.366	4692.75745
211.587	-2276.74906
211.809	-4843.72055
212.03	-818.20855
212.252	-733.19315
212.473	3422.11378
212.695	-674.47694
212.916	-893.33461
213.138	724.02613
213.359	-1423.29622
213.581	12026.77052
213.802	-2006.84045
214.024	-2461.82094
214.245	-6617.19459
214.466	-169.29104
214.688	-2953.24114
214.909	-19686.14656
215.131	-4428.68057
215.352	-2211.70978
215.573	11250.48133
215.795	1608.07943
216.016	6311.78884
216.237	-552.08281
216.459	6085.21583
216.68	-3384.85813
216.901	-2622.73226
217.122	-2119.04426
217.344	-7141.36406
217.565	-2901.33806
217.786	2193.87074
218.007	1763.8902
218.228	-512.37994
218.45	-4502.0466
218.671	1221.70024
218.892	3678.76844
219.113	1567.82262
219.334	153.32457
219.555	-6717.69816
219.776	12397.18919
219.997	4104.10727
220.219	1912.23454
220.44	1092.70267
220.661	995.39794
220.882	-2722.4926
221.103	-1214.56993
221.324	2411.24804
221.545	3105.18401
221.766	-3434.37623
221.987	-488.58692
222.208	-10742.39309
222.429	174906.06732
222.65	-188.19295
222.87	-8802.87235
223.091	2615.17661
223.312	-1224.85106
223.533	2555.16156
223.754	2079.57835
223.975	2747.13086
224.196	-5947.29687
224.417	-2762.48565
224.637	7476.04418
224.858	1393.90059
225.079	1214.00957
225.3	1194.63816
225.521	4876.0359
225.741	977.55186
225.962	1126.6808
226.183	-475.80389
226.404	1433.24396
226.624	1212.29483
226.845	1662.49308
227.066	874.10887
227.286	592.20576
227.507	195.73692
227.728	188.02273
227.948	301.29824
228.169	87.8666
228.389	94.63628
228.61	44.93388
228.831	65.25754
229.051	8.08063
229.272	38.60489
229.492	49.22678
229.713	17.3184
229.933	39.79872
230.154	30.67152
230.374	55.87784
230.595	41.02257
230.815	24.53599
231.036	37.91201
231.256	-8.08526
231.477	76.78655
231.697	49.74229
231.917	47.77002
232.138	64.15501
232.358	123.57928
232.579	118.11415
232.799	21.21487
233.019	108.08338
233.24	138.22128
233.46	39.89289
233.68	77.38664
233.901	45.14362
234.121	31.84797
234.341	14.9635
234.561	-4.52667
234.782	23.95799
235.002	78.12271
235.222	0.97781
235.442	65.47954
235.662	35.87614
235.883	77.21439
236.103	66.6044
236.323	46.5103
236.543	32.26358
236.763	50.74221
236.983	48.07299
237.203	53.57359
237.423	73.46185
237.643	102.2689
237.864	95.52035
238.084	22.54065
238.304	37.12817
238.524	58.89592
238.744	46.46598
238.964	74.51906
239.184	69.48425
239.404	75.03003
239.624	40.94392
239.843	68.34206
240.063	38.03571
240.283	25.13833
240.503	28.15009
240.723	28.74963
240.943	13.33308
241.163	19.93147
241.383	15.52768
241.603	8.24167
241.822	9.24479
242.042	6.74229
242.262	8.85927
242.482	9.85862
242.702	11.0147
242.921	3.76813
243.141	7.86141
243.361	6.49059
243.581	9.67181
243.8	8.57057
244.02	5.99165
244.24	10.98366
244.459	10.46131
244.679	20.36516
244.899	14.17078
245.118	15.9174
245.338	12.17604
245.558	15.40671
245.777	8.35145
245.997	10.84208
246.216	10.61196
246.436	6.03886
246.655	4.42269
246.875	3.27437
247.094	6.6266
247.314	2.27222
247.533	3.46909
247.753	4.79799
247.972	3.8079
248.192	1.27523
248.411	2.30096
248.631	4.01416
248.85	5.32478
249.07	4.02767
249.289	7.39806
249.508	5.44193
249.728	8.31914
249.947	9.05357
250.166	9.14106
250.386	5.24571
250.605	8.23448
250.824	11.45824
251.044	8.87596
251.263	27.34895
251.482	14.65879
251.701	13.35338
251.921	-0.7096
252.14	3.62627
252.359	5.0035
252.578	11.55904
252.798	4.08443
253.017	10.10702
253.236	5.84439
253.455	6.96177
253.674	12.78271
253.893	6.78428
254.112	8.69412
254.331	12.86068
254.551	10.85401
254.77	5.20417
254.989	15.34065
255.208	12.28907
255.427	18.20753
255.646	15.30442
255.865	23.33988
256.084	9.10059
256.303	12.41415
256.522	15.27092
256.741	3.58929
256.96	4.69877
257.179	11.4481
257.397	11.49176
257.616	5.80747
257.835	7.36755
258.054	16.36365
258.273	10.26518
258.492	12.27734
258.711	7.08524
258.93	3.34361
259.148	4.52063
259.367	4.45321
259.586	6.10081
259.805	2.66069
260.023	5.21971
260.242	4.09075
260.461	2.77474
260.68	1.66527
260.898	4.86196
261.117	1.77788
261.336	1.35744
261.554	4.2218
261.773	4.04223
261.992	1.01535
262.21	4.16333
262.429	5.03304
262.648	8.04017
262.866	9.43373
263.085	6.49987
263.303	5.61835
263.522	9.92497
263.74	10.32365
263.959	15.8482
264.178	8.45591
264.396	7.37274
264.615	5.58575
264.833	12.41446
265.051	11.12642
265.27	11.63797
265.488	12.01184
265.707	8.12848
265.925	12.16421
266.144	6.07384
266.362	6.94175
266.58	6.65369
266.799	5.5975
267.017	6.74725
267.235	6.21573
267.454	3.7442
267.672	2.09139
267.89	4.82814
268.109	5.39604
268.327	5.27894
268.545	1.36731
268.763	4.8702
268.982	2.24371
269.2	6.33013
269.418	3.00466
269.636	2.49756
269.854	5.01985
270.073	3.29948
270.291	2.01638
270.509	2.24698
270.727	5.03657
270.945	7.95367
271.163	8.21573
271.381	2.09905
271.599	3.45118
271.817	5.62347
272.036	2.38179
272.254	3.44153
272.472	2.88378
272.69	2.54824
272.908	2.88188
273.126	4.87267
273.344	5.68587
273.562	2.27071
273.779	2.96519
273.997	4.32585
274.215	4.72032
274.433	3.41698
274.651	5.089
274.869	5.31644
275.087	3.0333
275.305	4.76469
275.523	2.71773
275.74	3.5015
275.958	5.9569
276.176	8.80641
276.394	2.87092
276.612	3.785
276.829	3.83136
277.047	2.60821
277.265	3.58893
277.483	4.35276
277.7	4.9928
277.918	3.92706
278.136	7.0068
278.353	3.38594
278.571	1.65642
278.789	6.09457
279.006	1.12986
279.224	3.40726
279.442	5.48432
279.659	3.9251
279.877	2.57066
280.094	6.11336
280.312	1.20204
280.529	4.04025
280.747	1.20887
280.964	3.07911
281.182	6.45336
281.399	3.10909
281.617	4.54664
281.834	3.26084
282.052	2.36938
282.269	3.8299
282.487	3.00958
282.704	2.27053
282.921	2.8057
283.139	3.68125
283.356	4.6371
283.574	4.22075
283.791	2.17435
284.008	5.89646
284.226	2.94351
284.443	3.47006
284.66	4.73675
284.877	3.7524
285.095	2.55898
285.312	1.75823
285.529	1.09046
285.746	1.0286
285.964	2.31371
286.181	1.47505
286.398	2.26698
286.615	3.11264
286.832	2.81963
287.05	0.86775
287.267	2.14719
287.484	2.21704
287.701	3.08105
287.918	2.88104
288.135	3.01984
288.352	1.58503
288.569	1.80619
288.786	2.79978
289.003	2.01738
289.22	3.20679
289.437	2.11437
289.654	3.12502
289.871	3.44144
290.088	3.15959
290.305	2.75554
290.522	1.95511
290.739	2.33049
290.956	3.47546
291.173	4.23937
291.39	3.79851
291.607	2.74978
291.824	1.86863
292.04	1.50371
292.257	3.08976
292.474	3.59414
292.691	2.31653
292.908	1.10214
293.125	2.29092
293.341	1.35065
293.558	5.90564
293.775	2.33586
293.992	2.50791
294.208	0.75139
294.425	1.48273
294.642	2.04209
294.858	3.26409
295.075	0.73551
295.292	2.20801
295.508	2.73973
295.725	4.11685
295.942	1.99614
296.158	1.39257
296.375	2.4163
296.591	1.9405
296.808	2.06626
297.024	2.25605
297.241	2.52027
297.458	2.69718
297.674	0.2541
297.891	2.24554
298.107	1.53319
298.323	1.29063
298.54	3.07701
298.756	1.44954
298.973	0.87458
299.189	3.26715
299.406	1.46846
299.622	3.24213
299.838	3.30176
300.055	3.04387
300.271	0.88854
300.487	1.18354
300.704	1.42778
300.92	0.81437
301.136	4.45668
301.353	3.0146
301.569	2.27446
301.785	2.60216
302.001	2.91938
302.218	2.7058
302.434	2.84688
302.65	0.84979
302.866	1.81307
303.083	4.37922
303.299	4.21144
303.515	2.31661
303.731	2.62108
303.947	0.90061
304.163	1.67468
304.379	2.43813
304.595	2.84603
304.812	1.70653
305.028	1.39346
305.244	1.90649
305.46	3.0294
305.676	3.26687
305.892	3.77759
306.108	2.67182
306.324	2.13653
306.54	4.5036
306.756	3.18225
306.972	2.89087
307.187	2.21016
307.403	3.79899
307.619	1.63321
307.835	3.40212
308.051	4.01189
308.267	1.0642
308.483	3.47404
308.699	2.90036
308.914	2.51339
309.13	2.23457
309.346	0.8103
309.562	1.39292
309.778	0.84641
309.993	2.8401
310.209	2.42226
310.425	1.09701
310.641	2.12021
310.856	1.36362
311.072	1.27351
311.288	2.05156
311.503	2.46487
311.719	0.59783
311.935	0.6241
312.15	2.90104
312.366	2.52216
312.581	2.82643
312.797	2.58065
313.013	3.11619
313.228	1.69917
313.444	2.19421
313.659	1.76246
313.875	2.69423
314.09	2.32939
314.306	3.66429
314.521	3.2272
314.737	3.01424
314.952	2.7077
315.168	2.37629
315.383	3.13287
315.599	1.92835
315.814	2.10322
316.029	3.01499
316.245	1.2154
316.46	0.93819
316.675	3.71491
316.891	4.43875
317.106	5.21199
317.321	3.13855
317.537	3.23576
317.752	3.13836
317.967	3.22496
318.183	1.54513
318.398	2.2497
318.613	3.49073
318.828	4.08594
319.043	3.08559
319.259	2.0628
319.474	2.85426
319.689	3.52856
319.904	0.69801
320.119	3.47767
320.334	2.72
320.549	2.33452
320.765	3.65506
320.98	2.83541
321.195	3.43535
321.41	2.37625
321.625	3.26513
321.84	4.27534
322.055	4.405
322.27	1.74784
322.485	1.19765
322.7	2.64437
322.915	3.51541
323.13	1.72023
323.345	4.20054
323.56	3.55195
323.775	3.41363
323.989	3.19935
324.204	2.58879
324.419	3.43392
324.634	1.23969
324.849	2.47949
325.064	4.9023
325.279	3.67428
325.493	3.12837
325.708	3.43556
325.923	1.62232
326.138	2.08883
326.352	4.06186
326.567	3.24468
326.782	2.15228
326.997	1.69858
327.211	3.17146
327.426	2.7875
327.641	2.4291
327.855	1.04982
328.07	3.23791
328.285	4.32351
328.499	2.32647
328.714	3.08206
328.928	3.23763
329.143	2.59581
329.358	3.77682
329.572	3.64516
329.787	4.34224
330.001	5.47401
330.216	1.05859
330.43	4.86564
330.645	4.17949
330.859	3.39661
331.074	1.91223
331.288	2.83905
331.503	4.57223
331.717	1.51046
331.931	2.66216
332.146	2.86994
332.36	4.63248
332.575	3.23002
332.789	2.80614
333.003	2.84842
333.218	3.52801
333.432	2.46958
333.646	3.43733
333.86	4.45336
334.075	4.50979
334.289	2.27103
334.503	1.57726
334.717	3.8759
334.932	3.15311
335.146	3.77842
335.36	2.48936
335.574	3.56794
335.788	3.30553
336.003	4.1336
336.217	3.98706
336.431	3.19521
336.645	2.20928
336.859	1.75699
337.073	2.73507
337.287	3.07055
337.501	1.64298
337.715	3.26343
337.929	3.42298
338.143	1.76298
338.357	2.56675
338.571	2.29029
338.785	3.5074
338.999	2.36722
339.213	2.55133
339.427	1.43383
339.641	4.06271
339.855	2.41839
340.069	2.01614
340.283	4.02657
340.497	4.34812
340.711	3.31941
340.924	2.61933
341.138	1.86925
341.352	1.66941
341.566	2.98252
341.78	1.4916
341.993	2.31867
342.207	2.34442
342.421	3.45398
342.635	3.09066
342.848	2.52976
343.062	0.57426
343.276	2.49406
343.49	4.84532
343.703	2.19641
343.917	3.66504
344.131	4.00535
344.344	2.05427
344.558	2.44191
344.771	1.87523
344.985	3.90374
345.199	4.647
345.412	3.25031
345.626	3.37259
345.839	1.33957
346.053	1.98798
346.266	2.03408
346.48	3.67835
346.693	3.19383
346.907	3.44329
347.12	2.0025
347.334	2.86875
347.547	3.34296
347.76	2.99369
347.974	3.7425
348.187	3.16052
348.401	2.71909
348.614	2.16821
348.827	2.89462
349.041	3.47018
349.254	1.50949
349.467	2.56607
349.681	2.0443
349.894	2.03673
350.107	4.03731
350.32	4.65026
350.534	1.5628
350.747	2.53885
350.96	2.14802
351.173	2.3265
351.386	2.52881
351.6	2.52035
351.813	2.57581
352.026	2.79815
352.239	1.95084
352.452	2.56039
352.665	4.0231
352.878	2.55727
353.092	5.01179
353.305	3.53449
353.518	3.18399
353.731	2.01914
353.944	4.12395
354.157	2.39447
354.37	2.61776
354.583	1.72339
354.796	1.91681
355.009	4.00116
355.222	3.09586
355.435	3.00821
355.647	4.04325
355.86	2.4656
356.073	3.10613
356.286	2.50849
356.499	3.92819
356.712	3.61572
356.925	3.3948
357.138	3.80259
357.35	2.29816
357.563	2.72989
357.776	3.16826
357.989	3.1943
358.201	3.66109
358.414	3.43729
358.627	4.27646
358.84	3.0202
359.052	2.11488
359.265	2.2658
359.478	3.94249
359.69	0.84175
359.903	3.79232
360.116	4.00459
360.328	1.80772
360.541	3.90609
360.753	2.6688
360.966	2.91241
361.179	3.0473
361.391	2.90529
361.604	2.40697
361.816	2.97854
362.029	2.84423
362.241	2.61341
362.454	3.02207
362.666	2.58991
362.879	3.6827
363.091	2.99611
363.304	2.80985
363.516	2.9268
363.728	2.41722
363.941	3.64414
364.153	3.40576
364.366	1.60989
364.578	2.44486
364.79	3.581
365.003	3.56548
365.215	2.89977
365.427	3.82298
365.639	4.12043
365.852	3.55763
366.064	4.5223
366.276	3.07244
366.488	3.62566
366.701	3.20805
366.913	2.99205
367.125	3.13547
367.337	2.74516
367.549	2.90174
367.762	3.23187
367.974	3.13006
368.186	3.10727
368.398	4.17461
368.61	3.71763
368.822	3.94171
369.034	3.16313
369.246	4.17806
369.458	5.39193
369.67	2.60325
369.882	4.84689
370.094	1.47794
370.306	4.50765
370.518	3.08756
370.73	2.86602
370.942	2.9338
371.154	3.39069
371.366	3.1954
371.578	4.05226
371.79	3.40722
372.002	4.47235
372.214	5.40226
372.425	3.38119
372.637	5.07507
372.849	3.81132
373.061	1.83463
373.273	3.9676
373.484	3.98894
373.696	4.27846
373.908	1.76529
374.12	4.36108
374.331	4.07716
374.543	2.82797
374.755	2.78622
374.967	3.6787
375.178	4.63149
375.39	3.50412
375.602	3.81281
375.813	2.76364
376.025	2.82966
376.236	3.78057
376.448	3.838
376.66	3.66358
376.871	3.64518
377.083	4.42205
377.294	5.31984
377.506	3.59754
377.717	5.00482
377.929	4.17744
378.14	3.73858
378.352	4.33733
378.563	4.61871
378.775	5.17265
378.986	3.24718
379.197	4.2932
379.409	3.38746
379.62	4.42967
379.832	4.30477
380.043	4.00281
380.254	4.32325
380.466	3.15023
380.677	6.37043
380.888	5.6961
381.1	6.22178
381.311	6.24854
381.522	4.39098
381.733	6.45372
381.945	4.23246
382.156	3.87368
382.367	4.04105
382.578	6.71541
382.789	6.76635
383.001	3.69473
383.212	5.69988
383.423	5.67121
383.634	5.19105
383.845	4.89736
384.056	4.05414
384.267	4.48367
384.478	4.52819
384.69	3.47197
384.901	4.90316
385.112	4.70957
385.323	5.8807
385.534	4.9004
385.745	5.0265
385.956	4.69419
386.167	3.85986
386.378	5.07603
386.588	4.18708
386.799	3.91644
387.01	3.57693
387.221	5.5479
387.432	4.83459
387.643	6.00072
387.854	4.56986
388.065	4.38335
388.275	4.47179
388.486	4.18381
388.697	4.77234
388.908	4.48758
389.119	5.75057
389.329	6.00463
389.54	4.89234
389.751	5.29457
389.962	5.81888
390.172	4.81159
390.383	4.99246
390.594	4.2686
390.804	4.30222
391.015	4.54635
391.226	5.09721
391.436	5.36749
391.647	5.26445
391.858	5.48624
392.068	3.92402
392.279	4.3829
392.489	5.26757
392.7	5.71852
392.91	4.68065
393.121	4.76924
393.331	5.48906
393.542	6.08008
393.752	5.71153
393.963	5.36752
394.173	5.61273
394.384	5.76318
394.594	5.18974
394.804	4.35465
395.015	5.15851
395.225	5.71253
395.436	4.64659
395.646	5.61313
395.856	5.09757
396.067	4.32651
396.277	5.95606
396.487	5.5122
396.697	5.70599
396.908	5.93678
397.118	5.63157
397.328	5.45122
397.538	5.93187
397.749	5.10514
397.959	6.12193
398.169	5.84617
398.379	4.44572
398.589	5.57597
398.8	5.87629
399.01	5.71103
399.22	5.13475
399.43	7.0846
399.64	5.45184
399.85	5.84123
400.06	5.55551
400.27	4.92737
400.48	5.34418
400.69	6.23957
400.9	5.32165
401.11	4.91791
401.32	6.10786
401.53	5.30734
401.74	6.706
401.95	5.95198
402.16	5.33138
402.37	5.86802
402.58	5.21631
402.79	6.01329
403	6.1192
403.209	5.05697
403.419	6.36539
403.629	5.26393
403.839	6.40035
404.049	6.35474
404.258	5.47224
404.468	5.37804
404.678	6.45219
404.888	6.63666
405.097	5.78779
405.307	5.78336
405.517	6.27562
405.727	6.26109
405.936	5.46573
406.146	6.15255
406.356	6.93609
406.565	5.77256
406.775	5.53886
406.984	5.61472
407.194	7.49431
407.404	5.94275
407.613	6.24574
407.823	6.45883
408.032	6.97363
408.242	6.74185
408.451	5.8565
408.661	6.01174
408.87	7.20977
409.08	5.38582
409.289	6.38004
409.499	6.24249
409.708	6.09167
409.918	4.65669
410.127	6.1027
410.336	7.07262
410.546	6.61503
410.755	5.8138
410.964	5.90682
411.174	5.44177
411.383	6.58667
411.592	6.30728
411.802	5.64082
412.011	6.77607
412.22	6.08891
412.429	6.9857
412.639	7.32359
412.848	6.9492
413.057	7.42813
413.266	6.90604
413.475	6.37379
413.685	6.8081
413.894	6.99409
414.103	6.87018
414.312	6.7787
414.521	6.33355
414.73	6.75657
414.939	7.65268
415.148	6.70474
415.357	6.74166
415.566	6.26584
415.776	6.21332
415.985	6.36595
416.194	7.08962
416.403	7.87581
416.611	5.65468
416.82	6.29993
417.029	6.83311
417.238	6.278
417.447	6.31651
417.656	6.78906
417.865	6.57279
418.074	6.87317
418.283	7.64465
418.492	8.68287
418.7	8.40167
418.909	10.00622
419.118	8.56852
419.327	9.14921
419.536	8.87767
419.744	8.80359
419.953	10.48589
420.162	10.59973
420.371	9.82286
420.579	10.22744
420.788	11.30945
420.997	11.477
421.205	11.53673
421.414	11.09267
421.623	11.75197
421.831	10.94159
422.04	11.53519
422.249	10.61318
422.457	11.00836
422.666	10.16145
422.874	11.35902
423.083	11.36458
423.291	11.29
423.5	11.21616
423.708	11.51985
423.917	12.0877
424.125	11.3133
424.334	11.27521
424.542	13.34935
424.751	12.45955
424.959	12.10722
425.167	12.34243
425.376	12.10688
425.584	10.90675
425.793	10.8599
426.001	9.61804
426.209	10.19007
426.418	8.87347
426.626	8.29041
426.834	7.95632
427.042	7.96804
427.251	7.49743
427.459	8.22871
427.667	7.75891
427.875	6.82169
428.084	7.33555
428.292	8.35773
428.5	7.98947
428.708	6.90028
428.916	6.97522
429.124	7.62943
429.333	7.37137
429.541	7.4797
429.749	7.66431
429.957	7.58729
430.165	9.17446
430.373	6.56738
430.581	7.44979
430.789	8.47656
430.997	7.50958
431.205	7.15382
431.413	7.77127
431.621	7.57032
431.829	8.04174
432.037	7.49752
432.245	7.99059
432.453	8.09886
432.661	7.89282
432.869	9.19985
433.076	7.90456
433.284	8.3872
433.492	9.21583
433.7	9.51065
433.908	8.56709
434.116	8.86109
434.323	8.66872
434.531	8.51614
434.739	8.6332
434.947	8.50307
435.154	8.56905
435.362	8.01164
435.57	7.86641
435.778	7.60646
435.985	8.06313
436.193	7.65387
436.401	8.82575
436.608	8.0322
436.816	7.75422
437.023	8.85924
437.231	9.17661
437.439	8.1264
437.646	8.45365
437.854	8.36252
438.061	8.63791
438.269	8.41751
438.476	8.6997
438.684	8.58603
438.891	8.79985
439.099	8.84441
439.306	8.50637
439.514	8.80268
439.721	10.36308
439.929	9.6512
440.136	10.74294
440.343	10.8023
440.551	10.64127
440.758	12.54813
440.965	11.05702
441.173	10.82761
441.38	10.39682
441.587	10.45059
441.795	9.93363
442.002	9.64072
442.209	9.71016
442.416	9.34045
442.624	9.24134
442.831	8.86759
443.038	8.20338
443.245	7.97018
443.452	8.27972
443.66	8.8487
443.867	8.42111
444.074	8.1293
444.281	8.45063
444.488	8.94674
444.695	9.46114
444.902	9.55608
445.109	10.80539
445.316	10.54338
445.523	11.04019
445.73	10.88567
445.937	11.98413
446.144	12.72659
446.351	13.17551
446.558	11.7982
446.765	13.93183
446.972	13.28379
447.179	12.54708
447.386	13.36598
447.593	11.62822
447.8	12.59863
448.007	11.06394
448.214	10.54014
448.42	10.07172
448.627	10.4526
448.834	9.4644
449.041	9.24778
449.248	8.77877
449.454	9.12039
449.661	9.65105
449.868	8.31291
450.075	8.22809
450.281	7.70586
450.488	7.98886
450.695	7.9551
450.901	8.01459
451.108	8.26356
451.315	9.28004
451.521	8.20352
451.728	9.07207
451.935	8.14718
452.141	8.36536
452.348	8.39619
452.554	8.51466
452.761	8.26889
452.967	9.52055
453.174	8.66517
453.38	8.75815
453.587	7.83348
453.793	8.6796
454	8.98743
454.206	9.89272
454.413	9.23933
454.619	8.93288
454.825	8.28989
455.032	8.97809
455.238	9.25382
455.445	7.91181
455.651	8.75169
455.857	7.55407
456.064	8.52048
456.27	8.62597
456.476	8.29077
456.682	7.82239
456.889	8.7795
457.095	8.92486
457.301	9.93121
457.507	8.76968
457.714	8.6733
457.92	8.65742
458.126	8.1852
458.332	8.60962
458.538	8.88033
458.744	9.45988
458.951	10.03475
459.157	12.25691
459.363	11.76637
459.569	11.98259
459.775	12.75097
459.981	12.27521
460.187	12.9056
460.393	13.07095
460.599	13.05515
460.805	11.98609
461.011	11.13635
461.217	11.30967
461.423	10.38117
461.629	9.38458
461.835	9.51931
462.041	9.09172
462.247	10.15424
462.453	8.79972
462.658	8.76064
462.864	9.54139
463.07	9.21668
463.276	9.04707
463.482	8.99532
463.688	9.99035
463.893	8.44576
464.099	8.73704
464.305	9.93834
464.511	8.73664
464.716	8.75178
464.922	9.39011
465.128	8.46953
465.333	9.90592
465.539	9.43277
465.745	9.1202
465.95	9.09496
466.156	10.70272
466.362	9.76909
466.567	8.82392
466.773	8.73773
466.978	10.16659
467.184	8.49729
467.389	8.12431
467.595	9.57764
467.8	8.74086
468.006	10.02496
468.211	9.93874
468.417	8.45617
468.622	9.43054
468.828	9.64377
469.033	9.29941
469.239	11.10461
469.444	8.77718
469.649	9.74235
469.855	9.04544
470.06	9.28339
470.266	8.58646
470.471	9.61145
470.676	9.49429
470.881	8.15785
471.087	10.26156
471.292	10.33352
471.497	8.56709
471.703	9.4618
471.908	8.87058
472.113	9.40379
472.318	9.89275
472.523	8.69658
472.729	9.48652
472.934	9.53294
473.139	9.10244
473.344	9.58069
473.549	10.21985
473.754	8.83702
473.959	10.73826
474.164	8.94512
474.369	9.1591
474.575	9.82468
474.78	9.39716
474.985	9.14235
475.19	8.17191
475.395	8.89019
475.6	9.20116
475.804	10.25363
476.009	9.31684
476.214	9.23312
476.419	8.95615
476.624	8.47616
476.829	8.9496
477.034	9.88453
477.239	9.09402
477.444	9.48537
477.648	9.80347
477.853	9.87899
478.058	9.17488
478.263	9.00796
478.468	9.06385
478.672	9.10637
478.877	10.47161
479.082	10.62125
479.287	9.83568
479.491	9.4744
479.696	9.00054
479.901	10.2748
480.105	10.14191
480.31	9.17067
480.515	9.57168
480.719	11.0223
480.924	9.5527
481.128	9.65987
481.333	10.80882
481.538	11.14697
481.742	11.536
481.947	13.1548
482.151	14.10745
482.356	15.10333
482.56	17.71354
482.765	19.68768
482.969	23.27131
483.174	26.36286
483.378	30.5845
483.582	31.77898
483.787	34.0928
483.991	34.46295
484.196	34.97975
484.4	34.43598
484.604	34.43844
484.809	31.6899
485.013	30.04926
485.217	27.37359
485.422	24.35169
485.626	21.89168
485.83	20.73221
486.034	19.79478
486.239	20.27246
486.443	20.67067
486.647	21.16018
486.851	22.55713
487.055	24.47041
487.26	24.40823
487.464	25.54926
487.668	25.0503
487.872	25.70816
488.076	26.09749
488.28	24.82723
488.484	23.47327
488.688	22.72688
488.892	21.57678
489.096	20.01609
489.3	18.5433
489.504	17.34833
489.708	16.82885
489.912	16.23678
490.116	15.62867
490.32	15.40567
490.524	16.74331
490.728	17.52634
490.932	18.65401
491.136	19.98488
491.34	21.40603
491.544	22.28137
491.748	21.90928
491.951	21.86543
492.155	21.21567
492.359	20.78837
492.563	18.80615
492.767	18.06225
492.97	15.98479
493.174	14.30764
493.378	13.31084
493.582	11.60513
493.785	10.97603
493.989	10.77982
494.193	10.15721
494.396	9.59329
494.6	9.88017
494.804	9.22424
495.007	8.90674
495.211	9.5032
495.414	9.40216
495.618	10.1238
495.822	10.69655
496.025	10.36203
496.229	11.05755
496.432	10.54306
496.636	11.03811
496.839	11.23674
497.043	12.20132
497.246	11.52785
497.45	11.09109
497.653	11.46518
497.856	11.20552
498.06	10.58096
498.263	10.49468
498.467	10.39544
498.67	10.90341
498.873	10.30814
499.077	10.01942
499.28	10.1431
499.483	10.42841
499.686	10.60508
499.89	10.28744
500.093	10.5481
500.296	9.53784
500.499	10.9426
500.703	10.0448
500.906	10.32164
501.109	11.03916
501.312	10.06175
501.515	9.98423
501.719	10.4378
501.922	10.9064
502.125	10.22693
502.328	10.0778
502.531	9.79211
502.734	10.15396
502.937	9.21579
503.14	10.22547
503.343	9.74472
503.546	9.96426
503.749	9.71695
503.952	10.36106
504.155	9.55272
504.358	10.45134
504.561	10.32714
504.764	9.42037
504.967	10.17171
505.17	10.08729
505.373	11.12444
505.576	9.9489
505.778	10.56514
505.981	9.65931
506.184	10.93944
506.387	9.27797
506.59	11.31846
506.793	10.71842
506.995	10.36084
507.198	9.02725
507.401	10.38976
507.604	10.28667
507.806	9.48821
508.009	9.85195
508.212	10.44332
508.414	9.68785
508.617	9.8811
508.82	10.14906
509.022	10.99965
509.225	10.41436
509.427	9.25436
509.63	11.00002
509.833	10.16516
510.035	9.89746
510.238	9.4217
510.44	10.964
510.643	9.20549
510.845	11.26852
511.048	10.5287
511.25	9.90239
511.453	10.13863
511.655	10.45867
511.858	10.18752
512.06	10.57206
512.262	10.14527
512.465	10.86618
512.667	10.15011
512.869	9.56662
513.072	10.38562
513.274	10.66865
513.476	10.82787
513.679	10.79936
513.881	9.74151
514.083	11.29255
514.286	9.92471
514.488	9.78199
514.69	9.76686
514.892	9.51823
515.094	10.95331
515.297	9.84004
515.499	10.48422
515.701	9.70937
515.903	11.56748
516.105	11.40934
516.307	10.46696
516.509	9.2192
516.711	9.59118
516.913	10.1172
517.116	10.03766
517.318	9.93429
517.52	10.91773
517.722	11.16219
517.924	10.75629
518.126	11.97151
518.328	11.70313
518.529	12.55316
518.731	13.36008
518.933	11.9083
519.135	12.06058
519.337	12.81972
519.539	11.81255
519.741	10.16424
519.943	10.53202
520.145	10.12956
520.346	11.03427
520.548	10.20713
520.75	10.59073
520.952	10.16021
521.153	10.61085
521.355	10.70636
521.557	9.73259
521.759	10.39242
521.96	10.17175
522.162	9.68654
522.364	10.96289
522.565	9.9185
522.767	10.79543
522.969	11.01446
523.17	10.57997
523.372	10.4908
523.573	10.22369
523.775	10.29537
523.977	9.65712
524.178	11.10492
524.38	9.79805
524.581	10.9343
524.783	10.54126
524.984	12.00942
525.186	11.91315
525.387	12.88951
525.589	12.83136
525.79	13.02483
525.991	12.99591
526.193	13.76334
526.394	13.15047
526.596	14.12406
526.797	14.66827
526.998	14.41192
527.2	15.06974
527.401	17.60101
527.602	19.04714
527.803	22.05447
528.005	23.62076
528.206	25.55768
528.407	26.85518
528.608	27.23284
528.81	27.78638
529.011	26.88231
529.212	27.65482
529.413	26.07883
529.614	24.29272
529.815	22.95984
530.017	21.16513
530.218	18.72042
530.419	16.51605
530.62	15.67364
530.821	14.82192
531.022	13.24375
531.223	14.10098
531.424	13.70175
531.625	14.0857
531.826	13.77228
532.027	14.50396
532.228	16.25439
532.429	16.22338
532.63	16.93338
532.831	18.05306
533.032	18.34631
533.233	19.35775
533.433	18.94388
533.634	19.25127
533.835	18.16448
534.036	17.55982
534.237	16.63445
534.438	15.68762
534.638	13.93876
534.839	13.43984
535.04	13.03766
535.241	12.12309
535.441	13.48705
535.642	12.66581
535.843	12.11009
536.043	12.54661
536.244	12.86994
536.445	13.21805
536.645	14.17194
536.846	13.91958
537.047	14.24495
537.247	12.62723
537.448	12.56841
537.648	12.23713
537.849	11.35991
538.049	10.91946
538.25	11.10558
538.451	11.19003
538.651	10.17188
538.851	10.81736
539.052	11.45892
539.252	11.08888
539.453	10.43732
539.653	11.05159
539.854	11.40005
540.054	12.67694
540.254	14.62093
540.455	16.21547
540.655	16.59586
540.855	18.60817
541.056	20.13533
541.256	19.84144
541.456	21.25876
541.657	20.66102
541.857	21.37573
542.057	19.63368
542.257	18.91478
542.458	19.0856
542.658	18.11812
542.858	15.97442
543.058	16.03191
543.258	14.90713
543.458	13.05335
543.659	12.45529
543.859	13.19611
544.059	12.74662
544.259	11.7137
544.459	11.94984
544.659	10.82993
544.859	11.18742
545.059	10.34372
545.259	11.10039
545.459	10.62129
545.659	11.27063
545.859	10.85671
546.059	11.0653
546.259	10.61062
546.459	10.46583
546.659	10.37825
546.859	11.49682
547.059	11.31211
547.258	10.98186
547.458	11.0691
547.658	10.26657
547.858	10.00783
548.058	11.06096
548.258	10.70566
548.457	10.1503
548.657	12.39041
548.857	10.76755
549.057	11.53544
549.256	11.20305
549.456	10.36799
549.656	9.34102
549.855	12.02375
550.055	10.13547
550.255	11.97604
550.454	11.05646
550.654	11.13915
550.853	11.61612
551.053	11.33468
551.253	10.78449
551.452	10.89631
551.652	10.03737
551.851	9.68098
552.051	10.48204
552.25	10.15396
552.45	9.89964
552.649	10.44546
552.849	10.11609
553.048	10.49666
553.248	10.9218
553.447	9.87523
553.646	11.19379
553.846	12.04004
554.045	11.45377
554.244	9.77856
554.444	12.00557
554.643	10.18591
554.842	11.78369
555.042	12.40975
555.241	10.20116
555.44	9.86293
555.64	11.37784
555.839	12.24771
556.038	11.07519
556.237	10.2151
556.436	10.92212
556.636	10.94231
556.835	10.03839
557.034	11.97518
557.233	10.7467
557.432	9.42599
557.631	11.68211
557.83	10.70121
558.029	10.42387
558.228	10.02067
558.427	9.83172
558.626	11.00461
558.825	9.85141
559.024	10.41848
559.223	12.01622
559.422	10.19524
559.621	10.77947
559.82	8.70238
560.019	10.59637
560.218	10.48296
560.417	8.31793
560.616	10.11999
560.815	13.34619
561.014	9.30101
561.212	11.93725
561.411	10.5822
561.61	9.23661
561.809	10.36703
562.008	11.42966
562.206	10.26116
562.405	11.08377
562.604	10.26879
562.803	10.96308
563.001	10.20319
563.2	9.63603
563.399	10.98694
563.597	9.68142
563.796	10.36381
563.995	9.63794
564.193	11.11852
564.392	10.38678
564.59	12.09614
564.789	9.00919
564.988	10.00687
565.186	10.44523
565.385	10.35704
565.583	10.32398
565.782	10.25377
565.98	10.32077
566.179	10.39767
566.377	9.74238
566.575	10.08572
566.774	11.63215
566.972	11.1657
567.171	12.18303
567.369	11.46547
567.567	10.93373
567.766	11.04883
567.964	9.14583
568.162	11.31555
568.361	11.48601
568.559	10.41036
568.757	10.95048
568.956	10.5392
569.154	10.55461
569.352	11.09249
569.55	10.51089
569.748	10.59342
569.947	9.94907
570.145	9.63564
570.343	9.78835
570.541	11.36306
570.739	9.34181
570.937	10.40726
571.135	10.69837
571.333	11.86932
571.532	11.60792
571.73	10.74095
571.928	11.39404
572.126	10.75868
572.324	10.13845
572.522	11.86522
572.72	12.86524
572.918	10.7255
573.116	11.15244
573.313	10.64766
573.511	10.75782
573.709	10.21748
573.907	11.25078
574.105	10.30076
574.303	9.27956
574.501	9.45367
574.699	10.95332
574.896	10.75286
575.094	10.9404
575.292	9.39134
575.49	11.32802
575.688	10.20557
575.885	11.79857
576.083	12.31242
576.281	10.98642
576.478	10.08124
576.676	11.02424
576.874	9.39623
577.071	10.48141
577.269	12.96069
577.467	10.55869
577.664	10.54623
577.862	11.90679
578.059	9.83249
578.257	11.37937
578.455	10.24287
578.652	10.82373
578.85	8.74204
579.047	10.87904
579.245	10.43613
579.442	10.29718
579.64	10.46272
579.837	9.02284
580.034	13.28419
580.232	10.34231
580.429	9.30954
580.627	11.11528
580.824	11.83832
581.021	10.96317
581.219	10.19065
581.416	9.80712
581.613	11.7273
581.811	12.05932
582.008	10.01891
582.205	11.23365
582.402	10.87337
582.6	12.41853
582.797	10.39658
582.994	10.84796
583.191	11.02311
583.388	10.34511
583.586	11.34903
583.783	11.52334
583.98	10.24371
584.177	10.96432
584.374	7.55723
584.571	10.22494
584.768	10.37646
584.965	9.97887
585.162	11.05518
585.359	12.10894
585.556	10.50329
585.753	10.77683
585.95	9.45287
586.147	9.67021
586.344	11.02545
586.541	10.08016
586.738	9.08842
586.935	10.42285
587.132	9.79755
587.329	11.45898
587.526	10.58964
587.722	15.29334
587.919	8.94103
588.116	10.96042
588.313	11.86676
588.51	12.84123
588.706	9.80547
588.903	10.92636
589.1	11.45367
589.297	13.14937
589.493	10.51459
589.69	11.00932
589.887	10.01473
590.083	9.63772
590.28	9.95685
590.477	11.34266
590.673	11.41335
590.87	11.88141
591.067	10.34972
591.263	11.24722
591.46	11.05798
591.656	10.38817
591.853	12.22644
592.049	9.45385
592.246	10.09708
592.442	11.83895
592.639	11.54194
592.835	9.67122
593.032	10.84127
593.228	9.22338
593.425	8.9119
593.621	8.61175
593.817	11.05876
594.014	9.85753
594.21	10.46042
594.406	11.58063
594.603	11.19988
594.799	9.8363
594.995	8.12169
595.192	11.77817
595.388	9.92583
595.584	10.32479
595.78	9.02942
595.977	12.47895
596.173	12.33155
596.369	10.31029
596.565	9.32467
596.761	9.16603
596.957	11.78844
597.154	9.93106
597.35	10.38834
597.546	9.99451
597.742	11.68335
597.938	10.80605
598.134	10.28965
598.33	11.07418
598.526	12.2368
598.722	11.0829
598.918	12.9102
599.114	11.15062
599.31	9.82903
599.506	10.44181
599.702	9.96379
599.898	10.49691
600.094	11.43654
600.29	11.38185
600.485	11.72142
600.681	9.87796
600.877	12.56236
601.073	10.63792
601.269	12.24977
601.465	11.97449
601.66	9.64487
601.856	8.59434
602.052	12.01684
602.248	10.05015
602.443	8.63553
602.639	8.91386
602.835	9.76138
603.03	9.82754
603.226	11.50056
603.422	9.30759
603.617	10.10412
603.813	10.05451
604.009	10.10701
604.204	11.76582
604.4	9.18981
604.595	11.49883
604.791	9.54205
604.986	10.89541
605.182	9.96295
605.377	10.42305
605.573	10.19294
605.768	10.91851
605.964	11.71286
606.159	11.58014
606.355	12.04514
606.55	10.34368
606.746	12.01617
606.941	10.34761
607.136	13.32031
607.332	14.36418
607.527	9.31626
607.722	10.83664
607.918	10.32886
608.113	9.68927
608.308	11.43649
608.503	11.10947
608.699	10.88773
608.894	11.27365
609.089	9.92096
609.284	10.87629
609.479	10.14247
609.675	11.51117
609.87	10.17868
610.065	11.82107
610.26	11.87421
610.455	11.50961
610.65	10.72865
610.845	10.71981
611.04	12.12347
611.235	10.5801
611.43	10.28704
611.625	9.18645
611.82	12.58408
612.015	10.14245
612.21	12.74413
612.405	8.87153
612.6	12.78282
612.795	12.0334
612.99	11.46536
613.185	9.65925
613.38	9.94371
613.575	11.05833
613.77	14.04703
613.965	8.5935
614.159	9.6299
614.354	12.60624
614.549	11.81942
614.744	11.74977
614.938	9.4267
615.133	8.78673
615.328	12.9776
615.523	12.25203
615.717	14.71615
615.912	9.85357
616.107	10.71585
616.301	10.33061
616.496	10.12215
616.691	12.72452
616.885	11.85469
617.08	15.00008
617.274	11.94198
617.469	13.842
617.664	12.03997
617.858	10.21918
618.053	11.48036
618.247	10.77283
618.442	7.75785
618.636	13.41944
618.831	9.95165
619.025	10.19838
619.219	14.56694
619.414	6.75377
619.608	10.67382
619.803	10.27231
619.997	14.02856
620.191	12.61639
620.386	11.4168
620.58	11.0331
620.774	8.94678
620.969	8.68773
621.163	11.31396
621.357	9.66003
621.551	10.94366
621.746	10.85849
621.94	9.95226
622.134	15.50828
622.328	13.91966
622.522	8.87161
622.716	12.21086
622.911	12.77939
623.105	12.11888
623.299	11.66678
623.493	15.64247
623.687	9.83511
623.881	10.17914
624.075	11.36978
624.269	12.76755
624.463	8.60654
624.657	8.64859
624.851	12.04141
625.045	12.32393
625.239	12.56295
625.433	10.7075
625.627	12.85407
625.821	9.90424
626.015	9.94409
626.209	11.24097
626.403	8.97815
626.596	11.8488
626.79	12.0513
626.984	9.49446
627.178	11.81698
627.372	11.98239
627.565	12.35674
627.759	9.54639
627.953	9.45526
628.147	11.54
628.34	11.76899
628.534	14.23563
628.728	11.03889
628.921	12.34869
629.115	11.67257
629.309	12.46308
629.502	12.51247
629.696	11.31343
629.89	10.78777
630.083	11.8419
630.277	12.14365
630.47	13.71313
630.664	10.73221
630.857	9.27052
631.051	12.32338
631.244	13.19315
631.438	12.36654
631.631	10.34213
631.825	13.70681
632.018	12.37672
632.212	14.1823
632.405	13.12248
632.598	10.47463
632.792	11.30569
632.985	7.89706
633.178	10.94678
633.372	10.66556
633.565	10.85814
633.758	13.78592
633.952	10.02593
634.145	9.60646
634.338	10.92238
634.531	10.36531
634.724	10.70334
634.918	11.62073
635.111	10.91843
635.304	10.8818
635.497	15.02259
635.69	11.82551
635.883	13.51294
636.077	9.91024
636.27	12.24209
636.463	11.82618
636.656	12.14171
636.849	10.68107
637.042	12.63819
637.235	14.08198
637.428	12.92917
637.621	12.87001
637.814	13.92738
638.007	14.04123
638.2	13.4643
638.393	15.10074
638.586	9.42961
638.778	10.8931
638.971	11.61732
639.164	14.22838
639.357	12.44647
639.55	14.46029
639.743	13.1936
639.935	12.60526
640.128	15.49563
640.321	12.58723
640.514	11.69237
640.707	16.20542
640.899	12.89127
641.092	8.7926
641.285	25.17323
641.477	8.45018
641.67	16.21273
641.863	14.46703
642.055	12.3518
642.248	11.85737
642.441	11.15704
642.633	13.513
642.826	13.84191
643.018	14.42474
643.211	16.45636
643.403	15.39991
643.596	16.25038
643.788	16.29807
643.981	11.88013
644.173	14.41219
644.366	12.26192
644.558	8.37906
644.751	14.11112
644.943	9.59497
645.135	15.44644
645.328	15.82689
645.52	13.05236
645.712	14.46126
645.905	18.41993
646.097	9.83443
646.289	12.41643
646.482	16.82675
646.674	11.35812
646.866	15.23019
647.058	13.54873
647.251	10.22004
647.443	11.7179
647.635	12.05473
647.827	9.93963
648.019	11.41982
648.211	12.59665
648.404	12.01551
648.596	15.87365
648.788	13.03502
648.98	12.85889
649.172	13.50098
649.364	13.23398
649.556	8.9764
649.748	18.15797
649.94	11.00822
650.132	13.29546
650.324	10.54868
650.516	11.25752
650.708	15.00984
650.9	9.67863
651.092	11.20311
651.284	9.36636
651.476	10.47071
651.667	14.07637
651.859	15.07017
652.051	12.48325
652.243	12.34683
652.435	11.36005
652.627	13.92367
652.818	13.95264
653.01	9.26721
653.202	10.45639
653.394	11.33737
653.585	13.88628
653.777	22.4036
653.969	15.15466
654.16	14.98023
654.352	10.48255
654.544	11.81189
654.735	15.37244
654.927	13.35511
655.118	16.32856
655.31	14.2387
655.502	15.61114
655.693	11.89296
655.885	14.27622
656.076	16.01292
656.268	12.85523
656.459	15.99408
656.651	15.81333
656.842	11.86477
657.034	11.60732
657.225	14.82797
657.416	16.2578
657.608	16.16771
657.799	13.06275
657.99	15.71989
658.182	11.82546
658.373	11.4799
658.564	14.3133
658.756	12.88639
658.947	12.76894
659.138	10.92359
659.33	11.70104
659.521	11.61637
659.712	13.25345
659.903	12.67483
660.094	11.90116
660.286	10.32879
660.477	17.09592
660.668	14.62644
660.859	13.20423
661.05	9.85331
661.241	15.08877
661.432	14.42885
661.623	12.0861
661.814	12.22306
662.006	9.91732
662.197	13.18914
662.388	16.29843
662.579	13.90858
662.77	16.26619
662.96	19.5702
663.151	15.42546
663.342	9.11252
663.533	14.94854
663.724	13.51933
663.915	18.23868
664.106	12.60796
664.297	18.11337
664.488	15.58509
664.678	11.92646
664.869	15.30458
665.06	16.46084
665.251	14.00801
665.442	14.39041
665.632	10.35731
665.823	18.23118
666.014	6.22885
666.204	15.28315
666.395	17.03455
666.586	20.95693
666.776	15.89925
666.967	18.365
667.158	14.137
667.348	17.32059
667.539	11.60866
667.729	15.84462
667.92	12.46306
668.111	16.79267
668.301	15.63052
668.492	13.68119
668.682	14.4243
668.873	13.73878
669.063	10.93426
669.253	14.53965
669.444	16.06491
669.634	13.28623
669.825	18.59158
670.015	16.7745
670.206	12.20131
670.396	18.9131
670.586	13.14139
670.777	15.40828
670.967	8.26489
671.157	13.03051
671.347	12.30539
671.538	17.69788
671.728	15.56994
671.918	19.8383
672.108	16.19365
672.299	14.44033
672.489	15.33766
672.679	13.42437
672.869	16.40991
673.059	19.37333
673.249	16.39905
673.44	11.45157
673.63	14.37765
673.82	17.31443
674.01	11.46456
674.2	15.67497
674.39	22.56691
674.58	16.93441
674.77	14.96554
674.96	13.98351
675.15	26.44802
675.34	18.19351
675.53	14.62464
675.72	14.41256
675.91	11.103
676.099	21.02648
676.289	21.57599
676.479	17.51243
676.669	13.67576
676.859	16.84144
677.049	12.32467
677.238	15.76403
677.428	20.30441
677.618	16.00778
677.808	18.04052
677.997	16.74176
678.187	11.45334
678.377	14.73411
678.567	13.65616
678.756	13.05286
678.946	14.69759
679.136	11.29779
679.325	12.83446
679.515	12.23153
679.704	11.83008
679.894	16.39951
680.084	15.35719
680.273	17.484
680.463	13.50482
680.652	12.75643
680.842	15.08082
681.031	17.5105
681.221	12.7263
681.41	16.79702
681.6	14.72348
681.789	17.50393
681.978	19.0156
682.168	16.32431
682.357	15.76821
682.547	17.52343
682.736	16.32229
682.925	18.99896
683.115	18.91717
683.304	18.40932
683.493	16.28197
683.682	17.10927
683.872	17.29989
684.061	20.06882
684.25	17.12212
684.439	20.82525
684.629	17.95313
684.818	26.41579
685.007	16.49052
685.196	15.38173
685.385	20.92009
685.574	16.05486
685.763	18.31852
685.952	17.3291
686.142	13.11108
686.331	20.76923
686.52	10.91446
686.709	21.2779
686.898	20.12
687.087	18.53121
687.276	21.3051
687.465	20.00878
687.654	15.81113
687.842	21.84968
688.031	13.42287
688.22	20.76207
688.409	17.81221
688.598	17.91108
688.787	25.09
688.976	17.16699
689.165	22.79187
689.353	15.4245
689.542	17.86047
689.731	18.80114
689.92	23.29321
690.108	19.16478
690.297	16.83569
690.486	17.93932
690.675	20.35974
690.863	23.43719
691.052	22.8783
691.241	18.73898
691.429	18.57528
691.618	23.64436
691.806	13.5777
691.995	16.00421
692.184	17.71318
692.372	16.20557
692.561	18.56562
692.749	17.95276
692.938	27.04933
693.126	19.67811
693.315	18.55274
693.503	20.51532
693.692	19.66149
693.88	22.19165
694.068	26.39386
694.257	17.74241
694.445	19.89287
694.634	9.93762
694.822	22.07372
695.01	22.81863
695.199	23.07663
695.387	24.23288
695.575	21.76993
695.763	18.15145
695.952	16.41406
696.14	13.24779
696.328	16.87636
696.516	18.2462
696.705	19.53039
696.893	19.06303
697.081	12.46741
697.269	20.54626
697.457	14.96255
697.645	14.65527
697.833	20.38203
698.021	15.03691
698.21	15.55383
698.398	17.29332
698.586	14.05646
698.774	14.40444
698.962	16.75719
699.15	15.01968
699.338	13.00701
699.526	19.35685
699.714	16.12742
699.901	15.92973
700.089	21.46831
700.277	15.18229
700.465	17.45508
700.653	21.58087
700.841	19.82081
701.029	15.84969
701.217	23.26272
701.404	19.64733
701.592	24.29244
701.78	25.95757
701.968	17.84028
702.155	18.5613
702.343	12.90405
702.531	24.06399
702.718	20.23081
702.906	18.82665
703.094	17.1459
703.281	24.75096
703.469	20.43132
703.657	24.10411
703.844	31.93292
704.032	25.85948
704.219	17.17557
704.407	21.81696
704.595	24.65477
704.782	19.12492
704.97	17.87263
705.157	17.64503
705.345	25.26414
705.532	30.7242
705.719	21.54373
705.907	25.83923
706.094	20.88816
706.282	26.74288
706.469	19.12001
706.656	21.71838
706.844	18.56411
707.031	25.55284
707.218	20.77744
707.406	27.06913
707.593	24.92811
707.78	23.20131
707.968	20.10081
708.155	17.2257
708.342	22.40409
708.529	21.93984
708.716	20.51096
708.904	28.14035
709.091	24.1938
709.278	15.38738
709.465	29.61817
709.652	28.64279
709.839	26.57697
710.026	22.10551
710.213	14.88435
710.4	22.89742
710.587	25.26826
710.774	25.83226
710.961	26.21747
711.148	22.18005
711.335	25.68158
711.522	20.42743
711.709	23.42847
711.896	31.01773
712.083	25.5524
712.27	18.31057
712.457	22.52299
712.644	15.53644
712.831	31.45718
713.017	21.97552
713.204	25.18647
713.391	19.3444
713.578	27.02654
713.765	29.37861
713.951	24.93925
714.138	37.44696
714.325	26.45914
714.512	23.23296
714.698	18.50459
714.885	30.09332
715.072	23.71813
715.258	23.34116
715.445	20.5384
715.631	29.37485
715.818	12.6242
716.005	19.96612
716.191	24.74599
716.378	21.80192
716.564	27.43074
716.751	18.9734
716.937	21.29413
717.124	28.46924
717.31	19.54211
717.497	31.29616
717.683	20.17603
717.869	34.16302
718.056	21.9109
718.242	26.69039
718.429	22.50692
718.615	18.34175
718.801	24.50564
718.988	28.42046
719.174	26.59341
719.36	24.62843
719.547	29.56495
719.733	26.90907
719.919	27.81279
720.105	28.25323
720.291	23.30006
720.478	25.564
720.664	25.13238
720.85	23.16087
721.036	38.86597
721.222	33.53831
721.408	24.98907
721.595	34.74062
721.781	33.483
721.967	29.8613
722.153	34.21784
722.339	28.60097
722.525	26.62285
722.711	19.3478
722.897	18.30781
723.083	22.621
723.269	31.90106
723.455	39.54904
723.641	42.69589
723.827	26.69407
724.012	27.75104
724.198	23.00876
724.384	35.32334
724.57	28.04166
724.756	18.43442
724.942	14.94256
725.127	29.86063
725.313	33.18195
725.499	31.74373
725.685	35.89714
725.87	27.8052
726.056	21.92435
726.242	35.91014
726.428	18.80553
726.613	30.44832
726.799	22.68612
726.985	20.52521
727.17	17.05427
727.356	35.32955
727.541	19.28433
727.727	25.43098
727.913	30.84047
728.098	22.09152
728.284	29.74076
728.469	19.37288
728.655	21.33165
728.84	31.69605
729.026	30.61042
729.211	30.76057
729.397	29.34897
729.582	30.04426
729.767	26.8286
729.953	27.71703
730.138	31.90256
730.323	14.41955
730.509	21.16215
730.694	36.86055
730.879	30.19804
731.065	26.76645
731.25	39.05122
731.435	29.97375
731.621	17.54021
731.806	24.21577
731.991	28.26518
732.176	17.79334
732.361	34.06513
732.547	29.89567
732.732	17.48352
732.917	41.22919
733.102	19.82656
733.287	22.02074
733.472	26.34355
733.657	27.17274
733.842	17.66182
734.027	23.86715
734.212	26.1275
734.397	22.02555
734.582	28.96452
734.767	32.46787
734.952	35.40843
735.137	11.23765
735.322	36.45729
735.507	29.10914
735.692	29.79154
735.877	42.72453
736.062	38.38476
736.247	29.60011
736.431	26.16908
736.616	33.33944
736.801	29.55713
736.986	27.55615
737.171	23.2702
737.355	18.6325
737.54	35.85154
737.725	28.1348
737.909	47.24859
738.094	23.78662
738.279	34.38926
738.463	26.56714
738.648	32.19676
738.833	30.12757
739.017	40.72383
739.202	25.32527
739.386	27.64063
739.571	20.03691
739.756	32.23674
739.94	28.27249
740.125	34.01588
740.309	22.11313
740.494	33.63686
740.678	27.81592
740.863	31.52722
741.047	30.29453
741.231	37.15572
741.416	23.64233
741.6	38.56636
741.785	22.04012
741.969	35.20606
742.153	37.26259
742.338	14.56359
742.522	27.8836
742.706	34.07917
742.89	20.04544
743.075	29.54605
743.259	37.59252
743.443	35.36315
743.627	37.85019
743.812	45.75646
743.996	12.87707
744.18	27.44743
744.364	24.48793
744.548	47.22552
744.732	27.08851
744.916	34.38374
745.1	35.39893
745.285	27.33452
745.469	33.50525
745.653	41.84072
745.837	17.74662
746.021	46.69816
746.205	37.43373
746.389	29.60861
746.573	29.17705
746.757	42.5351
746.94	26.93561
747.124	38.84018
747.308	21.78513
747.492	39.08136
747.676	25.77837
747.86	50.3044
748.044	26.31083
748.227	16.48407
748.411	58.36339
748.595	30.87053
748.779	23.55323
748.963	33.182
749.146	31.00744
749.33	24.15225
749.514	22.19408
749.697	39.24511
749.881	27.14351
750.065	21.64762
750.248	32.2868
750.432	50.49719
750.616	32.30088
750.799	19.06333
750.983	48.63578
751.166	53.81995
751.35	16.7465
751.533	37.99789
751.717	39.6383
751.9	42.97612
752.084	27.05918
752.267	21.33618
752.451	27.31563
752.634	33.04501
752.818	34.98523
753.001	36.50136
753.184	39.2539
753.368	33.16884
753.551	4.03081
753.734	24.60142
753.918	47.80719
754.101	24.72947
754.284	35.68035
754.467	27.87096
754.651	23.63144
754.834	23.19086
755.017	40.44841
755.2	39.51865
755.384	21.4737
755.567	40.22492
755.75	37.39566
755.933	29.78685
756.116	35.12466
756.299	25.006
756.482	21.79486
756.665	34.20599
756.848	31.59691
757.032	34.09687
757.215	18.94745
757.398	22.89868
757.581	23.13076
757.764	55.2551
757.947	30.00112
758.129	42.57735
758.312	8.67719
758.495	28.787
758.678	28.30686
758.861	29.66011
759.044	47.01325
759.227	25.49636
759.41	24.67242
759.592	37.94581
759.775	28.82718
759.958	40.80258
760.141	21.65789
760.324	50.17879
760.506	44.63875
760.689	39.94612
760.872	55.04173
761.054	36.82633
761.237	27.11356
761.42	34.92772
761.602	40.5512
761.785	36.24617
761.968	41.5277
762.15	46.82696
762.333	31.15704
762.515	34.8105
762.698	28.11821
762.88	39.11186
763.063	33.98704
763.245	36.80968
763.428	23.07009
763.61	23.89755
763.793	20.87713
763.975	33.53069
764.158	28.1647
764.34	27.3267
764.522	24.55705
764.705	30.49856
764.887	43.66199
765.069	20.5154
765.252	36.10835
765.434	37.52649
765.616	30.70477
765.799	28.08718
765.981	35.97548
766.163	24.17539
766.345	40.72746
766.528	25.19831
766.71	13.80412
766.892	31.741
767.074	42.75783
767.256	30.70307
767.438	47.57344
767.62	37.0133
767.802	53.47387
767.985	38.58287
768.167	48.93857
768.349	27.729
768.531	38.69728
768.713	35.79848
768.895	41.45108
769.077	36.30098
769.259	59.89472
769.441	84.82214
769.623	41.20627
769.804	49.35747
769.986	47.65103
770.168	59.28915
770.35	69.87458
770.532	53.84417
770.714	55.11209
770.896	57.70095
771.077	24.98367
771.259	60.03415
771.441	47.5581
771.623	66.3116
771.804	81.71676
771.986	25.10706
772.168	39.89507
772.35	61.74777
772.531	84.9311
772.713	50.65803
772.894	65.91025
773.076	50.07716
773.258	40.62166
773.439	66.10441
773.621	72.73632
773.802	36.05053
773.984	46.61516
774.166	52.88033
774.347	72.61763
774.529	63.67908
774.71	20.02805
774.891	46.12614
775.073	41.77229
775.254	70.61284
775.436	40.0561
775.617	77.58608
775.799	41.17615
775.98	75.5344
776.161	74.51127
776.343	76.34106
776.524	47.76907
776.705	41.44019
776.886	22.2358
777.068	52.58041
777.249	90.7253
777.43	82.62227
777.611	33.84659
777.793	49.27353
777.974	75.7367
778.155	41.70005
778.336	37.86498
778.517	84.01555
778.698	38.0011
778.879	23.963
779.061	8.66384
779.242	60.55884
779.423	55.04887
779.604	40.29469
779.785	42.91228
779.966	53.2925
780.147	61.6412
780.328	68.68078
780.509	93.94579
780.69	62.79473
780.871	40.51184
781.051	29.9661
781.232	55.91016
781.413	54.16859
781.594	43.77086
781.775	43.74801
781.956	37.83736
782.137	19.33124
782.317	39.7261
782.498	53.76149
782.679	49.5682
782.86	53.94392
783.04	36.9853
783.221	53.11051
783.402	85.87482
783.583	51.75125
783.763	60.50474
783.944	43.09951
784.124	27.10707
784.305	77.49593
784.486	56.22873
784.666	46.37711
784.847	25.39931
785.027	94.87091
785.208	37.90972
785.388	40.39988
785.569	40.66892
785.749	45.14021
785.93	41.78255
786.11	25.59509
786.291	54.64495
786.471	51.87896
786.652	60.60981
786.832	48.36161
787.012	56.68472
787.193	33.4264
787.373	50.86457
787.553	44.82078
787.734	51.31519
787.914	43.32379
788.094	59.53801
788.275	54.81435
788.455	44.60066
788.635	32.91755
788.815	52.21609
788.995	35.11252
789.176	24.89094
789.356	36.72992
789.536	45.36736
789.716	60.91932
789.896	36.68425
790.076	42.38444
790.256	50.16613
790.436	16.09614
790.616	33.45674
790.796	54.87051
790.976	41.77935
791.156	36.19527
791.336	58.17103
791.516	54.49883
791.696	48.94571
791.876	27.64373
792.056	51.49171
792.236	62.22001
792.416	61.00603
792.596	55.61486
792.776	56.48883
792.956	59.52894
793.135	75.0053
793.315	30.7416
793.495	68.71738
793.675	59.14327
793.854	59.96496
794.034	69.47892
794.214	32.01589
794.394	59.0008
794.573	68.94677
794.753	49.25052
794.933	37.2536
795.112	50.69739
795.292	63.41223
795.472	81.79615
795.651	30.74113
795.831	51.87947
796.01	42.42597
796.19	45.72476
796.369	49.41407
796.549	58.8108
796.728	46.30936
796.908	30.91248
797.087	32.44388
797.267	45.25222
797.446	33.25212
797.626	56.18454
797.805	58.01121
797.984	37.90489
798.164	57.84557
798.343	34.74715
798.522	55.55809
798.702	52.73542
798.881	30.98116
799.06	42.7184
799.239	19.67934
799.419	34.15998
799.598	76.20051
799.777	57.70895
799.956	68.76127
800.136	40.33407
800.315	37.71098
800.494	55.54173
800.673	64.76481
800.852	58.02769
801.031	65.59303
801.21	59.23586
801.389	43.12572
801.568	54.18527
801.747	80.35403
801.926	47.91051
802.105	75.12555
802.284	43.91445
802.463	77.54337
802.642	53.66753
802.821	53.89675
803	71.99629
803.179	63.20796
803.358	73.45082
803.537	39.7427
803.716	54.91824
803.895	34.66135
804.073	47.59494
804.252	37.28574
804.431	59.87321
804.61	49.14324
804.789	70.46377
804.967	41.7821
805.146	42.3279
805.325	90.34274
805.503	61.3661
805.682	26.66349
805.861	93.21564
806.039	71.27105
806.218	41.39052
806.397	50.65857
806.575	50.24556
806.754	57.54419
806.932	33.83646
807.111	75.48063
807.289	64.75571
807.468	48.73394
807.646	69.49586
807.825	60.81618
808.003	54.92599
808.182	64.69959
808.36	49.97685
808.539	36.26541
808.717	77.19338
808.895	37.45819
809.074	60.48023
809.252	46.9094
809.43	67.24826
809.609	77.91741
809.787	92.08319
809.965	49.69794
810.144	56.32286
810.322	50.89963
810.5	62.83164
810.678	44.27719
810.856	95.67013
811.035	72.1525
811.213	68.75358
811.391	76.05416
811.569	57.08855
811.747	109.76525
811.925	77.61738
812.103	38.97348
812.281	49.5658
812.459	92.74271
812.637	93.19547
812.816	74.93462
812.994	99.03067
813.171	81.46807
813.349	66.53729
813.527	77.66618
813.705	79.25608
813.883	102.79896
814.061	75.71052
814.239	98.0977
814.417	105.43602
814.595	64.81756
814.773	60.33429
814.95	62.50311
815.128	66.93203
815.306	57.9467
815.484	58.45347
815.662	43.94035
815.839	34.0167
816.017	49.94707
816.195	80.93209
816.372	57.30542
816.55	73.31329
816.728	88.38196
816.905	56.55347
817.083	85.32554
817.261	60.93876
817.438	105.28372
817.616	95.26011
817.793	47.94526
817.971	77.94631
818.148	72.92402
818.326	88.84043
818.503	68.21035
818.681	83.13185
818.858	47.63623
819.036	58.11379
819.213	62.04336
819.391	48.15686
819.568	43.62195
819.745	41.34149
819.923	69.95115
820.1	46.81739
820.277	41.94509
820.455	48.2937
820.632	52.71949
820.809	53.02624
820.986	35.99815
821.164	29.89522
821.341	26.95424
821.518	36.07225
821.695	28.8804
821.872	28.61691
822.05	26.01196
822.227	22.21979
822.404	23.46652
822.581	25.51915
822.758	23.72418
822.935	24.20665
823.112	27.46471
823.289	24.5457
823.466	28.10602
823.643	27.8283
823.82	31.04355
823.997	29.89124
824.174	34.93182
824.351	40.85845
824.528	40.62703
824.705	38.5119
824.882	41.79032
825.059	49.91432
825.236	38.91025
825.412	39.87625
825.589	45.57507
825.766	59.55754
825.943	38.5564
826.12	44.6949
826.296	33.29918
826.473	38.87398
826.65	38.96802
826.827	45.55672
827.003	32.31482
827.18	34.90938
827.357	38.293
827.533	34.92824
827.71	22.03107
827.887	31.92271
828.063	35.62803
828.24	31.23438
828.416	40.94973
828.593	34.58044
828.769	49.47303
828.946	52.76355
829.122	55.41748
829.299	53.46945
829.475	31.54981
829.652	52.83892
829.828	79.74952
830.005	51.81948
830.181	66.81626
830.357	50.98128
830.534	73.34946
830.71	50.61616
830.886	66.90874
831.063	65.08545
831.239	78.62426
831.415	36.93873
831.592	88.14056
831.768	51.10723
831.944	45.92896
832.12	83.46446
832.296	76.20914
832.473	62.55539
832.649	50.25096
832.825	60.17727
833.001	36.49544
833.177	57.49286
833.353	51.02838
833.529	30.17945
833.705	43.85781
833.881	32.82977
834.058	33.16445
834.234	34.97153
834.41	36.49826
834.586	29.88683
834.761	33.6365
834.937	38.50936
835.113	38.41437
835.289	33.96555
835.465	43.74451
835.641	38.22393
835.817	42.40143
835.993	76.40389
836.169	37.52419
836.344	54.16983
836.52	61.94266
836.696	63.43954
836.872	47.41997
837.048	117.12831
837.223	52.00017
837.399	102.86801
837.575	78.90299
837.75	76.74671
837.926	104.99014
838.102	165.1131
838.277	116.40874
838.453	172.24402
838.628	159.45532
838.804	59.08824
838.98	160.17992
839.155	77.778
839.331	103.9653
839.506	72.74021
839.682	67.84592
839.857	84.16941
840.033	99.8342
840.208	54.65284
840.384	25.42508
840.559	52.15132
840.734	80.72515
840.91	109.6247
841.085	73.08023
841.26	67.44964
841.436	60.80811
841.611	59.01732
841.786	97.83193
841.962	133.0763
842.137	92.4933
842.312	49.63942
842.487	74.80058
842.663	63.80513
842.838	87.0409
843.013	267.65488
843.188	130.10056
843.363	147.90272
843.538	227.1305
843.714	242.35704
843.889	244.56702
844.064	197.50778
844.239	158.77762
844.414	254.02895
844.589	159.30378
844.764	263.78813
844.939	288.59775
845.114	274.54303
845.289	327.31466
845.464	363.34244
845.639	250.68501
845.814	146.96896
845.989	196.38237
846.163	194.08695
846.338	261.99415
846.513	323.29342
846.688	224.4019
846.863	225.42308
847.038	172.89809
847.212	195.63235
847.387	214.67098
847.562	243.38046
847.737	309.80972
847.911	103.86924
848.086	151.88696
848.261	377.1733
848.435	185.76279
848.61	275.03532
848.785	177.26043
848.959	327.62491
849.134	297.59203
849.308	637.36815
849.483	233.31402
849.658	370.22666
849.832	207.14233
850.007	134.46126
850.181	505.66872
850.356	240.97478
850.53	403.4096
850.705	131.0182
850.879	105.52364
851.053	189.37257
851.228	247.38393
851.402	294.33984
851.577	305.56763
851.751	402.19453
851.925	204.92804
852.099	81.64978
852.274	165.38804
852.448	224.87722
852.622	291.02349
852.797	228.13321
852.971	245.40569
853.145	237.29347
853.319	488.14046
853.493	440.15266
853.668	236.14104
853.842	521.22415
854.016	370.42941
854.19	480.34168
854.364	232.1276
854.538	301.6164
854.712	332.26759
854.886	217.77254
855.06	225.40843
855.234	75.89146
855.408	386.99549
855.582	315.44976
855.756	533.11327
855.93	365.51027
856.104	320.06532
856.278	328.60528
856.452	237.949
856.626	259.00643
856.8	483.40525
856.973	373.2615
857.147	345.1883
857.321	322.10816
857.495	347.83179
857.669	271.70634
857.842	270.42186
858.016	433.99936
858.19	159.02965
858.364	540.59409
858.537	240.60256
858.711	312.27501
858.885	235.17147
859.058	182.91632
859.232	130.98844
859.405	136.23702
859.579	322.20855
859.753	396.01561
859.926	177.75084
860.1	156.6716
860.273	300.85108
860.447	421.97864
860.62	229.76811
860.794	520.24999
860.967	245.19444
861.141	307.53671
861.314	486.3951
861.487	296.05484
861.661	372.37369
861.834	550.25687
862.008	333.75266
862.181	338.88829
862.354	264.62824
862.528	415.85907
862.701	215.57979
862.874	134.55586
863.047	222.04494
863.221	198.44272
863.394	113.47496
863.567	312.16016
863.74	94.30707
863.913	339.01407
864.087	294.17678
864.26	365.66479
864.433	245.49042
864.606	484.87702
864.779	313.47446
864.952	115.68982
865.125	295.53907
865.298	284.76819
865.471	285.4496
865.644	436.38044
865.817	351.48925
865.99	378.35908
866.163	392.33071
866.336	187.55432
866.509	299.04948
866.682	255.61852
866.855	442.89277
867.028	123.17068
867.2	254.13738
867.373	77.87509
867.546	248.20145
867.719	485.66198
867.892	348.10752
868.064	181.8447
868.237	259.48942
868.41	294.50651
868.583	188.93859
868.755	169.88336
868.928	230.23981
869.101	541.28076
869.273	390.58527
869.446	283.76694
869.619	421.20108
869.791	362.86816
869.964	411.98621
870.136	437.71851
870.309	228.63777
870.481	273.68156
870.654	127.07039
870.826	253.70303
870.999	202.86049
871.171	368.61485
871.344	175.80894
871.516	217.32141
871.689	163.38227
871.861	271.54695
872.033	166.97295
872.206	235.88563
872.378	271.44676
872.55	246.22683
872.723	147.54469
872.895	227.85615
873.067	352.16874
873.24	298.6155
873.412	217.64404
873.584	244.23519
873.756	213.55764
873.928	257.66176
874.101	246.81685
874.273	284.18055
874.445	110.5938
874.617	142.69302
874.789	210.37623
874.961	212.17488
875.133	283.60766
875.305	265.06441
875.477	141.94259
875.649	107.29229
875.821	159.68913
875.993	340.78903
876.165	212.68993
876.337	256.84698
876.509	213.50725
876.681	242.65227
876.853	232.12189
877.025	259.07747
877.197	167.16796
877.369	137.40808
877.541	281.04768
877.712	65.69446
877.884	146.84275
878.056	237.51609
878.228	129.69529
878.4	264.04926
878.571	130.28362
878.743	94.54224
878.915	193.70666
879.086	111.68362
879.258	140.19612
879.43	119.75345
879.601	108.36609
879.773	108.44152
879.945	27.33171
880.116	45.04607
880.288	29.52829
880.459	34.13525
880.631	29.13109
880.802	33.06018
880.974	31.94395
881.145	24.53781
881.317	31.60458
881.488	26.09912
881.66	28.59369
881.831	27.12119
882.002	33.5646
882.174	28.61409
882.345	33.04384
882.517	23.41132
882.688	38.57914
882.859	34.255
883.03	52.06463
883.202	49.43204
883.373	46.72749
883.544	44.35145
883.715	68.66742
883.887	63.07216
884.058	53.75241
884.229	74.20592
884.4	73.99379
884.571	85.9641
884.742	78.15
884.914	75.20405
885.085	110.21572
885.256	151.94097
885.427	121.17874
885.598	148.67589
885.769	138.20039
885.94	143.12643
886.111	100.97258
886.282	155.06419
886.453	138.3328
886.624	103.65646
886.795	168.38258
886.966	137.58352
887.136	186.69333
887.307	120.86938
887.478	220.04891
887.649	201.00994
887.82	213.49781
887.991	172.35314
888.161	248.37066
888.332	227.17882
888.503	126.55108
888.674	316.74347
888.844	367.31794
889.015	354.86832
889.186	170.1581
889.356	334.19561
889.527	150.25292
889.698	540.2272
889.868	192.59285
890.039	319.0323
890.209	219.29597
890.38	278.15154
890.551	271.15578
890.721	353.42672
890.892	341.47109
891.062	284.13068
891.233	373.41107
891.403	291.56664
891.574	188.57904
891.744	191.10103
891.914	260.73685
892.085	334.10527
892.255	73.81595
892.425	336.21983
892.596	219.7045
892.766	283.16387
892.936	382.21785
893.107	262.79184
893.277	139.94988
893.447	115.87533
893.618	68.81672
893.788	163.32131
893.958	94.30827
894.128	75.15607
894.298	89.2099
894.468	113.93105
894.639	56.67029
894.809	34.96837
894.979	60.11953
895.149	73.73469
895.319	53.66471
895.489	80.96144
895.659	103.45098
895.829	66.1915
895.999	71.08826
896.169	65.93277
896.339	75.05542
896.509	139.96043
896.679	167.108
896.849	188.15404
897.019	249.6816
897.189	239.87654
897.358	174.84754
897.528	294.91669
897.698	136.21871
897.868	287.60484
898.038	563.46117
898.208	501.40432
898.377	148.6546
898.547	836.4129
898.717	863.87062
898.886	351.87551
899.056	581.26255
899.226	872.8773
899.395	688.17216
899.565	725.13001
899.735	518.72467
899.904	654.22884
900.074	831.01121
900.244	292.2731
900.413	1727.77542
900.583	263.58922
900.752	3378.54046
900.922	637.89547
901.091	115.82395
901.261	692.60612
901.43	541.1845
901.599	707.52653
901.769	1447.0606
901.938	706.11298
902.108	655.95413
902.277	753.75239
902.446	252.9679
902.616	288.19429
902.785	427.78144
902.954	554.40793
903.124	292.80883
903.293	205.00442
903.462	97.05438
903.631	156.33214
903.801	106.55484
903.97	52.39984
904.139	90.18572
904.308	70.41184
904.477	57.61904
904.646	35.88373
904.816	54.39431
904.985	79.89487
905.154	115.41325
