Data from WindowProjectSample_Transmission__21__00021.txt Node

Date: Sat May 03 15:15:52 EDT 2025
User: jessi
Spectrometer: SR400872
Trigger mode: 0
Integration Time (sec): 5.000010E-1
Scans to average: 6
Electric dark correction enabled: true
Nonlinearity correction enabled: true
Boxcar width: 0
XAxis mode: Wavelengths
Number of Pixels in Spectrum: 3648
>>>>>Begin Spectral Data<<<<<
184.909	17600.4155
185.132	2687.72888
185.355	23091.04885
185.578	-8170.23469
185.801	393.51402
186.024	-1440.70883
186.247	829.16452
186.47	1994.60748
186.693	-366.33615
186.916	-3069.9917
187.139	-2644.89944
187.362	1661.49884
187.585	2914.62778
187.808	-3689.87743
188.031	-807.10934
188.254	-1345.38892
188.476	-803.54858
188.699	2505.46675
188.922	-1093.44449
189.145	-9977.48964
189.368	-333.06755
189.591	-1227.21705
189.813	-1888.69832
190.036	1262.05512
190.259	1796.90603
190.482	593.1477
190.705	10919.74222
190.927	-995.13149
191.15	3658.99958
191.373	2185.67395
191.595	-2609.12302
191.818	2610.75644
192.041	-383.67984
192.263	2688.81753
192.486	1936.0908
192.709	-5513.26831
192.931	2817.34301
193.154	-6206.24672
193.377	196699.24119
193.599	1518.8235
193.822	1885.36361
194.044	-2122.57236
194.267	502.20536
194.489	417.55645
194.712	1443.76071
194.934	3433.46517
195.157	-15826.28827
195.379	742.19036
195.602	2179.10817
195.824	1976.21587
196.047	2413.60748
196.269	2997.28459
196.492	3636.93996
196.714	2730.47173
196.936	1252.76928
197.159	1477.26491
197.381	-2384.37117
197.604	-1031.33357
197.826	7051.61339
198.048	3540.98708
198.271	4203.38249
198.493	2135.0317
198.715	-5904.41286
198.938	-652.00127
199.16	1864.97172
199.382	1414.00685
199.604	-670.55614
199.827	9865.84553
200.049	981.31801
200.271	-3116.85572
200.493	-53748.75075
200.715	2300.22744
200.938	7025.4375
201.16	-7176.29082
201.382	-2872.8776
201.604	-2125.07676
201.826	6612.70283
202.048	926.36256
202.27	-17768.35805
202.492	4829.02945
202.715	-1160.73455
202.937	4677.45756
203.159	-2414.98907
203.381	915.13918
203.603	-3598.75199
203.825	-3068.81803
204.047	3216.4944
204.269	-2042.08365
204.491	2330.6457
204.713	1935.64238
204.935	15756.06337
205.156	1716.42157
205.378	-8734.51708
205.6	-4215.76582
205.822	9313.19617
206.044	-708.54284
206.266	3868.54018
206.488	1111.84413
206.71	30617.07103
206.932	2469.28857
207.153	-5024.10779
207.375	-1842.12615
207.597	8776.94857
207.819	4380.09748
208.041	2309.03642
208.262	-3023.13406
208.484	-1292.79275
208.706	-3201.03213
208.927	28695.66552
209.149	1074.43598
209.371	-6556.86864
209.593	1448.97516
209.814	5442.45655
210.036	-3446.28568
210.258	-5741.26244
210.479	-1413.93526
210.701	1035.58926
210.922	6741.52265
211.144	-1328.75195
211.366	-5912.50294
211.587	-560.26206
211.809	9619.54757
212.03	-1391.76554
212.252	-1616.65171
212.473	798.16228
212.695	-2175.25272
212.916	2936.70903
213.138	3753.51256
213.359	-1858.78898
213.581	6418.69781
213.802	-1887.90164
214.024	18598.42962
214.245	-3581.46495
214.466	-329.48613
214.688	1580.98145
214.909	927.0399
215.131	-96914.59716
215.352	1535.05815
215.573	2519.86764
215.795	2913.65026
216.016	4289.6559
216.237	-628.97372
216.459	7097.85538
216.68	109017.7343
216.901	-84805.90052
217.122	1793.32103
217.344	6307.5163
217.565	-59415.10596
217.786	1545.65568
218.007	2172.33713
218.228	-1307.04276
218.45	-1183.23143
218.671	-1230.86632
218.892	1206.58716
219.113	-18502.29266
219.334	-442.93331
219.555	-5426.55222
219.776	1610.13116
219.997	3654.29238
220.219	1205.86241
220.44	2271.75666
220.661	-3202.7634
220.882	3376.64511
221.103	-1331.47358
221.324	975.2236
221.545	2284.10789
221.766	-6436.05994
221.987	4257.32585
222.208	-1694.82823
222.429	3483.91346
222.65	-112.12171
222.87	-570.6729
223.091	7797.67382
223.312	2630.95404
223.533	6920.71254
223.754	1866.83093
223.975	1515.3063
224.196	-10795.0292
224.417	1091.39727
224.637	892.22937
224.858	-988.40188
225.079	6843.85779
225.3	615.80046
225.521	2050.69037
225.741	1571.08158
225.962	790.84291
226.183	310.81844
226.404	699.5414
226.624	653.17167
226.845	374.72973
227.066	453.66906
227.286	199.93477
227.507	93.78741
227.728	68.74715
227.948	125.04066
228.169	39.78663
228.389	47.31149
228.61	27.05594
228.831	38.25251
229.051	3.42635
229.272	22.56456
229.492	31.19397
229.713	10.6488
229.933	23.18875
230.154	19.60368
230.374	33.39699
230.595	24.09681
230.815	14.1775
231.036	22.63924
231.256	-6.02854
231.477	44.56268
231.697	25.89547
231.917	24.6464
232.138	37.51393
232.358	76.7091
232.579	63.9325
232.799	13.83275
233.019	71.11847
233.24	80.09739
233.46	25.83905
233.68	43.52414
233.901	32.64669
234.121	19.21769
234.341	6.38192
234.561	-3.18476
234.782	15.74395
235.002	48.52363
235.222	-1.84361
235.442	40.39
235.662	20.25863
235.883	45.20521
236.103	38.1463
236.323	24.7124
236.543	19.43928
236.763	31.41338
236.983	27.41842
237.203	29.75645
237.423	44.92458
237.643	64.78651
237.864	53.56865
238.084	14.05796
238.304	21.62337
238.524	33.45348
238.744	29.86628
238.964	47.62033
239.184	43.53986
239.404	45.651
239.624	24.07041
239.843	39.50255
240.063	23.65502
240.283	15.78639
240.503	17.81992
240.723	17.24066
240.943	10.05769
241.163	13.92892
241.383	10.36132
241.603	5.22026
241.822	5.96865
242.042	4.85507
242.262	6.06698
242.482	7.41203
242.702	8.38933
242.921	2.84046
243.141	5.87851
243.361	4.79922
243.581	7.65436
243.8	6.34528
244.02	3.95201
244.24	7.76816
244.459	7.1942
244.679	14.9562
244.899	9.63993
245.118	10.63477
245.338	9.08909
245.558	10.77552
245.777	6.72227
245.997	7.29855
246.216	7.54727
246.436	4.22505
246.655	3.32421
246.875	2.44617
247.094	5.09589
247.314	1.57999
247.533	2.92864
247.753	3.60965
247.972	2.72414
248.192	1.19993
248.411	1.97571
248.631	3.27322
248.85	3.97506
249.07	2.99721
249.289	5.53403
249.508	3.69055
249.728	6.58541
249.947	7.01113
250.166	7.42959
250.386	3.90506
250.605	5.79732
250.824	8.35136
251.044	6.89442
251.263	20.92689
251.482	10.40759
251.701	9.78912
251.921	0.08726
252.14	3.25302
252.359	3.53603
252.578	8.64101
252.798	3.27918
253.017	7.37649
253.236	3.56022
253.455	5.29653
253.674	9.76979
253.893	4.75172
254.112	6.37397
254.331	9.29891
254.551	7.65233
254.77	3.65295
254.989	11.5
255.208	10.11585
255.427	12.58249
255.646	10.344
255.865	19.21545
256.084	6.47464
256.303	9.44469
256.522	11.73067
256.741	2.15635
256.96	3.11029
257.179	7.7599
257.397	8.62235
257.616	5.25793
257.835	4.31448
258.054	12.125
258.273	7.55907
258.492	9.4274
258.711	5.51047
258.93	2.36166
259.148	3.3834
259.367	3.28937
259.586	4.76092
259.805	2.01039
260.023	4.16849
260.242	3.37822
260.461	2.44041
260.68	1.25782
260.898	3.7955
261.117	1.30792
261.336	0.99403
261.554	3.32705
261.773	2.99569
261.992	0.61123
262.21	3.07077
262.429	3.77053
262.648	5.78708
262.866	7.52263
263.085	5.01636
263.303	4.21756
263.522	7.89672
263.74	7.80202
263.959	12.74359
264.178	6.71063
264.396	5.79484
264.615	3.78356
264.833	9.17877
265.051	8.24448
265.27	8.07717
265.488	9.29956
265.707	6.04647
265.925	9.18397
266.144	3.80658
266.362	5.31331
266.58	5.5659
266.799	3.89701
267.017	5.22222
267.235	4.93288
267.454	2.60167
267.672	2.13144
267.89	3.75635
268.109	3.98911
268.327	3.97246
268.545	0.98842
268.763	4.06939
268.982	1.55868
269.2	4.37727
269.418	2.81544
269.636	2.35139
269.854	3.17755
270.073	2.93522
270.291	1.68068
270.509	1.65676
270.727	3.78803
270.945	6.16832
271.163	6.41096
271.381	1.64113
271.599	2.50979
271.817	4.67418
272.036	1.59457
272.254	2.81554
272.472	2.19181
272.69	2.09887
272.908	2.22169
273.126	3.77636
273.344	4.59599
273.562	1.9095
273.779	2.3072
273.997	3.44536
274.215	4.00142
274.433	2.59949
274.651	4.07378
274.869	4.28493
275.087	2.63287
275.305	3.56874
275.523	2.22563
275.74	3.1022
275.958	4.95488
276.176	7.24874
276.394	2.17793
276.612	2.96434
276.829	2.51795
277.047	2.11473
277.265	2.56505
277.483	3.41697
277.7	3.89009
277.918	3.26513
278.136	5.8634
278.353	2.95931
278.571	1.22146
278.789	4.58468
279.006	1.21465
279.224	2.27046
279.442	4.74677
279.659	3.3089
279.877	2.14441
280.094	4.88656
280.312	1.02499
280.529	3.11291
280.747	0.74707
280.964	2.42878
281.182	5.2936
281.399	2.44943
281.617	3.48309
281.834	2.35314
282.052	1.90005
282.269	2.58585
282.487	2.43841
282.704	1.73902
282.921	2.06796
283.139	2.87339
283.356	3.70812
283.574	3.40116
283.791	1.82271
284.008	4.90317
284.226	2.59765
284.443	2.80895
284.66	3.55839
284.877	3.08562
285.095	1.87809
285.312	1.49955
285.529	1.10019
285.746	0.73706
285.964	1.86005
286.181	1.18984
286.398	1.83321
286.615	2.34234
286.832	2.38778
287.05	0.76856
287.267	1.65003
287.484	1.89389
287.701	2.56679
287.918	2.41601
288.135	2.73856
288.352	1.34738
288.569	1.44121
288.786	2.10716
289.003	1.75688
289.22	2.55556
289.437	1.56198
289.654	2.78358
289.871	2.87976
290.088	2.73368
290.305	2.07527
290.522	1.51847
290.739	2.05387
290.956	2.78839
291.173	3.39556
291.39	3.07301
291.607	2.31905
291.824	1.68173
292.04	1.08256
292.257	2.6586
292.474	2.87931
292.691	1.92311
292.908	0.9689
293.125	1.62898
293.341	0.98293
293.558	4.77676
293.775	1.88451
293.992	2.03399
294.208	0.69641
294.425	1.21417
294.642	1.62618
294.858	2.54424
295.075	0.59626
295.292	1.85706
295.508	2.20013
295.725	3.5139
295.942	1.61797
296.158	1.2889
296.375	1.9631
296.591	1.51103
296.808	1.73565
297.024	1.85178
297.241	2.06898
297.458	2.27507
297.674	0.09762
297.891	1.72793
298.107	1.45021
298.323	1.01388
298.54	2.6513
298.756	1.24923
298.973	0.5399
299.189	2.82837
299.406	1.23442
299.622	2.67674
299.838	2.80237
300.055	2.52942
300.271	0.84519
300.487	1.0106
300.704	1.37288
300.92	0.6886
301.136	3.67295
301.353	2.86885
301.569	2.00825
301.785	2.32504
302.001	2.81637
302.218	2.26422
302.434	2.24259
302.65	1.07575
302.866	1.64521
303.083	3.90782
303.299	3.75804
303.515	2.12089
303.731	2.34096
303.947	0.92973
304.163	1.49833
304.379	2.25497
304.595	2.64423
304.812	1.45132
305.028	1.40615
305.244	1.78792
305.46	2.6622
305.676	2.82448
305.892	3.47285
306.108	2.56586
306.324	1.85888
306.54	3.81913
306.756	2.45606
306.972	2.45438
307.187	2.12538
307.403	3.32793
307.619	1.68476
307.835	3.07264
308.051	3.50623
308.267	0.89085
308.483	3.14597
308.699	2.57916
308.914	2.23405
309.13	2.14168
309.346	0.92807
309.562	1.42986
309.778	0.97276
309.993	2.70183
310.209	2.20092
310.425	1.09043
310.641	2.0083
310.856	1.49408
311.072	1.33548
311.288	2.18804
311.503	2.58976
311.719	0.88552
311.935	0.93433
312.15	2.70866
312.366	2.36236
312.581	2.91945
312.797	2.45738
313.013	2.92425
313.228	1.93368
313.444	2.29018
313.659	1.74538
313.875	2.80643
314.09	2.11348
314.306	3.4737
314.521	3.06115
314.737	3.00896
314.952	2.42863
315.168	2.31302
315.383	2.9572
315.599	2.04415
315.814	1.91626
316.029	2.99263
316.245	1.27872
316.46	1.00347
316.675	3.40803
316.891	4.05633
317.106	5.08964
317.321	3.03783
317.537	2.84093
317.752	3.08084
317.967	3.02351
318.183	1.62516
318.398	2.02716
318.613	3.29099
318.828	3.68618
319.043	3.15283
319.259	2.08932
319.474	2.64385
319.689	3.214
319.904	1.08688
320.119	3.25736
320.334	2.56617
320.549	2.28093
320.765	3.39583
320.98	2.96931
321.195	3.24397
321.41	2.4116
321.625	3.0729
321.84	3.99559
322.055	4.07056
322.27	1.99779
322.485	1.56925
322.7	2.55387
322.915	3.4261
323.13	1.80001
323.345	3.9252
323.56	3.48283
323.775	3.12886
323.989	2.99782
324.204	2.55604
324.419	3.29737
324.634	1.44368
324.849	2.38646
325.064	4.90541
325.279	3.45549
325.493	3.1741
325.708	3.43218
325.923	1.85753
326.138	2.14806
326.352	3.90197
326.567	3.41709
326.782	2.06438
326.997	2.06861
327.211	2.94192
327.426	2.84985
327.641	2.49859
327.855	1.25981
328.07	3.18987
328.285	4.29203
328.499	2.39375
328.714	3.22549
328.928	3.24761
329.143	2.95606
329.358	3.62456
329.572	3.55209
329.787	3.92975
330.001	5.0062
330.216	1.36676
330.43	4.69413
330.645	3.98628
330.859	3.53813
331.074	2.00922
331.288	2.88747
331.503	4.17689
331.717	1.79159
331.931	2.70234
332.146	3.00021
332.36	4.54224
332.575	3.33086
332.789	2.86449
333.003	3.01109
333.218	3.35453
333.432	2.67038
333.646	3.49991
333.86	4.289
334.075	4.44971
334.289	2.51489
334.503	1.95085
334.717	3.52339
334.932	3.39771
335.146	3.94158
335.36	2.30256
335.574	3.46571
335.788	2.96393
336.003	3.98263
336.217	3.77776
336.431	3.4388
336.645	2.4686
336.859	2.0147
337.073	2.63243
337.287	3.18143
337.501	2.03109
337.715	3.39579
337.929	3.61899
338.143	2.21871
338.357	2.87818
338.571	2.51677
338.785	3.60395
338.999	2.56427
339.213	2.77495
339.427	1.98148
339.641	4.11415
339.855	2.86495
340.069	2.53959
340.283	4.04435
340.497	4.55455
340.711	3.48626
340.924	2.95858
341.138	2.1415
341.352	1.96914
341.566	3.26612
341.78	1.85539
341.993	2.58203
342.207	2.34082
342.421	3.41061
342.635	3.29335
342.848	2.77403
343.062	1.18726
343.276	2.7077
343.49	4.85756
343.703	2.59934
343.917	3.84021
344.131	4.00048
344.344	2.41535
344.558	2.6801
344.771	2.38914
344.985	4.32858
345.199	4.67689
345.412	3.55365
345.626	3.5813
345.839	1.98872
346.053	2.32633
346.266	2.35703
346.48	3.77792
346.693	3.46877
346.907	3.81548
347.12	2.41297
347.334	3.29512
347.547	3.63342
347.76	3.09393
347.974	4.14741
348.187	3.36622
348.401	3.0108
348.614	2.74832
348.827	3.02853
349.041	3.56309
349.254	1.94853
349.467	2.84838
349.681	2.36581
349.894	2.55955
350.107	4.41648
350.32	4.84235
350.534	2.14168
350.747	2.96416
350.96	2.40777
351.173	2.76055
351.386	3.22914
351.6	2.85593
351.813	2.80129
352.026	3.33887
352.239	2.36824
352.452	2.87662
352.665	4.04863
352.878	2.92299
353.092	5.08118
353.305	3.81281
353.518	3.52762
353.731	2.56467
353.944	4.48021
354.157	2.74456
354.37	2.69609
354.583	2.34358
354.796	2.28554
355.009	4.09639
355.222	3.57432
355.435	3.38274
355.647	4.29648
355.86	2.66901
356.073	3.35643
356.286	2.88663
356.499	4.1354
356.712	4.07274
356.925	3.79587
357.138	4.32203
357.35	2.77639
357.563	3.1051
357.776	3.66161
357.989	3.40589
358.201	3.96119
358.414	3.70785
358.627	4.52275
358.84	3.34082
359.052	2.76761
359.265	2.74861
359.478	4.37936
359.69	1.34973
359.903	4.13864
360.116	4.31904
360.328	2.34682
360.541	4.06329
360.753	2.91505
360.966	3.23902
361.179	3.39098
361.391	3.34626
361.604	3.05325
361.816	3.37904
362.029	3.38735
362.241	3.22414
362.454	3.55492
362.666	3.02207
362.879	4.04586
363.091	3.51395
363.304	3.30393
363.516	3.50658
363.728	2.85837
363.941	3.93541
364.153	3.47667
364.366	2.08575
364.578	2.77542
364.79	3.89592
365.003	3.51722
365.215	3.32383
365.427	3.97732
365.639	4.45972
365.852	3.84211
366.064	5.0014
366.276	3.2182
366.488	3.89062
366.701	3.25898
366.913	3.26979
367.125	3.44714
367.337	3.16596
367.549	3.22821
367.762	3.49239
367.974	3.50138
368.186	3.29015
368.398	4.29249
368.61	4.16437
368.822	4.08634
369.034	3.49143
369.246	4.21764
369.458	5.55736
369.67	3.08848
369.882	4.92196
370.094	2.20614
370.306	4.75553
370.518	3.18996
370.73	2.97745
370.942	3.12082
371.154	3.52011
371.366	3.37643
371.578	4.08351
371.79	3.58258
372.002	4.65432
372.214	5.1996
372.425	3.72424
372.637	4.79249
372.849	3.89422
373.061	2.02102
373.273	4.10562
373.484	3.9559
373.696	4.36297
373.908	2.14167
374.12	4.23351
374.331	4.20964
374.543	2.94756
374.755	2.88518
374.967	3.81403
375.178	4.43961
375.39	3.39228
375.602	3.96974
375.813	2.88408
376.025	2.88259
376.236	3.71634
376.448	3.92303
376.66	3.4655
376.871	3.62877
377.083	4.61456
377.294	4.9731
377.506	3.45865
377.717	4.79595
377.929	4.14569
378.14	3.36051
378.352	4.27292
378.563	4.47656
378.775	4.84559
378.986	3.31975
379.197	4.00405
379.409	3.56839
379.62	4.34713
379.832	4.04103
380.043	3.6226
380.254	4.06602
380.466	2.86941
380.677	5.84897
380.888	5.40124
381.1	5.92423
381.311	5.82418
381.522	4.16611
381.733	5.88364
381.945	3.85573
382.156	3.75235
382.367	3.61402
382.578	5.99037
382.789	6.1828
383.001	3.55748
383.212	5.16828
383.423	5.04941
383.634	4.72664
383.845	4.37109
384.056	3.86815
384.267	3.99834
384.478	3.91465
384.69	3.23717
384.901	4.46885
385.112	4.23844
385.323	5.29084
385.534	4.36654
385.745	4.48896
385.956	4.34934
386.167	3.3825
386.378	4.50535
386.588	3.50108
386.799	3.4436
387.01	2.91081
387.221	4.81061
387.432	4.25555
387.643	5.37625
387.854	3.98967
388.065	3.83509
388.275	4.01603
388.486	3.81863
388.697	4.20036
388.908	3.92035
389.119	5.0137
389.329	5.22495
389.54	4.38237
389.751	4.54721
389.962	5.08188
390.172	4.14143
390.383	4.09393
390.594	3.67719
390.804	3.62545
391.015	3.77651
391.226	4.36586
391.436	4.75467
391.647	4.68538
391.858	4.73819
392.068	3.2844
392.279	3.49823
392.489	4.54501
392.7	4.92099
392.91	3.74348
393.121	3.70185
393.331	4.77787
393.542	5.11447
393.752	4.79861
393.963	4.53394
394.173	4.44095
394.384	4.83222
394.594	4.4222
394.804	3.57134
395.015	4.39622
395.225	4.6064
395.436	3.67642
395.646	4.75106
395.856	4.06216
396.067	3.42899
396.277	4.945
396.487	4.59374
396.697	4.43097
396.908	4.98642
397.118	4.83776
397.328	4.3155
397.538	4.82101
397.749	3.97138
397.959	4.93845
398.169	4.70498
398.379	3.38955
398.589	4.60543
398.8	4.49679
399.01	4.4681
399.22	4.05809
399.43	5.97329
399.64	4.11829
399.85	4.8137
400.06	4.51112
400.27	4.06359
400.48	4.62254
400.69	5.25032
400.9	4.14481
401.11	3.76913
401.32	4.88305
401.53	4.16442
401.74	5.45111
401.95	4.77927
402.16	4.16152
402.37	4.53053
402.58	4.0914
402.79	4.7473
403	4.88997
403.209	4.00116
403.419	5.18785
403.629	4.08455
403.839	5.07897
404.049	5.06203
404.258	4.13232
404.468	4.17607
404.678	5.12967
404.888	5.30448
405.097	4.43122
405.307	4.63506
405.517	5.08687
405.727	4.83574
405.936	4.4795
406.146	4.76463
406.356	5.60196
406.565	4.48446
406.775	4.25885
406.984	4.15445
407.194	5.90912
407.404	4.6126
407.613	4.82525
407.823	5.04882
408.032	5.28649
408.242	5.16916
408.451	4.12941
408.661	4.53333
408.87	5.74321
409.08	4.08801
409.289	5.00955
409.499	4.81027
409.708	4.67417
409.918	3.32337
410.127	4.87218
410.336	5.76584
410.546	5.31804
410.755	4.35948
410.964	4.5004
411.174	4.09138
411.383	5.2608
411.592	4.96106
411.802	4.14932
412.011	5.31551
412.22	4.63143
412.429	5.87894
412.639	5.80122
412.848	5.3882
413.057	5.88876
413.266	5.34384
413.475	4.74782
413.685	5.32083
413.894	5.29984
414.103	5.40164
414.312	5.30526
414.521	4.58771
414.73	4.9664
414.939	6.12237
415.148	5.23636
415.357	4.94512
415.566	4.80168
415.776	4.62292
415.985	4.6215
416.194	5.59585
416.403	6.06102
416.611	4.27109
416.82	4.69154
417.029	5.1533
417.238	4.8756
417.447	4.5565
417.656	5.04891
417.865	4.85849
418.074	5.27952
418.283	5.70518
418.492	6.51984
418.7	6.36532
418.909	7.65847
419.118	6.52697
419.327	7.01514
419.536	6.69349
419.744	6.78878
419.953	7.97246
420.162	8.2333
420.371	7.22582
420.579	7.7198
420.788	8.67072
420.997	8.80577
421.205	8.96214
421.414	8.69706
421.623	8.82087
421.831	8.35633
422.04	9.04338
422.249	8.07638
422.457	8.51218
422.666	7.65393
422.874	8.67607
423.083	8.83634
423.291	8.62886
423.5	8.57274
423.708	8.88579
423.917	9.30241
424.125	8.78238
424.334	8.49295
424.542	10.46946
424.751	9.79159
424.959	9.34408
425.167	9.68928
425.376	9.41485
425.584	8.32913
425.793	8.41306
426.001	7.31299
426.209	7.78353
426.418	6.69568
426.626	6.19162
426.834	5.9422
427.042	5.95008
427.251	5.72206
427.459	6.48131
427.667	6.06125
427.875	5.06372
428.084	5.54638
428.292	6.48989
428.5	6.23206
428.708	5.27913
428.916	5.24647
429.124	5.65729
429.333	5.66181
429.541	5.5804
429.749	5.84402
429.957	5.66639
430.165	7.23059
430.373	5.03164
430.581	5.77408
430.789	6.56745
430.997	5.53457
431.205	5.47374
431.413	5.97971
431.621	5.5508
431.829	6.29129
432.037	5.56662
432.245	5.91442
432.453	6.23013
432.661	5.81527
432.869	7.26258
433.076	5.88949
433.284	6.33128
433.492	7.01538
433.7	7.37966
433.908	6.43704
434.116	6.77761
434.323	6.71077
434.531	6.61132
434.739	6.55647
434.947	6.73713
435.154	6.72998
435.362	6.25724
435.57	6.16517
435.778	5.87493
435.985	6.44789
436.193	5.90159
436.401	6.75838
436.608	6.11542
436.816	5.9347
437.023	7.0848
437.231	7.14304
437.439	6.27536
437.646	6.53381
437.854	6.47252
438.061	6.59574
438.269	6.29952
438.476	6.86199
438.684	6.4733
438.891	6.58077
439.099	6.49579
439.306	6.27022
439.514	6.51791
439.721	7.82122
439.929	7.23749
440.136	8.29467
440.343	8.32444
440.551	8.08464
440.758	9.87702
440.965	8.47248
441.173	8.1395
441.38	7.90642
441.587	7.96732
441.795	7.63558
442.002	7.46788
442.209	7.45731
442.416	7.41215
442.624	7.1332
442.831	6.90452
443.038	6.24599
443.245	6.02298
443.452	6.12965
443.66	7.03924
443.867	6.22119
444.074	6.15681
444.281	6.36528
444.488	6.64256
444.695	6.98386
444.902	7.06773
445.109	8.25348
445.316	7.95366
445.523	8.2207
445.73	8.25191
445.937	9.17683
446.144	9.54503
446.351	10.11122
446.558	8.80962
446.765	10.87985
446.972	10.21343
447.179	9.51713
447.386	10.30815
447.593	8.77551
447.8	9.71645
448.007	8.35677
448.214	8.00677
448.42	7.4511
448.627	8.04991
448.834	7.13456
449.041	6.82533
449.248	6.80288
449.454	7.2222
449.661	7.96522
449.868	6.44599
450.075	6.42781
450.281	5.70588
450.488	5.82175
450.695	6.10613
450.901	6.10476
451.108	6.35621
451.315	7.15604
451.521	6.38228
451.728	7.21684
451.935	6.15287
452.141	6.64893
452.348	6.78603
452.554	6.54254
452.761	6.38599
452.967	7.64727
453.174	6.73421
453.38	6.76148
453.587	6.06741
453.793	6.78751
454	7.27037
454.206	8.04152
454.413	7.46184
454.619	7.19075
454.825	6.12508
455.032	7.0159
455.238	7.35302
455.445	6.03377
455.651	6.89383
455.857	5.50557
456.064	6.44471
456.27	6.50308
456.476	6.34528
456.682	5.84359
456.889	6.72312
457.095	6.99502
457.301	7.92795
457.507	6.67586
457.714	6.65303
457.92	6.71889
458.126	6.19015
458.332	6.57246
458.538	6.67805
458.744	7.00854
458.951	7.40089
459.157	9.58159
459.363	8.8076
459.569	9.091
459.775	9.72693
459.981	9.24856
460.187	9.8615
460.393	9.91226
460.599	10.30416
460.805	9.29088
461.011	8.60306
461.217	8.70383
461.423	7.94387
461.629	7.21389
461.835	7.56795
462.041	6.98612
462.247	8.05094
462.453	7.0174
462.658	6.93748
462.864	7.53892
463.07	7.16278
463.276	7.18343
463.482	7.06391
463.688	7.91716
463.893	6.56044
464.099	6.86187
464.305	7.80169
464.511	6.62686
464.716	6.89845
464.922	7.28852
465.128	6.38973
465.333	7.99825
465.539	7.34791
465.745	7.04703
465.95	7.15767
466.156	8.86233
466.362	7.8786
466.567	7.10252
466.773	6.89993
466.978	8.11226
467.184	6.59465
467.389	6.0894
467.595	7.48069
467.8	6.70761
468.006	8.05601
468.211	8.02388
468.417	6.7194
468.622	7.53017
468.828	7.55316
469.033	7.55362
469.239	9.11426
469.444	6.84958
469.649	7.87473
469.855	7.14766
470.06	7.42736
470.266	6.67396
470.471	7.61148
470.676	7.39626
470.881	6.09731
471.087	8.19049
471.292	8.44472
471.497	6.53417
471.703	7.14021
471.908	6.82741
472.113	7.42397
472.318	7.95082
472.523	6.60651
472.729	7.33964
472.934	7.61473
473.139	7.00413
473.344	7.74019
473.549	8.10264
473.754	6.93475
473.959	8.88804
474.164	7.08934
474.369	7.15529
474.575	7.81813
474.78	7.59676
474.985	6.72949
475.19	6.24394
475.395	6.83818
475.6	7.32217
475.804	8.32682
476.009	7.19645
476.214	7.32635
476.419	6.98333
476.624	6.46075
476.829	7.09022
477.034	7.74672
477.239	7.07624
477.444	7.69304
477.648	7.75914
477.853	7.77939
478.058	7.36015
478.263	7.03569
478.468	6.8943
478.672	6.96117
478.877	8.31226
479.082	8.68321
479.287	7.69727
479.491	7.49369
479.696	6.77294
479.901	7.99481
480.105	7.95522
480.31	7.13722
480.515	7.46137
480.719	8.75521
480.924	7.16117
481.128	7.20481
481.333	8.13863
481.538	8.35567
481.742	8.65762
481.947	9.66244
482.151	10.44623
482.356	11.07683
482.56	13.30452
482.765	14.80187
482.969	17.81648
483.174	20.09501
483.378	23.30433
483.582	24.47381
483.787	26.37279
483.991	26.99981
484.196	27.18991
484.4	26.76076
484.604	27.18203
484.809	24.44649
485.013	23.32311
485.217	21.05154
485.422	18.50866
485.626	16.70215
485.83	15.77125
486.034	15.18334
486.239	15.36746
486.443	15.74618
486.647	16.08999
486.851	17.39692
487.055	18.75831
487.26	18.68501
487.464	19.6918
487.668	19.11953
487.872	19.98391
488.076	20.09675
488.28	19.33312
488.484	18.00576
488.688	17.50713
488.892	16.77928
489.096	15.45551
489.3	13.93335
489.504	13.19445
489.708	12.50657
489.912	12.2969
490.116	11.81475
490.32	11.49964
490.524	12.61779
490.728	13.27885
490.932	14.13555
491.136	14.92014
491.34	16.54138
491.544	16.85421
491.748	16.82561
491.951	16.86227
492.155	16.29551
492.359	15.99993
492.563	14.24454
492.767	13.50827
492.97	12.22879
493.174	10.69459
493.378	9.65541
493.582	8.49716
493.785	8.27399
493.989	8.04833
494.193	7.91362
494.396	7.36223
494.6	7.75268
494.804	7.41503
495.007	7.5376
495.211	7.61139
495.414	7.64228
495.618	8.03086
495.822	8.56131
496.025	7.92759
496.229	8.31591
496.432	7.94118
496.636	8.4209
496.839	8.42593
497.043	9.42773
497.246	8.75956
497.45	8.32203
497.653	8.49515
497.856	8.59629
498.06	7.98603
498.263	8.12212
498.467	8.03892
498.67	8.67559
498.873	8.40264
499.077	7.94214
499.28	8.07259
499.483	8.34267
499.686	8.65671
499.89	8.35746
500.093	8.76797
500.296	7.60483
500.499	9.14154
500.703	8.01507
500.906	8.18612
501.109	9.12357
501.312	8.02158
501.515	7.97205
501.719	8.42031
501.922	8.86277
502.125	8.15977
502.328	7.87084
502.531	7.49202
502.734	7.99767
502.937	7.07592
503.14	8.29392
503.343	7.37612
503.546	7.72407
503.749	7.88917
503.952	8.40311
504.155	7.51038
504.358	8.39082
504.561	8.23598
504.764	7.28836
504.967	8.19525
505.17	8.04489
505.373	9.10907
505.576	8.12515
505.778	8.42151
505.981	7.74323
506.184	8.93316
506.387	7.13821
506.59	9.2751
506.793	8.71004
506.995	8.35314
507.198	7.04855
507.401	8.3502
507.604	8.34976
507.806	7.60065
508.009	7.63378
508.212	8.50612
508.414	7.83964
508.617	7.73147
508.82	8.05504
509.022	9.19076
509.225	8.37868
509.427	7.43046
509.63	8.88681
509.833	8.19159
510.035	7.98908
510.238	7.49319
510.44	9.08298
510.643	7.20937
510.845	9.35795
511.048	8.51651
511.25	7.96559
511.453	8.20469
511.655	8.36676
511.858	8.16123
512.06	8.71922
512.262	8.34402
512.465	8.73718
512.667	8.19606
512.869	7.71414
513.072	8.76087
513.274	8.84615
513.476	8.63081
513.679	8.80522
513.881	7.76123
514.083	9.23714
514.286	7.80942
514.488	7.78722
514.69	7.69217
514.892	7.41488
515.094	8.40579
515.297	8.00621
515.499	8.38269
515.701	7.69715
515.903	9.0442
516.105	9.0606
516.307	8.61299
516.509	7.07733
516.711	7.37743
516.913	8.1244
517.116	8.07899
517.318	7.86724
517.52	8.81966
517.722	8.62611
517.924	7.91427
518.126	8.98868
518.328	8.7509
518.529	9.76448
518.731	10.48864
518.933	8.90434
519.135	9.14182
519.337	9.70379
519.539	9.10263
519.741	7.69358
519.943	8.43427
520.145	8.39114
520.346	8.93492
520.548	8.14983
520.75	8.70869
520.952	8.11106
521.153	8.78697
521.355	8.67672
521.557	7.84403
521.759	8.4249
521.96	8.19253
522.162	7.73597
522.364	8.9742
522.565	7.79338
522.767	8.79678
522.969	8.98453
523.17	8.5792
523.372	8.31553
523.573	8.08023
523.775	8.12174
523.977	7.61498
524.178	9.34511
524.38	7.80203
524.581	8.54772
524.783	7.95255
524.984	9.15794
525.186	9.10411
525.387	9.74129
525.589	9.73133
525.79	9.73818
525.991	9.80284
526.193	10.50093
526.394	9.72829
526.596	10.67114
526.797	11.01705
526.998	10.72132
527.2	11.14786
527.401	13.06484
527.602	14.29495
527.803	16.76958
528.005	18.19148
528.206	19.78391
528.407	20.74676
528.608	21.04985
528.81	21.31348
529.011	20.70372
529.212	21.37219
529.413	19.92815
529.614	18.78059
529.815	17.56205
530.017	16.10686
530.218	14.13125
530.419	12.44152
530.62	11.85753
530.821	11.13049
531.022	9.9959
531.223	10.71097
531.424	10.52386
531.625	10.70566
531.826	10.32489
532.027	10.80971
532.228	12.42927
532.429	12.4996
532.63	12.73467
532.831	13.92136
533.032	14.18447
533.233	15.00576
533.433	14.46666
533.634	14.95702
533.835	13.86201
534.036	13.24042
534.237	12.70661
534.438	11.81623
534.638	10.39091
534.839	10.04436
535.04	9.86866
535.241	9.09643
535.441	10.13328
535.642	9.61829
535.843	8.84586
536.043	9.33616
536.244	9.64827
536.445	9.99308
536.645	10.84466
536.846	10.38573
537.047	10.88718
537.247	9.49615
537.448	9.36494
537.648	9.24935
537.849	8.91157
538.049	8.86942
538.25	8.96048
538.451	9.05525
538.651	8.13731
538.851	9.12497
539.052	9.38782
539.252	8.94035
539.453	8.33958
539.653	8.4496
539.854	8.56216
540.054	9.32099
540.254	10.97099
540.455	12.23875
540.655	12.5884
540.855	14.27479
541.056	15.23836
541.256	15.43157
541.456	16.33192
541.657	15.70124
541.857	16.48287
542.057	14.92018
542.257	14.12701
542.458	14.5679
542.658	13.90227
542.858	11.93218
543.058	11.98284
543.258	11.23593
543.458	9.6678
543.659	9.22035
543.859	9.86265
544.059	9.55913
544.259	8.83917
544.459	9.28261
544.659	8.51665
544.859	8.98662
545.059	8.37769
545.259	9.03752
545.459	8.78264
545.659	9.04702
545.859	8.65745
546.059	8.74768
546.259	8.19509
546.459	7.96663
546.659	8.11214
546.859	9.28054
547.059	8.99011
547.258	9.11429
547.458	9.12565
547.658	8.21513
547.858	8.09228
548.058	8.97035
548.258	8.77161
548.457	8.08533
548.657	10.32102
548.857	8.47359
549.057	9.15887
549.256	8.90943
549.456	8.26494
549.656	7.08109
549.855	9.88086
550.055	8.30423
550.255	9.91702
550.454	8.98217
550.654	9.01479
550.853	9.40625
551.053	9.03675
551.253	8.68134
551.452	8.74822
551.652	7.67802
551.851	7.42842
552.051	8.2217
552.25	8.19811
552.45	8.18825
552.649	8.49237
552.849	8.04298
553.048	8.52953
553.248	9.02975
553.447	7.8036
553.646	9.28205
553.846	10.08246
554.045	9.57155
554.244	7.78229
554.444	9.84694
554.643	7.96724
554.842	9.60526
555.042	10.1056
555.241	8.20299
555.44	7.51638
555.64	8.92015
555.839	9.87918
556.038	8.90709
556.237	7.95769
556.436	8.43955
556.636	8.68468
556.835	7.90743
557.034	9.99384
557.233	8.46281
557.432	7.52386
557.631	9.53309
557.83	8.3409
558.029	8.11458
558.228	8.08152
558.427	7.62128
558.626	8.94265
558.825	7.73614
559.024	8.5548
559.223	10.12262
559.422	8.27507
559.621	8.99911
559.82	6.5982
560.019	8.59897
560.218	8.14428
560.417	6.12047
560.616	7.80965
560.815	11.08384
561.014	7.33345
561.212	9.79782
561.411	8.50966
561.61	7.3724
561.809	8.25782
562.008	9.65765
562.206	8.33172
562.405	9.26588
562.604	7.93879
562.803	8.33381
563.001	8.25961
563.2	7.30461
563.399	8.9884
563.597	7.54407
563.796	8.42993
563.995	7.13142
564.193	8.84396
564.392	8.19604
564.59	10.17635
564.789	6.95034
564.988	7.86056
565.186	8.57117
565.385	8.34398
565.583	8.15986
565.782	8.60244
565.98	8.51004
566.179	8.54672
566.377	7.74618
566.575	7.96527
566.774	9.79672
566.972	9.26274
567.171	10.31246
567.369	9.67132
567.567	8.77881
567.766	8.77236
567.964	7.11135
568.162	8.92765
568.361	9.46879
568.559	8.38481
568.757	8.83438
568.956	8.95737
569.154	8.48843
569.352	9.24327
569.55	8.40416
569.748	8.44355
569.947	8.15808
570.145	7.84357
570.343	7.76582
570.541	9.6013
570.739	7.32384
570.937	8.48681
571.135	8.85747
571.333	10.14279
571.532	9.92819
571.73	8.69595
571.928	9.64267
572.126	9.12991
572.324	8.41555
572.522	9.85438
572.72	10.85761
572.918	8.72725
573.116	9.24259
573.313	8.5927
573.511	8.65174
573.709	8.29859
573.907	9.27421
574.105	8.28013
574.303	7.15574
574.501	7.33607
574.699	8.86531
574.896	8.88003
575.094	9.00904
575.292	7.59428
575.49	9.44018
575.688	8.43248
575.885	9.74425
576.083	10.32659
576.281	9.26025
576.478	8.02627
576.676	8.95756
576.874	7.7733
577.071	8.53853
577.269	10.72551
577.467	8.68012
577.664	8.5066
577.862	9.40846
578.059	8.11787
578.257	9.38456
578.455	8.319
578.652	8.78119
578.85	6.70915
579.047	8.53965
579.245	8.37486
579.442	8.55532
579.64	8.46682
579.837	6.65593
580.034	10.97169
580.232	8.29192
580.429	7.10701
580.627	8.98069
580.824	9.87199
581.021	8.85966
581.219	8.19269
581.416	7.38369
581.613	9.75662
581.811	9.71083
582.008	7.83476
582.205	9.23786
582.402	8.77261
582.6	9.99675
582.797	8.69281
582.994	8.89478
583.191	9.36665
583.388	8.60411
583.586	9.34238
583.783	9.62532
583.98	7.87874
584.177	8.76501
584.374	5.45125
584.571	8.51253
584.768	8.36696
584.965	7.89959
585.162	9.23237
585.359	10.33608
585.556	8.61083
585.753	8.76979
585.95	7.13107
586.147	7.8892
586.344	9.01198
586.541	8.22815
586.738	7.22339
586.935	8.64207
587.132	7.99761
587.329	9.47517
587.526	8.27644
587.722	13.65211
587.919	7.12239
588.116	8.75162
588.313	10.20695
588.51	10.98703
588.706	7.97208
588.903	9.04109
589.1	9.60061
589.297	11.33195
589.493	8.54659
589.69	9.54661
589.887	8.07972
590.083	7.55013
590.28	8.11553
590.477	9.58499
590.673	9.59749
590.87	9.68629
591.067	8.53892
591.263	9.12007
591.46	9.22061
591.656	8.27138
591.853	10.07822
592.049	7.69236
592.246	7.84825
592.442	9.91793
592.639	9.82696
592.835	7.44828
593.032	9.17598
593.228	6.91292
593.425	7.16664
593.621	6.87172
593.817	8.72256
594.014	7.89549
594.21	8.65227
594.406	9.6709
594.603	8.9745
594.799	7.94686
594.995	6.14051
595.192	9.71048
595.388	7.93401
595.584	8.21485
595.78	7.19
595.977	11.14689
596.173	10.33983
596.369	8.29721
596.565	7.98662
596.761	7.43551
596.957	10.15902
597.154	8.03358
597.35	8.38049
597.546	8.01868
597.742	9.67438
597.938	9.31607
598.134	8.02958
598.33	9.26961
598.526	10.4904
598.722	9.22676
598.918	10.96809
599.114	9.00091
599.31	7.91776
599.506	8.84646
599.702	7.94417
599.898	9.02796
600.094	9.79865
600.29	9.54217
600.485	9.58407
600.681	8.43199
600.877	10.55956
601.073	8.69081
601.269	11.67715
601.465	10.03344
601.66	7.41504
601.856	6.59179
602.052	10.9204
602.248	7.96206
602.443	6.49404
602.639	7.31555
602.835	7.98758
603.03	7.53696
603.226	9.56963
603.422	7.73743
603.617	8.1076
603.813	8.46391
604.009	8.11078
604.204	9.99755
604.4	7.29489
604.595	9.94324
604.791	7.93335
604.986	9.17286
605.182	8.16279
605.377	8.45552
605.573	8.63142
605.768	9.0436
605.964	9.33571
606.159	9.78451
606.355	10.27781
606.55	8.43301
606.746	10.13015
606.941	8.77368
607.136	11.4251
607.332	12.25248
607.527	7.10533
607.722	9.02063
607.918	8.36989
608.113	7.60004
608.308	9.50702
608.503	9.49205
608.699	9.15879
608.894	9.43864
609.089	8.09405
609.284	9.18969
609.479	8.51194
609.675	9.48514
609.87	8.73638
610.065	9.75336
610.26	10.00538
610.455	9.69059
610.65	8.88154
610.845	9.2072
611.04	10.04563
611.235	8.63212
611.43	8.59469
611.625	7.50164
611.82	10.62176
612.015	8.42314
612.21	10.96142
612.405	7.16886
612.6	10.95671
612.795	10.55611
612.99	10.26117
613.185	7.63285
613.38	7.50984
613.575	8.90176
613.77	12.63447
613.965	6.9558
614.159	7.56477
614.354	10.68018
614.549	10.38517
614.744	9.64912
614.938	7.53101
615.133	7.37864
615.328	11.01606
615.523	10.28929
615.717	13.21148
615.912	8.09776
616.107	9.17388
616.301	8.11356
616.496	7.88664
616.691	11.53622
616.885	9.89604
617.08	13.21137
617.274	10.55379
617.469	12.21357
617.664	10.33869
617.858	8.68434
618.053	9.67488
618.247	9.08329
618.442	5.89438
618.636	10.98577
618.831	8.69373
619.025	8.47292
619.219	13.12959
619.414	5.01555
619.608	8.95777
619.803	8.17034
619.997	12.47141
620.191	11.00567
620.386	9.83755
620.58	9.62053
620.774	7.16335
620.969	7.08506
621.163	9.25724
621.357	7.17414
621.551	8.95179
621.746	9.79116
621.94	8.79182
622.134	14.72537
622.328	12.59914
622.522	7.26052
622.716	10.65679
622.911	10.64503
623.105	10.23171
623.299	9.82104
623.493	14.40495
623.687	7.71041
623.881	8.71786
624.075	9.94369
624.269	10.72111
624.463	6.70797
624.657	6.68687
624.851	10.0083
625.045	10.23227
625.239	10.5251
625.433	8.37998
625.627	11.70903
625.821	8.28429
626.015	8.26698
626.209	9.23782
626.403	7.0261
626.596	9.9817
626.79	10.59269
626.984	7.67256
627.178	10.19918
627.372	9.95593
627.565	10.40628
627.759	7.21254
627.953	7.82592
628.147	10.44526
628.34	10.36295
628.534	12.22906
628.728	9.23825
628.921	11.05395
629.115	10.6942
629.309	10.88741
629.502	10.9812
629.696	9.21198
629.89	9.12541
630.083	9.63268
630.277	10.2039
630.47	12.74324
630.664	9.2906
630.857	7.3698
631.051	11.30259
631.244	11.72897
631.438	11.23464
631.631	8.43162
631.825	11.65238
632.018	10.88797
632.212	12.22823
632.405	11.58164
632.598	8.44612
632.792	9.34881
632.985	5.86166
633.178	8.64074
633.372	9.4547
633.565	9.7523
633.758	12.05271
633.952	7.87638
634.145	8.35062
634.338	9.68094
634.531	8.53033
634.724	8.28396
634.918	9.77154
635.111	9.02896
635.304	9.38204
635.497	14.02544
635.69	9.73443
635.883	11.60808
636.077	7.99733
636.27	10.35949
636.463	10.44966
636.656	11.17408
636.849	8.66091
637.042	10.72054
637.235	12.8005
637.428	11.64952
637.621	11.68093
637.814	12.61264
638.007	13.09349
638.2	13.26877
638.393	13.9705
638.586	8.07415
638.778	9.0238
638.971	10.73348
639.164	13.36999
639.357	10.96905
639.55	13.18728
639.743	11.96278
639.935	11.14485
640.128	14.06896
640.321	11.95169
640.514	11.0712
640.707	15.04552
640.899	11.55761
641.092	7.23269
641.285	26.18373
641.477	6.21135
641.67	14.89835
641.863	12.97285
642.055	10.85435
642.248	10.12709
642.441	9.63408
642.633	12.22017
642.826	13.24888
643.018	13.44365
643.211	14.35047
643.403	14.23072
643.596	16.01526
643.788	14.99528
643.981	9.7576
644.173	12.48179
644.366	10.08334
644.558	6.88587
644.751	13.03357
644.943	7.98096
645.135	14.41697
645.328	14.77326
645.52	12.98067
645.712	13.13605
645.905	18.18561
646.097	8.8911
646.289	12.28517
646.482	15.40192
646.674	9.89531
646.866	13.03136
647.058	12.35557
647.251	9.0408
647.443	9.89343
647.635	10.36183
647.827	9.17362
648.019	9.2881
648.211	10.69941
648.404	11.22192
648.596	14.36489
648.788	11.80073
648.98	11.94809
649.172	12.55312
649.364	12.26859
649.556	7.95172
649.748	16.50419
649.94	9.31251
650.132	12.66239
650.324	9.29551
650.516	9.89316
650.708	13.59866
650.9	8.19948
651.092	10.61351
651.284	8.09111
651.476	9.03814
651.667	12.82029
651.859	14.05029
652.051	11.01773
652.243	11.11669
652.435	10.27482
652.627	12.63095
652.818	11.81311
653.01	8.11712
653.202	9.6571
653.394	10.38927
653.585	12.03583
653.777	21.74376
653.969	14.61385
654.16	14.49109
654.352	9.30688
654.544	10.5197
654.735	14.29551
654.927	11.31968
655.118	15.12218
655.31	13.18753
655.502	13.9065
655.693	9.77113
655.885	13.3644
656.076	15.3064
656.268	12.08376
656.459	14.81442
656.651	15.25778
656.842	10.16747
657.034	10.12947
657.225	13.63223
657.416	14.55226
657.608	14.68583
657.799	11.38745
657.99	13.67402
658.182	9.81676
658.373	10.33122
658.564	13.51169
658.756	11.56739
658.947	11.27991
659.138	9.2141
659.33	10.35833
659.521	9.76369
659.712	11.14856
659.903	10.81027
660.094	10.12566
660.286	8.75231
660.477	15.4678
660.668	13.05272
660.859	11.9553
661.05	8.43662
661.241	13.64461
661.432	13.2573
661.623	11.94173
661.814	10.7522
662.006	7.92536
662.197	13.12589
662.388	15.48136
662.579	12.53184
662.77	19.70381
662.96	19.62222
663.151	15.16626
663.342	7.68478
663.533	13.52343
663.724	11.9448
663.915	17.2203
664.106	12.18792
664.297	17.08878
664.488	14.57386
664.678	11.05713
664.869	13.56767
665.06	15.37591
665.251	13.72257
665.442	13.807
665.632	10.16048
665.823	17.97412
666.014	5.64655
666.204	15.16785
666.395	16.21482
666.586	21.06491
666.776	15.39292
666.967	17.56229
667.158	13.19955
667.348	17.18848
667.539	10.22469
667.729	14.86428
667.92	10.25045
668.111	15.95368
668.301	14.5081
668.492	12.06106
668.682	13.0219
668.873	12.34054
669.063	9.98525
669.253	13.40745
669.444	16.11899
669.634	11.92237
669.825	18.33448
670.015	15.95557
670.206	10.85714
670.396	19.04872
670.586	12.95211
670.777	14.42558
670.967	7.14362
671.157	12.73418
671.347	10.78004
671.538	18.49978
671.728	14.85759
671.918	18.1973
672.108	15.31671
672.299	12.87918
672.489	14.10072
672.679	12.16952
672.869	14.68903
673.059	18.7121
673.249	15.24628
673.44	10.34552
673.63	13.23122
673.82	16.51827
674.01	11.18174
674.2	15.20682
674.39	22.19163
674.58	15.55549
674.77	14.47093
674.96	13.77738
675.15	26.53137
675.34	17.92428
675.53	14.30271
675.72	13.44756
675.91	10.17765
676.099	19.41786
676.289	21.69333
676.479	16.07207
676.669	11.99927
676.859	15.68793
677.049	10.9396
677.238	14.3066
677.428	18.87666
677.618	15.30424
677.808	18.2356
677.997	15.58269
678.187	10.62653
678.377	13.62221
678.567	12.55313
678.756	12.58035
678.946	12.6936
679.136	9.38876
679.325	11.31599
679.515	11.1298
679.704	9.84828
679.894	15.56147
680.084	14.22761
680.273	16.42326
680.463	10.78531
680.652	11.18041
680.842	13.23103
681.031	15.94874
681.221	11.40085
681.41	15.32125
681.6	13.39335
681.789	16.71396
681.978	17.23104
682.168	15.22233
682.357	14.54438
682.547	16.40338
682.736	15.05152
682.925	18.316
683.115	18.29172
683.304	16.72959
683.493	16.05482
683.682	16.23732
683.872	16.4567
684.061	19.6237
684.25	17.14945
684.439	22.65028
684.629	16.11711
684.818	27.60412
685.007	14.86462
685.196	13.48047
685.385	21.38205
685.574	17.6015
685.763	15.96114
685.952	14.87115
686.142	11.74686
686.331	20.32648
686.52	9.04868
686.709	21.11917
686.898	21.52705
687.087	18.14456
687.276	21.0392
687.465	19.93109
687.654	14.84814
687.842	21.71575
688.031	11.7278
688.22	20.29844
688.409	16.44035
688.598	16.76757
688.787	25.31925
688.976	16.72015
689.165	24.28885
689.353	15.06524
689.542	17.12456
689.731	19.54672
689.92	24.17095
690.108	19.50762
690.297	15.20349
690.486	17.4615
690.675	19.86543
690.863	24.00449
691.052	21.89159
691.241	18.39481
691.429	17.49626
691.618	22.41879
691.806	11.88091
691.995	15.55386
692.184	16.86728
692.372	14.87856
692.561	16.99824
692.749	17.61343
692.938	28.15618
693.126	19.14342
693.315	17.58843
693.503	19.90159
693.692	20.82098
693.88	21.94206
694.068	26.67823
694.257	17.19775
694.445	18.79821
694.634	9.91932
694.822	21.47049
695.01	22.93789
695.199	24.84734
695.387	24.50017
695.575	22.96092
695.763	17.57703
695.952	15.33788
696.14	12.14082
696.328	15.44567
696.516	18.62067
696.705	18.05629
696.893	18.30357
697.081	10.39292
697.269	20.70293
697.457	13.11524
697.645	12.67012
697.833	19.73651
698.021	14.03552
698.21	14.80719
698.398	15.70824
698.586	12.46463
698.774	11.18855
698.962	15.33606
699.15	12.84407
699.338	11.31212
699.526	18.4014
699.714	14.40013
699.901	14.37459
700.089	20.76471
700.277	13.96537
700.465	16.57962
700.653	20.60712
700.841	19.62751
701.029	14.99289
701.217	22.57806
701.404	18.09377
701.592	23.53445
701.78	27.41966
701.968	16.45334
702.155	18.23167
702.343	11.31011
702.531	24.60739
702.718	20.20973
702.906	18.67902
703.094	15.47275
703.281	24.37023
703.469	19.59224
703.657	24.33216
703.844	33.28266
704.032	27.46155
704.219	15.84078
704.407	20.33095
704.595	25.17382
704.782	20.59126
704.97	16.75432
705.157	16.76008
705.345	26.96693
705.532	33.53127
705.719	20.68328
705.907	26.06586
706.094	21.7747
706.282	27.02361
706.469	18.47852
706.656	21.46485
706.844	18.16652
707.031	24.07643
707.218	20.7543
707.406	27.54992
707.593	23.97477
707.78	24.04939
707.968	19.67161
708.155	16.12787
708.342	23.0232
708.529	23.77549
708.716	21.41504
708.904	29.02794
709.091	23.08249
709.278	13.91471
709.465	29.93235
709.652	28.20265
709.839	27.12762
710.026	22.86333
710.213	13.11829
710.4	22.49583
710.587	26.22941
710.774	26.79814
710.961	27.02576
711.148	21.77145
711.335	26.6928
711.522	21.02221
711.709	23.70969
711.896	34.23738
712.083	26.11238
712.27	17.79541
712.457	22.19439
712.644	15.17997
712.831	33.15607
713.017	22.98382
713.204	25.21236
713.391	17.60137
713.578	29.14022
713.765	29.27984
713.951	25.45361
714.138	40.96054
714.325	25.59823
714.512	22.39335
714.698	18.72947
714.885	30.72536
715.072	25.19036
715.258	24.37433
715.445	20.82646
715.631	29.95741
715.818	10.72749
716.005	19.63431
716.191	26.67398
716.378	20.56428
716.564	26.84496
716.751	19.76015
716.937	20.94223
717.124	30.58712
717.31	19.23306
717.497	34.04068
717.683	20.12422
717.869	36.53556
718.056	21.78694
718.242	27.65194
718.429	24.41905
718.615	18.41409
718.801	25.81022
718.988	29.91147
719.174	26.76226
719.36	23.98857
719.547	30.29775
719.733	27.72126
719.919	26.18418
720.105	31.83818
720.291	26.34516
720.478	25.93498
720.664	23.46551
720.85	21.22816
721.036	43.42137
721.222	35.43791
721.408	24.42219
721.595	37.15387
721.781	36.92659
721.967	33.69782
722.153	36.83754
722.339	29.70848
722.525	28.25532
722.711	21.84251
722.897	18.29399
723.083	22.85222
723.269	32.51257
723.455	45.16304
723.641	48.02074
723.827	28.36862
724.012	29.75375
724.198	25.77315
724.384	34.0119
724.57	28.20077
724.756	16.95003
724.942	13.5086
725.127	33.97937
725.313	37.24474
725.499	35.31811
725.685	40.3509
725.87	29.23727
726.056	21.50992
726.242	36.5494
726.428	16.83656
726.613	33.71377
726.799	25.27549
726.985	19.43377
727.17	17.63318
727.356	40.9463
727.541	20.54008
727.727	25.48411
727.913	32.16922
728.098	25.4276
728.284	31.75733
728.469	17.81931
728.655	21.05714
728.84	33.13138
729.026	31.89096
729.211	33.6813
729.397	28.12507
729.582	32.56825
729.767	26.62567
729.953	28.81234
730.138	35.45731
730.323	12.79647
730.509	18.98547
730.694	38.42555
730.879	29.77472
731.065	29.07011
731.25	42.60194
731.435	32.58039
731.621	17.70926
731.806	23.73383
731.991	30.676
732.176	17.86444
732.361	37.29071
732.547	31.81042
732.732	16.05423
732.917	45.74415
733.102	19.44197
733.287	22.2569
733.472	28.27873
733.657	28.38115
733.842	17.36257
734.027	25.08351
734.212	25.91834
734.397	23.08384
734.582	26.34997
734.767	33.2646
734.952	38.8135
735.137	11.29615
735.322	38.8155
735.507	29.91334
735.692	30.6054
735.877	46.07152
736.062	44.01224
736.247	33.4453
736.431	27.99819
736.616	38.30414
736.801	30.31044
736.986	31.02649
737.171	23.23306
737.355	17.30264
737.54	37.27926
737.725	30.31867
737.909	51.09639
738.094	24.73868
738.279	35.63963
738.463	27.23741
738.648	34.20944
738.833	33.21426
739.017	46.73071
739.202	29.8418
739.386	27.75798
739.571	23.3793
739.756	36.56085
739.94	31.22494
740.125	38.49546
740.309	25.00361
740.494	34.8016
740.678	31.38685
740.863	36.27929
741.047	33.27817
741.231	41.95464
741.416	26.02659
741.6	43.84104
741.785	23.3827
741.969	38.10275
742.153	42.49208
742.338	13.60761
742.522	31.15753
742.706	36.9252
742.89	20.86935
743.075	33.97369
743.259	42.80155
743.443	41.16563
743.627	43.37161
743.812	53.11207
743.996	19.16332
744.18	29.93849
744.364	27.84461
744.548	54.41889
744.732	29.6275
744.916	38.21826
745.1	37.50246
745.285	30.69244
745.469	36.66841
745.653	50.41502
745.837	20.16137
746.021	52.99138
746.205	41.90116
746.389	35.31829
746.573	29.25184
746.757	47.5389
746.94	28.62009
747.124	45.11244
747.308	22.4584
747.492	42.4316
747.676	26.86289
747.86	56.0576
748.044	30.28944
748.227	17.96436
748.411	71.62418
748.595	37.90471
748.779	24.55476
748.963	35.37852
749.146	34.85838
749.33	25.70633
749.514	24.89704
749.697	41.97308
749.881	27.35988
750.065	25.10587
750.248	33.02263
750.432	56.15699
750.616	34.15508
750.799	21.18998
750.983	55.95898
751.166	60.54397
751.35	20.6249
751.533	45.90589
751.717	49.01218
751.9	47.70878
752.084	29.65785
752.267	22.79475
752.451	26.27339
752.634	35.14435
752.818	37.95653
753.001	43.51175
753.184	44.22143
753.368	38.12278
753.551	5.95835
753.734	27.37725
753.918	56.23907
754.101	27.29631
754.284	39.2023
754.467	30.96653
754.651	28.10135
754.834	28.67216
755.017	46.82028
755.2	44.85504
755.384	24.23296
755.567	41.71441
755.75	43.83324
755.933	29.2278
756.116	39.2458
756.299	28.83924
756.482	25.48949
756.665	40.64031
756.848	36.94336
757.032	39.3941
757.215	23.36335
757.398	27.85046
757.581	27.15241
757.764	62.02159
757.947	34.19186
758.129	44.99438
758.312	7.94209
758.495	33.2372
758.678	34.27771
758.861	35.31882
759.044	56.22754
759.227	27.71729
759.41	28.44702
759.592	38.90218
759.775	36.51716
759.958	45.50412
760.141	22.09481
760.324	58.28919
760.506	52.4736
760.689	43.19017
760.872	61.18848
761.054	38.75514
761.237	27.55509
761.42	41.27563
761.602	44.4904
761.785	41.37921
761.968	46.20576
762.15	53.7749
762.333	32.84265
762.515	41.21335
762.698	28.18981
762.88	39.45753
763.063	36.02525
763.245	42.27817
763.428	25.38707
763.61	27.43119
763.793	22.35167
763.975	35.85493
764.158	28.6743
764.34	26.65544
764.522	23.58506
764.705	31.03202
764.887	47.52775
765.069	20.6386
765.252	42.35732
765.434	42.86087
765.616	36.72957
765.799	27.85552
765.981	41.57149
766.163	25.94174
766.345	42.97543
766.528	29.49312
766.71	13.94459
766.892	37.27711
767.074	50.77249
767.256	34.28684
767.438	54.11928
767.62	41.67953
767.802	61.86036
767.985	44.58283
768.167	57.86898
768.349	30.79933
768.531	42.59601
768.713	43.21297
768.895	49.3458
769.077	42.72164
769.259	70.667
769.441	98.60058
769.623	51.38239
769.804	60.39632
769.986	60.66566
770.168	74.2423
770.35	84.32769
770.532	69.48859
770.714	68.05391
770.896	73.42184
771.077	28.91287
771.259	74.48648
771.441	61.26073
771.623	77.20344
771.804	100.79501
771.986	25.19455
772.168	49.78838
772.35	69.97709
772.531	96.63479
772.713	63.41093
772.894	81.30121
773.076	54.18812
773.258	50.01742
773.439	81.0021
773.621	85.78154
773.802	39.32762
773.984	56.76629
774.166	66.02303
774.347	94.17752
774.529	81.612
774.71	21.22043
774.891	51.43668
775.073	56.57618
775.254	94.35376
775.436	51.36014
775.617	101.25741
775.799	45.8716
775.98	89.59188
776.161	96.12098
776.343	91.60861
776.524	59.98501
776.705	52.78596
776.886	30.7036
777.068	71.57822
777.249	118.82772
777.43	97.94212
777.611	39.42476
777.793	59.84348
777.974	93.19615
778.155	51.51959
778.336	47.74909
778.517	99.64316
778.698	49.00179
778.879	23.28353
779.061	12.36375
779.242	68.30651
779.423	67.48325
779.604	49.1796
779.785	58.54091
779.966	64.70188
780.147	80.36952
780.328	82.45131
780.509	111.85449
780.69	75.96073
780.871	51.70837
781.051	25.43134
781.232	63.49985
781.413	64.79179
781.594	48.52755
781.775	53.49341
781.956	45.00431
782.137	23.85095
782.317	48.37453
782.498	68.13391
782.679	71.57222
782.86	64.38156
783.04	43.20281
783.221	68.6481
783.402	104.20188
783.583	61.31682
783.763	78.46804
783.944	54.79477
784.124	30.85716
784.305	95.91444
784.486	74.25884
784.666	55.42608
784.847	29.538
785.027	123.55205
785.208	43.3547
785.388	43.33253
785.569	49.97525
785.749	51.34575
785.93	47.98707
786.11	31.23119
786.291	67.72834
786.471	67.38526
786.652	76.43617
786.832	54.26674
787.012	68.07299
787.193	36.78547
787.373	63.72902
787.553	52.00955
787.734	65.50136
787.914	47.384
788.094	71.75861
788.275	66.67694
788.455	49.59103
788.635	36.14364
788.815	65.26621
788.995	38.89221
789.176	37.08302
789.356	46.15216
789.536	52.06147
789.716	67.39662
789.896	46.99468
790.076	52.76506
790.256	61.96151
790.436	15.37345
790.616	42.05383
790.796	63.12397
790.976	49.80829
791.156	46.98536
791.336	71.85427
791.516	65.41986
791.696	55.53148
791.876	29.92262
792.056	63.88439
792.236	85.95983
792.416	70.31146
792.596	70.43511
792.776	70.70326
792.956	76.91192
793.135	93.12376
793.315	38.3982
793.495	87.41057
793.675	75.61986
793.854	78.414
794.034	80.82571
794.214	35.74891
794.394	77.86368
794.573	82.88674
794.753	63.22268
794.933	46.48034
795.112	62.39234
795.292	77.18619
795.472	94.59481
795.651	36.87508
795.831	64.68249
796.01	51.54889
796.19	55.81677
796.369	55.88168
796.549	67.76886
796.728	52.45583
796.908	35.38777
797.087	36.05718
797.267	54.45082
797.446	39.0364
797.626	64.27277
797.805	63.92205
797.984	46.25227
798.164	72.53162
798.343	40.2089
798.522	65.71135
798.702	60.70673
798.881	36.41007
799.06	50.73715
799.239	23.68293
799.419	39.8202
799.598	91.36636
799.777	68.30011
799.956	83.96846
800.136	55.99148
800.315	45.13515
800.494	64.6253
800.673	78.18847
800.852	76.12609
801.031	81.72079
801.21	73.91552
801.389	47.82637
801.568	66.23367
801.747	99.34142
801.926	56.22562
802.105	95.68487
802.284	58.31005
802.463	95.24924
802.642	67.64148
802.821	66.92515
803	87.46174
803.179	75.74294
803.358	87.61125
803.537	46.61905
803.716	76.15606
803.895	46.9528
804.073	52.6581
804.252	49.50165
804.431	67.18781
804.61	59.50124
804.789	90.18606
804.967	57.36657
805.146	52.47768
805.325	106.81661
805.503	67.92805
805.682	35.77815
805.861	127.00589
806.039	91.46178
806.218	45.22052
806.397	72.42472
806.575	66.69601
806.754	63.2476
806.932	47.46856
807.111	95.89384
807.289	85.49211
807.468	68.58825
807.646	84.38696
807.825	69.58348
808.003	70.97171
808.182	85.98671
808.36	67.56375
808.539	50.17425
808.717	94.07659
808.895	45.83313
809.074	73.73236
809.252	60.39903
809.43	93.83254
809.609	96.78703
809.787	106.20518
809.965	59.10062
810.144	68.27516
810.322	56.25743
810.5	81.13963
810.678	67.87369
810.856	110.11072
811.035	93.00083
811.213	91.10698
811.391	89.28357
811.569	68.3763
811.747	147.42878
811.925	100.7996
812.103	49.83709
812.281	63.55952
812.459	125.12149
812.637	110.56709
812.816	101.22961
812.994	121.81879
813.171	106.7242
813.349	86.00454
813.527	108.63811
813.705	101.029
813.883	123.74685
814.061	95.87485
814.239	123.50803
814.417	125.79973
814.595	88.13731
814.773	77.54683
814.95	81.67111
815.128	82.77832
815.306	74.8823
815.484	68.86167
815.662	51.32424
815.839	49.52581
816.017	58.47293
816.195	99.9573
816.372	64.47114
816.55	101.72858
816.728	107.58741
816.905	63.61947
817.083	99.99866
817.261	72.78392
817.438	148.74758
817.616	125.63231
817.793	53.99994
817.971	94.1156
818.148	82.36608
818.326	114.74113
818.503	78.25753
818.681	107.50202
818.858	59.17229
819.036	74.9495
819.213	77.57142
819.391	57.97873
819.568	48.6628
819.745	47.53296
819.923	82.04597
820.1	57.62928
820.277	48.63872
820.455	57.23112
820.632	58.65256
820.809	63.16565
820.986	36.9162
821.164	30.63021
821.341	26.47018
821.518	39.42493
821.695	28.81272
821.872	25.65833
822.05	22.17604
822.227	17.58498
822.404	19.09659
822.581	23.25228
822.758	20.03056
822.935	20.51469
823.112	23.38528
823.289	19.45718
823.466	23.68294
823.643	22.51353
823.82	28.55898
823.997	25.81191
824.174	29.73294
824.351	38.94063
824.528	37.16294
824.705	35.03985
824.882	37.54967
825.059	47.33552
825.236	35.80054
825.412	37.69143
825.589	44.44033
825.766	63.23253
825.943	39.08012
826.12	43.91582
826.296	30.26523
826.473	41.36817
826.65	37.95435
826.827	49.17069
827.003	32.42308
827.18	35.55247
827.357	38.82833
827.533	32.74623
827.71	19.73093
827.887	30.39647
828.063	36.34445
828.24	30.60362
828.416	42.97422
828.593	36.25767
828.769	50.60856
828.946	53.20265
829.122	54.67272
829.299	59.09744
829.475	31.71228
829.652	54.39282
829.828	85.80385
830.005	60.29095
830.181	76.18132
830.357	51.82445
830.534	81.72151
830.71	71.4055
830.886	81.36864
831.063	76.61466
831.239	96.10728
831.415	46.45564
831.592	103.36627
831.768	61.20374
831.944	55.11054
832.12	109.16568
832.296	98.71787
832.473	78.44042
832.649	60.74922
832.825	76.30864
833.001	45.83049
833.177	65.86043
833.353	60.25377
833.529	34.07247
833.705	50.69453
833.881	35.86831
834.058	31.90928
834.234	35.35279
834.41	37.48519
834.586	28.76592
834.761	35.11477
834.937	38.92086
835.113	40.28704
835.289	35.97108
835.465	44.28963
835.641	40.34377
835.817	45.17309
835.993	78.72734
836.169	39.79872
836.344	60.54341
836.52	72.55259
836.696	78.15711
836.872	46.42083
837.048	156.98702
837.223	61.88957
837.399	123.59199
837.575	103.03468
837.75	99.2225
837.926	134.79588
838.102	214.66446
838.277	169.90442
838.453	233.1751
838.628	220.1797
838.804	71.95482
838.98	208.33316
839.155	100.60549
839.331	130.30243
839.506	94.78024
839.682	92.47087
839.857	116.50252
840.033	133.96545
840.208	60.22864
840.384	35.93275
840.559	63.57319
840.734	106.4013
840.91	145.65149
841.085	97.62015
841.26	94.54174
841.436	86.36312
841.611	80.13493
841.786	114.65744
841.962	176.04067
842.137	129.05745
842.312	60.39676
842.487	94.77299
842.663	88.15636
842.838	107.86222
843.013	318.92032
843.188	186.97571
843.363	155.53565
843.538	316.42699
843.714	347.79924
843.889	326.6689
844.064	308.39326
844.239	232.95378
844.414	478.03591
844.589	260.98366
844.764	392.73685
844.939	395.35027
845.114	438.18927
845.289	433.05869
845.464	506.39682
845.639	378.48012
845.814	191.11719
845.989	323.56736
846.163	232.98453
846.338	342.55752
846.513	437.54659
846.688	237.54599
846.863	308.96687
847.038	251.80585
847.212	292.3391
847.387	346.4761
847.562	288.3482
847.737	444.97703
847.911	181.56484
848.086	191.98511
848.261	443.07234
848.435	278.16771
848.61	388.31736
848.785	207.65967
848.959	434.67216
849.134	480.42754
849.308	666.76181
849.483	334.462
849.658	547.29346
849.832	254.38048
850.007	237.50473
850.181	645.90623
850.356	309.26585
850.53	787.37486
850.705	349.46074
850.879	146.64506
851.053	296.01911
851.228	320.13904
851.402	529.40636
851.577	485.6308
851.751	595.26222
851.925	359.30757
852.099	145.27263
852.274	244.97927
852.448	309.4089
852.622	462.42694
852.797	321.9058
852.971	326.96792
853.145	438.94745
853.319	747.24811
853.493	641.73154
853.668	495.91411
853.842	769.05132
854.016	502.33807
854.19	670.37836
854.364	352.44511
854.538	360.37034
854.712	774.18086
854.886	419.12188
855.06	295.66143
855.234	122.54627
855.408	630.75938
855.582	403.26985
855.756	642.35833
855.93	549.34433
856.104	613.68122
856.278	556.62345
856.452	355.86119
856.626	426.36538
856.8	944.47459
856.973	376.83977
857.147	448.09534
857.321	502.94161
857.495	511.71289
857.669	325.34836
857.842	446.12795
858.016	595.90345
858.19	240.01579
858.364	771.54127
858.537	404.68377
858.711	525.81823
858.885	416.72159
859.058	249.7062
859.232	202.08672
859.405	140.12054
859.579	476.81745
859.753	549.76026
859.926	265.78602
860.1	240.24036
860.273	383.32403
860.447	470.42604
860.62	361.30398
860.794	613.35387
860.967	339.46616
861.141	460.34309
861.314	798.18081
861.487	484.64392
861.661	469.05051
861.834	549.9782
862.008	709.08213
862.181	474.60602
862.354	521.29784
862.528	474.88075
862.701	316.08852
862.874	204.64201
863.047	329.19524
863.221	281.37903
863.394	198.58596
863.567	420.10786
863.74	163.58655
863.913	516.21519
864.087	520.58661
864.26	460.59852
864.433	340.92458
864.606	567.9739
864.779	388.68023
864.952	158.28057
865.125	435.5268
865.298	313.3312
865.471	356.77451
865.644	784.19609
865.817	486.62101
865.99	507.93684
866.163	455.20659
866.336	256.68545
866.509	340.08893
866.682	514.54528
866.855	724.04346
867.028	196.71716
867.2	381.92588
867.373	127.46566
867.546	395.17349
867.719	698.43233
867.892	456.09328
868.064	282.1467
868.237	342.71779
868.41	391.85211
868.583	185.66274
868.755	205.14186
868.928	422.33742
869.101	804.54261
869.273	543.29538
869.446	555.40721
869.619	556.96679
869.791	378.56011
869.964	489.60673
870.136	904.78081
870.309	364.57071
870.481	410.79683
870.654	220.82388
870.826	320.50453
870.999	217.90011
871.171	425.28174
871.344	265.17899
871.516	303.2559
871.689	272.24211
871.861	355.1534
872.033	276.26966
872.206	272.10821
872.378	313.56047
872.55	378.14888
872.723	210.56769
872.895	314.70312
873.067	444.58085
873.24	382.17662
873.412	333.11516
873.584	365.14635
873.756	325.46035
873.928	483.67151
874.101	339.09114
874.273	423.94114
874.445	154.89207
874.617	247.68912
874.789	307.67392
874.961	346.36326
875.133	383.45789
875.305	380.21002
875.477	280.88814
875.649	188.04793
875.821	186.78737
875.993	621.30987
876.165	308.89006
876.337	384.95048
876.509	293.59976
876.681	404.86981
876.853	346.9883
877.025	364.91804
877.197	260.4599
877.369	178.07376
877.541	328.55731
877.712	95.26264
877.884	190.90717
878.056	325.11136
878.228	197.25798
878.4	401.94475
878.571	171.37264
878.743	113.27364
878.915	283.09209
879.086	133.44711
879.258	189.2755
879.43	180.75284
879.601	141.02456
879.773	135.81976
879.945	33.60161
880.116	55.91236
880.288	31.40837
880.459	35.0456
880.631	27.38497
880.802	33.13401
880.974	28.94974
881.145	22.04051
881.317	29.24136
881.488	22.86499
881.66	24.47645
881.831	23.75336
882.002	31.5764
882.174	24.80156
882.345	30.76475
882.517	17.8438
882.688	38.46022
882.859	31.89258
883.03	49.68985
883.202	49.01738
883.373	42.62292
883.544	42.71991
883.715	69.4249
883.887	62.98634
884.058	54.71629
884.229	77.89396
884.4	79.8721
884.571	92.19896
884.742	80.87026
884.914	88.97064
885.085	125.17467
885.256	165.33905
885.427	146.10137
885.598	174.75075
885.769	174.38993
885.94	169.68799
886.111	112.54099
886.282	195.22583
886.453	174.61914
886.624	126.62218
886.795	236.92338
886.966	190.41977
887.136	234.32119
887.307	175.50368
887.478	336.1241
887.649	292.0394
887.82	278.4108
887.991	217.38681
888.161	349.35834
888.332	352.78661
888.503	168.88241
888.674	391.90481
888.844	567.86278
889.015	351.83708
889.186	230.8878
889.356	525.05382
889.527	206.96513
889.698	669.4409
889.868	230.64688
890.039	421.34423
890.209	288.60973
890.38	386.33985
890.551	354.73367
890.721	414.4443
890.892	487.32068
891.062	398.68321
891.233	470.26302
891.403	418.06408
891.574	319.10818
891.744	259.22354
891.914	335.22561
892.085	382.09416
892.255	101.69956
892.425	454.65833
892.596	287.6222
892.766	400.07391
892.936	465.51581
893.107	417.53708
893.277	164.73075
893.447	196.25354
893.618	119.52675
893.788	188.69388
893.958	128.53667
894.128	97.97013
894.298	117.71491
894.468	155.91207
894.639	76.08411
894.809	38.14035
894.979	75.42927
895.149	87.48425
895.319	74.43298
895.489	105.175
895.659	150.53852
895.829	94.02596
895.999	94.42495
896.169	84.37959
896.339	104.01795
896.509	197.33271
896.679	195.73197
896.849	232.37527
897.019	284.46665
897.189	257.78755
897.358	235.75082
897.528	368.69541
897.698	222.98674
897.868	325.4816
898.038	671.62378
898.208	633.66931
898.377	222.27531
898.547	988.62483
898.717	1450.52934
898.886	391.87709
899.056	653.42043
899.226	1505.15647
899.395	775.54669
899.565	1282.89985
899.735	822.24213
899.904	879.50756
900.074	1054.48551
900.244	294.58168
900.413	1327.96184
900.583	413.06978
900.752	1293.71843
900.922	1020.48533
901.091	166.32617
901.261	1763.7125
901.43	541.82025
901.599	2362.36662
901.769	1453.813
901.938	1165.4621
902.108	1633.07018
902.277	806.53998
902.446	409.48874
902.616	409.06504
902.785	552.33652
902.954	738.62458
903.124	526.57282
903.293	290.49092
903.462	133.0742
903.631	203.36539
903.801	152.5104
903.97	63.87835
904.139	119.2427
904.308	92.98201
904.477	74.74198
904.646	42.36442
904.816	64.07662
904.985	107.97511
905.154	154.18665
