Data from WindowProjectSample_Transmission__58__00058__08721901445187581.txt Node

Date: Mon May 05 18:21:49 EDT 2025
User: jessi
Spectrometer: SR400872
Trigger mode: 0
Integration Time (sec): 5.000010E-1
Scans to average: 20
Electric dark correction enabled: true
Nonlinearity correction enabled: true
Boxcar width: 0
XAxis mode: Wavelengths
Number of Pixels in Spectrum: 3648
>>>>>Begin Spectral Data<<<<<
184.909	20536.98384
185.132	-4996.30315
185.355	-3006.33837
185.578	-17560.60412
185.801	1327.98419
186.024	10035.66618
186.247	-1712.60368
186.47	982.89264
186.693	420.74037
186.916	300.92116
187.139	-3612.78344
187.362	3206.57328
187.585	4892.24948
187.808	3276.6303
188.031	93.16152
188.254	-51230.10471
188.476	-584.46672
188.699	6330.28465
188.922	578.82888
189.145	-14730.42098
189.368	-656.66422
189.591	-1180.49485
189.813	3002.72108
190.036	-46524.05787
190.259	-812.11967
190.482	-4362.03798
190.705	6900.76493
190.927	-2387.96079
191.15	13053.73209
191.373	3216.13025
191.595	-8352.97658
191.818	-4000.23263
192.041	-4932.32599
192.263	-3137.45179
192.486	-831.82351
192.709	-3895.3844
192.931	7762.71849
193.154	-27477.50926
193.377	-2721.67061
193.599	-2586.38123
193.822	-8875.29378
194.044	-1793.72831
194.267	1103.17452
194.489	245.8327
194.712	-41562.46942
194.934	-31150.35383
195.157	1261.14736
195.379	1365.03013
195.602	-6263.33282
195.824	-1259.84778
196.047	-8112.82067
196.269	2605.8877
196.492	-6004.47835
196.714	29591.84214
196.936	-8182.82645
197.159	-1152.00543
197.381	1172.5103
197.604	361.19072
197.826	11441.65342
198.048	-11016.95327
198.271	-2720.79959
198.493	7288.24181
198.715	2313.16233
198.938	-462.67973
199.16	6710.73147
199.382	-95063.72467
199.604	2379.57351
199.827	-1087.11843
200.049	-2807.13065
200.271	13120.67145
200.493	1129.29359
200.715	-36523.25824
200.938	-5830.5989
201.16	-4047.42316
201.382	18560.47365
201.604	2171.32065
201.826	2216.52785
202.048	-1737.60632
202.27	-1712.57224
202.492	-36293.70442
202.715	2666.97117
202.937	-4504.23525
203.159	-6262.75996
203.381	1401.31179
203.603	6391.57912
203.825	6140.4239
204.047	2213.4416
204.269	-2540.82473
204.491	2222.08519
204.713	5859.75168
204.935	-478027.78771
205.156	1125.76398
205.378	-2753.92509
205.6	1643.21799
205.822	149759.50045
206.044	-1093.90833
206.266	1473.96995
206.488	4167.79302
206.71	-4980.24542
206.932	1071.71286
207.153	11669.3641
207.375	-6885.64976
207.597	-36979.10881
207.819	-2671.40661
208.041	2299.86706
208.262	522.01617
208.484	629.14537
208.706	-659.81952
208.927	-830.49435
209.149	508.49312
209.371	-2830.38318
209.593	-298.77308
209.814	-739.67989
210.036	526.77588
210.258	-589.41203
210.479	1749.07817
210.701	1565.26727
210.922	3197.69044
211.144	-3671.57306
211.366	2054.49443
211.587	7695.74653
211.809	-7932.69378
212.03	2058.48693
212.252	448.3355
212.473	2078.73675
212.695	-5600.30411
212.916	2708.86518
213.138	-636.0125
213.359	3647.14572
213.581	5045.18881
213.802	-706.82998
214.024	1063.70521
214.245	1952.83484
214.466	3416.14226
214.688	-2936.40798
214.909	-1159.43354
215.131	-1763.3462
215.352	-3171.55152
215.573	14449.10037
215.795	4950.53221
216.016	4965.15864
216.237	845.21975
216.459	3274.32835
216.68	1670.89457
216.901	4855.17481
217.122	-3183.70659
217.344	-10966.89083
217.565	3266.26373
217.786	8572.48923
218.007	17896.42001
218.228	-812.10461
218.45	5793.68642
218.671	782.40224
218.892	37273.18461
219.113	1493.60695
219.334	-309.47052
219.555	8933.45325
219.776	2891.50552
219.997	21634.76863
220.219	2526.9522
220.44	-10925.14217
220.661	428.49865
220.882	1461.90341
221.103	-1005.29662
221.324	2231.88502
221.545	2217.33658
221.766	-8758.89746
221.987	877.58878
222.208	1550.30495
222.429	4120.98826
222.65	64.77275
222.87	17591.66073
223.091	699.38591
223.312	540.12133
223.533	1368.46561
223.754	1461.93673
223.975	1293.35584
224.196	1978.05839
224.417	1293.0498
224.637	523.18622
224.858	80.01665
225.079	1045.30563
225.3	662.07255
225.521	3710.51613
225.741	457.71465
225.962	466.91812
226.183	136.43621
226.404	651.03773
226.624	422.59271
226.845	581.02941
227.066	401.92878
227.286	248.92416
227.507	126.76722
227.728	117.75867
227.948	226.51586
228.169	75.1868
228.389	82.37884
228.61	43.87188
228.831	58.86945
229.051	0.57956
229.272	37.43132
229.492	55.66625
229.713	11.79259
229.933	34.86044
230.154	30.86774
230.374	51.65274
230.595	36.24741
230.815	22.68604
231.036	35.7512
231.256	-12.0154
231.477	67.30935
231.697	37.72221
231.917	39.72819
232.138	54.44065
232.358	109.5692
232.579	101.18563
232.799	16.20984
233.019	97.71165
233.24	106.54332
233.46	36.63498
233.68	63.90998
233.901	41.23261
234.121	26.52799
234.341	11.09332
234.561	-2.19101
234.782	15.09802
235.002	65.46327
235.222	-6.12178
235.442	61.36313
235.662	29.23786
235.883	60.78206
236.103	47.97148
236.323	34.82261
236.543	27.71332
236.763	40.1279
236.983	42.89641
237.203	39.07866
237.423	60.39792
237.643	83.26803
237.864	71.82318
238.084	16.60974
238.304	23.46265
238.524	43.82868
238.744	38.87355
238.964	69.74731
239.184	58.41027
239.404	61.90698
239.624	34.06713
239.843	57.64497
240.063	33.25749
240.283	20.84335
240.503	23.0593
240.723	25.05743
240.943	13.92004
241.163	19.01282
241.383	14.08877
241.603	7.58855
241.822	9.2366
242.042	5.82112
242.262	8.02151
242.482	9.40083
242.702	9.88003
242.921	2.32998
243.141	6.72936
243.361	6.39507
243.581	9.01637
243.8	6.89982
244.02	4.676
244.24	9.29029
244.459	9.46148
244.679	17.23394
244.899	10.92862
245.118	13.01651
245.338	10.32734
245.558	13.10715
245.777	7.68499
245.997	10.70079
246.216	10.26162
246.436	5.96736
246.655	4.8803
246.875	2.95048
247.094	6.0699
247.314	1.90356
247.533	3.46037
247.753	4.22914
247.972	3.34632
248.192	1.02736
248.411	1.62316
248.631	3.51956
248.85	4.67835
249.07	3.58761
249.289	5.54527
249.508	4.71372
249.728	7.19066
249.947	6.83464
250.166	8.11617
250.386	4.16932
250.605	6.65733
250.824	10.34592
251.044	7.43632
251.263	27.63142
251.482	14.1884
251.701	11.04698
251.921	-0.2129
252.14	2.90117
252.359	3.97049
252.578	9.83378
252.798	3.35801
253.017	8.82232
253.236	3.72603
253.455	5.58892
253.674	10.17374
253.893	4.61153
254.112	7.14368
254.331	10.79587
254.551	8.1944
254.77	2.87936
254.989	12.60961
255.208	10.08093
255.427	14.04118
255.646	10.96202
255.865	21.3401
256.084	8.56741
256.303	9.54832
256.522	13.43702
256.741	2.56037
256.96	2.24182
257.179	7.19675
257.397	10.29984
257.616	5.41412
257.835	5.6351
258.054	15.07305
258.273	10.38307
258.492	10.60781
258.711	6.03559
258.93	2.97581
259.148	4.38215
259.367	4.22491
259.586	5.44965
259.805	2.25071
260.023	5.19569
260.242	3.81314
260.461	2.54343
260.68	1.19062
260.898	4.42178
261.117	1.32024
261.336	0.92613
261.554	3.24438
261.773	3.23647
261.992	0.61843
262.21	3.01956
262.429	3.37982
262.648	7.07333
262.866	7.78757
263.085	5.36453
263.303	4.71545
263.522	8.21846
263.74	8.82939
263.959	14.97746
264.178	6.80007
264.396	6.0978
264.615	4.34568
264.833	10.51581
265.051	8.22041
265.27	10.58369
265.488	10.31532
265.707	5.74168
265.925	10.32794
266.144	4.43718
266.362	5.40805
266.58	5.58489
266.799	4.96527
267.017	5.79926
267.235	5.21696
267.454	2.93913
267.672	1.73772
267.89	4.12578
268.109	4.03135
268.327	4.1176
268.545	0.89691
268.763	3.89049
268.982	1.34909
269.2	3.83911
269.418	2.93708
269.636	1.64046
269.854	4.38328
270.073	2.93902
270.291	1.96395
270.509	1.95155
270.727	4.28822
270.945	7.09283
271.163	6.97355
271.381	1.18446
271.599	2.99872
271.817	5.13125
272.036	1.70765
272.254	3.05215
272.472	2.24465
272.69	2.29454
272.908	2.22051
273.126	4.47038
273.344	5.20286
273.562	1.72647
273.779	2.40966
273.997	3.60749
274.215	4.19308
274.433	2.68192
274.651	4.29993
274.869	4.35787
275.087	2.96681
275.305	3.89037
275.523	2.33101
275.74	2.75269
275.958	5.37262
276.176	8.07502
276.394	2.61855
276.612	2.96218
276.829	2.97939
277.047	2.46687
277.265	2.78485
277.483	3.4671
277.7	4.01427
277.918	3.4533
278.136	6.11379
278.353	2.87323
278.571	1.51084
278.789	4.25149
279.006	0.7194
279.224	2.89816
279.442	4.90281
279.659	3.52686
279.877	2.43318
280.094	5.54706
280.312	0.82908
280.529	3.27175
280.747	0.83395
280.964	2.54247
281.182	5.89355
281.399	2.62713
281.617	3.58768
281.834	2.44033
282.052	1.70264
282.269	3.06132
282.487	2.41761
282.704	2.04332
282.921	2.15431
283.139	3.21029
283.356	3.85039
283.574	3.73497
283.791	1.77024
284.008	5.59011
284.226	2.756
284.443	3.21629
284.66	4.32219
284.877	3.29732
285.095	2.08826
285.312	1.59146
285.529	0.9521
285.746	0.6911
285.964	1.99555
286.181	1.38065
286.398	1.77023
286.615	2.60814
286.832	2.49827
287.05	0.50396
287.267	1.8175
287.484	1.77377
287.701	2.42858
287.918	2.48994
288.135	2.53857
288.352	1.14895
288.569	1.37817
288.786	2.49836
289.003	1.87505
289.22	2.93633
289.437	1.56015
289.654	2.78766
289.871	2.95911
290.088	2.79038
290.305	2.18898
290.522	1.73459
290.739	2.02962
290.956	3.1155
291.173	3.48797
291.39	3.33339
291.607	2.29137
291.824	1.55989
292.04	1.2702
292.257	2.84324
292.474	3.13955
292.691	1.79317
292.908	0.91199
293.125	1.67455
293.341	1.01226
293.558	4.84312
293.775	1.9112
293.992	1.77972
294.208	0.74929
294.425	1.19496
294.642	1.79723
294.858	3.00204
295.075	0.62324
295.292	1.88893
295.508	2.16826
295.725	3.93552
295.942	1.60852
296.158	1.1337
296.375	1.94545
296.591	1.47582
296.808	1.60323
297.024	1.8148
297.241	2.15883
297.458	2.3225
297.674	0.15945
297.891	1.76351
298.107	1.4086
298.323	1.03328
298.54	2.96325
298.756	1.22752
298.973	0.56291
299.189	2.94406
299.406	1.11395
299.622	2.65534
299.838	2.54946
300.055	2.50459
300.271	0.48567
300.487	0.9803
300.704	1.20373
300.92	0.59958
301.136	4.08535
301.353	2.44606
301.569	1.80086
301.785	2.07835
302.001	2.56463
302.218	2.08156
302.434	2.12675
302.65	0.67739
302.866	1.44905
303.083	3.81884
303.299	3.60475
303.515	1.82683
303.731	2.07375
303.947	0.4623
304.163	1.13663
304.379	1.91603
304.595	2.36687
304.812	1.08807
305.028	1.09416
305.244	1.62948
305.46	2.60573
305.676	2.58281
305.892	3.14505
306.108	2.18285
306.324	1.32993
306.54	3.5222
306.756	2.37849
306.972	2.35895
307.187	1.58363
307.403	3.26132
307.619	1.36875
307.835	2.93545
308.051	3.27503
308.267	0.85398
308.483	2.66513
308.699	2.30536
308.914	1.7897
309.13	1.69879
309.346	0.47331
309.562	0.81953
309.778	0.57441
309.993	2.36849
310.209	1.70117
310.425	0.88434
310.641	1.56342
310.856	0.85599
311.072	0.86253
311.288	1.74055
311.503	1.86921
311.719	0.26206
311.935	0.16022
312.15	2.12239
312.366	1.7073
312.581	2.19299
312.797	1.62573
313.013	2.45021
313.228	1.14442
313.444	1.72897
313.659	1.14361
313.875	2.06094
314.09	1.651
314.306	3.07029
314.521	2.52255
314.737	2.31848
314.952	1.78807
315.168	1.62596
315.383	2.18975
315.599	1.57964
315.814	1.36144
316.029	2.44604
316.245	0.60596
316.46	0.506
316.675	2.80403
316.891	3.37457
317.106	4.36313
317.321	2.13028
317.537	2.33086
317.752	2.45958
317.967	2.7134
318.183	1.10243
318.398	1.49831
318.613	2.64156
318.828	3.14239
319.043	2.60411
319.259	1.66715
319.474	1.98034
319.689	2.85993
319.904	0.322
320.119	2.37613
320.334	2.15493
320.549	1.55345
320.765	2.76423
320.98	2.04994
321.195	2.63089
321.41	1.72768
321.625	2.52393
321.84	3.60158
322.055	3.5867
322.27	1.56909
322.485	1.00867
322.7	2.26549
322.915	2.63993
323.13	1.01816
323.345	3.06336
323.56	2.68621
323.775	2.33606
323.989	2.21333
324.204	2.11125
324.419	2.74743
324.634	0.94439
324.849	1.65515
325.064	4.72985
325.279	2.71814
325.493	2.25489
325.708	2.72457
325.923	1.24192
326.138	1.22806
326.352	3.35222
326.567	2.85954
326.782	1.6126
326.997	1.31533
327.211	2.32708
327.426	2.19059
327.641	1.41542
327.855	0.54756
328.07	2.08134
328.285	3.36775
328.499	1.46788
328.714	2.1743
328.928	2.53195
329.143	1.65454
329.358	2.73444
329.572	2.70237
329.787	2.89521
330.001	4.0815
330.216	0.77092
330.43	3.49273
330.645	3.38288
330.859	2.75281
331.074	1.36646
331.288	2.03097
331.503	2.88218
331.717	1.08794
331.931	1.9739
332.146	1.95092
332.36	3.46312
332.575	2.39704
332.789	2.26234
333.003	2.07641
333.218	2.37168
333.432	1.38264
333.646	2.63385
333.86	3.24016
334.075	3.23534
334.289	1.52446
334.503	1.15614
334.717	2.20229
334.932	2.19615
335.146	3.28129
335.36	1.6171
335.574	2.55329
335.788	2.35547
336.003	2.72822
336.217	2.40336
336.431	2.58037
336.645	1.33564
336.859	0.81611
337.073	1.58915
337.287	2.02318
337.501	1.04371
337.715	2.06202
337.929	2.61363
338.143	0.95598
338.357	1.7838
338.571	1.00818
338.785	2.16755
338.999	1.68654
339.213	1.45606
339.427	0.75128
339.641	3.09231
339.855	1.68352
340.069	1.38131
340.283	2.71682
340.497	3.56774
340.711	2.15689
340.924	1.5769
341.138	0.83487
341.352	0.76312
341.566	2.08314
341.78	0.53244
341.993	1.50835
342.207	1.16658
342.421	1.88344
342.635	1.72858
342.848	1.46883
343.062	0.20739
343.276	1.23012
343.49	3.49994
343.703	1.23036
343.917	2.57639
344.131	2.54399
344.344	1.22939
344.558	1.50071
344.771	0.86899
344.985	3.26204
345.199	2.91365
345.412	1.99918
345.626	1.9583
345.839	0.47542
346.053	0.88809
346.266	0.94711
346.48	2.36124
346.693	2.07608
346.907	1.97976
347.12	1.09707
347.334	2.10235
347.547	2.07495
347.76	1.3771
347.974	2.72357
348.187	1.98482
348.401	1.34507
348.614	1.29588
348.827	1.33538
349.041	2.21324
349.254	0.48227
349.467	1.50164
349.681	0.56893
349.894	1.16823
350.107	2.73425
350.32	2.99418
350.534	0.47263
350.747	1.25059
350.96	0.92898
351.173	1.21147
351.386	1.40641
351.6	1.3117
351.813	1.17524
352.026	1.67097
352.239	0.52861
352.452	1.48028
352.665	2.18179
352.878	1.75866
353.092	3.26876
353.305	2.28865
353.518	1.84468
353.731	1.00524
353.944	2.61031
354.157	1.17674
354.37	0.84551
354.583	0.91728
354.796	0.35115
355.009	2.48071
355.222	1.82713
355.435	1.6785
355.647	2.26308
355.86	0.88113
356.073	1.56859
356.286	1.1133
356.499	2.09855
356.712	1.82667
356.925	2.04628
357.138	2.14318
357.35	0.94565
357.563	1.34507
357.776	1.60429
357.989	1.13943
358.201	1.9424
358.414	1.52275
358.627	2.51223
358.84	1.30367
359.052	0.63656
359.265	0.83947
359.478	2.34961
359.69	-0.34194
359.903	1.80157
360.116	2.07664
360.328	0.29606
360.541	2.11822
360.753	0.61804
360.966	0.93835
361.179	1.07937
361.391	1.00214
361.604	0.68335
361.816	1.07015
362.029	0.8837
362.241	0.75901
362.454	0.81993
362.666	0.70717
362.879	1.33557
363.091	1.13664
363.304	0.70443
363.516	1.28179
363.728	0.52219
363.941	1.70189
364.153	0.92207
364.366	-0.14314
364.578	0.58195
364.79	1.49548
365.003	1.19034
365.215	0.8977
365.427	1.54036
365.639	1.99503
365.852	1.35243
366.064	2.97815
366.276	0.98929
366.488	1.63356
366.701	0.98298
366.913	1.25118
367.125	1.12504
367.337	0.80328
367.549	0.93065
367.762	1.42438
367.974	1.37366
368.186	0.74198
368.398	1.97042
368.61	1.8051
368.822	1.7928
369.034	1.36339
369.246	1.71103
369.458	3.36413
369.67	0.6824
369.882	2.68451
370.094	0.1259
370.306	2.60909
370.518	1.09252
370.73	0.73415
370.942	0.76235
371.154	1.14925
371.366	0.82768
371.578	1.35433
371.79	0.59065
372.002	2.06192
372.214	2.48323
372.425	1.33842
372.637	2.1187
372.849	1.44498
373.061	0.01216
373.273	1.48306
373.484	1.57722
373.696	1.9371
373.908	-0.07212
374.12	2.14812
374.331	1.45438
374.543	0.78546
374.755	0.68047
374.967	1.45569
375.178	1.64219
375.39	1.0098
375.602	1.30904
375.813	0.41464
376.025	0.4752
376.236	1.27476
376.448	1.38337
376.66	0.80812
376.871	0.7365
377.083	2.1065
377.294	2.06896
377.506	0.9098
377.717	2.10955
377.929	1.38051
378.14	0.64663
378.352	1.48021
378.563	1.39835
378.775	2.03382
378.986	0.6812
379.197	1.04333
379.409	0.86284
379.62	1.76312
379.832	1.56439
380.043	1.01077
380.254	1.18904
380.466	0.50269
380.677	3.13893
380.888	2.65739
381.1	2.83397
381.311	2.69359
381.522	1.13708
381.733	3.134
381.945	1.09717
382.156	1.40976
382.367	0.85469
382.578	3.03141
382.789	2.90196
383.001	0.95609
383.212	1.9538
383.423	2.18457
383.634	1.95288
383.845	1.55469
384.056	0.94791
384.267	1.21079
384.478	1.06917
384.69	0.45266
384.901	1.49503
385.112	1.43958
385.323	2.11021
385.534	1.53691
385.745	1.29818
385.956	1.50839
386.167	0.58867
386.378	1.53975
386.588	0.40088
386.799	0.77757
387.01	0.12901
387.221	1.70167
387.432	1.04193
387.643	2.42035
387.854	1.04182
388.065	0.96954
388.275	1.08128
388.486	0.99599
388.697	0.8929
388.908	0.89318
389.119	1.8709
389.329	2.18668
389.54	1.15535
389.751	1.4679
389.962	1.9538
390.172	1.4087
390.383	0.8125
390.594	0.75961
390.804	0.74568
391.015	0.7779
391.226	1.24282
391.436	1.43454
391.647	1.34413
391.858	1.52581
392.068	0.10375
392.279	0.36334
392.489	1.07604
392.7	1.97946
392.91	0.48487
393.121	0.69913
393.331	1.38788
393.542	1.87789
393.752	1.43523
393.963	1.36402
394.173	1.14484
394.384	1.50386
394.594	1.09079
394.804	0.41353
395.015	1.23673
395.225	1.436
395.436	0.50381
395.646	1.51565
395.856	0.6356
396.067	0.36248
396.277	1.77958
396.487	1.41449
396.697	1.20037
396.908	1.58646
397.118	1.61085
397.328	1.26396
397.538	1.82224
397.749	0.63812
397.959	1.66802
398.169	1.697
398.379	0.38509
398.589	1.69567
398.8	1.24791
399.01	1.07459
399.22	1.06398
399.43	2.67491
399.64	1.08075
399.85	1.7075
400.06	1.19216
400.27	0.7572
400.48	1.29054
400.69	2.24926
400.9	0.92893
401.11	0.78263
401.32	1.86977
401.53	1.02994
401.74	2.36665
401.95	1.77197
402.16	0.63799
402.37	1.4678
402.58	1.01835
402.79	1.8031
403	2.01165
403.209	1.08629
403.419	1.88431
403.629	0.89753
403.839	1.79299
404.049	1.87042
404.258	0.89183
404.468	0.81105
404.678	1.57315
404.888	1.88963
405.097	0.7499
405.307	1.28442
405.517	1.68443
405.727	1.49789
405.936	1.1792
406.146	1.56604
406.356	2.17605
406.565	1.39045
406.775	1.08965
406.984	1.12857
407.194	2.43085
407.404	1.493
407.613	1.75847
407.823	2.00708
408.032	2.05248
408.242	2.26787
408.451	1.21965
408.661	1.42644
408.87	2.65118
409.08	1.21088
409.289	1.7044
409.499	1.60351
409.708	1.74915
409.918	0.43354
410.127	1.69958
410.336	2.59416
410.546	2.02861
410.755	1.38681
410.964	1.51219
411.174	1.18284
411.383	1.93098
411.592	2.05491
411.802	1.12928
412.011	2.22361
412.22	1.5939
412.429	2.91276
412.639	2.61252
412.848	2.4476
413.057	2.58072
413.266	2.55074
413.475	1.89123
413.685	2.2294
413.894	2.41055
414.103	2.70616
414.312	2.44039
414.521	1.87324
414.73	1.94799
414.939	3.29514
415.148	2.34002
415.357	2.15978
415.566	1.69101
415.776	1.79383
415.985	1.70668
416.194	2.51669
416.403	2.95957
416.611	1.24145
416.82	1.67771
417.029	2.10453
417.238	1.62371
417.447	1.5123
417.656	1.80661
417.865	1.55062
418.074	1.78661
418.283	1.96405
418.492	2.46811
418.7	2.29437
418.909	2.90889
419.118	2.26364
419.327	2.50752
419.536	2.27166
419.744	2.05306
419.953	3.03438
420.162	3.01966
420.371	2.28764
420.579	2.28756
420.788	3.17082
420.997	3.16477
421.205	3.23313
421.414	3.09918
421.623	3.06586
421.831	2.71024
422.04	3.34555
422.249	2.64855
422.457	3.1897
422.666	2.6275
422.874	3.38356
423.083	3.51267
423.291	3.49298
423.5	3.21199
423.708	3.3679
423.917	3.72491
424.125	3.41529
424.334	3.11681
424.542	4.64103
424.751	4.14029
424.959	3.83173
425.167	4.11488
425.376	4.00517
425.584	3.30462
425.793	3.58153
426.001	2.80652
426.209	3.40359
426.418	2.60689
426.626	2.61559
426.834	2.50395
427.042	2.8601
427.251	2.63684
427.459	3.37035
427.667	2.97501
427.875	2.36654
428.084	2.67178
428.292	3.63178
428.5	3.24434
428.708	2.49608
428.916	2.45089
429.124	3.10692
429.333	2.76571
429.541	2.82634
429.749	3.05593
429.957	3.00373
430.165	4.48474
430.373	2.29526
430.581	3.18821
430.789	3.86013
430.997	2.80657
431.205	2.73845
431.413	3.26055
431.621	2.93242
431.829	3.51472
432.037	3.00674
432.245	3.39207
432.453	3.41524
432.661	3.07701
432.869	4.17998
433.076	2.77222
433.284	3.14338
433.492	3.60425
433.7	3.80787
433.908	3.09502
434.116	3.33287
434.323	3.31301
434.531	3.202
434.739	3.57923
434.947	3.8398
435.154	3.72513
435.362	3.39326
435.57	3.26459
435.778	3.02294
435.985	3.59494
436.193	3.14798
436.401	4.05762
436.608	3.39045
436.816	3.17569
437.023	4.29984
437.231	4.31065
437.439	3.61531
437.646	3.81831
437.854	3.57754
438.061	3.88604
438.269	3.48699
438.476	3.82882
438.684	3.54738
438.891	3.45383
439.099	3.27127
439.306	2.99358
439.514	3.09085
439.721	3.90628
439.929	3.46196
440.136	4.14869
440.343	4.17549
440.551	3.92122
440.758	5.38921
440.965	4.40609
441.173	4.09701
441.38	3.79332
441.587	4.05115
441.795	3.68357
442.002	3.84403
442.209	3.85954
442.416	3.99232
442.624	4.00058
442.831	3.91557
443.038	3.48751
443.245	3.21596
443.452	3.50304
443.66	4.00728
443.867	3.43734
444.074	3.45714
444.281	3.42779
444.488	3.64398
444.695	3.6837
444.902	3.5082
445.109	4.30661
445.316	3.89076
445.523	4.02779
445.73	3.93446
445.937	4.56345
446.144	4.91499
446.351	5.03885
446.558	4.28614
446.765	5.58018
446.972	5.31353
447.179	4.88266
447.386	5.59123
447.593	4.4421
447.8	5.20353
448.007	4.22733
448.214	4.10607
448.42	3.76505
448.627	4.39559
448.834	3.80156
449.041	3.73451
449.248	3.68589
449.454	4.17672
449.661	4.77058
449.868	3.65035
450.075	3.57911
450.281	2.87649
450.488	3.28227
450.695	3.41755
450.901	3.4774
451.108	3.56765
451.315	4.34776
451.521	3.82003
451.728	4.33632
451.935	3.48271
452.141	3.76269
452.348	3.84633
452.554	3.67492
452.761	3.59041
452.967	4.67415
453.174	3.99271
453.38	4.07038
453.587	3.24992
453.793	3.93514
454	4.46232
454.206	5.01248
454.413	4.39381
454.619	4.09581
454.825	3.60961
455.032	4.24005
455.238	4.29664
455.445	3.24556
455.651	3.98091
455.857	3.03306
456.064	3.66139
456.27	3.68253
456.476	3.73838
456.682	3.19912
456.889	4.11574
457.095	4.15849
457.301	5.28735
457.507	3.93557
457.714	3.96867
457.92	3.9362
458.126	3.62318
458.332	3.8289
458.538	3.70957
458.744	3.80037
458.951	3.83579
459.157	5.40549
459.363	4.4346
459.569	4.53947
459.775	5.21776
459.981	4.60911
460.187	4.96297
460.393	5.33546
460.599	5.65916
460.805	4.90158
461.011	4.4885
461.217	4.7074
461.423	4.70729
461.629	4.04353
461.835	4.42617
462.041	4.03745
462.247	4.93311
462.453	3.95667
462.658	4.04316
462.864	4.38819
463.07	4.15684
463.276	4.16863
463.482	4.21526
463.688	4.67653
463.893	3.91191
464.099	4.05075
464.305	4.89419
464.511	3.86056
464.716	4.07729
464.922	4.49255
465.128	3.70644
465.333	4.9508
465.539	4.50162
465.745	4.05359
465.95	4.15032
466.156	5.64656
466.362	4.79027
466.567	4.13219
466.773	3.91303
466.978	4.96627
467.184	3.66423
467.389	3.19403
467.595	4.31802
467.8	3.80764
468.006	4.94235
468.211	4.80205
468.417	3.66942
468.622	4.37234
468.828	4.60761
469.033	4.43907
469.239	5.55385
469.444	3.99227
469.649	4.72042
469.855	4.16074
470.06	4.26554
470.266	3.77378
470.471	4.51133
470.676	4.4662
470.881	3.41792
471.087	4.99415
471.292	5.75267
471.497	3.65533
471.703	4.14337
471.908	3.93174
472.113	4.36548
472.318	4.71634
472.523	3.73502
472.729	4.43701
472.934	4.59433
473.139	4.01256
473.344	4.53464
473.549	4.88555
473.754	3.95276
473.959	5.69999
474.164	3.8407
474.369	4.18821
474.575	4.74387
474.78	4.25492
474.985	4.03459
475.19	3.44715
475.395	3.92848
475.6	4.27413
475.804	5.07325
476.009	4.30274
476.214	4.37071
476.419	4.20726
476.624	3.51488
476.829	3.90106
477.034	4.73862
477.239	3.91895
477.444	4.67467
477.648	4.60883
477.853	4.63062
478.058	4.26001
478.263	3.88482
478.468	3.79728
478.672	3.84808
478.877	4.99537
479.082	5.10215
479.287	4.56239
479.491	4.34627
479.696	3.83581
479.901	4.73836
480.105	4.76021
480.31	4.08291
480.515	4.30617
480.719	5.46935
480.924	4.13381
481.128	3.91948
481.333	4.55481
481.538	4.52341
481.742	4.44967
481.947	5.11694
482.151	5.65252
482.356	5.81775
482.56	7.03437
482.765	7.71663
482.969	9.29595
483.174	10.41459
483.378	12.19685
483.582	12.48081
483.787	13.83482
483.991	13.95304
484.196	14.33386
484.4	14.18107
484.604	14.82015
484.809	13.1672
485.013	12.68207
485.217	11.5485
485.422	10.2837
485.626	9.44466
485.83	8.77594
486.034	8.31619
486.239	8.49155
486.443	8.56961
486.647	8.49437
486.851	9.29286
487.055	10.09978
487.26	9.69015
487.464	10.28572
487.668	9.93743
487.872	10.21085
488.076	10.62261
488.28	10.06416
488.484	9.48343
488.688	9.30747
488.892	9.09078
489.096	8.53846
489.3	7.71323
489.504	7.2849
489.708	7.01347
489.912	6.77185
490.116	6.71059
490.32	6.07031
490.524	6.80967
490.728	7.28244
490.932	7.39176
491.136	7.72092
491.34	8.58433
491.544	8.86967
491.748	8.70459
491.951	8.92149
492.155	8.53326
492.359	8.53125
492.563	7.62869
492.767	7.23879
492.97	6.60624
493.174	5.90775
493.378	5.41772
493.582	4.70674
493.785	4.62482
493.989	4.76501
494.193	4.75311
494.396	4.54215
494.6	4.92034
494.804	4.56089
495.007	4.29429
495.211	4.34624
495.414	4.47345
495.618	4.67763
495.822	5.22024
496.025	4.57032
496.229	4.95062
496.432	4.27259
496.636	4.60545
496.839	4.47085
497.043	5.30424
497.246	4.79331
497.45	4.40724
497.653	4.637
497.856	4.69514
498.06	4.17291
498.263	4.53113
498.467	4.40938
498.67	5.01768
498.873	4.78711
499.077	4.50879
499.28	4.42576
499.483	4.67188
499.686	4.89392
499.89	4.70213
500.093	5.0857
500.296	4.29305
500.499	5.30132
500.703	4.54425
500.906	4.74797
501.109	5.43367
501.312	4.59557
501.515	4.57081
501.719	4.79489
501.922	5.14845
502.125	4.61659
502.328	4.52661
502.531	4.10929
502.734	4.57227
502.937	3.73937
503.14	4.6695
503.343	4.15698
503.546	4.36662
503.749	4.22096
503.952	4.9346
504.155	4.15974
504.358	4.73843
504.561	4.58933
504.764	4.03094
504.967	4.5918
505.17	4.50669
505.373	5.27097
505.576	4.57975
505.778	4.94428
505.981	4.16219
506.184	5.18957
506.387	3.77356
506.59	5.64376
506.793	5.1141
506.995	4.87268
507.198	3.75078
507.401	4.8106
507.604	4.80747
507.806	4.17485
508.009	4.18638
508.212	4.93691
508.414	4.26724
508.617	4.35536
508.82	4.57213
509.022	5.21782
509.225	4.60722
509.427	3.94807
509.63	5.25983
509.833	4.65917
510.035	4.40897
510.238	3.84775
510.44	5.23917
510.643	3.84901
510.845	5.61929
511.048	4.8115
511.25	4.34606
511.453	4.53072
511.655	4.76338
511.858	4.45123
512.06	4.95382
512.262	4.64599
512.465	4.93835
512.667	4.31495
512.869	4.12549
513.072	4.74536
513.274	4.93162
513.476	4.76644
513.679	4.97767
513.881	4.08727
514.083	5.35078
514.286	4.19146
514.488	4.29645
514.69	4.14218
514.892	3.95539
515.094	4.91739
515.297	4.30165
515.499	4.65842
515.701	4.1394
515.903	5.43563
516.105	5.48492
516.307	4.97719
516.509	3.75566
516.711	4.0397
516.913	4.64978
517.116	4.55503
517.318	4.43868
517.52	5.14808
517.722	4.90053
517.924	4.09346
518.126	4.85309
518.328	4.38343
518.529	4.94823
518.731	5.83749
518.933	4.54899
519.135	4.75363
519.337	5.36716
519.539	4.95388
519.741	3.91302
519.943	4.50415
520.145	4.48201
520.346	4.91179
520.548	4.39623
520.75	4.69005
520.952	4.43582
521.153	4.68632
521.355	4.74197
521.557	4.21712
521.759	4.69117
521.96	4.51713
522.162	4.12265
522.364	5.134
522.565	4.31566
522.767	4.87787
522.969	5.10877
523.17	4.87665
523.372	4.7516
523.573	4.36235
523.775	4.48766
523.977	4.20421
524.178	5.55291
524.38	4.33003
524.581	4.97793
524.783	4.52412
524.984	4.91644
525.186	4.72573
525.387	5.13823
525.589	4.97983
525.79	4.98898
525.991	4.84464
526.193	5.49985
526.394	4.81445
526.596	5.60919
526.797	5.70182
526.998	5.42653
527.2	5.551
527.401	6.88048
527.602	7.24657
527.803	8.62325
528.005	9.07684
528.206	9.82839
528.407	10.54518
528.608	10.3867
528.81	10.7454
529.011	10.27902
529.212	11.25075
529.413	10.34301
529.614	9.74312
529.815	9.43723
530.017	8.74584
530.218	7.63731
530.419	6.72498
530.62	6.54603
530.821	6.1635
531.022	5.18554
531.223	5.90503
531.424	5.73237
531.625	5.6731
531.826	5.4507
532.027	5.72207
532.228	6.5722
532.429	6.37812
532.63	6.49906
532.831	7.0107
533.032	7.13005
533.233	7.67486
533.433	7.44577
533.634	7.71393
533.835	7.09635
534.036	6.79242
534.237	6.67375
534.438	6.21617
534.638	5.42092
534.839	5.22964
535.04	5.3341
535.241	4.78393
535.441	5.59932
535.642	5.1914
535.843	4.59898
536.043	4.70505
536.244	4.85129
536.445	5.07096
536.645	5.72875
536.846	5.42272
537.047	5.92224
537.247	4.94977
537.448	4.80807
537.648	4.78076
537.849	4.68623
538.049	4.66156
538.25	4.95588
538.451	4.85639
538.651	4.29444
538.851	4.92622
539.052	5.36478
539.252	5.0549
539.453	4.71883
539.653	4.82484
539.854	4.72674
540.054	4.80026
540.254	5.80129
540.455	6.37667
540.655	6.03144
540.855	7.06231
541.056	7.80852
541.256	7.57101
541.456	8.40183
541.657	7.94822
541.857	8.66792
542.057	7.45282
542.257	7.3101
542.458	7.74068
542.658	7.69622
542.858	6.26208
543.058	6.62828
543.258	6.13037
543.458	5.05039
543.659	4.83667
543.859	5.42826
544.059	5.19731
544.259	4.80282
544.459	5.28959
544.659	4.56039
544.859	4.98902
545.059	4.52089
545.259	5.03788
545.459	4.79383
545.659	5.19552
545.859	4.67088
546.059	4.95728
546.259	4.35702
546.459	4.11423
546.659	4.26364
546.859	5.08591
547.059	4.7881
547.258	4.94616
547.458	4.92968
547.658	4.2096
547.858	4.20667
548.058	4.72595
548.258	4.53339
548.457	4.26075
548.657	5.96108
548.857	4.5741
549.057	5.16952
549.256	5.00771
549.456	4.5073
549.656	3.74616
549.855	5.84682
550.055	4.4364
550.255	5.70248
550.454	4.80913
550.654	5.25225
550.853	5.69601
551.053	5.1089
551.253	4.93877
551.452	5.0782
551.652	4.06148
551.851	3.86446
552.051	4.4912
552.25	4.38759
552.45	4.35527
552.649	4.40984
552.849	4.1683
553.048	4.77313
553.248	5.02187
553.447	4.08342
553.646	5.10296
553.846	6.22112
554.045	5.50262
554.244	3.98598
554.444	5.50018
554.643	4.29681
554.842	5.69575
555.042	5.96828
555.241	4.39965
555.44	4.17775
555.64	4.95545
555.839	5.61986
556.038	5.02322
556.237	4.46194
556.436	4.86277
556.636	4.93347
556.835	4.2965
557.034	5.74368
557.233	4.77667
557.432	3.88125
557.631	5.31822
557.83	4.70275
558.029	4.414
558.228	4.45034
558.427	4.23779
558.626	5.03295
558.825	4.17359
559.024	4.71386
559.223	6.06358
559.422	4.72145
559.621	5.10975
559.82	3.35012
560.019	4.84277
560.218	4.43091
560.417	3.02206
560.616	4.47301
560.815	6.82016
561.014	3.93915
561.212	5.65201
561.411	4.80536
561.61	3.88411
561.809	4.72019
562.008	5.91375
562.206	4.65132
562.405	5.03343
562.604	4.63699
562.803	4.84774
563.001	4.81758
563.2	3.79177
563.399	5.06738
563.597	3.96296
563.796	4.8633
563.995	3.91791
564.193	5.20109
564.392	4.36002
564.59	6.15015
564.789	3.56447
564.988	4.57379
565.186	4.82144
565.385	4.57815
565.583	4.48683
565.782	4.68049
565.98	4.46952
566.179	4.5717
566.377	3.97348
566.575	4.11557
566.774	5.42809
566.972	5.22429
567.171	5.91243
567.369	5.64505
567.567	4.77519
567.766	4.89538
567.964	3.41381
568.162	5.18361
568.361	5.60985
568.559	4.62703
568.757	4.81972
568.956	4.81928
569.154	4.69011
569.352	5.29695
569.55	4.61139
569.748	4.73792
569.947	4.22435
570.145	4.18046
570.343	4.02823
570.541	5.75388
570.739	3.8363
570.937	4.81057
571.135	5.02489
571.333	6.17204
571.532	6.16487
571.73	4.85834
571.928	5.37392
572.126	5.16311
572.324	4.44598
572.522	5.48967
572.72	6.38965
572.918	4.7792
573.116	4.99105
573.313	4.53012
573.511	4.55724
573.709	4.51184
573.907	5.21939
574.105	4.48806
574.303	3.73038
574.501	3.71705
574.699	4.98041
574.896	4.96615
575.094	5.19564
575.292	3.99552
575.49	5.33805
575.688	4.67792
575.885	5.53595
576.083	6.33665
576.281	5.1777
576.478	4.29737
576.676	5.13963
576.874	3.93256
577.071	4.70393
577.269	6.30696
577.467	4.68904
577.664	4.91025
577.862	5.3636
578.059	4.32951
578.257	5.35848
578.455	4.66787
578.652	4.81305
578.85	3.55131
579.047	4.99558
579.245	4.6373
579.442	4.9388
579.64	4.7663
579.837	3.64938
580.034	6.86097
580.232	4.66356
580.429	4.2251
580.627	5.39754
580.824	5.87371
581.021	5.2851
581.219	4.63779
581.416	4.41924
581.613	5.92128
581.811	5.85591
582.008	4.38384
582.205	5.64957
582.402	5.22679
582.6	6.15574
582.797	5.10135
582.994	5.4352
583.191	5.76312
583.388	4.99247
583.586	5.69877
583.783	6.03392
583.98	4.28106
584.177	5.22266
584.374	3.06701
584.571	4.89694
584.768	5.16967
584.965	4.72248
585.162	5.78897
585.359	6.20328
585.556	5.13662
585.753	5.36524
585.95	4.16499
586.147	4.51131
586.344	5.50217
586.541	4.97321
586.738	4.1515
586.935	5.00027
587.132	4.63492
587.329	5.96607
587.526	5.21165
587.722	9.0245
587.919	3.99519
588.116	5.40088
588.313	6.26169
588.51	6.8316
588.706	4.92721
588.903	5.48819
589.1	5.94878
589.297	7.37657
589.493	4.99098
589.69	5.6599
589.887	4.69051
590.083	4.17109
590.28	4.68843
590.477	6.03091
590.673	5.54916
590.87	6.25629
591.067	4.68028
591.263	5.52537
591.46	5.39353
591.656	4.89024
591.853	6.53334
592.049	4.65822
592.246	4.74149
592.442	6.05372
592.639	6.18426
592.835	4.39501
593.032	5.43507
593.228	4.09222
593.425	4.11804
593.621	4.00887
593.817	5.34812
594.014	4.52645
594.21	5.41974
594.406	6.30288
594.603	5.42226
594.799	4.73608
594.995	3.36001
595.192	5.96765
595.388	4.70735
595.584	4.75108
595.78	4.05931
595.977	7.45132
596.173	6.48072
596.369	4.91564
596.565	4.36997
596.761	4.06376
596.957	5.97017
597.154	4.46085
597.35	4.66663
597.546	4.57271
597.742	5.42531
597.938	5.22519
598.134	4.38214
598.33	5.19165
598.526	6.13435
598.722	5.52584
598.918	6.72965
599.114	5.94433
599.31	4.11414
599.506	5.30192
599.702	4.76074
599.898	5.67989
600.094	6.14479
600.29	6.05881
600.485	6.14114
600.681	4.84239
600.877	6.70144
601.073	5.46751
601.269	7.32461
601.465	6.57314
601.66	4.57925
601.856	3.76114
602.052	7.33628
602.248	5.06405
602.443	3.5837
602.639	4.26266
602.835	4.67902
603.03	4.52343
603.226	6.02065
603.422	4.5786
603.617	5.00339
603.813	4.92758
604.009	4.58832
604.204	6.15753
604.4	4.08554
604.595	5.96024
604.791	4.42012
604.986	5.36215
605.182	4.42719
605.377	4.80469
605.573	4.84191
605.768	5.22702
605.964	5.57007
606.159	5.78047
606.355	6.22206
606.55	4.89714
606.746	6.15944
606.941	5.31826
607.136	6.96183
607.332	7.83077
607.527	4.39978
607.722	5.76417
607.918	5.18234
608.113	4.52751
608.308	6.02738
608.503	5.87927
608.699	5.74449
608.894	5.81774
609.089	4.56411
609.284	5.65474
609.479	4.89783
609.675	5.82506
609.87	5.09656
610.065	5.75771
610.26	5.93012
610.455	5.88312
610.65	5.23033
610.845	5.65055
611.04	6.03034
611.235	5.31054
611.43	5.20542
611.625	4.38234
611.82	6.7671
612.015	4.86853
612.21	7.14713
612.405	4.18855
612.6	7.28409
612.795	7.15897
612.99	6.45434
613.185	4.43557
613.38	4.92408
613.575	5.89852
613.77	8.65871
613.965	4.54706
614.159	4.94955
614.354	6.95731
614.549	6.96927
614.744	6.29003
614.938	4.76306
615.133	4.33249
615.328	7.29744
615.523	7.04187
615.717	8.76839
615.912	5.29953
616.107	5.79977
616.301	5.27869
616.496	4.98228
616.691	7.57025
616.885	6.51585
617.08	8.64311
617.274	6.94724
617.469	8.19052
617.664	6.54422
617.858	5.38597
618.053	6.20153
618.247	5.56885
618.442	3.69317
618.636	7.3508
618.831	5.12025
619.025	5.24968
619.219	9.07586
619.414	2.71473
619.608	5.74265
619.803	4.8844
619.997	8.2036
620.191	7.15812
620.386	6.19793
620.58	6.04949
620.774	4.13286
620.969	4.22033
621.163	6.04415
621.357	4.65238
621.551	5.70074
621.746	6.04077
621.94	5.72575
622.134	9.75084
622.328	8.46016
622.522	4.41595
622.716	6.97452
622.911	6.9623
623.105	6.80969
623.299	6.44038
623.493	9.64629
623.687	5.13155
623.881	5.28672
624.075	6.89332
624.269	7.36436
624.463	3.96749
624.657	4.234
624.851	6.78852
625.045	7.04866
625.239	6.93144
625.433	5.19331
625.627	7.89056
625.821	5.21425
626.015	5.00223
626.209	5.98789
626.403	4.1039
626.596	6.26504
626.79	6.53942
626.984	4.71937
627.178	6.45857
627.372	6.2655
627.565	6.63598
627.759	4.49784
627.953	4.74184
628.147	6.16313
628.34	6.8606
628.534	8.46247
628.728	5.58925
628.921	7.09197
629.115	6.94516
629.309	7.09085
629.502	7.32641
629.696	6.35824
629.89	6.08345
630.083	6.07201
630.277	6.45438
630.47	8.20874
630.664	5.87191
630.857	4.53267
631.051	7.19702
631.244	7.63337
631.438	7.55043
631.631	5.44136
631.825	7.57202
632.018	6.86329
632.212	8.52709
632.405	7.75846
632.598	5.16911
632.792	6.61074
632.985	3.55842
633.178	5.66015
633.372	6.33528
633.565	6.06654
633.758	7.72904
633.952	5.18916
634.145	5.06339
634.338	5.99764
634.531	5.64771
634.724	5.26736
634.918	6.2548
635.111	5.6978
635.304	5.4826
635.497	9.09809
635.69	6.7498
635.883	7.52096
636.077	5.17889
636.27	6.72893
636.463	6.74527
636.656	6.77709
636.849	6.04608
637.042	7.27352
637.235	9.08817
637.428	7.37609
637.621	6.95367
637.814	8.72298
638.007	8.52893
638.2	8.52653
638.393	9.38816
638.586	4.97089
638.778	6.14633
638.971	6.66126
639.164	8.56573
639.357	7.25193
639.55	8.7845
639.743	7.69646
639.935	7.66551
640.128	10.30403
640.321	8.12536
640.514	7.11527
640.707	10.35253
640.899	8.01816
641.092	4.95685
641.285	22.47054
641.477	4.21106
641.67	10.67389
641.863	8.71142
642.055	7.33458
642.248	7.11008
642.441	6.91382
642.633	8.09256
642.826	8.7203
643.018	9.233
643.211	9.99333
643.403	10.38135
643.596	10.59314
643.788	9.58375
643.981	6.54602
644.173	8.34939
644.366	6.60573
644.558	4.81841
644.751	8.59655
644.943	5.5053
645.135	9.9334
645.328	9.80749
645.52	8.80158
645.712	9.05835
645.905	12.34608
646.097	5.80579
646.289	8.13613
646.482	11.10786
646.674	6.39748
646.866	9.24317
647.058	8.2708
647.251	6.16448
647.443	6.81354
647.635	7.09226
647.827	6.01271
648.019	5.92507
648.211	7.30542
648.404	8.07263
648.596	10.39615
648.788	8.20962
648.98	7.8233
649.172	8.45798
649.364	8.40847
649.556	5.19975
649.748	11.65949
649.94	6.13943
650.132	8.71352
650.324	6.52014
650.516	6.29014
650.708	9.23849
650.9	5.42955
651.092	5.31814
651.284	5.31338
651.476	5.77332
651.667	8.55776
651.859	10.00739
652.051	7.65329
652.243	7.97616
652.435	7.15819
652.627	8.41268
652.818	8.53093
653.01	5.01012
653.202	6.59048
653.394	6.90596
653.585	8.41785
653.777	15.01544
653.969	10.52657
654.16	9.73626
654.352	6.12695
654.544	7.65534
654.735	9.86694
654.927	7.92886
655.118	10.44273
655.31	9.40304
655.502	9.92978
655.693	7.0798
655.885	8.81856
656.076	10.67707
656.268	8.36626
656.459	10.5957
656.651	10.42937
656.842	7.34606
657.034	6.85421
657.225	9.43992
657.416	10.31592
657.608	10.36502
657.799	7.93971
657.99	10.10014
658.182	6.49234
658.373	6.73397
658.564	9.77199
658.756	8.23797
658.947	7.62575
659.138	6.28245
659.33	6.90642
659.521	6.59852
659.712	7.46111
659.903	7.24796
660.094	6.71012
660.286	5.43031
660.477	10.82362
660.668	9.07261
660.859	7.79765
661.05	5.75143
661.241	8.78232
661.432	8.65554
661.623	7.46407
661.814	7.25415
662.006	5.41506
662.197	8.67953
662.388	10.3515
662.579	8.70258
662.77	10.34556
662.96	13.46261
663.151	10.52939
663.342	5.1536
663.533	9.60525
663.724	8.43563
663.915	12.18931
664.106	8.88784
664.297	12.38873
664.488	9.37145
664.678	7.45356
664.869	10.09272
665.06	10.36669
665.251	9.0842
665.442	10.06925
665.632	6.93377
665.823	12.99467
666.014	3.61383
666.204	10.01479
666.395	11.37313
666.586	13.51366
666.776	10.47513
666.967	12.5033
667.158	9.01771
667.348	11.95849
667.539	7.14489
667.729	10.71001
667.92	7.94677
668.111	10.81976
668.301	10.41965
668.492	8.42737
668.682	9.33655
668.873	8.80849
669.063	7.03814
669.253	8.95906
669.444	11.90357
669.634	8.92577
669.825	12.64967
670.015	11.1427
670.206	7.62317
670.396	13.19669
670.586	8.67199
670.777	10.07435
670.967	5.15665
671.157	8.68454
671.347	8.08519
671.538	12.34478
671.728	10.66019
671.918	12.90301
672.108	10.97923
672.299	8.79315
672.489	9.87668
672.679	7.89005
672.869	11.01224
673.059	14.00163
673.249	10.59631
673.44	7.17229
673.63	9.14606
673.82	11.78485
674.01	7.47397
674.2	10.46492
674.39	15.39575
674.58	10.89005
674.77	9.73657
674.96	9.42579
675.15	18.6825
675.34	11.86217
675.53	10.17395
675.72	8.66338
675.91	6.59417
676.099	13.67806
676.289	15.24537
676.479	12.30952
676.669	8.94958
676.859	10.86472
677.049	8.34452
677.238	10.25678
677.428	13.60133
677.618	10.60757
677.808	14.33809
677.997	10.69239
678.187	7.99051
678.377	9.88938
678.567	8.426
678.756	9.14846
678.946	9.65105
679.136	7.01572
679.325	8.28323
679.515	7.88647
679.704	6.87747
679.894	11.84651
680.084	10.48793
680.273	12.07046
680.463	7.56576
680.652	7.70061
680.842	9.3253
681.031	11.74308
681.221	7.72659
681.41	10.52199
681.6	9.21761
681.789	11.25628
681.978	12.09043
682.168	10.67942
682.357	10.60303
682.547	10.76626
682.736	10.29524
682.925	12.68303
683.115	12.99169
683.304	11.39027
683.493	10.42892
683.682	11.48208
683.872	11.03407
684.061	12.77222
684.25	11.66928
684.439	16.26104
684.629	12.2603
684.818	18.54902
685.007	10.40705
685.196	9.94386
685.385	15.48031
685.574	12.02169
685.763	11.42938
685.952	11.22568
686.142	8.02958
686.331	14.10006
686.52	7.45772
686.709	16.01212
686.898	15.58093
687.087	12.37294
687.276	15.2629
687.465	14.22684
687.654	10.34201
687.842	14.98811
688.031	8.16438
688.22	15.01129
688.409	11.52835
688.598	11.97109
688.787	17.55305
688.976	11.34487
689.165	16.29942
689.353	10.1885
689.542	12.85728
689.731	14.49864
689.92	17.20309
690.108	13.69796
690.297	11.17136
690.486	12.09609
690.675	13.44197
690.863	16.48105
691.052	15.51607
691.241	12.79448
691.429	13.01332
691.618	15.53039
691.806	9.2205
691.995	11.42954
692.184	11.78594
692.372	11.39914
692.561	12.04652
692.749	12.68855
692.938	21.29787
693.126	13.82775
693.315	11.51705
693.503	14.16507
693.692	15.13019
693.88	14.95891
694.068	17.91661
694.257	13.01005
694.445	14.15292
694.634	7.71277
694.822	14.94166
695.01	15.65559
695.199	18.97629
695.387	17.17185
695.575	16.27259
695.763	12.13865
695.952	11.71549
696.14	8.54321
696.328	11.0395
696.516	13.10585
696.705	13.38511
696.893	12.94439
697.081	8.04402
697.269	14.88142
697.457	9.77087
697.645	8.94343
697.833	14.32085
698.021	9.77743
698.21	10.23279
698.398	11.05105
698.586	8.77732
698.774	7.49463
698.962	11.3428
699.15	8.69469
699.338	7.65944
699.526	12.39818
699.714	9.40832
699.901	9.60128
700.089	12.91057
700.277	9.48387
700.465	11.03813
700.653	13.55316
700.841	13.07359
701.029	10.04016
701.217	16.4054
701.404	12.4033
701.592	15.85784
701.78	19.53826
701.968	11.98466
702.155	11.40976
702.343	9.52848
702.531	16.7217
702.718	14.31418
702.906	11.77768
703.094	11.98792
703.281	17.41629
703.469	12.12963
703.657	17.06059
703.844	23.65283
704.032	19.52012
704.219	12.52983
704.407	15.2778
704.595	18.54656
704.782	15.05299
704.97	13.22398
705.157	12.6986
705.345	20.39393
705.532	25.45627
705.719	16.64536
705.907	20.10844
706.094	16.66002
706.282	22.91763
706.469	16.82306
706.656	17.38967
706.844	15.93467
707.031	21.10834
707.218	18.84362
707.406	22.88932
707.593	20.31228
707.78	20.2953
707.968	18.43555
708.155	15.55862
708.342	21.18665
708.529	20.48363
708.716	19.30183
708.904	24.05919
709.091	20.67148
709.278	15.31368
709.465	24.39337
709.652	23.89858
709.839	22.95635
710.026	18.64225
710.213	12.76098
710.4	18.88977
710.587	20.13407
710.774	21.85398
710.961	21.27
711.148	18.55909
711.335	21.11659
711.522	17.55757
711.709	20.17766
711.896	24.80984
712.083	22.01929
712.27	15.36606
712.457	19.23835
712.644	13.45319
712.831	25.54509
713.017	19.59504
713.204	20.85848
713.391	15.77635
713.578	21.78526
713.765	22.94961
713.951	19.23061
714.138	29.19661
714.325	19.00258
714.512	17.56663
714.698	14.53898
714.885	22.17127
715.072	17.23386
715.258	17.13866
715.445	14.86521
715.631	20.96221
715.818	7.78066
716.005	14.44143
716.191	18.75047
716.378	15.0716
716.564	18.76578
716.751	13.2166
716.937	15.08
717.124	19.63829
717.31	13.0321
717.497	23.83914
717.683	13.70153
717.869	22.75166
718.056	14.89763
718.242	19.11936
718.429	15.89916
718.615	12.36285
718.801	16.00719
718.988	21.13592
719.174	18.71585
719.36	15.06743
719.547	22.05993
719.733	18.17148
719.919	17.47238
720.105	19.22584
720.291	17.07267
720.478	17.8387
720.664	16.17513
720.85	14.60318
721.036	28.61141
721.222	23.87243
721.408	16.85979
721.595	24.14742
721.781	23.8092
721.967	22.15583
722.153	23.7527
722.339	20.48239
722.525	19.24571
722.711	13.21907
722.897	12.35024
723.083	16.45372
723.269	22.51124
723.455	30.06928
723.641	35.77162
723.827	18.59734
724.012	19.98673
724.198	18.36934
724.384	24.24249
724.57	19.71611
724.756	12.44771
724.942	10.02465
725.127	23.52357
725.313	23.74142
725.499	23.62035
725.685	26.8468
725.87	19.79075
726.056	14.65923
726.242	23.94699
726.428	12.10879
726.613	21.86136
726.799	16.69819
726.985	14.1893
727.17	11.89961
727.356	28.16348
727.541	14.98281
727.727	17.85596
727.913	21.7531
728.098	15.98738
728.284	21.51686
728.469	12.87578
728.655	14.59312
728.84	23.07286
729.026	21.31507
729.211	21.49009
729.397	20.02579
729.582	22.69456
729.767	17.74117
729.953	20.33635
730.138	24.47793
730.323	8.46599
730.509	13.92748
730.694	25.73177
730.879	21.11187
731.065	19.84798
731.25	29.98841
731.435	21.40992
731.621	12.17222
731.806	16.13916
731.991	19.62421
732.176	13.52397
732.361	26.44775
732.547	20.16269
732.732	12.0223
732.917	29.72829
733.102	13.71081
733.287	16.13408
733.472	18.52809
733.657	18.68631
733.842	12.76816
734.027	16.07728
734.212	17.65294
734.397	15.95011
734.582	18.45298
734.767	22.56639
734.952	24.6949
735.137	8.78169
735.322	25.48538
735.507	20.75015
735.692	19.92338
735.877	29.49036
736.062	28.40223
736.247	20.35972
736.431	18.77931
736.616	24.35849
736.801	20.74767
736.986	19.40203
737.171	14.82068
737.355	14.23559
737.54	25.3259
737.725	19.91627
737.909	33.08206
738.094	16.81635
738.279	23.12928
738.463	18.98789
738.648	22.25459
738.833	21.80184
739.017	31.26234
739.202	18.29069
739.386	18.68949
739.571	15.13823
739.756	24.04972
739.94	19.13084
740.125	22.82841
740.309	16.76827
740.494	23.7184
740.678	20.70993
740.863	21.93613
741.047	20.0717
741.231	27.75435
741.416	17.1423
741.6	28.29343
741.785	16.15811
741.969	24.81783
742.153	28.53205
742.338	9.51675
742.522	18.9014
742.706	25.0065
742.89	14.24068
743.075	19.86402
743.259	27.49554
743.443	26.47041
743.627	27.17074
743.812	32.76578
743.996	13.17613
744.18	19.34515
744.364	18.46388
744.548	35.47969
744.732	19.16573
744.916	26.33999
745.1	24.04445
745.285	19.13785
745.469	24.02352
745.653	30.08927
745.837	14.28355
746.021	34.60137
746.205	28.77595
746.389	21.57842
746.573	19.90474
746.757	28.93967
746.94	17.48672
747.124	28.35267
747.308	15.41915
747.492	27.38459
747.676	15.66493
747.86	35.68832
748.044	18.96186
748.227	12.2848
748.411	44.49289
748.595	22.34195
748.779	16.7972
748.963	22.72648
749.146	22.18175
749.33	16.19929
749.514	16.89109
749.697	27.94311
749.881	16.3067
750.065	14.93451
750.248	22.22559
750.432	36.23737
750.616	21.57746
750.799	15.04746
750.983	37.56704
751.166	36.0357
751.35	13.39141
751.533	25.74637
751.717	30.60999
751.9	30.73271
752.084	19.97485
752.267	16.76241
752.451	17.30666
752.634	21.87152
752.818	25.22422
753.001	28.10181
753.184	29.20555
753.368	23.58752
753.551	4.71284
753.734	16.58289
753.918	37.84021
754.101	17.49233
754.284	26.37511
754.467	19.71512
754.651	17.48868
754.834	16.42535
755.017	27.91038
755.2	28.43753
755.384	14.39406
755.567	26.09892
755.75	27.82639
755.933	19.20671
756.116	27.52392
756.299	18.80657
756.482	16.13033
756.665	26.12139
756.848	21.52514
757.032	24.59294
757.215	14.56481
757.398	16.02534
757.581	16.27984
757.764	40.56891
757.947	21.9989
758.129	27.81222
758.312	7.23447
758.495	21.84134
758.678	20.75519
758.861	20.27045
759.044	34.83603
759.227	16.85334
759.41	17.3724
759.592	26.67127
759.775	19.91908
759.958	28.32159
760.141	14.89017
760.324	37.62613
760.506	31.88942
760.689	27.52937
760.872	37.56942
761.054	24.8377
761.237	20.60818
761.42	24.41014
761.602	27.08938
761.785	24.11696
761.968	29.22937
762.15	35.30175
762.333	21.44297
762.515	25.90356
762.698	19.00615
762.88	28.40161
763.063	25.268
763.245	29.70317
763.428	16.94614
763.61	19.03605
763.793	14.87641
763.975	24.4198
764.158	20.13461
764.34	17.91073
764.522	16.45854
764.705	19.1879
764.887	31.21068
765.069	12.68997
765.252	25.91122
765.434	24.87579
765.616	22.90175
765.799	16.1621
765.981	26.14868
766.163	16.23355
766.345	29.93251
766.528	17.32104
766.71	9.34913
766.892	23.71649
767.074	31.15596
767.256	20.10758
767.438	34.64889
767.62	24.3325
767.802	39.14889
767.985	27.18328
768.167	33.9505
768.349	18.7798
768.531	26.69967
768.713	23.65038
768.895	28.69823
769.077	25.65
769.259	41.01783
769.441	58.78388
769.623	28.0519
769.804	33.95441
769.986	32.38281
770.168	39.52741
770.35	49.40873
770.532	36.64145
770.714	40.58473
770.896	40.13826
771.077	15.94966
771.259	40.56429
771.441	38.68696
771.623	43.83267
771.804	57.03835
771.986	17.29394
772.168	29.81941
772.35	41.59424
772.531	55.92469
772.713	35.08081
772.894	46.36465
773.076	34.95853
773.258	28.60894
773.439	47.93217
773.621	52.78765
773.802	22.6043
773.984	29.79141
774.166	36.54372
774.347	50.66499
774.529	44.48331
774.71	15.32082
774.891	32.55653
775.073	29.35794
775.254	47.91322
775.436	26.80913
775.617	60.20433
775.799	29.86037
775.98	48.05438
776.161	54.50808
776.343	55.10872
776.524	35.19599
776.705	31.48098
776.886	17.26019
777.068	37.90298
777.249	85.02148
777.43	58.59139
777.611	21.1642
777.793	32.09656
777.974	56.95877
778.155	28.24514
778.336	25.39794
778.517	64.47272
778.698	26.36145
778.879	14.89419
779.061	8.63296
779.242	40.34373
779.423	39.51746
779.604	28.87281
779.785	30.49017
779.966	36.98869
780.147	47.93854
780.328	47.56642
780.509	67.01855
780.69	47.16392
780.871	28.28132
781.051	19.14059
781.232	37.60219
781.413	36.25104
781.594	30.59164
781.775	29.67187
781.956	25.60567
782.137	13.08138
782.317	29.36888
782.498	35.62217
782.679	35.44371
782.86	37.69021
783.04	27.0835
783.221	35.41186
783.402	59.23371
783.583	34.2971
783.763	46.05973
783.944	27.80983
784.124	20.01349
784.305	57.29359
784.486	43.99392
784.666	35.30594
784.847	18.65748
785.027	78.59177
785.208	27.41778
785.388	27.57509
785.569	26.84782
785.749	32.97608
785.93	29.90204
786.11	17.92718
786.291	41.23868
786.471	38.86496
786.652	46.38225
786.832	32.82603
787.012	38.62921
787.193	22.64949
787.373	36.1808
787.553	30.44536
787.734	36.81103
787.914	30.47433
788.094	48.87154
788.275	38.92732
788.455	31.12589
788.635	22.44433
788.815	37.89321
788.995	23.58322
789.176	18.89454
789.356	26.64883
789.536	31.5012
789.716	40.57346
789.896	27.13355
790.076	28.18305
790.256	39.4032
790.436	12.64114
790.616	23.59638
790.796	38.49599
790.976	29.73348
791.156	27.39821
791.336	40.61169
791.516	38.94921
791.696	31.80201
791.876	18.77003
792.056	36.40567
792.236	46.20749
792.416	44.27498
792.596	37.51827
792.776	40.2633
792.956	43.2159
793.135	56.64579
793.315	22.61662
793.495	46.69957
793.675	43.87904
793.854	42.23943
794.034	46.45824
794.214	21.79916
794.394	43.77387
794.573	49.92359
794.753	37.54918
794.933	24.63571
795.112	36.71534
795.292	46.24707
795.472	56.63255
795.651	20.18713
795.831	34.89693
796.01	31.14526
796.19	32.28523
796.369	34.00641
796.549	40.50414
796.728	32.27598
796.908	19.37056
797.087	21.27355
797.267	31.87713
797.446	22.36279
797.626	39.75173
797.805	40.17109
797.984	26.93508
798.164	43.11469
798.343	26.31008
798.522	36.90027
798.702	35.1094
798.881	22.08967
799.06	30.67954
799.239	14.98444
799.419	24.38748
799.598	56.23518
799.777	38.9547
799.956	49.22721
800.136	31.19473
800.315	25.67747
800.494	38.15953
800.673	46.93613
800.852	42.25678
801.031	47.93629
801.21	41.48062
801.389	27.70757
801.568	36.62613
801.747	57.26642
801.926	34.93729
802.105	53.49754
802.284	29.52266
802.463	53.28561
802.642	37.21722
802.821	37.12688
803	50.98179
803.179	46.69995
803.358	49.25201
803.537	26.23989
803.716	35.24894
803.895	26.65606
804.073	32.26921
804.252	25.07654
804.431	40.62176
804.61	31.99567
804.789	44.23258
804.967	30.06214
805.146	29.17659
805.325	64.4109
805.503	40.44009
805.682	19.91208
805.861	78.24777
806.039	53.32281
806.218	28.82824
806.397	37.96092
806.575	34.09552
806.754	39.28924
806.932	24.89556
807.111	48.97652
807.289	45.46121
807.468	35.51187
807.646	47.10028
807.825	42.08633
808.003	37.5935
808.182	48.97532
808.36	36.5956
808.539	25.57683
808.717	55.4975
808.895	27.29733
809.074	38.58361
809.252	34.27154
809.43	44.60447
809.609	52.26396
809.787	56.96041
809.965	32.78847
810.144	34.4199
810.322	34.96276
810.5	41.00249
810.678	31.09379
810.856	66.10471
811.035	46.34497
811.213	43.4783
811.391	53.5771
811.569	37.77089
811.747	84.0457
811.925	51.14386
812.103	28.11619
812.281	33.39256
812.459	61.36202
812.637	59.83571
812.816	47.26785
812.994	65.90908
813.171	55.75311
813.349	45.71901
813.527	50.99223
813.705	58.97784
813.883	70.63481
814.061	48.0306
814.239	61.0746
814.417	66.33083
814.595	46.94194
814.773	44.60391
814.95	38.41208
815.128	43.10732
815.306	39.17733
815.484	37.1055
815.662	27.23061
815.839	23.81553
816.017	29.38201
816.195	55.87059
816.372	30.03498
816.55	47.21535
816.728	60.90445
816.905	34.10937
817.083	59.08297
817.261	39.41942
817.438	82.1789
817.616	62.12673
817.793	32.15521
817.971	48.81768
818.148	47.8656
818.326	56.43525
818.503	42.08752
818.681	61.60555
818.858	34.29728
819.036	38.64742
819.213	41.22628
819.391	30.62012
819.568	31.12287
819.745	27.7269
819.923	48.33263
820.1	34.81286
820.277	28.47504
820.455	35.07389
820.632	36.66159
820.809	39.19028
820.986	24.48813
821.164	20.80506
821.341	17.41754
821.518	28.47023
821.695	20.03463
821.872	17.42285
822.05	15.1195
822.227	11.52199
822.404	12.44957
822.581	14.7697
822.758	11.64865
822.935	12.18216
823.112	13.86886
823.289	10.9662
823.466	14.02872
823.643	12.69886
823.82	15.40087
823.997	13.37335
824.174	16.17508
824.351	22.36023
824.528	20.84452
824.705	19.0312
824.882	20.38736
825.059	27.07304
825.236	18.73172
825.412	20.02128
825.589	25.20338
825.766	37.86798
825.943	21.92342
826.12	26.08386
826.296	18.40205
826.473	24.48811
826.65	24.40188
826.827	29.64225
827.003	19.18864
827.18	21.85681
827.357	24.45178
827.533	20.26519
827.71	11.43726
827.887	17.95837
828.063	21.22891
828.24	16.87123
828.416	23.58824
828.593	19.68445
828.769	28.35845
828.946	28.94822
829.122	30.24881
829.299	28.87655
829.475	16.9054
829.652	29.35319
829.828	48.25133
830.005	29.78955
830.181	41.35897
830.357	30.52145
830.534	43.29243
830.71	32.21567
830.886	44.11109
831.063	40.004
831.239	53.55001
831.415	26.94169
831.592	55.4202
831.768	33.16221
831.944	29.26453
832.12	60.30461
832.296	55.96134
832.473	47.03243
832.649	30.59357
832.825	48.22747
833.001	27.76791
833.177	40.86193
833.353	38.49121
833.529	22.00919
833.705	34.40261
833.881	21.7498
834.058	20.93072
834.234	23.34025
834.41	22.63495
834.586	17.57614
834.761	21.11794
834.937	23.48969
835.113	24.73438
835.289	20.68375
835.465	24.33664
835.641	21.45884
835.817	24.92999
835.993	42.80307
836.169	21.11537
836.344	32.99618
836.52	38.78157
836.696	35.08382
836.872	29.70107
837.048	84.92212
837.223	30.93993
837.399	61.03468
837.575	49.34278
837.75	43.58673
837.926	63.04186
838.102	96.71001
838.277	76.61662
838.453	108.01377
838.628	108.44891
838.804	38.81416
838.98	90.95441
839.155	48.90464
839.331	64.64303
839.506	45.95375
839.682	43.70553
839.857	66.89499
840.033	79.75168
840.208	34.75031
840.384	15.9668
840.559	34.66854
840.734	57.04146
840.91	73.11517
841.085	40.86967
841.26	44.24162
841.436	40.18455
841.611	38.56701
841.786	58.74585
841.962	76.42326
842.137	50.09595
842.312	29.41691
842.487	43.0145
842.663	33.52506
842.838	45.01092
843.013	142.7579
843.188	68.88344
843.363	74.48166
843.538	119.61541
843.714	117.30056
843.889	122.67955
844.064	127.6789
844.239	108.04782
844.414	124.78982
844.589	82.3912
844.764	157.09898
844.939	157.55971
845.114	165.10633
845.289	156.1322
845.464	214.73923
845.639	142.45768
845.814	73.09712
845.989	88.18274
846.163	102.11688
846.338	111.12305
846.513	155.19242
846.688	99.18846
846.863	105.1229
847.038	91.06699
847.212	102.36977
847.387	111.00247
847.562	114.29289
847.737	136.28195
847.911	48.61082
848.086	59.8357
848.261	232.66828
848.435	99.13784
848.61	148.29005
848.785	75.17531
848.959	151.32139
849.134	205.32216
849.308	212.24942
849.483	108.19681
849.658	180.03388
849.832	96.45422
850.007	84.64168
850.181	238.77737
850.356	86.95976
850.53	227.3353
850.705	69.77685
850.879	39.81392
851.053	101.52975
851.228	90.49506
851.402	121.36787
851.577	156.29058
851.751	178.57239
851.925	116.39334
852.099	53.00231
852.274	80.47048
852.448	105.46218
852.622	141.00835
852.797	107.96573
852.971	110.25708
853.145	115.34324
853.319	346.62041
853.493	168.54435
853.668	86.88499
853.842	206.58473
854.016	169.80031
854.19	194.91366
854.364	119.6214
854.538	130.41309
854.712	174.361
854.886	104.85601
855.06	101.49212
855.234	37.98551
855.408	184.10391
855.582	159.08077
855.756	159.08575
855.93	206.22338
856.104	138.16047
856.278	155.12646
856.452	115.52727
856.626	153.52904
856.8	255.1591
856.973	140.87354
857.147	133.10013
857.321	138.13843
857.495	172.62856
857.669	116.00345
857.842	100.95679
858.016	170.05705
858.19	83.22316
858.364	279.88207
858.537	100.02348
858.711	121.46656
858.885	107.14
859.058	96.32095
859.232	50.45437
859.405	56.90857
859.579	160.00654
859.753	136.92839
859.926	84.60757
860.1	62.89072
860.273	119.38728
860.447	192.67249
860.62	103.14906
860.794	239.73155
860.967	131.92674
861.141	173.43776
861.314	248.20556
861.487	149.89256
861.661	191.10799
861.834	192.37781
862.008	169.82978
862.181	121.70374
862.354	126.99589
862.528	147.04866
862.701	95.87977
862.874	67.89224
863.047	105.53533
863.221	105.63391
863.394	55.63008
863.567	201.02977
863.74	38.35708
863.913	159.13824
864.087	136.42824
864.26	167.55953
864.433	111.17391
864.606	218.39366
864.779	125.75107
864.952	50.95501
865.125	97.96586
865.298	113.43829
865.471	116.03764
865.644	252.50105
865.817	197.00091
865.99	166.54402
866.163	187.24132
866.336	107.22626
866.509	115.7985
866.682	104.74979
866.855	178.64258
867.028	73.71428
867.2	151.49675
867.373	47.95751
867.546	138.32188
867.719	244.24498
867.892	147.69962
868.064	85.17779
868.237	139.81283
868.41	118.63377
868.583	71.28376
868.755	69.27586
868.928	120.83447
869.101	261.62085
869.273	178.05092
869.446	150.84742
869.619	183.27545
869.791	115.11989
869.964	183.12065
870.136	164.80126
870.309	131.23778
870.481	128.07086
870.654	59.89298
870.826	129.48129
870.999	108.96193
871.171	172.19611
871.344	98.74059
871.516	111.26948
871.689	84.87923
871.861	134.02258
872.033	85.58148
872.206	104.28556
872.378	172.65464
872.55	109.77818
872.723	67.48297
872.895	108.05493
873.067	179.59555
873.24	197.87453
873.412	100.89455
873.584	109.56904
873.756	108.52524
873.928	143.56739
874.101	136.70676
874.273	158.75616
874.445	49.72424
874.617	75.29108
874.789	132.24399
874.961	106.12112
875.133	154.42229
875.305	128.08283
875.477	78.11443
875.649	62.83898
875.821	83.41322
875.993	212.26566
876.165	81.16102
876.337	144.42049
876.509	109.51633
876.681	143.05317
876.853	137.71293
877.025	135.08965
877.197	86.96564
877.369	79.37664
877.541	174.20394
877.712	42.78738
877.884	75.69045
878.056	150.78688
878.228	79.72792
878.4	142.86186
878.571	83.37982
878.743	55.73132
878.915	135.43182
879.086	76.78239
879.258	95.56006
879.43	90.96478
879.601	77.18477
879.773	81.10746
879.945	19.48759
880.116	35.1354
880.288	22.50421
880.459	24.2279
880.631	17.53425
880.802	22.42849
880.974	20.21759
881.145	14.21388
881.317	19.22634
881.488	14.13554
881.66	15.60321
881.831	13.86049
882.002	20.33546
882.174	13.90366
882.345	19.18218
882.517	9.56046
882.688	22.25223
882.859	18.7024
883.03	30.63555
883.202	28.16933
883.373	24.94207
883.544	23.54827
883.715	44.95659
883.887	35.19667
884.058	29.38927
884.229	44.08832
884.4	44.46939
884.571	50.65203
884.742	43.31327
884.914	47.6101
885.085	70.80157
885.256	91.53213
885.427	71.21662
885.598	86.66716
885.769	91.4506
885.94	86.05868
886.111	50.93607
886.282	104.17897
886.453	81.87826
886.624	56.78614
886.795	101.89283
886.966	88.74522
887.136	110.86231
887.307	69.44448
887.478	143.97456
887.649	124.56556
887.82	131.59283
887.991	100.16032
888.161	139.00356
888.332	141.63863
888.503	68.9774
888.674	184.3674
888.844	204.04417
889.015	156.46562
889.186	70.32746
889.356	185.68162
889.527	65.22438
889.698	330.00672
889.868	103.02371
890.039	139.53777
890.209	111.30455
890.38	161.02898
890.551	134.96383
890.721	200.94853
890.892	167.57723
891.062	116.04542
891.233	144.91798
891.403	101.99318
891.574	80.99376
891.744	116.42087
891.914	149.13088
892.085	121.58975
892.255	33.92603
892.425	197.54012
892.596	157.49062
892.766	138.55999
892.936	201.80946
893.107	160.49081
893.277	88.51009
893.447	65.09076
893.618	44.61236
893.788	108.19145
893.958	52.94071
894.128	59.78302
894.298	62.99498
894.468	91.45082
894.639	38.77715
894.809	26.33316
894.979	44.8763
895.149	52.90767
895.319	43.00185
895.489	58.78348
895.659	76.83022
895.829	49.9224
895.999	53.2326
896.169	37.24777
896.339	47.59407
896.509	103.14228
896.679	115.57313
896.849	110.46299
897.019	155.56458
897.189	120.39753
897.358	105.01693
897.528	160.79907
897.698	47.17158
897.868	142.35566
898.038	256.75217
898.208	239.40026
898.377	75.29733
898.547	237.53497
898.717	388.02379
898.886	143.72304
899.056	238.63149
899.226	363.77917
899.395	217.4444
899.565	276.94642
899.735	181.94275
899.904	292.74482
900.074	254.04542
900.244	102.36095
900.413	466.77228
900.583	103.01457
900.752	175.49671
900.922	286.46262
901.091	33.44425
901.261	241.2173
901.43	226.55179
901.599	223.55879
901.769	525.01816
901.938	270.81843
902.108	266.98269
902.277	330.99217
902.446	81.38108
902.616	100.5313
902.785	154.64613
902.954	265.58644
903.124	177.46509
903.293	153.11925
903.462	75.53385
903.631	111.6275
903.801	80.46184
903.97	41.42868
904.139	72.52931
904.308	53.63339
904.477	40.79319
904.646	26.04412
904.816	39.13597
904.985	58.3948
905.154	91.06396
