Data from WindowProjectSample_Transmission__80__00080__06927680648967406.txt Node

Date: Mon May 05 18:51:33 EDT 2025
User: jessi
Spectrometer: SR400872
Trigger mode: 0
Integration Time (sec): 5.000010E-1
Scans to average: 20
Electric dark correction enabled: true
Nonlinearity correction enabled: true
Boxcar width: 0
XAxis mode: Wavelengths
Number of Pixels in Spectrum: 3648
>>>>>Begin Spectral Data<<<<<
184.909	21488.53795
185.132	-5229.62341
185.355	-3174.22846
185.578	-18548.03661
185.801	1576.79984
186.024	10296.17879
186.247	-2092.94399
186.47	1088.23156
186.693	580.00701
186.916	221.25617
187.139	-3834.6404
187.362	3781.29808
187.585	4101.06648
187.808	4001.55207
188.031	-54.68617
188.254	-53189.96326
188.476	-689.83716
188.699	6559.55623
188.922	695.68522
189.145	-16093.29531
189.368	-600.56368
189.591	-1227.14017
189.813	3109.54241
190.036	-53041.56317
190.259	-931.58141
190.482	-4429.45427
190.705	7478.30802
190.927	-2602.70807
191.15	13871.28774
191.373	3431.61877
191.595	-8741.84503
191.818	-4210.45608
192.041	-6599.39902
192.263	-3442.5667
192.486	-871.26202
192.709	-4101.97354
192.931	8332.12836
193.154	-28602.36677
193.377	-2878.63794
193.599	-2729.22191
193.822	-9221.67631
194.044	-1977.9368
194.267	1221.95454
194.489	285.6683
194.712	-43454.77093
194.934	-32701.23239
195.157	1185.49796
195.379	1488.63537
195.602	-6811.99225
195.824	-1352.46629
196.047	-9382.20765
196.269	2803.21769
196.492	-6778.78098
196.714	29326.35858
196.936	-9078.82646
197.159	-1251.64653
197.381	1169.20679
197.604	529.72196
197.826	12046.16663
198.048	-10581.48746
198.271	-2970.47931
198.493	7734.79333
198.715	2381.91217
198.938	-488.05332
199.16	7357.44162
199.382	-105476.06494
199.604	2770.77472
199.827	-1111.96054
200.049	-2980.03934
200.271	14527.26408
200.493	1238.37757
200.715	-39771.56274
200.938	-6306.00996
201.16	-4430.99346
201.382	22035.14734
201.604	2403.71906
201.826	2305.88401
202.048	-2054.18172
202.27	-2052.60741
202.492	-38289.67886
202.715	3047.7578
202.937	-4653.1182
203.159	-6325.63498
203.381	1593.215
203.603	6799.4314
203.825	6652.89834
204.047	2309.14363
204.269	-2960.89833
204.491	2279.67475
204.713	5929.64296
204.935	-482340.9977
205.156	1191.56049
205.378	-3253.51104
205.6	1759.43456
205.822	156566.24909
206.044	-976.59011
206.266	1622.70778
206.488	4842.72526
206.71	-5222.8964
206.932	1154.88392
207.153	12056.26829
207.375	-7021.48561
207.597	-39270.05883
207.819	-2945.89964
208.041	2439.06788
208.262	477.80033
208.484	677.52228
208.706	-883.45807
208.927	-975.45529
209.149	562.761
209.371	-2986.46614
209.593	-331.04765
209.814	-814.87971
210.036	513.15603
210.258	-656.18083
210.479	1668.06561
210.701	1763.16358
210.922	3506.44073
211.144	-4337.75656
211.366	2164.94071
211.587	8868.28602
211.809	-8342.43205
212.03	2457.8243
212.252	528.01906
212.473	2168.33287
212.695	-6255.11867
212.916	2921.72691
213.138	-750.19095
213.359	3865.40128
213.581	5517.70596
213.802	-945.14108
214.024	1145.31028
214.245	2189.61801
214.466	3467.51244
214.688	-3308.53779
214.909	-1187.78365
215.131	-1770.24925
215.352	-3321.98421
215.573	15311.43725
215.795	5339.04398
216.016	5623.30171
216.237	861.79398
216.459	3673.47559
216.68	2020.64645
216.901	5389.92399
217.122	-3348.85451
217.344	-11685.86525
217.565	3536.56767
217.786	9147.48441
218.007	17472.94643
218.228	-870.38131
218.45	5708.72903
218.671	850.3833
218.892	38107.58449
219.113	1598.56713
219.334	-277.51403
219.555	10355.78488
219.776	3222.07353
219.997	22881.02062
220.219	3034.34757
220.44	-11476.60475
220.661	492.32771
220.882	1545.49847
221.103	-1189.01491
221.324	2227.07974
221.545	2389.32124
221.766	-9567.93146
221.987	911.42132
222.208	1779.86981
222.429	4393.09799
222.65	250.74558
222.87	20319.69106
223.091	754.14451
223.312	613.54171
223.533	1413.64415
223.754	1519.16038
223.975	1427.545
224.196	2025.86578
224.417	1352.98622
224.637	628.8629
224.858	60.67594
225.079	1132.96654
225.3	639.71701
225.521	3764.50543
225.741	502.30626
225.962	524.08559
226.183	147.49693
226.404	697.22203
226.624	435.86051
226.845	677.88169
227.066	427.55538
227.286	254.44823
227.507	115.54908
227.728	122.63657
227.948	240.12008
228.169	79.02561
228.389	87.51192
228.61	46.12947
228.831	66.61247
229.051	3.26514
229.272	38.81007
229.492	58.8822
229.713	12.02582
229.933	38.54461
230.154	34.86801
230.374	55.97433
230.595	38.91901
230.815	24.3825
231.036	39.33107
231.256	-8.32089
231.477	71.87913
231.697	40.81812
231.917	37.00992
232.138	57.60509
232.358	111.59461
232.579	107.75255
232.799	21.88067
233.019	102.42574
233.24	115.15363
233.46	41.5817
233.68	65.14655
233.901	46.08851
234.121	27.60448
234.341	12.29393
234.561	-3.39162
234.782	21.41834
235.002	69.57169
235.222	-3.7453
235.442	66.53225
235.662	29.91221
235.883	63.61741
236.103	52.85807
236.323	36.75836
236.543	30.97738
236.763	41.11422
236.983	45.39773
237.203	43.5807
237.423	61.94636
237.643	90.56779
237.864	72.95698
238.084	19.64381
238.304	26.49164
238.524	46.00006
238.744	38.24322
238.964	77.73442
239.184	62.24024
239.404	64.67926
239.624	35.89695
239.843	61.66058
240.063	36.52053
240.283	22.74704
240.503	25.5777
240.723	26.55678
240.943	14.66515
241.163	19.53933
241.383	13.38324
241.603	7.61982
241.822	9.9645
242.042	6.15107
242.262	8.58443
242.482	9.78451
242.702	11.11888
242.921	2.88083
243.141	6.71918
243.361	6.49408
243.581	10.01323
243.8	7.54947
244.02	5.37607
244.24	9.37159
244.459	9.05025
244.679	18.46476
244.899	11.24045
245.118	13.39169
245.338	12.15843
245.558	14.85333
245.777	8.86174
245.997	10.43461
246.216	10.75265
246.436	6.47597
246.655	4.78503
246.875	3.21113
247.094	6.66589
247.314	2.16569
247.533	3.7046
247.753	4.43689
247.972	3.58184
248.192	1.12669
248.411	2.08746
248.631	3.54631
248.85	4.95097
249.07	3.79743
249.289	5.94957
249.508	5.03834
249.728	7.1878
249.947	7.13673
250.166	8.9861
250.386	4.49364
250.605	7.1488
250.824	11.32845
251.044	7.24223
251.263	29.43828
251.482	15.21925
251.701	11.90713
251.921	-0.06722
252.14	3.48759
252.359	4.21118
252.578	10.27186
252.798	3.6115
253.017	9.02959
253.236	3.99774
253.455	5.9236
253.674	10.88865
253.893	5.10418
254.112	8.12136
254.331	11.54145
254.551	9.63339
254.77	3.78521
254.989	13.61621
255.208	9.84194
255.427	15.76468
255.646	11.15456
255.865	21.98081
256.084	9.31971
256.303	11.39921
256.522	14.4639
256.741	3.05249
256.96	3.07876
257.179	7.75488
257.397	11.68238
257.616	6.14023
257.835	6.29173
258.054	15.52355
258.273	11.08952
258.492	11.52188
258.711	6.85478
258.93	3.55707
259.148	4.78093
259.367	4.75883
259.586	5.58191
259.805	2.50603
260.023	5.34607
260.242	3.9374
260.461	2.85556
260.68	1.32918
260.898	4.64985
261.117	1.37534
261.336	0.96849
261.554	3.56881
261.773	3.55078
261.992	0.81701
262.21	3.41496
262.429	3.59938
262.648	7.71038
262.866	8.24591
263.085	6.02737
263.303	4.79848
263.522	9.06934
263.74	8.91707
263.959	15.78589
264.178	7.41903
264.396	6.04627
264.615	4.90834
264.833	11.11375
265.051	8.82891
265.27	11.12058
265.488	11.21367
265.707	6.1033
265.925	11.26082
266.144	4.96878
266.362	5.60549
266.58	5.72614
266.799	5.22362
267.017	6.29005
267.235	5.61411
267.454	3.27184
267.672	1.80553
267.89	4.24869
268.109	4.56703
268.327	4.56066
268.545	1.11306
268.763	4.21871
268.982	1.68234
269.2	4.40508
269.418	3.15133
269.636	2.07707
269.854	4.74013
270.073	3.08858
270.291	1.8544
270.509	1.82235
270.727	4.66376
270.945	7.20173
271.163	7.27876
271.381	1.57228
271.599	3.28968
271.817	5.56425
272.036	1.81166
272.254	3.10346
272.472	2.57523
272.69	2.4955
272.908	2.30294
273.126	4.67544
273.344	5.5153
273.562	1.82153
273.779	2.61851
273.997	4.0031
274.215	4.19679
274.433	2.89556
274.651	4.56161
274.869	4.77177
275.087	2.86576
275.305	3.88518
275.523	2.63422
275.74	3.02467
275.958	5.63684
276.176	8.31464
276.394	2.56333
276.612	3.19394
276.829	3.35207
277.047	2.78162
277.265	3.10483
277.483	3.65104
277.7	4.56923
277.918	3.53819
278.136	6.37334
278.353	2.95697
278.571	1.93943
278.789	4.3492
279.006	1.00188
279.224	2.99917
279.442	5.47167
279.659	3.42993
279.877	2.26877
280.094	5.90345
280.312	1.08488
280.529	3.5339
280.747	0.92532
280.964	2.74046
281.182	6.21783
281.399	2.7859
281.617	3.88466
281.834	2.66177
282.052	1.93094
282.269	3.36726
282.487	2.45106
282.704	2.17267
282.921	2.25989
283.139	3.38466
283.356	4.19599
283.574	3.71411
283.791	1.79914
284.008	5.67591
284.226	2.96072
284.443	3.38949
284.66	4.37333
284.877	3.54406
285.095	2.15525
285.312	1.57724
285.529	0.93559
285.746	0.75711
285.964	2.14657
286.181	1.53329
286.398	1.937
286.615	2.75852
286.832	2.65081
287.05	0.57212
287.267	1.82125
287.484	1.90013
287.701	2.64083
287.918	2.63078
288.135	2.76243
288.352	1.34712
288.569	1.48901
288.786	2.39511
289.003	2.01461
289.22	3.03581
289.437	1.78777
289.654	3.08428
289.871	3.11648
290.088	3.00547
290.305	2.43621
290.522	1.77981
290.739	2.10936
290.956	3.18211
291.173	3.50583
291.39	3.62453
291.607	2.38885
291.824	1.81776
292.04	1.35383
292.257	3.06528
292.474	3.19494
292.691	1.94142
292.908	0.98291
293.125	1.69446
293.341	1.07196
293.558	5.12532
293.775	1.97465
293.992	1.96756
294.208	0.87909
294.425	1.38649
294.642	1.89173
294.858	3.13575
295.075	0.66267
295.292	1.91965
295.508	2.3779
295.725	4.0785
295.942	1.69862
296.158	1.20479
296.375	2.08917
296.591	1.5504
296.808	1.80566
297.024	2.00416
297.241	2.26558
297.458	2.45272
297.674	0.12858
297.891	1.84452
298.107	1.53761
298.323	1.18781
298.54	3.07393
298.756	1.32762
298.973	0.67085
299.189	3.16647
299.406	1.20369
299.622	2.86387
299.838	2.86465
300.055	2.78566
300.271	0.6303
300.487	1.05752
300.704	1.37024
300.92	0.73514
301.136	4.41559
301.353	2.72862
301.569	1.84461
301.785	2.26873
302.001	2.79763
302.218	2.26278
302.434	2.32202
302.65	0.82333
302.866	1.57603
303.083	4.10342
303.299	3.94616
303.515	2.09218
303.731	2.18298
303.947	0.7697
304.163	1.23949
304.379	2.24284
304.595	2.44462
304.812	1.38504
305.028	1.267
305.244	1.81005
305.46	2.75221
305.676	2.74103
305.892	3.23503
306.108	2.46555
306.324	1.59664
306.54	3.84781
306.756	2.75735
306.972	2.65468
307.187	1.78281
307.403	3.38797
307.619	1.7676
307.835	3.21431
308.051	3.71673
308.267	1.14008
308.483	3.03368
308.699	2.51235
308.914	1.96717
309.13	1.87189
309.346	0.71872
309.562	1.12389
309.778	0.79524
309.993	2.50778
310.209	2.12495
310.425	1.0098
310.641	1.79141
310.856	1.11178
311.072	1.00003
311.288	1.82383
311.503	2.07937
311.719	0.38383
311.935	0.31369
312.15	2.41047
312.366	1.96281
312.581	2.35391
312.797	2.026
313.013	2.70868
313.228	1.46517
313.444	1.90604
313.659	1.44465
313.875	2.57213
314.09	1.98014
314.306	3.24397
314.521	2.81378
314.737	2.78042
314.952	1.98127
315.168	1.95158
315.383	2.45417
315.599	1.78083
315.814	1.61483
316.029	2.70266
316.245	1.07921
316.46	0.63109
316.675	3.27261
316.891	3.76388
317.106	4.66437
317.321	2.24623
317.537	2.6684
317.752	2.76132
317.967	2.95273
318.183	1.15632
318.398	1.68591
318.613	2.89949
318.828	3.3887
319.043	2.90885
319.259	1.96349
319.474	2.25917
319.689	3.37603
319.904	0.56551
320.119	2.83081
320.334	2.46867
320.549	1.85473
320.765	3.06067
320.98	2.44886
321.195	2.8219
321.41	1.98451
321.625	2.84838
321.84	3.74525
322.055	3.90354
322.27	1.55772
322.485	1.15713
322.7	2.40173
322.915	2.99128
323.13	1.35616
323.345	3.30112
323.56	3.06672
323.775	2.78317
323.989	2.50029
324.204	2.36838
324.419	3.10173
324.634	1.07437
324.849	2.03496
325.064	5.13717
325.279	2.92252
325.493	2.56563
325.708	3.01606
325.923	1.37242
326.138	1.50189
326.352	3.68718
326.567	3.02135
326.782	1.705
326.997	1.48466
327.211	2.64119
327.426	2.2866
327.641	1.87864
327.855	0.69781
328.07	2.58
328.285	3.7812
328.499	1.62226
328.714	2.33509
328.928	2.7597
329.143	2.0108
329.358	3.08345
329.572	3.13577
329.787	3.30177
330.001	4.46584
330.216	1.02118
330.43	3.97108
330.645	3.69381
330.859	2.98115
331.074	1.69706
331.288	2.33347
331.503	3.47167
331.717	1.27923
331.931	2.26196
332.146	2.33288
332.36	3.95335
332.575	2.45604
332.789	2.47859
333.003	2.4232
333.218	2.88163
333.432	1.6137
333.646	3.0031
333.86	3.78659
334.075	3.67146
334.289	1.76126
334.503	1.27024
334.717	2.62216
334.932	2.5414
335.146	3.28079
335.36	1.85986
335.574	2.83973
335.788	2.66888
336.003	3.14081
336.217	2.86049
336.431	2.79939
336.645	1.72448
336.859	1.22455
337.073	2.0736
337.287	2.34244
337.501	1.16129
337.715	2.58681
337.929	2.98561
338.143	1.2281
338.357	2.05107
338.571	1.50709
338.785	2.66449
338.999	1.90534
339.213	1.75937
339.427	0.94511
339.641	3.39759
339.855	1.98813
340.069	1.66847
340.283	2.97237
340.497	4.00702
340.711	2.58424
340.924	2.03956
341.138	1.41088
341.352	1.25167
341.566	2.33892
341.78	0.8353
341.993	1.8519
342.207	1.37526
342.421	2.40506
342.635	2.14053
342.848	1.73287
343.062	0.38112
343.276	1.57522
343.49	3.81188
343.703	1.58277
343.917	3.10224
344.131	3.04879
344.344	1.56358
344.558	1.85962
344.771	1.15866
344.985	3.57924
345.199	3.49606
345.412	2.40696
345.626	2.54889
345.839	0.7797
346.053	1.19084
346.266	1.36675
346.48	2.68016
346.693	2.37631
346.907	2.41506
347.12	1.36143
347.334	2.42343
347.547	2.40654
347.76	1.8004
347.974	3.15849
348.187	2.43467
348.401	1.7861
348.614	1.48544
348.827	1.82851
349.041	2.62586
349.254	0.76095
349.467	1.96074
349.681	1.13602
349.894	1.6611
350.107	3.16119
350.32	3.74211
350.534	0.9902
350.747	1.86877
350.96	1.43254
351.173	1.75103
351.386	1.92658
351.6	1.71016
351.813	1.57975
352.026	1.92199
352.239	1.04773
352.452	1.84742
352.665	2.94076
352.878	2.19215
353.092	3.73084
353.305	2.82637
353.518	2.27517
353.731	1.34228
353.944	3.08574
354.157	1.75955
354.37	1.41488
354.583	1.30701
354.796	0.94552
355.009	3.02928
355.222	2.37686
355.435	2.2428
355.647	2.95763
355.86	1.41103
356.073	2.17648
356.286	1.70278
356.499	2.7672
356.712	2.40156
356.925	2.61081
357.138	2.81988
357.35	1.43565
357.563	1.85433
357.776	2.19345
357.989	1.8881
358.201	2.43231
358.414	2.24411
358.627	3.19494
358.84	1.9741
359.052	1.14397
359.265	1.52727
359.478	2.88985
359.69	0.18106
359.903	2.60984
360.116	2.91007
360.328	0.87857
360.541	2.75475
360.753	1.3509
360.966	1.76416
361.179	1.9167
361.391	1.65658
361.604	1.53972
361.816	1.76459
362.029	1.61352
362.241	1.39445
362.454	1.69814
362.666	1.37997
362.879	2.17865
363.091	1.773
363.304	1.55585
363.516	1.95585
363.728	1.21928
363.941	2.45869
364.153	1.92246
364.366	0.60803
364.578	1.38882
364.79	2.29474
365.003	2.10807
365.215	1.73056
365.427	2.53225
365.639	2.97664
365.852	2.23142
366.064	3.90448
366.276	1.94405
366.488	2.48358
366.701	1.91949
366.913	2.12673
367.125	2.09204
367.337	1.61869
367.549	1.8787
367.762	2.31735
367.974	2.2196
368.186	1.8544
368.398	2.94002
368.61	2.75717
368.822	2.81163
369.034	2.24709
369.246	2.91271
369.458	4.64922
369.67	1.76006
369.882	3.88544
370.094	1.1196
370.306	3.77655
370.518	2.18137
370.73	1.87702
370.942	2.09522
371.154	2.4385
371.366	2.12414
371.578	2.83629
371.79	2.13321
372.002	3.37119
372.214	4.04912
372.425	2.589
372.637	3.48423
372.849	2.87461
373.061	1.12788
373.273	2.91658
373.484	2.8119
373.696	3.31329
373.908	1.22421
374.12	3.44431
374.331	3.1085
374.543	2.30629
374.755	2.14596
374.967	2.88744
375.178	3.29316
375.39	2.66948
375.602	3.00422
375.813	1.85467
376.025	2.21423
376.236	3.06407
376.448	3.22583
376.66	2.86419
376.871	2.78867
377.083	4.00436
377.294	4.14977
377.506	2.85643
377.717	4.10156
377.929	3.39661
378.14	2.8891
378.352	3.59103
378.563	3.51948
378.775	4.33051
378.986	2.70384
379.197	3.3651
379.409	2.86804
379.62	3.94364
379.832	3.79087
380.043	3.35646
380.254	3.62695
380.466	2.89007
380.677	5.66921
380.888	5.03969
381.1	5.52921
381.311	5.51913
381.522	3.87917
381.733	5.95942
381.945	3.76995
382.156	3.91994
382.367	3.5723
382.578	6.04912
382.789	6.06287
383.001	3.76203
383.212	5.23841
383.423	5.42286
383.634	5.20035
383.845	4.92205
384.056	4.13173
384.267	4.59536
384.478	4.6037
384.69	3.93117
384.901	4.98026
385.112	4.97044
385.323	6.03002
385.534	5.18063
385.745	5.15551
385.956	5.20102
386.167	4.43471
386.378	5.49485
386.588	4.66846
386.799	4.79786
387.01	4.25177
387.221	5.86861
387.432	5.37719
387.643	6.68374
387.854	5.41773
388.065	5.39021
388.275	5.6309
388.486	5.42931
388.697	5.75324
388.908	5.48428
389.119	6.75398
389.329	6.99859
389.54	6.19293
389.751	6.48284
389.962	7.15499
390.172	6.50744
390.383	6.44653
390.594	6.08426
390.804	6.40524
391.015	6.50204
391.226	7.07218
391.436	7.38482
391.647	7.34104
391.858	7.45178
392.068	6.25647
392.279	6.62964
392.489	7.5928
392.7	8.03424
392.91	7.10823
393.121	6.98254
393.331	7.98336
393.542	8.54435
393.752	8.43938
393.963	8.38646
394.173	8.4584
394.384	8.58994
394.594	8.33338
394.804	7.61711
395.015	8.54627
395.225	8.76384
395.436	7.89338
395.646	8.88185
395.856	8.4524
396.067	7.76107
396.277	9.4091
396.487	9.11238
396.697	9.40172
396.908	9.42344
397.118	9.65116
397.328	9.46115
397.538	10.16441
397.749	9.08303
397.959	10.21958
398.169	10.05339
398.379	8.92466
398.589	10.34048
398.8	10.34184
399.01	10.46871
399.22	10.16899
399.43	11.79337
399.64	10.52259
399.85	10.9539
400.06	10.69253
400.27	10.14297
400.48	10.74895
400.69	11.61844
400.9	10.73989
401.11	10.30597
401.32	11.74321
401.53	10.92272
401.74	12.50584
401.95	11.92582
402.16	11.36349
402.37	12.03653
402.58	11.70495
402.79	12.33828
403	12.86086
403.209	11.7915
403.419	13.24514
403.629	12.07689
403.839	13.38539
404.049	13.43026
404.258	12.75822
404.468	12.45009
404.678	13.33954
404.888	13.80143
405.097	12.89582
405.307	12.9298
405.517	13.65224
405.727	13.68037
405.936	13.07159
406.146	13.67383
406.356	14.37823
406.565	13.60025
406.775	13.45683
406.984	13.36557
407.194	14.99395
407.404	13.93714
407.613	14.3726
407.823	14.52059
408.032	14.93784
408.242	14.78753
408.451	14.10191
408.661	14.31811
408.87	15.80013
409.08	14.27103
409.289	15.10434
409.499	15.23367
409.708	15.14377
409.918	13.95343
410.127	15.55729
410.336	16.32272
410.546	15.92666
410.755	15.20165
410.964	15.41244
411.174	14.93225
411.383	15.86237
411.592	15.70423
411.802	15.09998
412.011	16.11653
412.22	15.63537
412.429	16.91599
412.639	16.97104
412.848	16.67027
413.057	17.0509
413.266	16.97884
413.475	16.42077
413.685	16.73987
413.894	17.25703
414.103	17.26159
414.312	17.30661
414.521	16.72913
414.73	17.11084
414.939	18.40843
415.148	17.62089
415.357	17.50612
415.566	17.34625
415.776	17.43748
415.985	17.52965
416.194	17.93388
416.403	18.91945
416.611	17.07085
416.82	17.71449
417.029	18.22941
417.238	17.89387
417.447	17.90902
417.656	18.3193
417.865	17.92345
418.074	18.44608
418.283	18.50181
418.492	19.14507
418.7	18.96475
418.909	20.30402
419.118	19.48338
419.327	19.93435
419.536	20.07277
419.744	20.5457
419.953	22.20556
420.162	22.69153
420.371	22.52415
420.579	23.78616
420.788	24.6236
420.997	24.75006
421.205	25.57246
421.414	25.02058
421.623	25.23291
421.831	24.84169
422.04	25.23739
422.249	24.0643
422.457	24.32531
422.666	23.15883
422.874	24.0004
423.083	24.34161
423.291	24.58225
423.5	24.94207
423.708	25.57437
423.917	26.09547
424.125	25.74018
424.334	25.72704
424.542	27.24661
424.751	26.80395
424.959	26.23126
425.167	25.71443
425.376	25.70096
425.584	23.5913
425.793	23.12064
426.001	21.78417
426.209	21.32862
426.418	19.97949
426.626	19.2209
426.834	19.21314
427.042	19.54968
427.251	19.29129
427.459	20.14748
427.667	19.67364
427.875	19.09292
428.084	19.45499
428.292	20.57211
428.5	20.35678
428.708	19.41895
428.916	19.51729
429.124	20.23896
429.333	19.97669
429.541	20.06435
429.749	20.26897
429.957	20.36512
430.165	21.94454
430.373	19.4494
430.581	20.58191
430.789	21.1598
430.997	20.24852
431.205	20.0376
431.413	20.7918
431.621	20.56057
431.829	21.14747
432.037	20.7381
432.245	21.19402
432.453	21.19616
432.661	20.96952
432.869	22.13686
433.076	20.6039
433.284	20.97422
433.492	21.3765
433.7	21.6185
433.908	20.73081
434.116	20.95579
434.323	20.96656
434.531	20.69169
434.739	20.98006
434.947	21.11088
435.154	21.14469
435.362	20.75632
435.57	20.59769
435.778	20.32355
435.985	21.0757
436.193	20.60338
436.401	21.68263
436.608	21.00265
436.816	20.82144
437.023	22.04455
437.231	22.18459
437.439	21.44739
437.646	21.50413
437.854	21.58451
438.061	21.81146
438.269	21.37859
438.476	21.87818
438.684	21.69936
438.891	21.40293
439.099	21.27198
439.306	21.21047
439.514	21.1396
439.721	22.5295
439.929	22.57327
440.136	23.61081
440.343	24.0425
440.551	23.88189
440.758	25.55389
440.965	23.84147
441.173	23.5207
441.38	23.51215
441.587	22.52087
441.795	22.26583
442.002	21.48099
442.209	21.24067
442.416	21.3855
442.624	21.44888
442.831	21.30156
443.038	20.95045
443.245	20.84155
443.452	21.28511
443.66	21.88546
443.867	21.4952
444.074	21.50541
444.281	21.59974
444.488	21.76563
444.695	22.00703
444.902	21.90967
445.109	23.5578
445.316	23.97501
445.523	24.97897
445.73	25.61486
445.937	26.72245
446.144	27.60372
446.351	28.2531
446.558	26.87817
446.765	29.24828
446.972	27.97619
447.179	27.61888
447.386	27.65823
447.593	25.47136
447.8	26.21063
448.007	24.06177
448.214	22.73419
448.42	21.88498
448.627	21.8644
448.834	21.33661
449.041	21.1647
449.248	21.11305
449.454	21.71575
449.661	22.3714
449.868	21.10682
450.075	21.16205
450.281	20.58119
450.488	21.01277
450.695	21.07529
450.901	21.49848
451.108	21.31414
451.315	22.35752
451.521	21.89734
451.728	22.55666
451.935	21.64026
452.141	21.86167
452.348	21.99237
452.554	21.85307
452.761	21.68365
452.967	22.76822
453.174	21.78241
453.38	22.0493
453.587	21.15298
453.793	21.73492
454	22.15953
454.206	22.86775
454.413	22.17103
454.619	22.13426
454.825	21.55989
455.032	22.37042
455.238	22.29576
455.445	21.28299
455.651	21.95314
455.857	20.92379
456.064	21.73673
456.27	21.81866
456.476	21.80159
456.682	21.41192
456.889	22.35949
457.095	22.28782
457.301	23.59745
457.507	22.37096
457.714	22.25371
457.92	22.59399
458.126	22.22823
458.332	22.5682
458.538	22.41276
458.744	22.7763
458.951	22.7865
459.157	25.44008
459.363	25.46439
459.569	26.24336
459.775	26.73554
459.981	27.19607
460.187	27.48847
460.393	27.08963
460.599	26.93897
460.805	25.41946
461.011	23.7135
461.217	22.60645
461.423	22.11079
461.629	21.45132
461.835	21.84443
462.041	21.47801
462.247	22.49234
462.453	21.63667
462.658	21.73796
462.864	22.25989
463.07	22.07926
463.276	22.12686
463.482	22.08997
463.688	22.99472
463.893	21.93674
464.099	22.27021
464.305	23.09325
464.511	22.04305
464.716	22.26587
464.922	22.77482
465.128	21.84587
465.333	23.167
465.539	22.72597
465.745	22.3811
465.95	22.33057
466.156	23.95088
466.362	23.13903
466.567	22.49662
466.773	22.17748
466.978	23.16784
467.184	21.87489
467.389	21.28233
467.595	22.3811
467.8	22.00133
468.006	23.0582
468.211	22.89366
468.417	21.5512
468.622	22.58327
468.828	22.57274
469.033	22.60078
469.239	23.73365
469.444	22.10214
469.649	22.85962
469.855	22.2933
470.06	22.47503
470.266	21.96477
470.471	22.79723
470.676	22.4965
470.881	21.47639
471.087	22.75837
471.292	23.69812
471.497	21.82937
471.703	22.32099
471.908	22.14279
472.113	22.54826
472.318	23.03512
472.523	21.8773
472.729	22.74558
472.934	22.72356
473.139	22.22819
473.344	22.55141
473.549	23.08508
473.754	21.95419
473.959	23.83766
474.164	21.85108
474.369	22.19095
474.575	22.84035
474.78	22.33135
474.985	22.07412
475.19	21.52523
475.395	22.10117
475.6	22.46889
475.804	23.34661
476.009	22.66039
476.214	22.64953
476.419	22.3781
476.624	21.73656
476.829	22.13322
477.034	22.93013
477.239	22.12538
477.444	22.83114
477.648	22.86215
477.853	22.63568
478.058	22.22844
478.263	21.90031
478.468	21.76236
478.672	21.91968
478.877	23.02552
479.082	22.91184
479.287	22.55547
479.491	22.18149
479.696	21.86674
479.901	22.67807
480.105	22.74353
480.31	22.17336
480.515	22.57719
480.719	23.64745
480.924	22.40494
481.128	22.10129
481.333	22.87058
481.538	22.89179
481.742	24.02206
481.947	25.87929
482.151	28.31225
482.356	30.84668
482.56	35.81707
482.765	40.36688
482.969	47.16569
483.174	52.92957
483.378	60.31106
483.582	63.26792
483.787	66.44487
483.991	67.99585
484.196	68.1571
484.4	66.56726
484.604	65.50404
484.809	60.16945
485.013	55.88008
485.217	50.22211
485.422	44.84707
485.626	40.85373
485.83	38.58926
486.034	37.6834
486.239	38.63067
486.443	40.10679
486.647	41.7505
486.851	43.84871
487.055	46.8346
487.26	47.64346
487.464	49.53556
487.668	49.44402
487.872	50.3871
488.076	49.74597
488.28	47.84302
488.484	44.74414
488.688	42.93913
488.892	40.27143
489.096	37.22095
489.3	34.49599
489.504	32.06416
489.708	30.21968
489.912	29.72474
490.116	29.2502
490.32	29.6088
490.524	31.89611
490.728	33.91965
490.932	36.41633
491.136	38.72836
491.34	40.45109
491.544	41.38199
491.748	41.79827
491.951	41.22541
492.155	40.12248
492.359	38.45169
492.563	35.48548
492.767	32.80613
492.97	29.43029
493.174	26.3427
493.378	23.94741
493.582	21.57291
493.785	20.59321
493.989	20.7074
494.193	20.84335
494.396	20.90456
494.6	21.47806
494.804	21.31656
495.007	21.12612
495.211	21.33441
495.414	21.44131
495.618	21.85391
495.822	22.38222
496.025	21.80026
496.229	22.18987
496.432	21.5401
496.636	21.7503
496.839	21.76851
497.043	22.38377
497.246	21.84276
497.45	21.36261
497.653	21.53927
497.856	21.40065
498.06	20.85636
498.263	21.15295
498.467	21.03186
498.67	21.56318
498.873	21.39426
499.077	21.05696
499.28	21.04354
499.483	21.21198
499.686	21.3842
499.89	21.19428
500.093	21.54853
500.296	20.71488
500.499	21.78339
500.703	20.98299
500.906	21.38268
501.109	21.75231
501.312	21.15199
501.515	20.98037
501.719	21.29047
501.922	21.57448
502.125	21.287
502.328	21.0747
502.531	20.68821
502.734	21.12105
502.937	20.47889
503.14	21.29228
503.343	20.87084
503.546	21.06235
503.749	20.75265
503.952	21.61534
504.155	20.76732
504.358	21.253
504.561	21.17958
504.764	20.25456
504.967	21.04525
505.17	20.74749
505.373	21.53636
505.576	20.82588
505.778	21.21509
505.981	20.53948
506.184	21.43582
506.387	20.10755
506.59	21.9966
506.793	21.45267
506.995	21.34356
507.198	20.21795
507.401	21.37206
507.604	21.37954
507.806	20.72113
508.009	20.75072
508.212	21.35693
508.414	20.6919
508.617	20.86027
508.82	20.85698
509.022	21.65334
509.225	20.95202
509.427	20.12729
509.63	21.33558
509.833	20.84272
510.035	20.32021
510.238	19.96984
510.44	21.25004
510.643	19.80271
510.845	21.55622
511.048	20.85092
511.25	20.30314
511.453	20.62185
511.655	20.91142
511.858	20.48171
512.06	21.08862
512.262	20.70375
512.465	20.97561
512.667	20.22897
512.869	19.90796
513.072	20.58177
513.274	20.74043
513.476	20.6934
513.679	20.75132
513.881	19.82603
514.083	21.2324
514.286	19.99178
514.488	19.96994
514.69	19.83815
514.892	19.63214
515.094	20.75148
515.297	20.05952
515.499	20.49031
515.701	20.1049
515.903	21.33995
516.105	21.4483
516.307	20.92591
516.509	19.84335
516.711	20.25719
516.913	20.87613
517.116	21.01797
517.318	20.59049
517.52	21.47393
517.722	21.30973
517.924	20.32267
518.126	21.12104
518.328	20.67299
518.529	21.59701
518.731	22.39831
518.933	20.66659
519.135	20.85589
519.337	21.21761
519.539	20.33874
519.741	19.1914
519.943	19.66679
520.145	19.66053
520.346	20.16682
520.548	19.54675
520.75	20.05231
520.952	19.81739
521.153	20.06104
521.355	20.17145
521.557	19.56145
521.759	20.05748
521.96	20.04803
522.162	19.5673
522.364	20.8435
522.565	19.86221
522.767	20.50117
522.969	20.65451
523.17	20.5602
523.372	20.39733
523.573	20.14105
523.775	20.31129
523.977	20.1163
524.178	21.54212
524.38	20.40119
524.581	21.10881
524.783	20.71731
524.984	21.13057
525.186	20.9613
525.387	21.81829
525.589	22.11345
525.79	22.44309
525.991	22.70401
526.193	23.35966
526.394	22.87918
526.596	23.80064
526.797	24.53007
526.998	24.52196
527.2	26.28153
527.401	29.61968
527.602	32.44209
527.803	37.04644
528.005	40.14807
528.206	43.20765
528.407	45.16965
528.608	45.89479
528.81	46.2466
529.011	45.37185
529.212	45.61426
529.413	42.89128
529.614	39.83105
529.815	36.77835
530.017	33.45193
530.218	29.64584
530.419	26.83846
530.62	25.40418
530.821	24.13355
531.022	22.4664
531.223	23.07624
531.424	22.64309
531.625	23.05694
531.826	23.04863
532.027	24.38695
532.228	26.44197
532.429	27.55668
532.63	28.97693
532.831	30.63793
533.032	31.21625
533.233	32.30676
533.433	31.67559
533.634	31.77238
533.835	30.51031
534.036	29.23534
534.237	27.66411
534.438	25.86505
534.638	23.41975
534.839	22.12462
535.04	21.21945
535.241	20.35506
535.441	21.28658
535.642	21.23295
535.843	21.23961
536.043	21.83957
536.244	22.34354
536.445	22.77955
536.645	23.61366
536.846	23.33591
537.047	23.37195
537.247	22.13163
537.448	21.28204
537.648	20.5912
537.849	19.93412
538.049	19.77946
538.25	20.18239
538.451	20.22442
538.651	19.6787
538.851	20.51739
539.052	21.11698
539.252	21.0661
539.453	20.90499
539.653	21.22045
539.854	21.5243
540.054	21.95585
540.254	24.97252
540.455	27.70462
540.655	29.20539
540.855	32.3663
541.056	34.11367
541.256	34.64877
541.456	35.84856
541.657	35.67923
541.857	35.78166
542.057	34.01072
542.257	32.5653
542.458	31.74854
542.658	30.1646
542.858	27.27048
543.058	26.18169
543.258	24.85445
543.458	22.88831
543.659	22.05121
543.859	22.1117
544.059	21.53308
544.259	20.56153
544.459	21.20724
544.659	20.56977
544.859	21.01801
545.059	20.72406
545.259	21.49702
545.459	21.2811
545.659	21.84172
545.859	21.64726
546.059	21.79313
546.259	21.30319
546.459	21.02464
546.659	21.09777
546.859	21.95936
547.059	21.51687
547.258	21.42119
547.458	21.37525
547.658	20.67601
547.858	20.37378
548.058	21.02417
548.258	20.74447
548.457	20.39646
548.657	22.15539
548.857	21.0498
549.057	21.59602
549.256	21.50179
549.456	21.14655
549.656	20.39852
549.855	22.68238
550.055	21.45176
550.255	22.713
550.454	21.90668
550.654	22.43305
550.853	22.91756
551.053	22.45035
551.253	22.42114
551.452	22.71934
551.652	21.75524
551.851	21.77552
552.051	22.30274
552.25	22.17724
552.45	22.17831
552.649	22.40881
552.849	21.95318
553.048	22.42471
553.248	22.82196
553.447	21.70074
553.646	22.56747
553.846	23.74713
554.045	22.93984
554.244	21.27577
554.444	22.9755
554.643	21.70688
554.842	23.22182
555.042	23.59806
555.241	22.02228
555.44	21.85131
555.64	22.95593
555.839	23.54739
556.038	23.09143
556.237	22.35486
556.436	23.05334
556.636	23.2462
556.835	22.45321
557.034	24.0509
557.233	22.98067
557.432	22.04421
557.631	23.87104
557.83	22.86006
558.029	22.96692
558.228	22.79138
558.427	22.57568
558.626	23.5753
558.825	22.63674
559.024	23.29201
559.223	24.70864
559.422	23.2742
559.621	23.77134
559.82	21.94413
560.019	23.71974
560.218	23.50494
560.417	22.27524
560.616	23.4945
560.815	26.0843
561.014	22.9269
561.212	25.16405
561.411	24.11791
561.61	23.05285
561.809	23.63251
562.008	25.10663
562.206	23.77963
562.405	24.44006
562.604	23.87453
562.803	23.99376
563.001	23.86783
563.2	23.37811
563.399	24.50254
563.597	23.5615
563.796	24.34221
563.995	23.63843
564.193	25.19303
564.392	24.58975
564.59	26.22543
564.789	23.79418
564.988	24.93168
565.186	25.37409
565.385	25.19026
565.583	25.08179
565.782	25.50066
565.98	25.37009
566.179	25.0377
566.377	24.67296
566.575	24.52898
566.774	25.9518
566.972	25.33922
567.171	26.11199
567.369	25.60525
567.567	24.95025
567.766	24.90188
567.964	23.45962
568.162	25.4378
568.361	26.00519
568.559	24.97548
568.757	25.50844
568.956	25.40854
569.154	25.5826
569.352	25.98651
569.55	25.55611
569.748	25.87017
569.947	25.35183
570.145	25.02063
570.343	25.33716
570.541	27.12347
570.739	25.47589
570.937	26.36665
571.135	26.66959
571.333	28.00141
571.532	27.86502
571.73	26.69933
571.928	26.92402
572.126	26.66105
572.324	26.07235
572.522	26.92885
572.72	27.85429
572.918	26.06195
573.116	26.48211
573.313	25.76934
573.511	26.2698
573.709	25.90862
573.907	27.1487
574.105	26.34503
574.303	25.62356
574.501	25.78961
574.699	27.28147
574.896	26.9619
575.094	27.46937
575.292	25.92533
575.49	27.50705
575.688	26.58433
575.885	27.64176
576.083	28.47113
576.281	27.07718
576.478	26.08334
576.676	26.85434
576.874	25.69025
577.071	26.74468
577.269	28.545
577.467	26.60226
577.664	26.82192
577.862	27.64616
578.059	26.30977
578.257	27.71205
578.455	26.92207
578.652	27.13604
578.85	25.74533
579.047	27.26914
579.245	27.00074
579.442	27.3906
579.64	27.17775
579.837	26.30781
580.034	29.65852
580.232	27.45875
580.429	26.63624
580.627	28.22634
580.824	28.64243
581.021	28.39534
581.219	27.45752
581.416	27.37251
581.613	29.18228
581.811	28.90166
582.008	27.10278
582.205	28.82514
582.402	28.31009
582.6	29.35524
582.797	28.66834
582.994	28.42274
583.191	28.83845
583.388	28.09683
583.586	28.98299
583.783	29.36449
583.98	27.56392
584.177	28.50747
584.374	26.54616
584.571	28.4775
584.768	28.19708
584.965	28.11613
585.162	29.3091
585.359	30.06806
585.556	28.56678
585.753	28.97288
585.95	27.52983
586.147	28.10106
586.344	29.46359
586.541	28.39609
586.738	27.73568
586.935	29.05084
587.132	28.55715
587.329	29.99585
587.526	29.16957
587.722	33.52613
587.919	28.03819
588.116	29.80449
588.313	30.47229
588.51	31.21536
588.706	29.39629
588.903	30.05507
589.1	30.38647
589.297	31.90366
589.493	29.57857
589.69	29.83987
589.887	28.91234
590.083	28.43539
590.28	28.97738
590.477	30.23331
590.673	29.84883
590.87	30.44029
591.067	28.6116
591.263	29.50199
591.46	29.51315
591.656	29.02744
591.853	30.77768
592.049	28.74119
592.246	29.21868
592.442	30.58666
592.639	30.69582
592.835	29.07252
593.032	30.33442
593.228	28.80959
593.425	29.00905
593.621	28.84677
593.817	30.52512
594.014	29.37494
594.21	30.44262
594.406	31.21167
594.603	30.50383
594.799	29.70829
594.995	28.37733
595.192	31.33114
595.388	30.10058
595.584	30.25467
595.78	29.6941
595.977	33.38459
596.173	32.61067
596.369	30.86699
596.565	30.07927
596.761	29.99202
596.957	31.85312
597.154	30.12277
597.35	30.03921
597.546	29.799
597.742	30.58816
597.938	29.87434
598.134	29.09094
598.33	29.92078
598.526	30.59034
598.722	29.8837
598.918	31.06881
599.114	30.39066
599.31	28.9491
599.506	30.21739
599.702	29.41494
599.898	30.64479
600.094	31.34327
600.29	31.2825
600.485	31.52736
600.681	30.05856
600.877	32.52197
601.073	30.98348
601.269	33.00102
601.465	32.6604
601.66	30.33597
601.856	29.65687
602.052	33.68146
602.248	31.50552
602.443	30.15763
602.639	30.83657
602.835	31.16162
603.03	31.13699
603.226	32.71784
603.422	31.24354
603.617	31.79585
603.813	31.70628
604.009	31.50773
604.204	32.59246
604.4	30.32913
604.595	32.08872
604.791	30.44136
604.986	31.30577
605.182	30.14516
605.377	30.44665
605.573	30.13998
605.768	30.18296
605.964	30.77751
606.159	30.77681
606.355	31.08107
606.55	29.87645
606.746	31.39702
606.941	30.49906
607.136	32.50052
607.332	33.6867
607.527	30.14541
607.722	31.53212
607.918	31.55748
608.113	31.44669
608.308	33.23714
608.503	32.93148
608.699	32.84599
608.894	33.08743
609.089	31.758
609.284	32.66138
609.479	31.84094
609.675	32.39488
609.87	31.5446
610.065	32.17394
610.26	32.18932
610.455	32.10022
610.65	31.15545
610.845	31.5294
611.04	31.7311
611.235	31.15431
611.43	31.18252
611.625	30.3503
611.82	32.72085
612.015	30.86939
612.21	33.28608
612.405	30.22784
612.6	33.24098
612.795	33.27809
612.99	32.32786
613.185	30.92599
613.38	31.3175
613.575	32.02779
613.77	35.10536
613.965	30.51352
614.159	31.38382
614.354	33.34422
614.549	33.13968
614.744	32.8205
614.938	30.94872
615.133	30.76118
615.328	33.57578
615.523	33.65248
615.717	35.3391
615.912	31.78743
616.107	32.34484
616.301	32.08592
616.496	31.6482
616.691	33.94846
616.885	33.2214
617.08	35.71718
617.274	33.32715
617.469	34.8341
617.664	33.2028
617.858	31.92681
618.053	32.92209
618.247	32.18594
618.442	30.0879
618.636	33.9729
618.831	31.44726
619.025	31.60494
619.219	35.7608
619.414	29.14152
619.608	31.97435
619.803	31.88876
619.997	34.96331
620.191	33.4947
620.386	32.90912
620.58	32.31101
620.774	30.40056
620.969	30.7927
621.163	32.50735
621.357	31.40242
621.551	32.09041
621.746	32.67495
621.94	31.95903
622.134	36.5511
622.328	35.0414
622.522	30.87506
622.716	33.98635
622.911	33.86235
623.105	33.8793
623.299	33.27115
623.493	36.48498
623.687	31.75744
623.881	32.30465
624.075	33.58504
624.269	34.51542
624.463	30.52539
624.657	31.43616
624.851	34.11814
625.045	34.26043
625.239	34.42919
625.433	33.06767
625.627	35.46875
625.821	32.9427
626.015	32.90798
626.209	33.83179
626.403	31.85579
626.596	33.95414
626.79	34.14073
626.984	31.8443
627.178	33.81185
627.372	33.76219
627.565	33.64296
627.759	31.20376
627.953	31.53788
628.147	32.91469
628.34	33.4436
628.534	35.31135
628.728	32.0657
628.921	33.49189
629.115	33.51337
629.309	33.95224
629.502	34.65755
629.696	33.12209
629.89	32.71053
630.083	33.58922
630.277	33.58091
630.47	35.07518
630.664	32.58034
630.857	31.28817
631.051	33.94036
631.244	34.12295
631.438	34.17909
631.631	32.14274
631.825	34.83155
632.018	33.90481
632.212	35.78204
632.405	35.19916
632.598	32.58886
632.792	33.66119
632.985	30.70651
633.178	33.65238
633.372	34.01907
633.565	33.64787
633.758	35.59748
633.952	32.92202
634.145	32.58184
634.338	33.21746
634.531	33.00719
634.724	32.45324
634.918	33.53639
635.111	32.79499
635.304	33.13087
635.497	36.11588
635.69	33.63331
635.883	35.01058
636.077	32.24921
636.27	33.94785
636.463	33.80642
636.656	33.56697
636.849	33.20177
637.042	34.13317
637.235	35.99188
637.428	34.38521
637.621	33.83958
637.814	35.30403
638.007	35.73357
638.2	35.27969
638.393	35.92721
638.586	31.26113
638.778	33.45881
638.971	33.41413
639.164	35.47928
639.357	34.0655
639.55	35.99116
639.743	34.83153
639.935	34.35657
640.128	36.87474
640.321	35.15941
640.514	34.0341
640.707	36.89786
640.899	34.83203
641.092	31.12599
641.285	49.7214
641.477	30.74456
641.67	37.88736
641.863	36.26572
642.055	34.30332
642.248	33.80674
642.441	33.38424
642.633	34.91791
642.826	35.54403
643.018	36.26543
643.211	37.33708
643.403	37.41874
643.596	37.53869
643.788	36.52822
643.981	33.8181
644.173	35.47835
644.366	33.80083
644.558	31.66669
644.751	35.90135
644.943	32.27009
645.135	36.66909
645.328	37.18297
645.52	35.37914
645.712	36.53072
645.905	39.19273
646.097	32.46597
646.289	34.46282
646.482	38.15904
646.674	33.20643
646.866	36.7504
647.058	35.21566
647.251	33.09482
647.443	33.63418
647.635	34.45818
647.827	32.6449
648.019	32.81246
648.211	33.99708
648.404	34.23662
648.596	37.3913
648.788	34.90669
648.98	35.13916
649.172	35.40726
649.364	35.44338
649.556	31.88688
649.748	39.7609
649.94	33.15522
650.132	36.29707
650.324	33.53819
650.516	34.23084
650.708	36.95695
650.9	32.88593
651.092	32.81396
651.284	32.88479
651.476	33.43616
651.667	36.40533
651.859	37.63527
652.051	34.83847
652.243	35.17029
652.435	34.29839
652.627	35.57948
652.818	35.86632
653.01	32.34007
653.202	33.40362
653.394	33.75926
653.585	35.44858
653.777	42.47789
653.969	37.11949
654.16	36.94969
654.352	33.20583
654.544	34.65595
654.735	36.55585
654.927	35.18524
655.118	37.43816
655.31	36.24428
655.502	37.03543
655.693	34.63984
655.885	35.64943
656.076	37.83286
656.268	36.02567
656.459	38.15489
656.651	38.02923
656.842	34.83394
657.034	34.75341
657.225	37.33204
657.416	38.689
657.608	38.62677
657.799	36.42141
657.99	38.72435
658.182	35.75863
658.373	36.00271
658.564	39.06682
658.756	37.52146
658.947	36.28061
659.138	35.11151
659.33	35.4316
659.521	34.78134
659.712	35.6611
659.903	35.32343
660.094	34.19145
660.286	32.62486
660.477	37.97756
660.668	36.00944
660.859	34.50344
661.05	32.15952
661.241	36.22919
661.432	35.02622
661.623	34.44283
661.814	34.29908
662.006	32.64857
662.197	34.78844
662.388	37.66008
662.579	35.70879
662.77	37.62209
662.96	40.709
663.151	37.00606
663.342	32.09497
663.533	37.23514
663.724	36.22996
663.915	39.05897
664.106	35.694
664.297	39.10926
664.488	36.96205
664.678	33.85164
664.869	37.86163
665.06	37.14444
665.251	36.35937
665.442	36.97745
665.632	34.01188
665.823	39.18378
666.014	30.29608
666.204	37.77572
666.395	38.64014
666.586	40.63628
666.776	37.47669
666.967	39.56214
667.158	36.5963
667.348	39.00061
667.539	34.53171
667.729	38.46393
667.92	35.33542
668.111	38.75926
668.301	37.84599
668.492	36.42265
668.682	37.66287
668.873	36.49787
669.063	34.54455
669.253	37.46876
669.444	39.28782
669.634	35.89385
669.825	40.72232
670.015	38.87171
670.206	34.94296
670.396	40.26247
670.586	35.81811
670.777	37.45164
670.967	32.19006
671.157	35.55612
671.347	34.98849
671.538	39.5387
671.728	38.26077
671.918	41.14635
672.108	38.57776
672.299	36.35057
672.489	37.33696
672.679	35.12801
672.869	37.61981
673.059	41.80667
673.249	37.72731
673.44	34.25446
673.63	36.90031
673.82	38.59031
674.01	35.08954
674.2	37.69947
674.39	42.71557
674.58	38.32076
674.77	37.09822
674.96	36.65963
675.15	45.8366
675.34	39.98732
675.53	36.98831
675.72	36.42558
675.91	33.95048
676.099	41.49469
676.289	42.35254
676.479	39.64718
676.669	36.23042
676.859	37.8802
677.049	36.19733
677.238	37.34819
677.428	41.6008
677.618	38.96439
677.808	41.91482
677.997	39.0496
678.187	35.97593
678.377	37.5619
678.567	37.02387
678.756	37.31467
678.946	38.66319
679.136	35.68254
679.325	37.48338
679.515	36.74266
679.704	35.52874
679.894	40.67551
680.084	39.19635
680.273	41.10701
680.463	36.65758
680.652	36.10337
680.842	37.92388
681.031	40.36515
681.221	36.06263
681.41	38.93852
681.6	37.39924
681.789	38.89635
681.978	40.09058
682.168	37.83328
682.357	37.78112
682.547	38.45052
682.736	38.1146
682.925	40.26392
683.115	40.20699
683.304	38.9142
683.493	38.11331
683.682	39.30211
683.872	38.75308
684.061	40.77605
684.25	39.19841
684.439	43.50931
684.629	40.45923
684.818	46.50111
685.007	38.31397
685.196	37.35475
685.385	42.8415
685.574	38.94804
685.763	39.91736
685.952	38.969
686.142	35.85008
686.331	42.17315
686.52	34.8586
686.709	44.40396
686.898	43.67978
687.087	40.41753
687.276	43.45128
687.465	42.35032
687.654	39.01435
687.842	42.69268
688.031	36.83292
688.22	43.34113
688.409	39.68379
688.598	39.74218
688.787	46.01724
688.976	39.36049
689.165	44.42459
689.353	38.1016
689.542	40.87136
689.731	42.07551
689.92	45.19705
690.108	41.41189
690.297	38.72377
690.486	39.98367
690.675	41.57575
690.863	43.66801
691.052	43.32756
691.241	39.88508
691.429	41.06549
691.618	43.42709
691.806	36.5567
691.995	38.77506
692.184	40.19114
692.372	38.83688
692.561	40.47262
692.749	40.28912
692.938	48.80886
693.126	41.68799
693.315	39.1346
693.503	41.56504
693.692	43.21392
693.88	42.60393
694.068	46.26166
694.257	41.25036
694.445	43.50341
694.634	35.16056
694.822	42.74212
695.01	43.52057
695.199	46.55494
695.387	44.83881
695.575	43.69405
695.763	40.16945
695.952	39.90242
696.14	36.64226
696.328	39.37199
696.516	41.10353
696.705	42.53027
696.893	41.33145
697.081	36.99486
697.269	44.06424
697.457	39.11262
697.645	38.73558
697.833	44.55249
698.021	40.53862
698.21	41.27886
698.398	41.39671
698.586	39.18381
698.774	37.87936
698.962	40.92816
699.15	38.27866
699.338	36.67967
699.526	41.61822
699.714	37.90455
699.901	37.7423
700.089	41.291
700.277	36.90209
700.465	39.24898
700.653	40.98168
700.841	40.6233
701.029	37.16957
701.217	43.94907
701.404	40.04396
701.592	44.84581
701.78	46.73408
701.968	39.98026
702.155	39.2434
702.343	36.68907
702.531	44.47658
702.718	41.83705
702.906	39.1764
703.094	38.85408
703.281	44.55805
703.469	41.63366
703.657	44.79547
703.844	51.24839
704.032	48.1082
704.219	40.20061
704.407	43.39733
704.595	46.73483
704.782	42.90322
704.97	42.6775
705.157	41.85149
705.345	49.52587
705.532	55.5677
705.719	46.74361
705.907	50.59238
706.094	46.90513
706.282	53.25466
706.469	46.55678
706.656	48.25213
706.844	47.42598
707.031	52.43205
707.218	50.68449
707.406	54.31021
707.593	52.23269
707.78	51.77984
707.968	49.8534
708.155	47.47029
708.342	51.43651
708.529	52.04077
708.716	51.29396
708.904	55.61509
709.091	52.98701
709.278	46.27385
709.465	56.99732
709.652	54.16706
709.839	54.11948
710.026	49.20734
710.213	43.34938
710.4	49.05241
710.587	50.30611
710.774	51.35393
710.961	52.72569
711.148	49.42582
711.335	52.00484
711.522	48.37865
711.709	50.55199
711.896	55.63009
712.083	53.22934
712.27	46.34904
712.457	50.09085
712.644	44.03101
712.831	56.82137
713.017	49.76703
713.204	51.35443
713.391	46.44061
713.578	52.04303
713.765	53.74715
713.951	49.01319
714.138	59.12968
714.325	48.61004
714.512	47.14442
714.698	43.61614
714.885	52.18261
715.072	46.64414
715.258	45.60309
715.445	43.40461
715.631	50.23584
715.818	36.31366
716.005	43.00532
716.191	47.55024
716.378	42.81075
716.564	48.52135
716.751	40.75844
716.937	43.08988
717.124	47.17033
717.31	40.69433
717.497	51.15744
717.683	41.43959
717.869	52.89423
718.056	42.62769
718.242	46.02567
718.429	43.00931
718.615	39.94558
718.801	44.26477
718.988	48.67507
719.174	46.44413
719.36	43.09893
719.547	49.02316
719.733	44.73259
719.919	46.85021
720.105	46.65379
720.291	44.70998
720.478	45.87041
720.664	44.60628
720.85	43.411
721.036	57.02775
721.222	52.24881
721.408	45.18452
721.595	53.17819
721.781	51.94912
721.967	49.78688
722.153	52.56246
722.339	47.99503
722.525	46.70508
722.711	40.46575
722.897	40.85171
723.083	44.29714
723.269	50.16994
723.455	58.42562
723.641	64.19498
723.827	46.43199
724.012	48.53493
724.198	44.8849
724.384	52.22516
724.57	48.1314
724.756	39.28325
724.942	38.00306
725.127	50.74553
725.313	52.14852
725.499	51.71403
725.685	54.16438
725.87	47.74107
726.056	42.34035
726.242	52.92187
726.428	39.33659
726.613	50.45068
726.799	44.28083
726.985	41.95522
727.17	38.4729
727.356	56.01305
727.541	42.0369
727.727	46.04785
727.913	50.0011
728.098	44.46696
728.284	49.31141
728.469	41.78095
728.655	43.78701
728.84	50.89104
729.026	50.57061
729.211	49.48108
729.397	48.27854
729.582	50.07328
729.767	47.02294
729.953	48.96944
730.138	52.06919
730.323	37.61038
730.509	42.34599
730.694	55.4196
730.879	49.97678
731.065	46.8728
731.25	58.77377
731.435	50.42634
731.621	40.62601
731.806	44.30618
731.991	47.53751
732.176	41.19719
732.361	55.52168
732.547	48.79388
732.732	40.71506
732.917	58.60229
733.102	42.00795
733.287	43.3499
733.472	46.40807
733.657	46.92203
733.842	39.44812
734.027	43.26649
734.212	45.50415
734.397	42.67805
734.582	46.85018
734.767	51.80336
734.952	53.71563
735.137	34.84339
735.322	53.18892
735.507	49.18292
735.692	47.78526
735.877	57.02231
736.062	56.23259
736.247	49.18569
736.431	45.79206
736.616	52.53925
736.801	48.46759
736.986	47.0814
737.171	42.34968
737.355	40.95713
737.54	53.65249
737.725	47.44809
737.909	61.9653
738.094	44.83729
738.279	52.44611
738.463	45.93448
738.648	50.65128
738.833	50.36119
739.017	58.47125
739.202	46.0468
739.386	46.30987
739.571	42.30486
739.756	51.52954
739.94	47.78252
740.125	50.13762
740.309	43.86908
740.494	52.25454
740.678	47.93216
740.863	49.58545
741.047	47.25378
741.231	55.93353
741.416	43.49747
741.6	57.02828
741.785	43.77406
741.969	53.09228
742.153	55.85984
742.338	38.25826
742.522	47.91389
742.706	51.94735
742.89	41.82739
743.075	48.08599
743.259	54.73619
743.443	54.13899
743.627	55.58871
743.812	60.45265
743.996	39.06875
744.18	46.30167
744.364	45.81582
744.548	62.08701
744.732	46.06734
744.916	54.62251
745.1	52.51536
745.285	47.11441
745.469	51.77088
745.653	57.60104
745.837	42.43843
746.021	62.71183
746.205	56.66699
746.389	49.126
746.573	48.97424
746.757	57.94798
746.94	46.02825
747.124	55.53016
747.308	43.06268
747.492	55.92845
747.676	43.75649
747.86	65.36237
748.044	47.36895
748.227	39.69084
748.411	72.6894
748.595	50.37659
748.779	44.5518
748.963	51.65545
749.146	49.49369
749.33	44.23176
749.514	43.37372
749.697	55.38532
749.881	44.96746
750.065	43.46541
750.248	50.01126
750.432	63.78121
750.616	49.1139
750.799	43.03806
750.983	65.28579
751.166	64.30793
751.35	40.33848
751.533	55.4149
751.717	59.55229
751.9	60.2549
752.084	47.38034
752.267	44.94598
752.451	45.91726
752.634	50.55044
752.818	54.09972
753.001	54.90548
753.184	57.01781
753.368	52.62093
753.551	31.3355
753.734	44.32072
753.918	65.08887
754.101	45.34969
754.284	54.93727
754.467	46.31502
754.651	46.07012
754.834	43.15017
755.017	57.0353
755.2	56.88567
755.384	42.89248
755.567	55.17225
755.75	56.4389
755.933	47.88363
756.116	54.618
756.299	45.5461
756.482	43.18485
756.665	52.54965
756.848	48.19181
757.032	51.24525
757.215	41.11897
757.398	43.09405
757.581	43.60921
757.764	69.4935
757.947	48.89255
758.129	56.41063
758.312	32.9408
758.495	49.0963
758.678	49.23462
758.861	46.19033
759.044	61.43454
759.227	42.62376
759.41	45.61533
759.592	56.33757
759.775	48.02774
759.958	54.72329
760.141	42.18206
760.324	66.98093
760.506	60.56857
760.689	55.87131
760.872	65.72799
761.054	52.93547
761.237	50.7662
761.42	52.33643
761.602	56.1005
761.785	52.7096
761.968	59.56807
762.15	63.66562
762.333	50.02399
762.515	55.33075
762.698	49.73543
762.88	58.63622
763.063	53.92738
763.245	58.60774
763.428	46.61078
763.61	49.49574
763.793	43.72608
763.975	53.65308
764.158	49.06593
764.34	47.63245
764.522	45.85033
764.705	49.88667
764.887	59.1306
765.069	40.42073
765.252	52.88564
765.434	53.04214
765.616	51.03577
765.799	45.52936
765.981	55.82446
766.163	46.58183
766.345	59.0315
766.528	45.56051
766.71	37.15559
766.892	51.92669
767.074	60.13681
767.256	47.72293
767.438	63.05693
767.62	52.73637
767.802	67.86331
767.985	54.78869
768.167	63.20139
768.349	47.28938
768.531	55.99246
768.713	52.68495
768.895	57.36864
769.077	53.77465
769.259	71.87053
769.441	89.12717
769.623	55.08438
769.804	61.95998
769.986	60.20656
770.168	68.84824
770.35	79.80968
770.532	63.93596
770.714	69.01464
770.896	68.25616
771.077	44.77943
771.259	72.5571
771.441	64.03441
771.623	74.67324
771.804	85.19638
771.986	46.27048
772.168	55.12716
772.35	72.33811
772.531	88.04334
772.713	64.49036
772.894	76.75873
773.076	64.6216
773.258	59.13803
773.439	79.06793
773.621	82.11683
773.802	54.74277
773.984	58.1789
774.166	67.45223
774.347	79.90429
774.529	75.16868
774.71	43.58288
774.891	61.72116
775.073	58.72319
775.254	76.57833
775.436	54.71904
775.617	90.39575
775.799	58.56798
775.98	77.72332
776.161	85.07117
776.343	86.23975
776.524	64.02786
776.705	59.88011
776.886	45.02282
777.068	64.89341
777.249	113.64564
777.43	86.03138
777.611	51.56915
777.793	58.75875
777.974	84.70453
778.155	56.39257
778.336	50.11312
778.517	95.78508
778.698	56.18242
778.879	43.77576
779.061	34.98204
779.242	68.36549
779.423	69.2363
779.604	57.65889
779.785	60.13202
779.966	66.76106
780.147	77.48569
780.328	75.84348
780.509	98.086
780.69	74.91878
780.871	55.93225
781.051	49.08165
781.232	65.52696
781.413	63.45871
781.594	59.67012
781.775	59.28032
781.956	54.92053
782.137	40.51011
782.317	57.60859
782.498	65.61397
782.679	65.33402
782.86	66.66246
783.04	58.39021
783.221	67.16702
783.402	87.12905
783.583	63.6658
783.763	75.8618
783.944	57.97822
784.124	49.22636
784.305	86.65529
784.486	72.24423
784.666	64.77435
784.847	46.74947
785.027	107.63891
785.208	57.21756
785.388	57.90692
785.569	57.62729
785.749	61.25873
785.93	58.57582
786.11	46.97709
786.291	73.25085
786.471	64.79945
786.652	75.83079
786.832	61.49425
787.012	66.15075
787.193	50.73046
787.373	65.6321
787.553	59.42454
787.734	68.9742
787.914	62.05176
788.094	76.92678
788.275	69.82529
788.455	59.92594
788.635	51.30908
788.815	66.51841
788.995	52.57927
789.176	46.1309
789.356	55.25551
789.536	61.83575
789.716	69.47379
789.896	54.76557
790.076	56.18432
790.256	68.39367
790.436	40.0725
790.616	52.22852
790.796	66.86197
790.976	57.60473
791.156	54.30559
791.336	71.19658
791.516	67.17186
791.696	60.8175
791.876	48.37912
792.056	65.71311
792.236	75.55414
792.416	73.76248
792.596	69.10908
792.776	68.8175
792.956	70.62961
793.135	86.70235
793.315	52.08051
793.495	77.96564
793.675	73.88875
793.854	74.22388
794.034	76.91939
794.214	51.6866
794.394	73.53952
794.573	81.07863
794.753	66.68372
794.933	52.73851
795.112	67.78807
795.292	76.5294
795.472	87.152
795.651	49.27606
795.831	63.5604
796.01	60.91218
796.19	61.09269
796.369	65.47774
796.549	69.23524
796.728	61.96653
796.908	49.53147
797.087	50.97849
797.267	60.60214
797.446	50.82345
797.626	70.86695
797.805	69.50337
797.984	55.91881
798.164	73.72064
798.343	55.74573
798.522	66.37375
798.702	66.0438
798.881	49.69425
799.06	62.26575
799.239	44.56727
799.419	53.62918
799.598	88.64402
799.777	68.88348
799.956	79.85482
800.136	60.15452
800.315	54.11652
800.494	68.82669
800.673	77.66913
800.852	73.42359
801.031	77.5304
801.21	70.99441
801.389	60.76747
801.568	66.36826
801.747	89.00941
801.926	66.38194
802.105	84.13546
802.284	58.94964
802.463	87.0488
802.642	66.57375
802.821	69.29195
803	82.54902
803.179	77.34999
803.358	77.96861
803.537	55.94374
803.716	64.09554
803.895	56.40552
804.073	60.53634
804.252	56.90235
804.431	70.98748
804.61	62.89736
804.789	74.32056
804.967	58.93411
805.146	58.65547
805.325	93.44551
805.503	71.14335
805.682	49.90403
805.861	108.75856
806.039	84.38971
806.218	59.98197
806.397	68.15949
806.575	63.71308
806.754	67.56443
806.932	51.4481
807.111	77.17789
807.289	76.35291
807.468	66.745
807.646	78.61954
807.825	75.28033
808.003	68.66029
808.182	75.59532
808.36	65.98598
808.539	55.52341
808.717	83.52841
808.895	57.71384
809.074	68.41446
809.252	65.63091
809.43	75.48996
809.609	81.43709
809.787	91.45191
809.965	58.31593
810.144	69.30145
810.322	66.18897
810.5	70.9108
810.678	61.39637
810.856	97.69784
811.035	81.49065
811.213	72.93835
811.391	89.15134
811.569	71.22932
811.747	121.36815
811.925	84.22152
812.103	58.62634
812.281	66.59188
812.459	92.32296
812.637	92.24633
812.816	78.33192
812.994	100.77585
813.171	88.66977
813.349	74.35449
813.527	80.85205
813.705	84.31946
813.883	105.77465
814.061	80.4166
814.239	92.05235
814.417	98.42153
814.595	76.25074
814.773	73.63282
814.95	73.65554
815.128	75.01351
815.306	72.737
815.484	66.4911
815.662	57.83087
815.839	55.49345
816.017	62.18051
816.195	86.53486
816.372	63.96635
816.55	77.96807
816.728	91.84604
816.905	67.28096
817.083	92.84188
817.261	66.61025
817.438	114.77266
817.616	89.879
817.793	62.51096
817.971	82.03413
818.148	81.95868
818.326	89.59945
818.503	72.8464
818.681	97.81635
818.858	64.69213
819.036	69.00175
819.213	71.84104
819.391	60.86096
819.568	62.51469
819.745	57.47541
819.923	80.56091
820.1	66.72608
820.277	58.70554
820.455	64.45602
820.632	68.35163
820.809	71.66342
820.986	57.05735
821.164	51.55817
821.341	50.69647
821.518	62.91261
821.695	54.9917
821.872	53.5243
822.05	50.35137
822.227	47.05878
822.404	47.45878
822.581	49.67272
822.758	46.73654
822.935	45.96802
823.112	47.49491
823.289	44.25942
823.466	46.1906
823.643	44.72632
823.82	47.60573
823.997	44.69282
824.174	47.75098
824.351	54.11992
824.528	52.78713
824.705	51.03482
824.882	54.31463
825.059	60.52873
825.236	52.59339
825.412	54.37663
825.589	59.10471
825.766	71.56714
825.943	56.14045
826.12	60.88134
826.296	53.68097
826.473	59.68187
826.65	60.19413
826.827	65.10334
827.003	53.57955
827.18	56.13791
827.357	58.83719
827.533	54.67394
827.71	44.36748
827.887	51.15639
828.063	53.69727
828.24	48.48561
828.416	54.53328
828.593	49.89539
828.769	58.63869
828.946	59.7947
829.122	61.47917
829.299	58.93622
829.475	48.87758
829.652	60.35716
829.828	80.98931
830.005	61.52686
830.181	74.1485
830.357	62.72034
830.534	77.19067
830.71	66.7804
830.886	76.79107
831.063	75.75262
831.239	89.00294
831.415	57.1969
831.592	88.66483
831.768	67.84094
831.944	63.59655
832.12	94.77029
832.296	89.08913
832.473	80.01957
832.649	62.17672
832.825	82.62547
833.001	60.75174
833.177	74.50884
833.353	69.85456
833.529	53.9667
833.705	67.88922
833.881	54.05668
834.058	53.98191
834.234	56.14295
834.41	55.39741
834.586	48.06495
834.761	51.93892
834.937	54.4284
835.113	54.40884
835.289	50.78353
835.465	54.23141
835.641	49.90725
835.817	54.33436
835.993	74.61365
836.169	50.88098
836.344	66.58099
836.52	70.81861
836.696	67.01416
836.872	61.98208
837.048	116.96626
837.223	63.02517
837.399	93.8965
837.575	82.77269
837.75	80.41854
837.926	99.58519
838.102	133.2809
838.277	114.55652
838.453	143.43773
838.628	145.39044
838.804	75.59204
838.98	130.07886
839.155	83.7789
839.331	102.25614
839.506	81.44508
839.682	83.59583
839.857	102.19556
840.033	114.25367
840.208	70.61891
840.384	49.15162
840.559	67.55835
840.734	87.78884
840.91	108.29403
841.085	75.46121
841.26	75.0911
841.436	71.19736
841.611	70.43354
841.786	92.93881
841.962	112.1362
842.137	80.92899
842.312	63.61335
842.487	76.42308
842.663	67.13428
842.838	77.4013
843.013	189.8353
843.188	102.27337
843.363	113.5198
843.538	156.33753
843.714	159.93361
843.889	166.751
844.064	179.74092
844.239	149.02333
844.414	165.39374
844.589	112.83848
844.764	198.34108
844.939	192.18028
845.114	208.69584
845.289	200.19068
845.464	262.54803
845.639	189.1234
845.814	117.15538
845.989	122.67165
846.163	141.50105
846.338	143.00866
846.513	201.17933
846.688	138.87239
846.863	138.88236
847.038	132.02822
847.212	147.47932
847.387	149.8767
847.562	155.37073
847.737	186.61398
847.911	94.41728
848.086	104.96308
848.261	281.43855
848.435	135.7937
848.61	186.75979
848.785	112.04295
848.959	196.42463
849.134	251.52183
849.308	258.41227
849.483	158.49697
849.658	225.56678
849.832	132.94047
850.007	121.63506
850.181	285.05048
850.356	129.559
850.53	269.30434
850.705	108.27338
850.879	75.03989
851.053	150.78523
851.228	137.63739
851.402	159.83547
851.577	203.16403
851.751	225.24488
851.925	161.0892
852.099	92.557
852.274	120.55402
852.448	145.61008
852.622	177.46512
852.797	157.48705
852.971	139.225
853.145	150.64389
853.319	382.80139
853.493	214.52805
853.668	131.14905
853.842	264.60222
854.016	215.75984
854.19	239.70053
854.364	161.31417
854.538	167.01597
854.712	213.29294
854.886	145.54811
855.06	137.45696
855.234	75.84216
855.408	228.10232
855.582	200.83775
855.756	202.66763
855.93	252.85185
856.104	188.55182
856.278	205.74745
856.452	169.15326
856.626	199.05588
856.8	293.12711
856.973	191.67377
857.147	178.93772
857.321	183.59611
857.495	218.04768
857.669	144.62137
857.842	138.98166
858.016	215.91611
858.19	130.68358
858.364	327.93347
858.537	139.49554
858.711	163.37351
858.885	147.10264
859.058	134.97452
859.232	86.1018
859.405	99.93265
859.579	200.40923
859.753	178.84111
859.926	129.94166
860.1	95.22454
860.273	160.37579
860.447	241.88966
860.62	143.63841
860.794	286.13279
860.967	179.73316
861.141	209.46223
861.314	300.26622
861.487	196.70195
861.661	247.04339
861.834	241.25537
862.008	216.0681
862.181	164.66992
862.354	161.94739
862.528	181.62952
862.701	133.41404
862.874	108.40502
863.047	144.39568
863.221	148.57293
863.394	89.8436
863.567	252.15245
863.74	78.74941
863.913	203.33889
864.087	179.97992
864.26	206.94369
864.433	161.43359
864.606	263.79163
864.779	166.55603
864.952	96.00498
865.125	134.54385
865.298	154.3302
865.471	161.64115
865.644	292.58846
865.817	252.71325
865.99	206.55749
866.163	231.03312
866.336	145.91447
866.509	168.25377
866.682	150.06816
866.855	224.68838
867.028	115.50252
867.2	190.99664
867.373	86.93793
867.546	176.03734
867.719	296.36464
867.892	200.10577
868.064	126.62706
868.237	197.66721
868.41	163.18387
868.583	113.98265
868.755	109.59365
868.928	161.52902
869.101	311.72002
869.273	227.52094
869.446	200.66788
869.619	224.86123
869.791	165.44065
869.964	223.21174
870.136	211.93318
870.309	176.83248
870.481	176.81673
870.654	100.48923
870.826	170.88209
870.999	144.1444
871.171	214.79584
871.344	144.59839
871.516	169.6524
871.689	134.34131
871.861	178.10527
872.033	131.62416
872.206	150.90097
872.378	225.89919
872.55	151.94568
872.723	110.17764
872.895	158.01402
873.067	223.72104
873.24	248.89928
873.412	144.97579
873.584	156.84829
873.756	149.63521
873.928	190.58224
874.101	184.54096
874.273	203.85959
874.445	94.78395
874.617	113.56744
874.789	176.16671
874.961	160.9894
875.133	200.61713
875.305	170.6786
875.477	121.50344
875.649	108.41464
875.821	125.2009
875.993	263.07554
876.165	122.87819
876.337	188.62494
876.509	151.94138
876.681	184.3771
876.853	182.67477
877.025	178.77413
877.197	132.69232
877.369	125.80206
877.541	216.60928
877.712	87.3202
877.884	117.69499
878.056	200.71159
878.228	123.87839
878.4	191.58163
878.571	123.75349
878.743	98.91504
878.915	180.32055
879.086	120.63091
879.258	140.76699
879.43	128.68241
879.601	116.53456
879.773	122.5997
879.945	55.5879
880.116	71.7929
880.288	57.57368
880.459	60.63825
880.631	55.32407
880.802	59.59729
880.974	58.03213
881.145	50.88346
881.317	56.43938
881.488	50.74166
881.66	53.09154
881.831	50.56937
882.002	56.45649
882.174	51.00074
882.345	55.67986
882.517	44.88029
882.688	57.76101
882.859	54.30336
883.03	67.50644
883.202	65.23758
883.373	61.32667
883.544	59.45943
883.715	84.09522
883.887	73.51852
884.058	68.35271
884.229	86.32007
884.4	86.97506
884.571	94.78483
884.742	85.75339
884.914	92.99133
885.085	117.25123
885.256	136.01288
885.427	120.49049
885.598	136.26941
885.769	140.3611
885.94	138.95955
886.111	103.74617
886.282	160.89935
886.453	131.22976
886.624	103.39991
886.795	147.0799
886.966	136.1644
887.136	163.25772
887.307	128.49361
887.478	196.44666
887.649	174.87357
887.82	180.71652
887.991	151.30343
888.161	193.88214
888.332	188.51432
888.503	114.50271
888.674	239.72199
888.844	254.85047
889.015	210.66641
889.186	110.61052
889.356	244.07141
889.527	109.00396
889.698	391.04852
889.868	150.1793
890.039	186.08914
890.209	170.01388
890.38	215.40756
890.551	183.17252
890.721	251.63079
890.892	213.15191
891.062	158.80027
891.233	185.07327
891.403	154.51341
891.574	130.68285
891.744	159.08239
891.914	208.57253
892.085	174.54234
892.255	85.16524
892.425	244.78997
892.596	205.99935
892.766	187.01176
892.936	255.87655
893.107	216.25444
893.277	141.5251
893.447	115.54344
893.618	90.16023
893.788	149.40286
893.958	90.88234
894.128	99.28606
894.298	104.68856
894.468	134.26656
894.639	77.77389
894.809	67.9304
894.979	83.5158
895.149	92.12704
895.319	79.10262
895.489	97.06569
895.659	111.60853
895.829	87.66316
895.999	91.02331
896.169	75.42027
896.339	85.98776
896.509	150.55838
896.679	165.5138
896.849	151.57789
897.019	210.93068
897.189	164.6839
897.358	151.27972
897.528	219.05412
897.698	94.50696
897.868	201.28422
898.038	313.34159
898.208	291.15077
898.377	125.43791
898.547	305.50635
898.717	458.55021
898.886	201.06956
899.056	284.75112
899.226	422.30954
899.395	273.96333
899.565	331.55701
899.735	236.57518
899.904	374.13668
900.074	309.52653
900.244	166.24332
900.413	558.17043
900.583	166.94624
900.752	232.85488
900.922	344.17103
901.091	71.18244
901.261	306.71146
901.43	283.2978
901.599	291.95193
901.769	590.40032
901.938	339.69439
902.108	307.18597
902.277	409.06878
902.446	146.43878
902.616	157.58534
902.785	215.92914
902.954	324.31631
903.124	236.06773
903.293	207.25814
903.462	121.61264
903.631	149.04263
903.801	118.53655
903.97	80.15707
904.139	113.27218
904.308	91.21178
904.477	79.53517
904.646	62.29814
904.816	79.15996
904.985	96.04557
905.154	131.67962
