Data from WindowProjectSample3_Transmission__54__00054.txt Node

Date: Sun May 04 11:27:55 EDT 2025
User: jessi
Spectrometer: SR400872
Trigger mode: 0
Integration Time (sec): 5.000050E-1
Scans to average: 20
Electric dark correction enabled: true
Nonlinearity correction enabled: true
Boxcar width: 0
XAxis mode: Wavelengths
Number of Pixels in Spectrum: 3648
>>>>>Begin Spectral Data<<<<<
184.909	-1276.7204
185.132	-1483.13499
185.355	-1157.28682
185.578	-1070.29
185.801	1134.67436
186.024	-948.76465
186.247	-4887.69913
186.47	-1737.70662
186.693	-226.07002
186.916	-536.04278
187.139	-801.75096
187.362	-2798.51918
187.585	-707.95688
187.808	-5177.50051
188.031	10406.1487
188.254	-2250.93528
188.476	-8823.94463
188.699	-1031.74726
188.922	696.78264
189.145	-1204.27886
189.368	3023.6659
189.591	-2336.1222
189.813	-1496.22421
190.036	-853.70918
190.259	-1121.56015
190.482	-1616.15404
190.705	-2392.37119
190.927	-741.85954
191.15	-1466.68143
191.373	-1118.15825
191.595	-1246.02655
191.818	-1345.75383
192.041	-812.40253
192.263	-1113.20594
192.486	-579.07448
192.709	-1563.27587
192.931	-3121.38872
193.154	-1159.73696
193.377	-1619.64783
193.599	-3338.78537
193.822	-3363.189
194.044	-3372.79907
194.267	-1832.62639
194.489	-195.62976
194.712	-944.20966
194.934	-1701.00675
195.157	-727.669
195.379	-1332.0809
195.602	-838.83962
195.824	-1340.21378
196.047	-2104.78302
196.269	-1080.82967
196.492	-1427.09104
196.714	-1225.66381
196.936	-1244.42674
197.159	-867.28528
197.381	-766.17982
197.604	-415.05519
197.826	-2033.69988
198.048	-1142.31798
198.271	-1617.3515
198.493	-1160.50103
198.715	-930.7738
198.938	-3438.06621
199.16	-4026.06525
199.382	-1230.61143
199.604	-1115.58547
199.827	-1837.96004
200.049	-1575.30196
200.271	-1245.63746
200.493	-1411.96179
200.715	-978.29614
200.938	-827.50151
201.16	-935.3159
201.382	-1006.85626
201.604	-1212.09555
201.826	-729.744
202.048	-812.40763
202.27	-1390.61877
202.492	-1392.98535
202.715	-1913.44676
202.937	-2029.09244
203.159	-1356.99569
203.381	-1620.70863
203.603	-1032.47726
203.825	-5200.97192
204.047	-1632.78894
204.269	-1367.61618
204.491	-1305.66357
204.713	-1551.20285
204.935	-1362.89756
205.156	-2665.14645
205.378	-2870.7184
205.6	-1535.85
205.822	-1097.18365
206.044	1334.13976
206.266	-1304.20194
206.488	-937.91855
206.71	-1737.61841
206.932	-1851.21709
207.153	-1067.18799
207.375	-1374.86038
207.597	-1076.53449
207.819	-1105.1658
208.041	-1186.33888
208.262	-1690.05653
208.484	-878.99346
208.706	-2119.39467
208.927	-805.1
209.149	-1376.51274
209.371	-1202.55564
209.593	-1407.33468
209.814	-585.82544
210.036	-1003.54777
210.258	-769.16549
210.479	-908.02992
210.701	-1858.29141
210.922	-1255.99234
211.144	-1020.34304
211.366	-1073.09294
211.587	1270.07355
211.809	-1117.52029
212.03	-5987.9542
212.252	936.57176
212.473	-937.0007
212.695	-18090.60078
212.916	-3513.42316
213.138	-1424.91196
213.359	-960.49144
213.581	-1407.59407
213.802	-889.80352
214.024	-1353.52537
214.245	-11016.46677
214.466	-808.89339
214.688	-1463.71844
214.909	-1054.20304
215.131	-2630.36818
215.352	-3900.65873
215.573	-1076.03238
215.795	-1832.38612
216.016	-1509.4734
216.237	-3060.86902
216.459	-1439.71866
216.68	-1075.65744
216.901	-1500.39194
217.122	11582.67056
217.344	-977.35223
217.565	-1332.399
217.786	-1302.97844
218.007	-1040.89989
218.228	-1247.15058
218.45	-1154.17625
218.671	-1086.25999
218.892	-965.30686
219.113	-1507.6555
219.334	-99.80713
219.555	-1480.14393
219.776	-1567.55692
219.997	-1233.5477
220.219	18102.78131
220.44	-1239.15167
220.661	-3276.33684
220.882	-930.48092
221.103	1701.61356
221.324	-2729.37349
221.545	-1141.43044
221.766	-1305.22904
221.987	-1893.77108
222.208	-2037.34964
222.429	-763.07314
222.65	-880.23744
222.87	-1545.90996
223.091	-3614.43688
223.312	3159.23581
223.533	-1154.18741
223.754	-1571.30196
223.975	-2169.04619
224.196	8776.71775
224.417	-7983.16438
224.637	4099.44502
224.858	133.49449
225.079	-1875.25774
225.3	26021.07277
225.521	-1041.67149
225.741	-5536.50364
225.962	7114.97334
226.183	347.55703
226.404	-3649.7255
226.624	2411.86286
226.845	-77637.92589
227.066	-648401.40504
227.286	892.32937
227.507	323.69148
227.728	280.078
227.948	662.58863
228.169	154.94254
228.389	167.93174
228.61	98.30033
228.831	131.47222
229.051	9.42089
229.272	73.00019
229.492	103.38079
229.713	27.37373
229.933	71.2129
230.154	62.15982
230.374	100.04611
230.595	71.89039
230.815	46.1043
231.036	70.85327
231.256	-10.75979
231.477	131.50156
231.697	79.84155
231.917	82.72281
232.138	117.57059
232.358	234.36521
232.579	198.16996
232.799	28.85695
233.019	190.84385
233.24	236.02954
233.46	83.01001
233.68	120.56792
233.901	76.83623
234.121	53.069
234.341	22.62578
234.561	-9.74475
234.782	39.82762
235.002	139.89731
235.222	-1.13523
235.442	117.25249
235.662	55.41863
235.883	113.41557
236.103	96.19841
236.323	61.45581
236.543	52.72944
236.763	72.88442
236.983	83.12553
237.203	77.09948
237.423	112.85756
237.643	171.88148
237.864	149.44589
238.084	37.26332
238.304	49.39679
238.524	86.21412
238.744	78.32356
238.964	132.72131
239.184	114.98344
239.404	123.67876
239.624	64.17833
239.843	106.95971
240.063	65.06955
240.283	41.32576
240.503	45.26453
240.723	45.84887
240.943	29.67815
241.163	34.55022
241.383	25.33344
241.603	13.67548
241.822	15.25172
242.042	11.07641
242.262	14.12538
242.482	15.14759
242.702	16.75235
242.921	5.10026
243.141	11.0901
243.361	10.31068
243.581	15.64542
243.8	12.68445
244.02	8.9088
244.24	15.65177
244.459	13.74614
244.679	28.44004
244.899	19.52959
245.118	23.57037
245.338	21.4534
245.558	22.65979
245.777	13.87151
245.997	17.27464
246.216	17.329
246.436	10.2639
246.655	7.41741
246.875	6.03722
247.094	10.32934
247.314	4.02844
247.533	6.41894
247.753	6.78031
247.972	5.52671
248.192	2.22675
248.411	3.3337
248.631	5.44562
248.85	6.92899
249.07	6.98101
249.289	9.60118
249.508	7.14717
249.728	11.85582
249.947	11.33037
250.166	14.39807
250.386	6.9045
250.605	11.20197
250.824	18.60595
251.044	13.25182
251.263	39.34584
251.482	23.14055
251.701	19.92659
251.921	0.37526
252.14	6.64706
252.359	7.24619
252.578	16.21076
252.798	6.17317
253.017	13.86028
253.236	6.94525
253.455	9.64534
253.674	18.3343
253.893	7.93303
254.112	13.31111
254.331	18.6462
254.551	15.85082
254.77	8.88391
254.989	21.34684
255.208	18.21581
255.427	27.47459
255.646	22.4675
255.865	33.76674
256.084	14.86279
256.303	19.84518
256.522	22.25227
256.741	6.36672
256.96	6.44197
257.179	14.05736
257.397	17.98088
257.616	9.84269
257.835	10.57327
258.054	25.1665
258.273	17.1845
258.492	17.52543
258.711	11.19614
258.93	4.81874
259.148	7.79697
259.367	7.41244
259.586	9.17568
259.805	4.24248
260.023	7.71677
260.242	5.82038
260.461	4.53245
260.68	2.19671
260.898	6.57834
261.117	2.30681
261.336	1.36181
261.554	5.58814
261.773	5.60858
261.992	1.41647
262.21	5.47038
262.429	6.26371
262.648	10.93038
262.866	12.97325
263.085	9.66435
263.303	8.04669
263.522	14.34534
263.74	13.97426
263.959	23.96071
264.178	13.01054
264.396	11.40808
264.615	7.58085
264.833	17.81313
265.051	14.88634
265.27	18.64748
265.488	17.20223
265.707	11.048
265.925	17.45341
266.144	8.36048
266.362	9.28496
266.58	9.74937
266.799	8.2124
267.017	9.66362
267.235	8.58434
267.454	5.99017
267.672	3.13058
267.89	6.91899
268.109	7.51858
268.327	7.28587
268.545	1.80472
268.763	6.4711
268.982	3.1526
269.2	8.08846
269.418	5.15187
269.636	3.75686
269.854	7.16876
270.073	5.52319
270.291	3.54588
270.509	2.91677
270.727	7.21949
270.945	12.06137
271.163	11.62004
271.381	2.74107
271.599	5.20224
271.817	8.15819
272.036	2.99863
272.254	5.63287
272.472	3.99509
272.69	3.98649
272.908	4.05857
273.126	6.34405
273.344	8.26273
273.562	3.3531
273.779	4.21038
273.997	6.88019
274.215	6.56821
274.433	4.98982
274.651	6.95196
274.869	7.32722
275.087	4.46147
275.305	6.76541
275.523	4.18847
275.74	5.27618
275.958	8.82351
276.176	12.74377
276.394	4.28604
276.612	5.4084
276.829	5.11178
277.047	4.76066
277.265	5.04875
277.483	5.68428
277.7	6.70267
277.918	5.43313
278.136	10.02742
278.353	5.12138
278.571	2.92135
278.789	7.95504
279.006	1.74609
279.224	4.86837
279.442	7.93356
279.659	6.19297
279.877	3.69553
280.094	9.06457
280.312	2.20348
280.529	5.66975
280.747	2.26355
280.964	5.00658
281.182	9.08574
281.399	4.97819
281.617	5.9934
281.834	4.11587
282.052	3.31138
282.269	5.37604
282.487	4.2323
282.704	3.79206
282.921	3.63528
283.139	5.56927
283.356	6.91608
283.574	6.5244
283.791	3.10966
284.008	8.37748
284.226	5.30822
284.443	5.51431
284.66	7.14139
284.877	6.23637
285.095	3.72592
285.312	2.98164
285.529	1.63634
285.746	1.81214
285.964	3.53821
286.181	2.54245
286.398	3.23556
286.615	4.57012
286.832	4.25951
287.05	1.21352
287.267	3.11963
287.484	3.1064
287.701	4.38744
287.918	4.18995
288.135	4.41968
288.352	2.05545
288.569	2.55184
288.786	4.17233
289.003	3.34968
289.22	5.04489
289.437	3.04528
289.654	4.78181
289.871	4.8223
290.088	4.72923
290.305	3.86652
290.522	3.15498
290.739	3.25496
290.956	5.0197
291.173	5.8625
291.39	5.61965
291.607	3.73141
291.824	3.33579
292.04	2.26857
292.257	4.91326
292.474	5.48698
292.691	3.6657
292.908	1.862
293.125	3.19387
293.341	2.12329
293.558	8.29206
293.775	3.77037
293.992	4.27394
294.208	1.46556
294.425	2.852
294.642	3.46688
294.858	5.19432
295.075	1.69823
295.292	3.62686
295.508	4.66674
295.725	6.36092
295.942	3.9611
296.158	3.18738
296.375	4.62459
296.591	3.8023
296.808	4.18992
297.024	4.64996
297.241	5.10984
297.458	5.34917
297.674	2.17352
297.891	4.65996
298.107	4.29719
298.323	3.57269
298.54	6.35455
298.756	4.36687
298.973	3.26693
299.189	6.93199
299.406	4.75474
299.622	6.99554
299.838	7.18183
300.055	6.74051
300.271	3.8962
300.487	4.6353
300.704	5.16883
300.92	4.2293
301.136	9.37211
301.353	7.69595
301.569	6.45689
301.785	6.64972
302.001	7.34625
302.218	7.04381
302.434	7.62545
302.65	5.12123
302.866	5.92972
303.083	10.34587
303.299	10.54067
303.515	7.19951
303.731	7.67429
303.947	5.28942
304.163	6.38096
304.379	7.45956
304.595	7.81695
304.812	6.25311
305.028	6.07115
305.244	6.68958
305.46	8.2364
305.676	8.57952
305.892	9.33877
306.108	8.38773
306.324	7.2523
306.54	10.39866
306.756	8.19486
306.972	7.98647
307.187	7.55583
307.403	9.75832
307.619	6.73102
307.835	9.3277
308.051	9.56299
308.267	6.47234
308.483	9.82565
308.699	8.67323
308.914	7.9556
309.13	8.13403
309.346	6.03384
309.562	6.7116
309.778	6.08473
309.993	8.78478
310.209	8.40267
310.425	6.37812
310.641	8.1147
310.856	7.11233
311.072	6.87178
311.288	8.08908
311.503	8.65951
311.719	5.89847
311.935	6.03805
312.15	8.9354
312.366	8.74772
312.581	8.97207
312.797	8.21737
313.013	9.43867
313.228	7.27871
313.444	7.86801
313.659	6.70575
313.875	8.85913
314.09	8.01336
314.306	10.2151
314.521	9.3145
314.737	9.22597
314.952	8.81287
315.168	8.79346
315.383	8.76871
315.599	7.74324
315.814	7.97959
316.029	9.43162
316.245	7.01694
316.46	5.43954
316.675	10.32485
316.891	11.24813
317.106	12.5994
317.321	8.81503
317.537	9.14703
317.752	9.77195
317.967	9.84055
318.183	7.16102
318.398	7.78873
318.613	9.8228
318.828	10.5168
319.043	9.68652
319.259	8.17597
319.474	8.6422
319.689	10.11637
319.904	5.92407
320.119	10.16515
320.334	8.60166
320.549	8.25185
320.765	10.32382
320.98	9.07443
321.195	9.55114
321.41	8.58651
321.625	9.57212
321.84	11.06775
322.055	11.13292
322.27	7.35259
322.485	6.90623
322.7	9.34832
322.915	10.35862
323.13	7.88226
323.345	11.35457
323.56	10.01015
323.775	9.94745
323.989	9.80534
324.204	9.13134
324.419	10.39788
324.634	6.99754
324.849	8.7609
325.064	12.0826
325.279	10.59376
325.493	9.69234
325.708	10.23535
325.923	8.03864
326.138	8.53553
326.352	11.24762
326.567	10.15482
326.782	8.58753
326.997	8.27998
327.211	9.85583
327.426	9.51746
327.641	8.68841
327.855	6.78425
328.07	10.13426
328.285	11.96978
328.499	8.46153
328.714	9.35268
328.928	9.95117
329.143	9.16491
329.358	10.98157
329.572	10.5141
329.787	11.39551
330.001	13.13845
330.216	7.10208
330.43	12.15749
330.645	11.17897
330.859	10.56366
331.074	7.68988
331.288	9.04175
331.503	12.25264
331.717	7.7232
331.931	9.34929
332.146	9.8726
332.36	12.53667
332.575	10.09381
332.789	9.53509
333.003	9.61342
333.218	10.51456
333.432	8.53344
333.646	11.07335
333.86	12.29894
334.075	12.34137
334.289	8.86015
334.503	7.32549
334.717	10.69839
334.932	10.01713
335.146	10.52566
335.36	7.96756
335.574	10.13144
335.788	9.59047
336.003	10.71323
336.217	11.00048
336.431	9.94299
336.645	9.16921
336.859	8.55053
337.073	10.01678
337.287	10.5103
337.501	8.43605
337.715	11.04518
337.929	10.83806
338.143	8.69231
338.357	9.73186
338.571	9.23332
338.785	11.28531
338.999	9.15959
339.213	8.93828
339.427	8.07647
339.641	11.70605
339.855	8.91647
340.069	8.49487
340.283	11.07785
340.497	12.17939
340.711	10.72351
340.924	9.95265
341.138	8.77507
341.352	8.11509
341.566	10.12729
341.78	7.6745
341.993	9.24444
342.207	8.90325
342.421	10.67029
342.635	9.81071
342.848	9.50705
343.062	6.69227
343.276	9.18633
343.49	12.9388
343.703	9.20285
343.917	11.54141
344.131	11.98331
344.344	9.11977
344.558	9.76677
344.771	8.45832
344.985	11.83207
345.199	13.03746
345.412	10.68023
345.626	11.06129
345.839	8.00477
346.053	8.7875
346.266	8.97758
346.48	10.90946
346.693	10.81738
346.907	11.00898
347.12	8.99619
347.334	10.2447
347.547	10.9172
347.76	10.27216
347.974	12.01608
348.187	10.5606
348.401	10.0775
348.614	8.98282
348.827	10.07109
349.041	11.03611
349.254	8.2568
349.467	10.27442
349.681	9.33085
349.894	9.30925
350.107	12.32244
350.32	13.54759
350.534	8.72266
350.747	10.30868
350.96	9.46004
351.173	9.60505
351.386	9.86896
351.6	9.6182
351.813	10.11142
352.026	10.36732
352.239	9.26979
352.452	10.17452
352.665	12.3656
352.878	10.54207
353.092	13.85032
353.305	11.89444
353.518	10.89794
353.731	9.52314
353.944	12.15344
354.157	10.4804
354.37	10.1512
354.583	9.39303
354.796	9.22262
355.009	12.51157
355.222	11.42155
355.435	11.20285
355.647	12.80244
355.86	10.19326
356.073	11.39989
356.286	10.78512
356.499	12.66476
356.712	12.75353
356.925	12.18112
357.138	12.73379
357.35	10.50925
357.563	10.98426
357.776	11.80546
357.989	11.82475
358.201	12.56672
358.414	12.19336
358.627	13.13528
358.84	11.45138
359.052	10.26035
359.265	10.49449
359.478	12.97603
359.69	8.61375
359.903	13.33514
360.116	13.57348
360.328	10.27114
360.541	13.22977
360.753	11.81704
360.966	12.15181
361.179	12.50265
361.391	12.19854
361.604	11.90164
361.816	12.17436
362.029	12.18514
362.241	11.60396
362.454	12.45205
362.666	11.67007
362.879	13.38329
363.091	12.1528
363.304	11.86211
363.516	12.16517
363.728	11.17525
363.941	12.9068
364.153	12.81388
364.366	9.96645
364.578	11.47342
364.79	13.13709
365.003	12.96781
365.215	12.14168
365.427	13.6213
365.639	14.13542
365.852	13.00671
366.064	14.75383
366.276	12.58722
366.488	13.44231
366.701	12.93508
366.913	12.60716
367.125	13.01581
367.337	12.24867
367.549	12.65793
367.762	13.12991
367.974	13.06201
368.186	12.77999
368.398	14.47912
368.61	13.98396
368.822	14.3277
369.034	12.88105
369.246	14.58228
369.458	16.76755
369.67	12.62521
369.882	15.9714
370.094	11.43153
370.306	15.44778
370.518	13.46621
370.73	13.68901
370.942	13.45006
371.154	14.12461
371.366	13.90322
371.578	14.9501
371.79	13.96406
372.002	15.65908
372.214	17.13671
372.425	14.40836
372.637	16.62163
372.849	14.91965
373.061	11.90492
373.273	15.17287
373.484	15.31551
373.696	15.53055
373.908	12.00561
374.12	16.14382
374.331	15.71179
374.543	13.95239
374.755	14.01973
374.967	15.30424
375.178	16.72769
375.39	14.74668
375.602	15.77622
375.813	13.70558
376.025	14.66623
376.236	15.83127
376.448	16.43309
376.66	16.04739
376.871	15.98833
377.083	17.19055
377.294	18.40727
377.506	15.92287
377.717	18.25577
377.929	16.64655
378.14	16.0938
378.352	17.23235
378.563	17.54471
378.775	18.30589
378.986	15.62917
379.197	17.08123
379.409	15.80571
379.62	17.66865
379.832	17.20332
380.043	16.86993
380.254	17.55057
380.466	15.59699
380.677	20.63736
380.888	19.60772
381.1	20.68662
381.311	20.76205
381.522	18.02903
381.733	21.20373
381.945	17.59902
382.156	17.45925
382.367	17.40513
382.578	21.3079
382.789	21.80718
383.001	17.34759
383.212	20.76432
383.423	20.88268
383.634	19.95952
383.845	19.6604
384.056	18.4448
384.267	18.8774
384.478	19.15798
384.69	17.85368
384.901	19.92339
385.112	19.56416
385.323	21.57388
385.534	19.76892
385.745	19.87872
385.956	19.89989
386.167	18.64775
386.378	20.33085
386.588	19.16354
386.799	19.10729
387.01	18.24689
387.221	21.02996
387.432	20.18009
387.643	22.32593
387.854	20.03507
388.065	19.96706
388.275	20.36228
388.486	19.71676
388.697	20.8527
388.908	20.07311
389.119	22.17736
389.329	22.62521
389.54	21.09706
389.751	21.65848
389.962	22.81682
390.172	21.49514
390.383	21.23331
390.594	20.94966
390.804	21.12405
391.015	21.27435
391.226	22.17597
391.436	22.77781
391.647	22.46472
391.858	22.86276
392.068	20.3418
392.279	21.079
392.489	22.71149
392.7	23.4062
392.91	21.52178
393.121	21.51809
393.331	23.16314
393.542	23.9756
393.752	23.46537
393.963	23.34406
394.173	23.45705
394.384	24.03637
394.594	23.20611
394.804	21.9242
395.015	23.37479
395.225	24.05587
395.436	22.04987
395.646	23.87511
395.856	22.90434
396.067	21.63714
396.277	24.501
396.487	24.18218
396.697	23.87832
396.908	24.50595
397.118	24.6165
397.328	24.21443
397.538	24.96768
397.749	23.47001
397.959	25.18574
398.169	24.76619
398.379	22.859
398.589	25.03706
398.8	25.04031
399.01	25.05015
399.22	24.1278
399.43	26.91537
399.64	24.71331
399.85	25.03676
400.06	24.99466
400.27	24.04665
400.48	24.70454
400.69	26.32612
400.9	24.69627
401.11	24.00214
401.32	26.14025
401.53	24.69946
401.74	27.08724
401.95	26.02186
402.16	25.29358
402.37	26.36708
402.58	25.25213
402.79	26.3163
403	27.08689
403.209	25.55809
403.419	27.52093
403.629	25.43764
403.839	27.47598
404.049	27.50975
404.258	25.99311
404.468	25.6236
404.678	27.39599
404.888	27.79057
405.097	26.18217
405.307	26.53521
405.517	27.28263
405.727	27.06652
405.936	26.35086
406.146	26.85674
406.356	28.19351
406.565	26.78525
406.775	26.37999
406.984	26.38912
407.194	28.99326
407.404	27.02425
407.613	27.41494
407.823	27.91563
408.032	28.80273
408.242	28.00238
408.451	26.65986
408.661	27.02341
408.87	29.31619
409.08	26.81536
409.289	28.20035
409.499	28.1868
409.708	27.93105
409.918	25.75366
410.127	28.23622
410.336	29.6559
410.546	28.8496
410.755	27.81838
410.964	27.60472
411.174	26.81738
411.383	28.51902
411.592	28.28771
411.802	26.96988
412.011	28.99226
412.22	27.93265
412.429	29.99283
412.639	29.83368
412.848	29.7114
413.057	30.09521
413.266	29.65374
413.475	28.63484
413.685	29.53355
413.894	29.57418
414.103	29.94363
414.312	29.56722
414.521	28.71804
414.73	29.82219
414.939	31.23798
415.148	29.85099
415.357	29.54379
415.566	29.13236
415.776	29.06057
415.985	29.11208
416.194	30.29475
416.403	31.59756
416.611	28.43425
416.82	29.26409
417.029	30.01257
417.238	29.2196
417.447	29.2812
417.656	29.8067
417.865	29.46151
418.074	29.99248
418.283	30.27936
418.492	31.15279
418.7	30.77359
418.909	31.93634
419.118	30.38637
419.327	30.85026
419.536	30.55173
419.744	30.12327
419.953	31.38747
420.162	31.40928
420.371	30.01745
420.579	29.85334
420.788	31.0274
420.997	31.15932
421.205	30.77789
421.414	30.62021
421.623	30.47085
421.831	30.10408
422.04	30.99589
422.249	30.0627
422.457	30.81039
422.666	30.29043
422.874	31.2782
423.083	31.55387
423.291	31.58509
423.5	31.33407
423.708	31.28069
423.917	31.91568
424.125	31.28692
424.334	30.96289
424.542	32.7598
424.751	31.857
424.959	31.65424
425.167	32.13664
425.376	31.9182
425.584	31.22091
425.793	31.66545
426.001	30.63763
426.209	31.86234
426.418	30.72736
426.626	30.82916
426.834	30.72194
427.042	31.33293
427.251	30.79468
427.459	32.38996
427.667	31.91253
427.875	30.39397
428.084	30.99443
428.292	32.85071
428.5	32.25496
428.708	30.59563
428.916	31.02149
429.124	31.90451
429.333	31.74463
429.541	31.77655
429.749	31.97103
429.957	32.11166
430.165	34.2678
430.373	30.98965
430.581	32.44422
430.789	33.41339
430.997	31.88373
431.205	31.65834
431.413	32.60219
431.621	31.92821
431.829	33.07539
432.037	32.39008
432.245	32.63168
432.453	33.12501
432.661	32.6
432.869	34.54961
433.076	32.00689
433.284	32.43653
433.492	33.14011
433.7	33.72193
433.908	32.06424
434.116	32.6167
434.323	32.50508
434.531	32.36343
434.739	32.94365
434.947	33.26933
435.154	33.29611
435.362	32.56582
435.57	32.33551
435.778	32.26757
435.985	32.95585
436.193	32.29517
436.401	34.18281
436.608	32.87515
436.816	32.55027
437.023	34.44389
437.231	34.85192
437.439	33.223
437.646	33.94074
437.854	33.47557
438.061	33.98695
438.269	33.26312
438.476	34.08796
438.684	33.64598
438.891	33.27394
439.099	32.98636
439.306	32.42443
439.514	32.64864
439.721	33.88033
439.929	33.04647
440.136	33.92783
440.343	33.8054
440.551	33.21529
440.758	34.8392
440.965	33.78451
441.173	33.3218
441.38	32.67282
441.587	33.4906
441.795	32.6153
442.002	33.35251
442.209	33.39585
442.416	33.89245
442.624	33.917
442.831	33.7697
443.038	33.05485
443.245	32.82893
443.452	33.58501
443.66	34.38857
443.867	33.45689
444.074	33.42019
444.281	33.58898
444.488	33.69338
444.695	34.03165
444.902	33.71759
445.109	34.71518
445.316	33.93415
445.523	33.8812
445.73	33.3584
445.937	34.05264
446.144	34.51568
446.351	34.24566
446.558	33.30261
446.765	34.46344
446.972	34.52932
447.179	33.7
447.386	34.79081
447.593	33.28436
447.8	34.75935
448.007	33.52083
448.214	33.58546
448.42	33.23705
448.627	34.76711
448.834	33.61629
449.041	33.4621
449.248	33.52276
449.454	34.59656
449.661	35.72951
449.868	33.55547
450.075	33.33749
450.281	32.25331
450.488	32.9993
450.695	33.32194
450.901	33.40288
451.108	33.76231
451.315	35.16332
451.521	34.04717
451.728	35.15372
451.935	33.72757
452.141	34.18729
452.348	34.21865
452.554	34.12579
452.761	33.93582
452.967	35.62847
453.174	34.32935
453.38	34.77822
453.587	33.27174
453.793	34.38403
454	34.99533
454.206	36.2831
454.413	35.42836
454.619	35.03586
454.825	33.83269
455.032	35.20896
455.238	35.3661
455.445	33.31588
455.651	34.51647
455.857	32.69874
456.064	34.2047
456.27	34.30522
456.476	34.35293
456.682	33.31659
456.889	34.88098
457.095	35.24916
457.301	37.14688
457.507	34.77153
457.714	35.08673
457.92	34.73318
458.126	34.24564
458.332	34.82867
458.538	34.53976
458.744	34.96995
458.951	35.05773
459.157	36.42148
459.363	35.09386
459.569	34.46623
459.775	35.26424
459.981	34.18815
460.187	34.47207
460.393	35.07908
460.599	35.37272
460.805	34.66199
461.011	34.47901
461.217	35.11469
461.423	35.64161
461.629	34.34827
461.835	35.44384
462.041	34.5595
462.247	36.06885
462.453	34.56508
462.658	34.48999
462.864	35.50198
463.07	35.16154
463.276	35.16907
463.482	35.28565
463.688	36.73642
463.893	34.60869
464.099	34.97169
464.305	36.88618
464.511	34.68083
464.716	35.00804
464.922	35.83786
465.128	34.514
465.333	36.86804
465.539	36.0004
465.745	35.37986
465.95	35.56849
466.156	38.00651
466.362	36.28827
466.567	35.24561
466.773	35.02577
466.978	36.28364
467.184	34.48713
467.389	33.32779
467.595	35.60186
467.8	34.37943
468.006	36.40223
468.211	36.46068
468.417	34.32369
468.622	35.95064
468.828	36.19601
469.033	35.66828
469.239	38.22497
469.444	34.98749
469.649	36.35288
469.855	35.48897
470.06	36.17717
470.266	34.78297
470.471	36.58621
470.676	35.96584
470.881	33.85328
471.087	37.35182
471.292	37.09725
471.497	34.47202
471.703	35.57876
471.908	35.27007
472.113	36.23079
472.318	36.42469
472.523	34.65889
472.729	35.88926
472.934	36.03855
473.139	35.24281
473.344	36.06182
473.549	36.74777
473.754	34.85396
473.959	37.53673
474.164	35.06009
474.369	35.83216
474.575	36.7562
474.78	35.75584
474.985	35.40513
475.19	34.50572
475.395	35.64962
475.6	35.78285
475.804	37.70423
476.009	36.31607
476.214	35.88934
476.419	35.50207
476.624	34.44049
476.829	35.04523
477.034	36.54682
477.239	35.19834
477.444	36.20194
477.648	36.37265
477.853	36.41506
478.058	35.48763
478.263	35.21964
478.468	34.86638
478.672	35.0755
478.877	37.19078
479.082	37.71641
479.287	36.35437
479.491	36.09762
479.696	35.1424
479.901	36.78859
480.105	36.73437
480.31	35.61382
480.515	36.22662
480.719	38.29974
480.924	35.7459
481.128	35.17024
481.333	36.29924
481.538	36.38346
481.742	35.95329
481.947	36.78113
482.151	36.93595
482.356	36.63356
482.56	39.4818
482.765	44.48668
482.969	52.2963
483.174	58.8896
483.378	67.32159
483.582	70.21203
483.787	73.77257
483.991	75.45017
484.196	75.14551
484.4	73.49509
484.604	71.94628
484.809	66.28513
485.013	61.23286
485.217	55.14097
485.422	49.17765
485.626	44.88538
485.83	42.67929
486.034	41.72584
486.239	42.89443
486.443	44.70851
486.647	46.40284
486.851	49.12771
487.055	52.3967
487.26	53.64136
487.464	55.75047
487.668	55.36563
487.872	56.42929
488.076	55.81895
488.28	53.48283
488.484	50.15794
488.688	48.09789
488.892	45.02565
489.096	41.26768
489.3	38.22881
489.504	36.11439
489.708	36.51651
489.912	36.63736
490.116	36.90934
490.32	36.39249
490.524	37.52897
490.728	38.65112
490.932	41.41818
491.136	44.13331
491.34	46.41026
491.544	47.22913
491.748	47.34808
491.951	46.78615
492.155	45.50499
492.359	43.70798
492.563	40.0952
492.767	37.19545
492.97	35.4442
493.174	35.30886
493.378	35.92673
493.582	35.77656
493.785	36.50709
493.989	37.09956
494.193	36.8068
494.396	36.50249
494.6	37.57795
494.804	36.94674
495.007	36.49548
495.211	36.60278
495.414	36.90923
495.618	37.33294
495.822	38.16689
496.025	37.39047
496.229	37.82295
496.432	36.45479
496.636	36.8808
496.839	36.8539
497.043	38.25692
497.246	37.21477
497.45	36.34823
497.653	36.75345
497.856	37.18007
498.06	36.24941
498.263	36.69255
498.467	36.59921
498.67	37.83482
498.873	37.57375
499.077	36.72103
499.28	37.01934
499.483	37.42126
499.686	37.79046
499.89	37.34423
500.093	37.93469
500.296	36.33397
500.499	38.69572
500.703	37.17275
500.906	37.48034
501.109	39.01436
501.312	37.31313
501.515	37.23947
501.719	37.6876
501.922	38.44031
502.125	37.67826
502.328	37.31447
502.531	36.53265
502.734	37.55109
502.937	36.14411
503.14	37.79883
503.343	36.71987
503.546	37.19113
503.749	36.8653
503.952	38.03907
504.155	36.82818
504.358	38.15309
504.561	37.58895
504.764	36.31126
504.967	37.54671
505.17	37.50696
505.373	38.8611
505.576	37.6854
505.778	38.1497
505.981	37.05184
506.184	38.71598
506.387	36.37579
506.59	39.35834
506.793	38.91249
506.995	38.34604
507.198	35.97231
507.401	38.31331
507.604	38.41931
507.806	37.101
508.009	37.37197
508.212	38.4984
508.414	37.51929
508.617	37.39299
508.82	37.82234
509.022	38.88021
509.225	38.15494
509.427	36.7273
509.63	39.00868
509.833	37.77946
510.035	37.42248
510.238	36.25177
510.44	38.88428
510.643	36.21427
510.845	39.81025
511.048	38.61743
511.25	37.59538
511.453	37.95873
511.655	38.52252
511.858	37.48745
512.06	38.67344
512.262	37.92881
512.465	39.03601
512.667	37.53506
512.869	36.90954
513.072	38.19316
513.274	38.59615
513.476	38.50588
513.679	38.81473
513.881	36.96202
514.083	39.36298
514.286	37.50924
514.488	37.34857
514.69	37.24666
514.892	36.71643
515.094	38.65973
515.297	37.4987
515.499	38.27284
515.701	37.39121
515.903	39.81511
516.105	39.98112
516.307	38.9633
516.509	36.83838
516.711	37.39645
516.913	38.49682
517.116	38.49717
517.318	38.21449
517.52	39.38111
517.722	38.99218
517.924	37.22382
518.126	38.55043
518.328	37.65438
518.529	38.47212
518.731	39.51526
518.933	37.60084
519.135	38.00472
519.337	39.12367
519.539	38.30536
519.741	36.46945
519.943	37.87388
520.145	37.72957
520.346	38.40741
520.548	37.84902
520.75	38.40772
520.952	38.07867
521.153	38.37777
521.355	38.70729
521.557	37.46058
521.759	38.51351
521.96	38.30305
522.162	37.45717
522.364	39.25678
522.565	37.70502
522.767	38.93797
522.969	39.42463
523.17	38.87235
523.372	38.7585
523.573	37.93945
523.775	38.50908
523.977	37.582
524.178	40.08936
524.38	38.13598
524.581	39.4088
524.783	38.35104
524.984	39.1332
525.186	38.55441
525.387	39.01052
525.589	38.35016
525.79	37.87615
525.991	37.5281
526.193	38.68309
526.394	37.25964
526.596	38.50274
526.797	38.60135
526.998	38.26495
527.2	38.01916
527.401	39.67918
527.602	42.45419
527.803	48.59497
528.005	52.32235
528.206	56.13185
528.407	58.86079
528.608	59.46346
528.81	59.73832
529.011	58.47815
529.212	58.56132
529.413	54.87557
529.614	50.84438
529.815	46.74269
530.017	42.4766
530.218	38.11102
530.419	37.76326
530.62	38.47571
530.821	38.57536
531.022	37.4919
531.223	39.08967
531.424	39.12994
531.625	39.01703
531.826	38.95601
532.027	39.26476
532.228	40.2073
532.429	39.21415
532.63	38.96583
532.831	40.15954
533.032	40.6483
533.233	41.71626
533.433	41.03954
533.634	41.06294
533.835	39.37464
534.036	37.99918
534.237	38.32616
534.438	38.08527
534.638	37.58805
534.839	38.10576
535.04	39.06017
535.241	38.41719
535.441	40.21745
535.642	39.33492
535.843	38.381
536.043	38.23762
536.244	38.40719
536.445	38.27177
536.645	39.37899
536.846	38.83904
537.047	39.60745
537.247	38.21223
537.448	38.34912
537.648	38.62401
537.849	38.44966
538.049	38.40083
538.25	39.26964
538.451	39.26528
538.651	38.30654
538.851	39.35197
539.052	40.43011
539.252	40.19878
539.453	39.1459
539.653	39.59438
539.854	39.72149
540.054	39.7013
540.254	40.5269
540.455	40.24481
540.655	39.27108
540.855	41.53092
541.056	43.70916
541.256	44.13026
541.456	45.647
541.657	45.11065
541.857	45.23959
542.057	42.74781
542.257	40.93602
542.458	40.04184
542.658	39.43775
542.858	38.04937
543.058	39.83475
543.258	39.33452
543.458	38.23755
543.659	38.13425
543.859	39.94887
544.059	39.92701
544.259	38.98593
544.459	39.93005
544.659	38.80639
544.859	39.48855
545.059	38.98666
545.259	40.19863
545.459	39.78556
545.659	40.48222
545.859	39.73936
546.059	39.89861
546.259	38.78695
546.459	38.10305
546.659	38.36603
546.859	40.01934
547.059	39.5055
547.258	39.64607
547.458	39.68789
547.658	38.13066
547.858	38.14234
548.058	39.39587
548.258	39.12202
548.457	38.30694
548.657	41.88282
548.857	39.23845
549.057	40.15701
549.256	40.16511
549.456	39.23702
549.656	37.89618
549.855	41.37837
550.055	39.32933
550.255	41.89621
550.454	40.11793
550.654	40.82971
550.853	41.41161
551.053	41.03598
551.253	40.34346
551.452	40.47265
551.652	38.89719
551.851	38.37971
552.051	39.90685
552.25	39.34724
552.45	39.29827
552.649	39.73537
552.849	38.87803
553.048	39.49435
553.248	40.58333
553.447	38.73943
553.646	40.53388
553.846	41.42273
554.045	40.57523
554.244	38.3108
554.444	41.67845
554.643	39.06555
554.842	41.58277
555.042	42.56945
555.241	39.36826
555.44	38.87134
555.64	40.3022
555.839	42.63276
556.038	40.69043
556.237	39.04827
556.436	40.00036
556.636	40.21272
556.835	38.93838
557.034	42.13669
557.233	39.79199
557.432	38.34444
557.631	41.14243
557.83	39.77059
558.029	39.30187
558.228	39.42869
558.427	38.84928
558.626	40.31833
558.825	39.02061
559.024	40.28725
559.223	42.41844
559.422	39.76287
559.621	40.53505
559.82	37.25244
560.019	40.20643
560.218	39.88364
560.417	36.84077
560.616	39.79145
560.815	44.12175
561.014	38.41966
561.212	42.14546
561.411	40.35491
561.61	38.12953
561.809	39.9166
562.008	42.01317
562.206	40.12298
562.405	40.79039
562.604	40.05368
562.803	40.42794
563.001	39.37955
563.2	38.36161
563.399	41.02204
563.597	38.62274
563.796	40.21481
563.995	38.83432
564.193	40.95817
564.392	39.83818
564.59	43.05393
564.789	37.90558
564.988	39.53913
565.186	40.41526
565.385	40.16128
565.583	39.56324
565.782	39.81052
565.98	39.69868
566.179	39.96542
566.377	38.66396
566.575	39.34596
566.774	41.28782
566.972	40.89616
567.171	42.26185
567.369	41.42868
567.567	40.03232
567.766	40.33545
567.964	37.6135
568.162	41.0915
568.361	41.55089
568.559	40.03114
568.757	41.0391
568.956	40.32342
569.154	40.23717
569.352	41.12862
569.55	40.26914
569.748	40.38399
569.947	39.43255
570.145	39.23724
570.343	39.06004
570.541	41.52716
570.739	39.09118
570.937	40.46586
571.135	41.16256
571.333	42.43708
571.532	42.06406
571.73	40.56996
571.928	41.28736
572.126	40.6718
572.324	39.46297
572.522	41.66692
572.72	43.3292
572.918	39.93342
573.116	40.53727
573.313	39.92704
573.511	40.03991
573.709	39.53682
573.907	41.233
574.105	40.00929
574.303	38.17497
574.501	38.67339
574.699	40.92759
574.896	40.80864
575.094	41.00819
575.292	38.74833
575.49	41.27398
575.688	39.9143
575.885	41.93354
576.083	42.65664
576.281	40.65378
576.478	39.43028
576.676	40.81261
576.874	38.75786
577.071	39.88174
577.269	43.51119
577.467	40.55779
577.664	39.99045
577.862	41.99384
578.059	39.01447
578.257	41.78575
578.455	40.17234
578.652	40.41503
578.85	37.37263
579.047	40.63051
579.245	40.35447
579.442	40.28129
579.64	40.52685
579.837	37.79757
580.034	44.37697
580.232	39.96595
580.429	38.8292
580.627	41.3749
580.824	42.58001
581.021	41.44488
581.219	39.71446
581.416	39.1964
581.613	43.08355
581.811	42.7158
582.008	39.29592
582.205	41.83069
582.402	40.85202
582.6	43.4934
582.797	40.75254
582.994	41.29014
583.191	41.57859
583.388	40.11133
583.586	42.45679
583.783	42.16481
583.98	39.41583
584.177	41.27863
584.374	36.61118
584.571	40.87017
584.768	40.37873
584.965	40.13747
585.162	41.52163
585.359	43.58358
585.556	40.69812
585.753	41.30135
585.95	38.9587
586.147	39.598
586.344	41.53486
586.541	40.17827
586.738	39.01197
586.935	40.08855
587.132	39.73072
587.329	42.19646
587.526	40.96337
587.722	48.55577
587.919	38.70288
588.116	41.61057
588.313	43.15081
588.51	44.0005
588.706	40.18344
588.903	41.87768
589.1	42.42047
589.297	45.2325
589.493	40.62033
589.69	41.5422
589.887	39.97777
590.083	39.49094
590.28	39.6791
590.477	42.45901
590.673	42.14114
590.87	43.44105
591.067	40.06092
591.263	41.68694
591.46	41.26923
591.656	40.77722
591.853	43.16212
592.049	39.68102
592.246	40.06186
592.442	42.82368
592.639	43.13475
592.835	39.49945
593.032	42.05632
593.228	39.20401
593.425	38.95947
593.621	38.55329
593.817	41.63732
594.014	39.78616
594.21	41.41501
594.406	42.57051
594.603	41.91133
594.799	40.16269
594.995	37.31523
595.192	43.17571
595.388	40.54131
595.584	40.64779
595.78	39.11726
595.977	44.45094
596.173	43.99353
596.369	40.78247
596.565	39.68767
596.761	38.88072
596.957	42.66888
597.154	39.99305
597.35	40.07106
597.546	39.5704
597.742	41.58522
597.938	41.26574
598.134	39.55013
598.33	40.90704
598.526	43.16122
598.722	41.52488
598.918	44.38433
599.114	42.22365
599.31	39.80272
599.506	41.28843
599.702	39.37561
599.898	41.48872
600.094	42.63956
600.29	42.43803
600.485	42.92983
600.681	40.20985
600.877	44.82069
601.073	41.76704
601.269	44.80974
601.465	44.15937
601.66	40.36243
601.856	38.6487
602.052	44.42452
602.248	41.46715
602.443	38.61127
602.639	39.94908
602.835	40.22657
603.03	40.23562
603.226	43.1325
603.422	40.19518
603.617	41.30439
603.813	40.81159
604.009	40.69191
604.204	42.61649
604.4	38.88105
604.595	42.52085
604.791	39.50283
604.986	41.4632
605.182	40.14188
605.377	40.47782
605.573	40.07229
605.768	40.76779
605.964	42.00008
606.159	42.14636
606.355	43.21986
606.55	40.57894
606.746	43.228
606.941	40.95722
607.136	44.95573
607.332	46.71761
607.527	39.48009
607.722	41.87627
607.918	41.61513
608.113	40.54593
608.308	43.52481
608.503	42.88145
608.699	42.27862
608.894	42.46283
609.089	40.12892
609.284	41.7211
609.479	40.829
609.675	42.67865
609.87	40.74317
610.065	42.67347
610.26	42.85832
610.455	42.65629
610.65	40.96347
610.845	41.41882
611.04	43.0106
611.235	41.83503
611.43	40.67317
611.625	39.4763
611.82	44.24284
612.015	40.38767
612.21	44.31158
612.405	38.5907
612.6	45.12257
612.795	44.21511
612.99	42.83236
613.185	39.49937
613.38	40.27563
613.575	41.86944
613.77	47.40586
613.965	38.68897
614.159	39.98473
614.354	44.69988
614.549	43.56533
614.744	43.7453
614.938	39.87322
615.133	38.94212
615.328	44.85043
615.523	44.1708
615.717	48.18888
615.912	40.38189
616.107	42.31408
616.301	41.14352
616.496	40.97572
616.691	45.5399
616.885	43.40493
617.08	48.74917
617.274	44.35636
617.469	46.15129
617.664	43.71675
617.858	41.20662
618.053	42.57356
618.247	41.72734
618.442	38.00491
618.636	44.74939
618.831	40.94437
619.025	40.6044
619.219	47.59062
619.414	35.95169
619.608	42.35397
619.803	41.19462
619.997	47.01553
620.191	45.38574
620.386	44.06918
620.58	42.34887
620.774	38.70147
620.969	39.02526
621.163	42.55446
621.357	40.23629
621.551	41.59274
621.746	42.32173
621.94	42.01851
622.134	50.04193
622.328	47.39271
622.522	38.75104
622.716	44.56651
622.911	44.93441
623.105	45.26514
623.299	44.03042
623.493	49.55195
623.687	41.54033
623.881	41.86723
624.075	43.89897
624.269	45.86428
624.463	38.50547
624.657	39.30062
624.851	44.35887
625.045	45.19433
625.239	45.71855
625.433	42.40901
625.627	46.67446
625.821	42.47466
626.015	41.37106
626.209	43.73314
626.403	40.70236
626.596	44.12982
626.79	44.70194
626.984	40.5558
627.178	43.93236
627.372	43.82527
627.565	44.61962
627.759	39.58816
627.953	40.43183
628.147	43.83064
628.34	44.11296
628.534	47.62077
628.728	42.7062
628.921	45.114
629.115	44.54638
629.309	45.43785
629.502	45.18887
629.696	43.96582
629.89	42.80825
630.083	44.36689
630.277	44.23444
630.47	47.28414
630.664	42.56141
630.857	39.69807
631.051	45.01043
631.244	46.27342
631.438	45.37976
631.631	41.32987
631.825	46.52133
632.018	45.46746
632.212	48.01156
632.405	46.50863
632.598	41.79522
632.792	44.27032
632.985	38.09473
633.178	43.48325
633.372	43.75984
633.565	43.59317
633.758	47.12108
633.952	41.99365
634.145	41.52934
634.338	42.91149
634.531	42.38828
634.724	42.24248
634.918	43.84401
635.111	42.83126
635.304	43.03309
635.497	49.06275
635.69	44.20754
635.883	47.39451
636.077	41.68201
636.27	45.15053
636.463	44.20333
636.656	45.01511
636.849	43.01438
637.042	45.3614
637.235	47.54452
637.428	46.26977
637.621	45.02219
637.814	47.34525
638.007	47.79611
638.2	48.07456
638.393	49.55351
638.586	40.39562
638.778	43.17029
638.971	43.79782
639.164	49.09619
639.357	45.82097
639.55	48.622
639.743	46.80482
639.935	46.88107
640.128	49.13685
640.321	46.57646
640.514	44.9566
640.707	51.69685
640.899	46.40401
641.092	39.83371
641.285	65.91953
641.477	38.71256
641.67	52.39889
641.863	48.6568
642.055	45.47975
642.248	44.87388
642.441	43.7782
642.633	46.51914
642.826	49.7709
643.018	48.84754
643.211	51.35547
643.403	49.61825
643.596	52.44895
643.788	50.7237
643.981	44.54098
644.173	48.51059
644.366	45.40767
644.558	39.91148
644.751	48.60075
644.943	41.26704
645.135	50.35944
645.328	50.64516
645.52	46.76691
645.712	48.74785
645.905	55.36912
646.097	42.25954
646.289	45.93271
646.482	53.04824
646.674	44.064
646.866	49.41934
647.058	47.81354
647.251	41.61488
647.443	44.496
647.635	45.60736
647.827	41.80627
648.019	43.41462
648.211	45.68275
648.404	46.27638
648.596	50.93111
648.788	46.50683
648.98	46.50428
649.172	47.09793
649.364	47.51412
649.556	40.70717
649.748	56.24621
649.94	42.75793
650.132	48.17515
650.324	43.80289
650.516	44.47747
650.708	50.20577
650.9	42.00021
651.092	40.99445
651.284	42.26139
651.476	43.29977
651.667	49.04223
651.859	50.02964
652.051	46.67102
652.243	46.14576
652.435	45.3747
652.627	48.85282
652.818	48.20219
653.01	41.02848
653.202	43.0699
653.394	44.59203
653.585	47.9705
653.777	61.82045
653.969	50.36654
654.16	50.22686
654.352	43.49875
654.544	46.15728
654.735	49.28469
654.927	47.44296
655.118	51.61416
655.31	48.88847
655.502	50.91328
655.693	45.73861
655.885	49.78817
656.076	51.56404
656.268	47.60989
656.459	51.98336
656.651	51.10962
656.842	45.1156
657.034	44.5404
657.225	50.15774
657.416	51.6627
657.608	51.78638
657.799	47.18807
657.99	51.88392
658.182	45.19177
658.373	45.17895
658.564	49.14965
658.756	47.63041
658.947	46.41211
659.138	43.67867
659.33	44.85417
659.521	44.53068
659.712	46.17566
659.903	45.9818
660.094	44.86506
660.286	42.0252
660.477	53.31598
660.668	49.2432
660.859	46.45031
661.05	41.63092
661.241	49.16709
661.432	48.52197
661.623	45.82592
661.814	46.1673
662.006	41.55949
662.197	48.53992
662.388	51.31574
662.579	48.99417
662.77	51.85953
662.96	56.96153
663.151	49.90322
663.342	41.62537
663.533	50.51301
663.724	48.67729
663.915	54.68731
664.106	47.44358
664.297	55.12723
664.488	51.13141
664.678	45.66232
664.869	51.61521
665.06	52.43793
665.251	49.87366
665.442	49.9458
665.632	44.41284
665.823	55.56703
666.014	37.76501
666.204	51.82067
666.395	54.68549
666.586	59.92032
666.776	52.61985
666.967	57.11294
667.158	49.97899
667.348	55.4375
667.539	45.29829
667.729	52.74745
667.92	46.69127
668.111	53.02648
668.301	51.45223
668.492	48.43546
668.682	49.6632
668.873	48.22242
669.063	44.47782
669.253	50.2696
669.444	51.55628
669.634	49.10603
669.825	56.14128
670.015	53.79212
670.206	46.31176
670.396	56.54636
670.586	48.40984
670.777	51.35467
670.967	40.87915
671.157	47.55939
671.347	45.99169
671.538	55.12025
671.728	51.08466
671.918	57.09143
672.108	55.0406
672.299	48.35415
672.489	51.38282
672.679	46.25277
672.869	52.1185
673.059	57.769
673.249	52.34247
673.44	46.06067
673.63	48.93058
673.82	54.02002
674.01	46.12026
674.2	51.53691
674.39	62.69769
674.58	53.38815
674.77	51.21665
674.96	49.33131
675.15	67.78382
675.34	56.20433
675.53	50.22084
675.72	49.2167
675.91	44.40046
676.099	58.70821
676.289	59.60134
676.479	55.64392
676.669	48.73858
676.859	52.47124
677.049	46.25161
677.238	51.10786
677.428	59.37219
677.618	51.87774
677.808	55.33307
677.997	53.11988
678.187	46.59467
678.377	50.83509
678.567	49.32934
678.756	49.12889
678.946	50.66613
679.136	45.02359
679.325	47.43661
679.515	46.35827
679.704	45.33253
679.894	52.48262
680.084	50.87218
680.273	54.8089
680.463	47.70293
680.652	46.99197
680.842	49.53809
681.031	53.36416
681.221	46.83507
681.41	52.49431
681.6	48.375
681.789	53.16295
681.978	56.24908
682.168	50.77375
682.357	51.25677
682.547	52.62663
682.736	51.23105
682.925	55.86496
683.115	56.1485
683.304	55.15735
683.493	52.82207
683.682	53.89762
683.872	52.96942
684.061	57.72289
684.25	54.66471
684.439	60.05825
684.629	54.76626
684.818	68.45845
685.007	51.38094
685.196	51.26461
685.385	59.97904
685.574	53.96661
685.763	55.21921
685.952	53.02552
686.142	46.47923
686.331	59.36401
686.52	44.08892
686.709	59.93677
686.898	58.93698
687.087	55.12698
687.276	61.40266
687.465	57.05699
687.654	52.03473
687.842	60.35989
688.031	47.77736
688.22	58.66424
688.409	53.2999
688.598	53.25678
688.787	66.86184
688.976	53.74982
689.165	62.07619
689.353	50.86636
689.542	55.11541
689.731	56.42684
689.92	62.77243
690.108	58.13291
690.297	51.6601
690.486	53.29253
690.675	58.34702
690.863	61.89743
691.052	62.99294
691.241	57.11683
691.429	55.51771
691.618	63.3543
691.806	48.80047
691.995	53.21572
692.184	54.30856
692.372	53.19534
692.561	55.45471
692.749	55.26928
692.938	68.78901
693.126	57.8357
693.315	53.15054
693.503	59.04534
693.692	59.64874
693.88	62.08815
694.068	68.43814
694.257	55.39312
694.445	57.66595
694.634	45.32541
694.822	62.17524
695.01	62.58009
695.199	63.14601
695.387	65.24122
695.575	62.81873
695.763	56.31503
695.952	54.28201
696.14	48.87541
696.328	53.89584
696.516	56.71685
696.705	58.46838
696.893	57.72382
697.081	46.66132
697.269	59.47228
697.457	50.73384
697.645	50.04566
697.833	60.8297
698.021	51.50844
698.21	52.78266
698.398	54.58041
698.586	49.67138
698.774	48.02595
698.962	53.04064
699.15	49.44299
699.338	47.66278
699.526	56.3425
699.714	51.24499
699.901	51.42656
700.089	58.94822
700.277	50.70813
700.465	53.49959
700.653	60.17264
700.841	58.60714
701.029	50.96935
701.217	63.10183
701.404	56.98751
701.592	65.9831
701.78	67.42192
701.968	55.10108
702.155	55.2501
702.343	49.65349
702.531	64.66009
702.718	60.26276
702.906	55.14122
703.094	55.09833
703.281	65.46504
703.469	59.78353
703.657	65.30355
703.844	78.62268
704.032	68.74902
704.219	55.07271
704.407	61.00647
704.595	67.54799
704.782	60.25525
704.97	57.23163
705.157	55.98795
705.345	69.45472
705.532	76.41547
705.719	61.5014
705.907	69.88249
706.094	59.73594
706.282	70.84805
706.469	56.39618
706.656	60.36366
706.844	58.48436
707.031	66.1176
707.218	61.43067
707.406	71.23729
707.593	66.14942
707.78	63.69786
707.968	59.63721
708.155	55.57968
708.342	63.59982
708.529	62.64832
708.716	61.7575
708.904	73.22181
709.091	66.23653
709.278	52.87457
709.465	77.34605
709.652	72.73259
709.839	70.24717
710.026	62.04929
710.213	49.48809
710.4	64.17372
710.587	66.00004
710.774	70.04259
710.961	68.5613
711.148	61.78114
711.335	67.72419
711.522	60.35807
711.709	63.87117
711.896	77.31182
712.083	69.31767
712.27	56.87367
712.457	64.79786
712.644	52.06727
712.831	77.15449
713.017	64.6391
713.204	67.84976
713.391	59.50225
713.578	71.05811
713.765	72.08548
713.951	66.89974
714.138	87.2222
714.325	68.46044
714.512	65.11881
714.698	58.44981
714.885	76.91943
715.072	66.39343
715.258	65.40022
715.445	60.0119
715.631	74.01032
715.818	47.73606
716.005	59.20026
716.191	68.99968
716.378	62.26249
716.564	71.95943
716.751	57.72472
716.937	61.23335
717.124	73.13593
717.31	58.64951
717.497	77.26652
717.683	60.61183
717.869	85.26218
718.056	61.50011
718.242	68.32849
718.429	65.68139
718.615	56.90213
718.801	67.37606
718.988	74.11158
719.174	70.62074
719.36	65.03859
719.547	78.03802
719.733	69.71352
719.919	69.2193
720.105	74.54785
720.291	66.72035
720.478	70.50549
720.664	67.78151
720.85	64.66888
721.036	92.95075
721.222	81.06217
721.408	69.7634
721.595	87.82674
721.781	84.43228
721.967	78.06518
722.153	85.77964
722.339	74.86464
722.525	74.27474
722.711	61.64065
722.897	58.97551
723.083	66.55581
723.269	79.65043
723.455	92.55935
723.641	97.82879
723.827	72.03799
724.012	75.37623
724.198	67.38389
724.384	82.20129
724.57	76.95029
724.756	57.17172
724.942	54.37337
725.127	80.25001
725.313	86.06526
725.499	83.98339
725.685	88.31671
725.87	75.39991
726.056	62.72192
726.242	84.7529
726.428	57.41954
726.613	79.46605
726.799	68.72863
726.985	61.77213
727.17	57.27313
727.356	85.74372
727.541	60.3615
727.727	70.14727
727.913	78.1265
728.098	65.1459
728.284	77.69451
728.469	58.72703
728.655	64.8755
728.84	77.51649
729.026	80.95784
729.211	79.84505
729.397	74.83739
729.582	77.65637
729.767	71.74191
729.953	76.08979
730.138	81.97494
730.323	51.6785
730.509	61.51949
730.694	88.00145
730.879	76.62106
731.065	72.08428
731.25	93.88548
731.435	78.77257
731.621	57.97817
731.806	65.80707
731.991	73.28718
732.176	58.47873
732.361	86.00415
732.547	74.19982
732.732	56.35173
732.917	95.56595
733.102	60.10434
733.287	63.59632
733.472	70.87123
733.657	71.14501
733.842	57.4252
734.027	67.54594
734.212	72.0876
734.397	66.21613
734.582	74.0313
734.767	83.1906
734.952	88.81887
735.137	48.75342
735.322	89.88722
735.507	78.30327
735.692	75.68736
735.877	99.38135
736.062	91.73264
736.247	80.19314
736.431	73.63083
736.616	88.87397
736.801	78.91648
736.986	73.71905
737.171	68.3546
737.355	63.62509
737.54	86.97531
737.725	74.23197
737.909	106.20025
738.094	67.98509
738.279	85.54388
738.463	70.3681
738.648	80.38492
738.833	79.7677
739.017	94.49262
739.202	68.75133
739.386	73.0125
739.571	57.6872
739.756	81.70386
739.94	73.16607
740.125	83.53398
740.309	66.74562
740.494	83.44679
740.678	76.73615
740.863	80.67632
741.047	75.8506
741.231	91.54282
741.416	65.88965
741.6	96.11852
741.785	67.76801
741.969	88.76037
742.153	91.15822
742.338	55.28429
742.522	77.70367
742.706	87.37741
742.89	63.49519
743.075	78.32026
743.259	96.01417
743.443	89.91642
743.627	93.61311
743.812	107.46459
743.996	59.53211
744.18	75.56361
744.364	73.71038
744.548	112.964
744.732	76.81619
744.916	92.40788
745.1	88.96181
745.285	77.38626
745.469	87.43628
745.653	105.70568
745.837	64.44071
746.021	113.70146
746.205	97.41058
746.389	81.2112
746.573	79.29374
746.757	103.18512
746.94	77.18514
747.124	96.66912
747.308	66.44331
747.492	97.43728
747.676	70.34409
747.86	112.04139
748.044	74.49709
748.227	60.15236
748.411	130.0303
748.595	83.47184
748.779	67.66723
748.963	86.75504
749.146	81.30364
749.33	70.43285
749.514	67.41828
749.697	92.52579
749.881	73.04046
750.065	68.33838
750.248	84.00056
750.432	113.53311
750.616	79.42868
750.799	66.50112
750.983	110.79796
751.166	119.24995
751.35	63.66817
751.533	97.77795
751.717	98.055
751.9	100.86047
752.084	76.49147
752.267	68.54036
752.451	73.94371
752.634	82.28936
752.818	92.38018
753.001	92.66761
753.184	97.26862
753.368	89.86983
753.551	41.2645
753.734	70.91927
753.918	106.30671
754.101	71.55894
754.284	92.78242
754.467	74.99053
754.651	72.60789
754.834	69.18438
755.017	97.57919
755.2	97.50551
755.384	69.14665
755.567	94.57787
755.75	98.82561
755.933	83.27797
756.116	85.82141
756.299	75.64445
756.482	70.83223
756.665	90.75844
756.848	81.87699
757.032	91.27382
757.215	63.5605
757.398	70.80898
757.581	71.03597
757.764	123.49959
757.947	79.30375
758.129	102.20531
758.312	46.94357
758.495	82.10821
758.678	80.35724
758.861	78.75647
759.044	111.0319
759.227	72.25387
759.41	72.12477
759.592	92.54279
759.775	81.81483
759.958	96.92481
760.141	67.47593
760.324	120.24842
760.506	105.00506
760.689	100.02776
760.872	119.88288
761.054	91.65015
761.237	81.19127
761.42	86.60763
761.602	98.57579
761.785	86.98685
761.968	99.61078
762.15	113.6078
762.333	79.15765
762.515	88.94503
762.698	76.47525
762.88	91.74715
763.063	85.28213
763.245	89.27757
763.428	66.45499
763.61	71.21944
763.793	61.86635
763.975	79.7058
764.158	71.66627
764.34	70.78778
764.522	65.69595
764.705	75.69206
764.887	92.75868
765.069	59.43117
765.252	89.32458
765.434	90.56443
765.616	83.36
765.799	75.79247
765.981	94.70815
766.163	73.45757
766.345	99.25644
766.528	76.97431
766.71	53.11627
766.892	89.4499
767.074	104.27869
767.256	83.16434
767.438	114.2351
767.62	89.60379
767.802	120.25709
767.985	100.04849
768.167	120.83629
768.349	80.03281
768.531	96.62982
768.713	93.6875
768.895	102.95465
769.077	95.9298
769.259	129.36675
769.441	182.18345
769.623	108.23659
769.804	116.52598
769.986	115.56345
770.168	135.23204
770.35	156.86211
770.532	124.0821
770.714	126.79618
770.896	140.2333
771.077	77.62097
771.259	137.62935
771.441	117.15604
771.623	147.29208
771.804	169.25212
771.986	75.81567
772.168	97.46127
772.35	141.57923
772.531	178.78498
772.713	112.93225
772.894	150.57791
773.076	111.03329
773.258	101.17627
773.439	148.57663
773.621	162.18878
773.802	90.50793
773.984	101.56081
774.166	123.77859
774.347	152.19259
774.529	147.14442
774.71	70.97651
774.891	109.65524
775.073	102.54072
775.254	151.54513
775.436	97.94837
775.617	175.40359
775.799	103.58062
775.98	157.41327
776.161	165.75811
776.343	164.82392
776.524	116.24432
776.705	104.84414
776.886	71.4285
777.068	122.0544
777.249	200.3845
777.43	182.96654
777.611	88.60467
777.793	109.35317
777.974	159.20176
778.155	105.25015
778.336	97.06309
778.517	184.96824
778.698	96.04006
778.879	70.86398
779.061	52.64217
779.242	125.5938
779.423	131.16332
779.604	104.25829
779.785	112.86613
779.966	119.22466
780.147	141.73573
780.328	154.14728
780.509	199.73972
780.69	143.47693
780.871	98.38795
781.051	83.03124
781.232	127.39639
781.413	120.34584
781.594	109.75351
781.775	108.63668
781.956	98.86236
782.137	66.41516
782.317	99.23978
782.498	125.41325
782.679	123.80469
782.86	123.99921
783.04	103.96893
783.221	133.50468
783.402	180.14384
783.583	119.51407
783.763	142.43195
783.944	106.46355
784.124	88.03961
784.305	174.73897
784.486	135.62986
784.666	116.69057
784.847	81.2904
785.027	201.85475
785.208	99.64744
785.388	95.35377
785.569	103.79885
785.749	111.91376
785.93	106.62146
786.11	80.75089
786.291	133.26554
786.471	124.5906
786.652	141.90276
786.832	115.40152
787.012	125.76252
787.193	89.35351
787.373	122.32609
787.553	107.59727
787.734	122.89004
787.914	107.04522
788.094	133.16299
788.275	129.95471
788.455	106.62425
788.635	80.92322
788.815	119.8507
788.995	89.72913
789.176	79.42329
789.356	92.73804
789.536	106.95229
789.716	132.88533
789.896	94.40574
790.076	104.43911
790.256	117.1092
790.436	59.67195
790.616	95.7824
790.796	119.97922
790.976	104.47052
791.156	99.64158
791.336	137.94392
791.516	127.82421
791.696	108.53648
791.876	77.31742
792.056	118.91486
792.236	142.89012
792.416	137.266
792.596	127.10581
792.776	130.9721
792.956	133.61718
793.135	162.71923
793.315	90.17928
793.495	150.05845
793.675	131.13265
793.854	144.18242
794.034	141.99688
794.214	89.14318
794.394	145.68665
794.573	159.3905
794.753	117.03049
794.933	92.57181
795.112	123.19691
795.292	141.54419
795.472	174.73312
795.651	86.57094
795.831	114.81931
796.01	109.81639
796.19	112.63215
796.369	115.90029
796.549	133.88967
796.728	110.45252
796.908	79.24227
797.087	87.01658
797.267	102.75391
797.446	85.5768
797.626	136.49567
797.805	131.20003
797.984	93.62232
798.164	132.4168
798.343	95.94433
798.522	120.35804
798.702	112.61921
798.881	83.37199
799.06	112.56492
799.239	68.12021
799.419	93.50685
799.598	166.10495
799.777	130.79745
799.956	155.88739
800.136	104.93146
800.315	93.3776
800.494	136.62019
800.673	152.05737
800.852	135.59761
801.031	142.35461
801.21	130.86338
801.389	110.70165
801.568	119.71209
801.747	181.31081
801.926	120.59524
802.105	168.26679
802.284	105.20403
802.463	167.67934
802.642	121.02871
802.821	128.6003
803	163.46283
803.179	147.13041
803.358	158.39731
803.537	101.39137
803.716	115.56567
803.895	101.12991
804.073	113.37679
804.252	97.54758
804.431	133.66743
804.61	113.82069
804.789	155.29043
804.967	101.32692
805.146	101.45808
805.325	185.31341
805.503	130.83401
805.682	84.3123
805.861	200.63078
806.039	155.83003
806.218	108.88177
806.397	124.18531
806.575	118.06128
806.754	132.26012
806.932	91.2059
807.111	173.19845
807.289	146.27232
807.468	121.12894
807.646	149.81098
807.825	138.69005
808.003	119.50048
808.182	148.26589
808.36	122.71719
808.539	100.16602
808.717	173.14905
808.895	94.07921
809.074	132.43279
809.252	121.39472
809.43	141.41729
809.609	159.65883
809.787	182.92614
809.965	114.57733
810.144	127.65689
810.322	120.97626
810.5	137.66215
810.678	113.31894
810.856	197.44533
811.035	157.573
811.213	145.06204
811.391	168.88361
811.569	129.76129
811.747	234.22616
811.925	166.07052
812.103	100.48743
812.281	121.14985
812.459	185.14229
812.637	185.45186
812.816	155.88236
812.994	188.92918
813.171	166.79555
813.349	141.12238
813.527	171.93676
813.705	177.96924
813.883	218.1951
814.061	162.71524
814.239	192.36138
814.417	207.4491
814.595	138.19269
814.773	143.16757
814.95	132.84941
815.128	147.882
815.306	115.0476
815.484	129.36413
815.662	100.28047
815.839	97.40095
816.017	111.4687
816.195	183.65878
816.372	121.34635
816.55	157.98723
816.728	181.72548
816.905	116.0222
817.083	190.22461
817.261	124.44419
817.438	210.71621
817.616	197.07502
817.793	117.94126
817.971	154.70517
818.148	163.70462
818.326	178.85253
818.503	139.11435
818.681	181.45592
818.858	113.43595
819.036	125.67341
819.213	134.26161
819.391	107.811
819.568	106.50558
819.745	102.49798
819.923	151.09491
820.1	115.42606
820.277	100.1818
820.455	112.08655
820.632	115.16348
820.809	113.30031
820.986	87.76538
821.164	76.38053
821.341	70.67165
821.518	83.45389
821.695	69.59443
821.872	67.56357
822.05	61.27991
822.227	53.77817
822.404	55.42566
822.581	58.02957
822.758	54.14535
822.935	53.87583
823.112	57.08976
823.289	51.86384
823.466	56.92712
823.643	54.63991
823.82	59.80995
823.997	57.37301
824.174	63.60998
824.351	74.42749
824.528	73.18487
824.705	70.43203
824.882	75.43742
825.059	91.61805
825.236	71.71238
825.412	77.08684
825.589	87.65244
825.766	108.06827
825.943	80.7467
826.12	91.16079
826.296	71.96588
826.473	81.66014
826.65	81.38832
826.827	92.4764
827.003	70.59458
827.18	74.76202
827.357	82.18698
827.533	73.83937
827.71	54.06823
827.887	67.86916
828.063	72.72148
828.24	67.55796
828.416	79.73076
828.593	70.9429
828.769	88.08326
828.946	95.44362
829.122	99.26931
829.299	92.97217
829.475	67.83038
829.652	98.07241
829.828	146.6648
830.005	102.14541
830.181	134.75388
830.357	105.84679
830.534	140.19783
830.71	111.4718
830.886	140.45443
831.063	139.81717
831.239	169.76594
831.415	89.94969
831.592	172.71381
831.768	119.45954
831.944	103.96496
832.12	170.63877
832.296	154.42635
832.473	147.10767
832.649	110.20257
832.825	134.85188
833.001	95.48821
833.177	127.7097
833.353	112.54293
833.529	76.39545
833.705	95.97252
833.881	76.65094
834.058	77.12137
834.234	80.30723
834.41	78.31044
834.586	68.23488
834.761	77.35396
834.937	80.39781
835.113	81.60722
835.289	77.06197
835.465	88.16826
835.641	80.39796
835.817	90.22153
835.993	140.54004
836.169	86.21077
836.344	113.31362
836.52	125.7811
836.696	124.66726
836.872	102.46829
837.048	222.2058
837.223	112.88554
837.399	198.71328
837.575	163.29933
837.75	149.70079
837.926	192.76933
838.102	316.47163
838.277	238.60225
838.453	304.84051
838.628	281.16952
838.804	147.07597
838.98	283.21327
839.155	161.56423
839.331	204.11528
839.506	162.34068
839.682	144.08741
839.857	186.45567
840.033	212.24077
840.208	121.04409
840.384	75.99182
840.559	120.56016
840.734	167.21788
840.91	227.30216
841.085	143.66233
841.26	139.88945
841.436	128.52412
841.611	132.52751
841.786	184.4439
841.962	252.34812
842.137	157.33173
842.312	112.64886
842.487	146.18334
842.663	123.77373
842.838	155.99529
843.013	444.03412
843.188	233.62046
843.363	175.15763
843.538	393.93938
843.714	381.10412
843.889	388.30674
844.064	410.03638
844.239	354.59057
844.414	451.21068
844.589	287.37776
844.764	553.4879
844.939	480.70522
845.114	575.70536
845.289	594.68455
845.464	584.77005
845.639	468.51686
845.814	240.56058
845.989	305.72373
846.163	317.67157
846.338	351.32092
846.513	544.27572
846.688	336.50096
846.863	310.30952
847.038	286.36731
847.212	370.81161
847.387	362.58426
847.562	354.96333
847.737	463.69832
847.911	194.55722
848.086	205.77688
848.261	591.95444
848.435	307.78426
848.61	496.58099
848.785	223.46531
848.959	486.81394
849.134	674.44342
849.308	777.54842
849.483	391.03855
849.658	571.16344
849.832	289.67276
850.007	257.74034
850.181	1061.88529
850.356	297.24434
850.53	837.34909
850.705	220.21057
850.879	181.84958
851.053	310.97719
851.228	295.7213
851.402	450.75263
851.577	522.59912
851.751	763.16466
851.925	352.70055
852.099	198.70703
852.274	234.66374
852.448	329.30589
852.622	506.57649
852.797	342.78647
852.971	360.04308
853.145	356.28644
853.319	1132.21029
853.493	532.80779
853.668	288.53102
853.842	775.42902
854.016	578.89528
854.19	711.30782
854.364	370.40459
854.538	403.06093
854.712	606.68469
854.886	331.80203
855.06	301.47951
855.234	133.02516
855.408	678.73844
855.582	655.87943
855.756	577.47899
855.93	713.40198
856.104	382.65775
856.278	550.62603
856.452	366.34076
856.626	464.69872
856.8	1002.49441
856.973	442.68724
857.147	447.74806
857.321	484.40963
857.495	585.68783
857.669	381.05525
857.842	305.48429
858.016	557.51594
858.19	249.06852
858.364	1377.80667
858.537	320.94665
858.711	370.71927
858.885	322.41212
859.058	307.32805
859.232	165.37277
859.405	208.09321
859.579	529.38223
859.753	449.19432
859.926	307.94038
860.1	170.49039
860.273	346.05562
860.447	643.09776
860.62	334.09425
860.794	777.03832
860.967	376.07559
861.141	692.60715
861.314	1094.17567
861.487	507.38581
861.661	686.72126
861.834	721.84681
862.008	519.45229
862.181	422.29951
862.354	389.47955
862.528	438.72743
862.701	323.8326
862.874	209.71355
863.047	315.20186
863.221	340.32774
863.394	188.0779
863.567	618.94435
863.74	150.64234
863.913	515.39363
864.087	509.80528
864.26	617.83248
864.433	324.28251
864.606	968.56291
864.779	337.49112
864.952	188.71291
865.125	280.59153
865.298	350.62197
865.471	342.1805
865.644	873.36439
865.817	592.28245
865.99	563.52559
866.163	775.11555
866.336	334.4548
866.509	324.43958
866.682	312.02245
866.855	653.07814
867.028	220.97974
867.2	484.0725
867.373	157.07672
867.546	383.01884
867.719	878.56239
867.892	501.81931
868.064	306.46106
868.237	429.65835
868.41	425.26564
868.583	220.45071
868.755	263.12909
868.928	338.5556
869.101	960.42682
869.273	587.47013
869.446	459.71676
869.619	688.39414
869.791	364.11145
869.964	575.2906
870.136	554.00626
870.309	452.19358
870.481	360.46805
870.654	208.76715
870.826	484.85719
870.999	295.4524
871.171	467.83277
871.344	286.3941
871.516	351.96437
871.689	253.1553
871.861	440.69358
872.033	263.67636
872.206	322.90845
872.378	516.02649
872.55	316.59716
872.723	228.93766
872.895	351.18485
873.067	566.64824
873.24	575.89493
873.412	310.53358
873.584	327.90351
873.756	307.52685
873.928	373.35003
874.101	413.49699
874.273	462.15121
874.445	165.33234
874.617	218.54477
874.789	371.9788
874.961	320.36842
875.133	442.62589
875.305	373.38386
875.477	251.10881
875.649	197.76032
875.821	224.68561
875.993	642.86705
876.165	236.25465
876.337	381.06151
876.509	329.84021
876.681	365.79013
876.853	408.06962
877.025	409.84186
877.197	245.41191
877.369	239.28262
877.541	493.38506
877.712	152.44044
877.884	229.18244
878.056	426.11212
878.228	239.25413
878.4	436.0982
878.571	241.20779
878.743	167.63573
878.915	356.32744
879.086	233.4447
879.258	265.86108
879.43	238.45987
879.601	222.67196
879.773	230.58546
879.945	79.89144
880.116	108.93685
880.288	76.77193
880.459	79.14002
880.631	69.19765
880.802	75.61255
880.974	73.2782
881.145	59.70296
881.317	69.30623
881.488	58.43508
881.66	61.92892
881.831	58.53861
882.002	68.67835
882.174	58.16981
882.345	65.72549
882.517	48.46257
882.688	72.85017
882.859	61.34366
883.03	85.65385
883.202	82.84568
883.373	76.04288
883.544	74.73867
883.715	105.63606
883.887	97.68524
884.058	87.35055
884.229	116.59266
884.4	117.64842
884.571	131.87136
884.742	118.07675
884.914	122.78765
885.085	175.66693
885.256	223.36306
885.427	197.24451
885.598	202.42065
885.769	222.83097
885.94	227.88845
886.111	162.77868
886.282	275.62003
886.453	206.14048
886.624	160.52972
886.795	271.51435
886.966	224.24096
887.136	289.1265
887.307	225.32676
887.478	417.65612
887.649	343.66681
887.82	382.35845
887.991	293.6993
888.161	373.57551
888.332	351.0289
888.503	175.37968
888.674	545.10143
888.844	642.62632
889.015	437.49892
889.186	200.92883
889.356	604.90326
889.527	190.41696
889.698	1157.2492
889.868	333.84293
890.039	405.72228
890.209	330.63261
890.38	433.04505
890.551	384.64147
890.721	503.98266
890.892	497.50178
891.062	314.82262
891.233	386.40024
891.403	363.86057
891.574	240.66954
891.744	342.67213
891.914	396.1818
892.085	348.36558
892.255	146.82971
892.425	647.63909
892.596	439.1501
892.766	446.59869
892.936	515.12866
893.107	435.10753
893.277	244.3521
893.447	201.54652
893.618	156.48593
893.788	301.25643
893.958	161.13655
894.128	167.27197
894.298	188.50474
894.468	223.93907
894.639	125.22707
894.809	96.10974
894.979	132.96485
895.149	147.82378
895.319	117.05114
895.489	165.16251
895.659	197.69105
895.829	130.9461
895.999	135.05348
896.169	111.56484
896.339	135.36918
896.509	260.84943
896.679	282.36597
896.849	282.8308
897.019	412.48236
897.189	307.96984
897.358	291.24041
897.528	405.96166
897.698	169.80111
897.868	355.11081
898.038	988.11174
898.208	785.36978
898.377	178.42647
898.547	841.05913
898.717	1088.89593
898.886	448.06832
899.056	665.04482
899.226	1557.99421
899.395	501.48041
899.565	936.82455
899.735	500.47268
899.904	1136.09069
900.074	1083.13098
900.244	318.80344
900.413	1267.67302
900.583	324.08945
900.752	453.55286
900.922	2213.77209
901.091	95.73077
901.261	698.94328
901.43	727.4533
901.599	622.67222
901.769	7371.49973
901.938	784.8269
902.108	838.38255
902.277	1651.07888
902.446	308.90527
902.616	271.60057
902.785	378.82214
902.954	728.83985
903.124	529.37726
903.293	355.69368
903.462	209.79914
903.631	280.1136
903.801	221.44798
903.97	121.00741
904.139	183.35767
904.308	142.68869
904.477	123.30828
904.646	87.51672
904.816	98.57309
904.985	159.65571
905.154	225.50062
