Data from WindowProjectSample_Transmission__86__00086.txt Node

Date: Sat May 03 18:11:25 EDT 2025
User: jessi
Spectrometer: SR400872
Trigger mode: 0
Integration Time (sec): 5.000010E-1
Scans to average: 6
Electric dark correction enabled: true
Nonlinearity correction enabled: true
Boxcar width: 0
XAxis mode: Wavelengths
Number of Pixels in Spectrum: 3648
>>>>>Begin Spectral Data<<<<<
184.909	3369.91482
185.132	4060.35765
185.355	-4236.06693
185.578	4238.24823
185.801	-385.99563
186.024	-4748.89082
186.247	1768.30566
186.47	442.65433
186.693	30.68844
186.916	6101.17373
187.139	3190.08279
187.362	-2003.2256
187.585	5394.48781
187.808	30579.87546
188.031	-73.39991
188.254	-3690.70289
188.476	727.21379
188.699	3744.5457
188.922	-265.72403
189.145	-6919.21238
189.368	-402.53475
189.591	-811.15099
189.813	-3002.03446
190.036	946.20267
190.259	-9226.25858
190.482	1271.46425
190.705	4029.32725
190.927	-2002.13725
191.15	-6669.62242
191.373	6057.40382
191.595	-1150.96205
191.818	2092.32365
192.041	-519.95847
192.263	1929.19891
192.486	-2660.7918
192.709	-23487.91499
192.931	1878.24415
193.154	-3789.02096
193.377	-2366.34137
193.599	4508.38057
193.822	1707.89575
194.044	5764.20547
194.267	906.62791
194.489	-242.57164
194.712	2429.79168
194.934	9066.44543
195.157	-26730.64173
195.379	2405.98678
195.602	1673.05146
195.824	1484.61564
196.047	45248.07963
196.269	3463.16616
196.492	-1981.97369
196.714	-1299.2485
196.936	1877.76791
197.159	-11789.05249
197.381	-406.69389
197.604	-3862.08645
197.826	-16972.01178
198.048	9522.56299
198.271	-8308.55508
198.493	4476.9145
198.715	3843.42547
198.938	-757.26874
199.16	-19078.61497
199.382	1154.78248
199.604	-1723.89857
199.827	-3792.74636
200.049	2217.75516
200.271	-6852.38191
200.493	-44373.81537
200.715	3701.25696
200.938	-3062.05139
201.16	-2766.0201
201.382	-1662.97013
201.604	-3183.36777
201.826	3585.15981
202.048	3666.01832
202.27	-1035.48317
202.492	-3304.35099
202.715	-1286.93825
202.937	-18251.89863
203.159	2605.82494
203.381	2283.53028
203.603	-2902.93938
203.825	-921.03339
204.047	60279.35232
204.269	-1425.41021
204.491	-1250.78001
204.713	66460.76044
204.935	-3075.83809
205.156	-968.52849
205.378	-4306.81925
205.6	-1293.77596
205.822	2374.11157
206.044	-409.8949
206.266	6248.01464
206.488	836.95732
206.71	3189.4366
206.932	1644.82053
207.153	-1704.58746
207.375	-2773.67183
207.597	3856.793
207.819	29717.80436
208.041	3976.09752
208.262	-1599.1036
208.484	-1153.79839
208.706	-1447.88022
208.927	2805.22099
209.149	4595.6635
209.371	-5118.15538
209.593	397.83544
209.814	-29626.38851
210.036	2766.63837
210.258	-742.8619
210.479	4063.98165
210.701	-3190.92317
210.922	-11166.60416
211.144	-989.09836
211.366	5120.72097
211.587	-2376.84474
211.809	-4464.67289
212.03	-916.05165
212.252	-623.04601
212.473	3472.65982
212.695	-739.40153
212.916	-860.16365
213.138	652.30652
213.359	-1494.4344
213.581	13723.66779
213.802	-2363.75048
214.024	-2289.04426
214.245	-6308.27423
214.466	-214.81238
214.688	-3080.90744
214.909	-20157.11701
215.131	-4645.29258
215.352	-2279.85584
215.573	11312.65421
215.795	1613.99016
216.016	6649.061
216.237	-574.78104
216.459	6695.33611
216.68	-3508.79227
216.901	-2837.84316
217.122	-2262.33575
217.344	-7031.26154
217.565	-2950.33847
217.786	2252.84473
218.007	1610.15782
218.228	-605.66037
218.45	-4570.60029
218.671	1644.08051
218.892	3546.53958
219.113	1603.42947
219.334	143.85242
219.555	-7080.12349
219.776	11452.18979
219.997	4349.25886
220.219	1870.78583
220.44	1033.68286
220.661	1061.80068
220.882	-2644.36472
221.103	-1099.30598
221.324	2360.88872
221.545	2972.81497
221.766	-3615.85293
221.987	-493.90799
222.208	-9858.359
222.429	166999.22709
222.65	-482.47056
222.87	-9511.79788
223.091	2581.73796
223.312	-1255.26233
223.533	2563.25891
223.754	2117.64889
223.975	2848.6628
224.196	-6396.13896
224.417	-2704.77
224.637	7390.17224
224.858	1355.6865
225.079	1274.46215
225.3	1123.2869
225.521	4833.23706
225.741	853.35461
225.962	1258.59441
226.183	-570.21429
226.404	1453.89647
226.624	1237.51426
226.845	1625.27211
227.066	878.03548
227.286	606.25966
227.507	198.55168
227.728	188.76868
227.948	285.60989
228.169	90.76369
228.389	90.56726
228.61	49.50605
228.831	67.00108
229.051	6.44879
229.272	39.25741
229.492	51.89964
229.713	15.79298
229.933	38.46033
230.154	33.00362
230.374	53.43429
230.595	41.75799
230.815	29.67151
231.036	37.61013
231.256	-8.11798
231.477	77.57241
231.697	44.66121
231.917	44.30236
232.138	62.25272
232.358	128.8671
232.579	118.40433
232.799	15.41709
233.019	108.9104
233.24	144.09206
233.46	46.985
233.68	74.45482
233.901	59.23947
234.121	32.72091
234.341	12.14188
234.561	-2.51674
234.782	30.32356
235.002	80.17172
235.222	-1.73657
235.442	70.27963
235.662	34.13665
235.883	73.66796
236.103	64.6814
236.323	49.45941
236.543	34.63551
236.763	48.05894
236.983	47.75864
237.203	51.13864
237.423	78.33415
237.643	106.26934
237.864	93.82193
238.084	26.79624
238.304	31.90292
238.524	58.99588
238.744	44.52444
238.964	75.29918
239.184	70.50573
239.404	73.61695
239.624	37.15105
239.843	69.79245
240.063	38.25712
240.283	26.92163
240.503	29.47855
240.723	25.12024
240.943	13.97304
241.163	21.68582
241.383	15.06913
241.603	7.92184
241.822	9.0355
242.042	6.92938
242.262	8.78688
242.482	9.28309
242.702	11.34258
242.921	3.98102
243.141	7.84625
243.361	6.21993
243.581	10.28465
243.8	8.81109
244.02	5.61797
244.24	10.42897
244.459	10.4126
244.679	20.81385
244.899	13.57787
245.118	15.94551
245.338	13.72707
245.558	16.06591
245.777	9.31449
245.997	10.72343
246.216	10.83848
246.436	6.63614
246.655	4.33171
246.875	3.5134
247.094	6.29993
247.314	2.20067
247.533	3.64245
247.753	4.7613
247.972	3.74863
248.192	1.42636
248.411	2.46174
248.631	4.18452
248.85	5.36328
249.07	4.14821
249.289	6.92463
249.508	5.16241
249.728	7.86868
249.947	8.31814
250.166	9.74401
250.386	6.13098
250.605	8.33684
250.824	12.4764
251.044	8.84995
251.263	27.26468
251.482	14.49442
251.701	13.9686
251.921	0.64126
252.14	4.01885
252.359	4.43286
252.578	11.04806
252.798	3.81823
253.017	10.05371
253.236	5.46099
253.455	6.76691
253.674	13.26818
253.893	6.65032
254.112	8.64504
254.331	13.5599
254.551	11.21405
254.77	4.22838
254.989	16.59706
255.208	13.03904
255.427	16.46371
255.646	14.50533
255.865	24.25489
256.084	8.99441
256.303	12.32458
256.522	16.04921
256.741	3.19785
256.96	4.61995
257.179	9.57103
257.397	11.85773
257.616	6.70236
257.835	7.42612
258.054	16.38032
258.273	11.11082
258.492	12.31312
258.711	7.35455
258.93	3.20686
259.148	4.64624
259.367	4.5356
259.586	5.93595
259.805	2.79171
260.023	5.40004
260.242	4.15704
260.461	2.97554
260.68	1.4461
260.898	4.94248
261.117	1.53684
261.336	1.10881
261.554	4.12579
261.773	4.34637
261.992	1.16032
262.21	3.97058
262.429	4.61597
262.648	8.13641
262.866	9.49488
263.085	6.07996
263.303	5.35386
263.522	9.87909
263.74	10.30297
263.959	16.1478
264.178	8.8357
264.396	7.31112
264.615	5.70858
264.833	12.98936
265.051	12.0555
265.27	11.44019
265.488	12.09517
265.707	7.86679
265.925	12.75427
266.144	5.10763
266.362	6.86916
266.58	6.84276
266.799	5.80957
267.017	7.01256
267.235	6.03563
267.454	3.72433
267.672	2.55771
267.89	4.95497
268.109	5.20657
268.327	5.06624
268.545	1.40528
268.763	4.37809
268.982	2.17296
269.2	6.16487
269.418	3.18538
269.636	2.71992
269.854	4.63392
270.073	3.60376
270.291	1.76234
270.509	2.27163
270.727	5.03082
270.945	8.29866
271.163	8.0765
271.381	2.07815
271.599	3.01457
271.817	5.90544
272.036	1.86795
272.254	3.82739
272.472	2.93096
272.69	2.90092
272.908	2.76239
273.126	4.97852
273.344	5.84915
273.562	2.22573
273.779	3.20541
273.997	4.19768
274.215	5.00093
274.433	3.57778
274.651	5.15567
274.869	5.43697
275.087	2.97987
275.305	4.90357
275.523	2.41856
275.74	3.96206
275.958	6.28216
276.176	8.76887
276.394	2.87519
276.612	3.45865
276.829	3.52024
277.047	3.11664
277.265	3.49364
277.483	3.8977
277.7	4.87148
277.918	3.78357
278.136	7.1901
278.353	3.72491
278.571	1.74953
278.789	5.49767
279.006	0.98161
279.224	3.54113
279.442	5.59952
279.659	3.86318
279.877	3.12807
280.094	6.15605
280.312	1.54616
280.529	4.00858
280.747	1.10012
280.964	2.90607
281.182	6.7063
281.399	3.19983
281.617	4.57229
281.834	3.15912
282.052	2.67448
282.269	3.4842
282.487	2.96079
282.704	2.16171
282.921	2.71289
283.139	3.90264
283.356	4.73612
283.574	4.19215
283.791	2.32548
284.008	5.92403
284.226	3.08288
284.443	3.59517
284.66	4.6952
284.877	3.9031
285.095	2.46001
285.312	1.8541
285.529	1.25853
285.746	0.94425
285.964	2.19393
286.181	1.59168
286.398	2.32664
286.615	3.03777
286.832	3.02577
287.05	1.00512
287.267	2.06259
287.484	2.19983
287.701	3.15674
287.918	2.76306
288.135	3.08498
288.352	1.69404
288.569	1.79402
288.786	2.73655
289.003	2.00825
289.22	3.32812
289.437	1.99429
289.654	3.32331
289.871	3.59526
290.088	3.38567
290.305	2.62051
290.522	1.97733
290.739	2.53242
290.956	3.53942
291.173	4.14925
291.39	3.90462
291.607	2.81459
291.824	2.04484
292.04	1.40867
292.257	3.2682
292.474	3.55878
292.691	2.40206
292.908	1.37412
293.125	1.98427
293.341	1.31348
293.558	5.68011
293.775	2.39591
293.992	2.48251
294.208	0.88889
294.425	1.51256
294.642	2.25623
294.858	3.02708
295.075	0.95233
295.292	2.26939
295.508	2.80901
295.725	4.2336
295.942	2.17051
296.158	1.7317
296.375	2.79417
296.591	2.01782
296.808	2.42132
297.024	2.92597
297.241	3.25222
297.458	3.28681
297.674	1.20298
297.891	2.89668
298.107	3.03535
298.323	2.25843
298.54	4.4602
298.756	2.76448
298.973	1.96683
299.189	4.96058
299.406	3.23375
299.622	4.67664
299.838	5.05602
300.055	4.70168
300.271	3.05307
300.487	3.13302
300.704	3.94571
300.92	3.58347
301.136	7.1627
301.353	5.32391
301.569	4.7708
301.785	5.18523
302.001	5.95717
302.218	5.53366
302.434	5.82399
302.65	4.15472
302.866	4.89637
303.083	7.85664
303.299	8.03589
303.515	5.70522
303.731	6.35131
303.947	4.72686
304.163	5.51827
304.379	6.18203
304.595	6.53345
304.812	5.33985
305.028	5.38334
305.244	5.69621
305.46	6.83325
305.676	7.50875
305.892	8.0405
306.108	7.24891
306.324	6.30189
306.54	8.38928
306.756	6.91425
306.972	6.62993
307.187	6.87288
307.403	7.7352
307.619	5.96213
307.835	7.49388
308.051	8.01545
308.267	5.58296
308.483	8.3351
308.699	7.49214
308.914	7.37669
309.13	6.85603
309.346	6.29044
309.562	6.46907
309.778	6.10672
309.993	7.77435
310.209	7.9792
310.425	6.27913
310.641	7.98449
310.856	6.98326
311.072	6.99401
311.288	7.53943
311.503	8.37812
311.719	6.32507
311.935	6.56957
312.15	8.70933
312.366	8.52374
312.581	8.63012
312.797	8.32576
313.013	8.65502
313.228	7.51061
313.444	7.34431
313.659	7.10117
313.875	8.22591
314.09	7.47736
314.306	8.8475
314.521	8.5035
314.737	8.32964
314.952	7.94012
315.168	7.86545
315.383	8.33963
315.599	7.00403
315.814	7.67633
316.029	8.34244
316.245	7.04595
316.46	5.9587
316.675	8.70915
316.891	9.6308
317.106	10.81926
317.321	8.18621
317.537	8.5936
317.752	8.71507
317.967	8.69819
318.183	7.144
318.398	7.48358
318.613	8.80983
318.828	9.5786
319.043	8.50613
319.259	7.59951
319.474	8.37737
319.689	9.19109
319.904	6.13202
320.119	9.5227
320.334	7.76406
320.549	8.26868
320.765	9.28647
320.98	8.64807
321.195	8.48882
321.41	8.3487
321.625	8.49568
321.84	9.65879
322.055	9.75894
322.27	7.56356
322.485	6.88801
322.7	8.74492
322.915	8.90624
323.13	7.90699
323.345	10.55394
323.56	9.97142
323.775	9.29059
323.989	9.32212
324.204	8.61231
324.419	9.69341
324.634	7.62616
324.849	8.81071
325.064	11.42866
325.279	10.17096
325.493	9.4511
325.708	9.81942
325.923	7.91929
326.138	8.89501
326.352	10.13766
326.567	9.74197
326.782	8.19142
326.997	8.5758
327.211	9.42397
327.426	9.16833
327.641	8.73207
327.855	7.56016
328.07	9.74042
328.285	11.02841
328.499	8.67524
328.714	9.42022
328.928	9.13224
329.143	9.22707
329.358	10.39141
329.572	9.92502
329.787	10.7353
330.001	11.78128
330.216	7.09136
330.43	11.48208
330.645	10.26855
330.859	10.13643
331.074	7.98556
331.288	9.27688
331.503	11.30886
331.717	7.6837
331.931	9.29305
332.146	9.75962
332.36	11.53777
332.575	9.72853
332.789	9.41831
333.003	9.96058
333.218	10.31568
333.432	9.60397
333.646	10.4898
333.86	11.66252
334.075	11.4002
334.289	9.3247
334.503	8.12969
334.717	10.98062
334.932	9.95604
335.146	10.44283
335.36	8.37856
335.574	10.25802
335.788	9.33079
336.003	10.0338
336.217	10.27308
336.431	9.51174
336.645	8.9074
336.859	8.50709
337.073	9.70851
337.287	10.60208
337.501	8.88463
337.715	11.26936
337.929	10.85746
338.143	9.70826
338.357	10.31116
338.571	10.32719
338.785	11.69059
338.999	9.75445
339.213	9.9229
339.427	9.41509
339.641	11.38597
339.855	9.50962
340.069	9.15968
340.283	11.54843
340.497	11.70065
340.711	11.38178
340.924	10.39075
341.138	9.66505
341.352	9.23543
341.566	10.70435
341.78	9.37604
341.993	10.29566
342.207	10.11766
342.421	11.06282
342.635	10.62524
342.848	10.48316
343.062	7.95353
343.276	10.26453
343.49	12.45972
343.703	10.13842
343.917	11.76525
344.131	12.09326
344.344	10.03509
344.558	10.333
344.771	9.52005
344.985	11.96794
345.199	12.83961
345.412	11.48196
345.626	11.53891
345.839	9.62541
346.053	10.07897
346.266	10.26848
346.48	11.49453
346.693	11.32721
346.907	11.70513
347.12	10.13585
347.334	11.00114
347.547	11.54065
347.76	11.20253
347.974	11.90594
348.187	11.09825
348.401	10.97872
348.614	9.73005
348.827	11.21449
349.041	11.71486
349.254	9.45058
349.467	10.86489
349.681	10.61928
349.894	10.20021
350.107	12.58952
350.32	13.47066
350.534	10.10665
350.747	11.15436
350.96	10.61956
351.173	10.61786
351.386	11.25048
351.6	10.95955
351.813	11.23277
352.026	11.28491
352.239	10.69214
352.452	10.93017
352.665	12.85376
352.878	11.17083
353.092	13.9596
353.305	12.11279
353.518	11.64324
353.731	10.33775
353.944	12.74749
354.157	11.25301
354.37	11.37655
354.583	10.05132
354.796	10.94607
355.009	12.56033
355.222	12.20313
355.435	11.91091
355.647	13.07321
355.86	11.36126
356.073	11.96189
356.286	11.36832
356.499	12.95683
356.712	13.04208
356.925	12.67759
357.138	12.89046
357.35	11.54477
357.563	11.65157
357.776	12.53338
357.989	12.43309
358.201	12.96162
358.414	12.62083
358.627	13.65512
358.84	12.44566
359.052	11.4054
359.265	11.59761
359.478	13.15555
359.69	10.49005
359.903	13.31956
360.116	13.62894
360.328	11.54477
360.541	13.46539
360.753	12.35815
360.966	12.53276
361.179	12.8759
361.391	12.7664
361.604	12.28394
361.816	12.69667
362.029	12.8312
362.241	12.22462
362.454	12.99484
362.666	12.3424
362.879	13.57047
363.091	12.55568
363.304	12.63737
363.516	12.56669
363.728	12.15053
363.941	13.48686
364.153	13.24912
364.366	11.66837
364.578	12.52228
364.79	13.47324
365.003	13.51364
365.215	12.71391
365.427	14.05304
365.639	14.01272
365.852	13.38692
366.064	14.3539
366.276	13.28483
366.488	13.39774
366.701	13.35575
366.913	13.08653
367.125	13.42944
367.337	12.92544
367.549	13.01874
367.762	13.07564
367.974	13.42133
368.186	13.29853
368.398	14.22729
368.61	13.84093
368.822	14.05336
369.034	13.03755
369.246	14.28193
369.458	15.59495
369.67	12.88693
369.882	14.85189
370.094	12.17641
370.306	14.84558
370.518	13.62655
370.73	13.31053
370.942	13.68715
371.154	14.03379
371.366	13.96772
371.578	14.56621
371.79	14.11484
372.002	14.99519
372.214	15.8721
372.425	13.99951
372.637	15.65135
372.849	14.47689
373.061	12.35447
373.273	14.5603
373.484	14.65837
373.696	14.83728
373.908	12.46724
374.12	14.76178
374.331	14.92247
374.543	13.7737
374.755	13.54335
374.967	14.30771
375.178	15.61802
375.39	14.02738
375.602	14.64572
375.813	13.33797
376.025	13.92757
376.236	14.80359
376.448	14.84523
376.66	14.62534
376.871	14.76599
377.083	15.33316
377.294	16.40931
377.506	14.60753
377.717	15.99804
377.929	15.03105
378.14	14.60985
378.352	15.5487
378.563	15.66669
378.775	15.93519
378.986	14.2323
379.197	15.49555
379.409	14.50905
379.62	15.69435
379.832	15.24123
380.043	14.90542
380.254	15.67433
380.466	14.32819
380.677	17.50461
380.888	17.0106
381.1	17.50442
381.311	17.60199
381.522	15.82542
381.733	17.47982
381.945	15.5106
382.156	15.20914
382.367	15.3868
382.578	17.8975
382.789	18.20245
383.001	14.9488
383.212	17.13168
383.423	17.32531
383.634	16.47025
383.845	16.58105
384.056	15.60246
384.267	16.05922
384.478	16.09544
384.69	15.13985
384.901	16.4136
385.112	16.23155
385.323	17.59864
385.534	16.2547
385.745	16.53029
385.956	16.34069
386.167	15.52796
386.378	16.66953
386.588	16.03833
386.799	15.45893
387.01	15.20636
387.221	16.95865
387.432	16.29832
387.643	17.33439
387.854	16.05669
388.065	15.87474
388.275	16.24418
388.486	15.77547
388.697	16.79146
388.908	15.94858
389.119	17.42071
389.329	17.56322
389.54	16.68889
389.751	16.85332
389.962	17.5921
390.172	16.57955
390.383	16.69672
390.594	16.20211
390.804	16.21595
391.015	16.40943
391.226	16.81825
391.436	16.96945
391.647	17.13636
391.858	17.04537
392.068	15.80873
392.279	16.24614
392.489	17.35291
392.7	17.41254
392.91	16.65176
393.121	16.11541
393.331	17.42235
393.542	17.61933
393.752	17.72815
393.963	17.50178
394.173	17.39916
394.384	17.68106
394.594	17.17891
394.804	16.4037
395.015	17.10272
395.225	17.68812
395.436	16.4865
395.646	17.54649
395.856	17.03377
396.067	16.25302
396.277	18.05833
396.487	17.62197
396.697	17.89555
396.908	17.96799
397.118	17.82427
397.328	17.76229
397.538	18.1561
397.749	16.93562
397.959	17.82321
398.169	17.75738
398.379	16.52819
398.589	17.68859
398.8	17.83349
399.01	17.72172
399.22	17.52961
399.43	19.00937
399.64	17.76463
399.85	17.93241
400.06	17.66883
400.27	16.71055
400.48	17.56956
400.69	18.48978
400.9	16.969
401.11	16.53812
401.32	18.24268
401.53	17.21587
401.74	18.77703
401.95	17.97386
402.16	17.90057
402.37	17.92122
402.58	17.33074
402.79	17.84033
403	18.42442
403.209	17.07156
403.419	18.72561
403.629	17.28755
403.839	18.59557
404.049	18.64885
404.258	17.56717
404.468	17.56248
404.678	18.36925
404.888	18.98426
405.097	17.99931
405.307	17.96089
405.517	18.51958
405.727	18.32651
405.936	17.66141
406.146	18.42343
406.356	19.09723
406.565	18.04727
406.775	17.72379
406.984	17.70327
407.194	19.54658
407.404	18.21292
407.613	18.3932
407.823	18.8604
408.032	19.07715
408.242	18.97468
408.451	17.85332
408.661	18.10019
408.87	19.3674
409.08	17.64234
409.289	18.64265
409.499	18.74876
409.708	18.17908
409.918	17.02321
410.127	18.83454
410.336	19.57176
410.546	19.17913
410.755	18.03554
410.964	18.16281
411.174	17.3728
411.383	18.82082
411.592	18.50935
411.802	17.7131
412.011	18.66352
412.22	18.39
412.429	19.00434
412.639	19.31422
412.848	18.93853
413.057	19.80747
413.266	19.01675
413.475	18.37385
413.685	18.93515
413.894	19.20381
414.103	19.16682
414.312	19.11451
414.521	18.28375
414.73	18.97819
414.939	19.87069
415.148	19.0375
415.357	18.92938
415.566	18.82856
415.776	18.36377
415.985	18.43013
416.194	19.30054
416.403	20.15739
416.611	17.86938
416.82	18.57781
417.029	19.03489
417.238	18.46454
417.447	18.49805
417.656	19.04671
417.865	18.98458
418.074	19.52444
418.283	20.90337
418.492	22.65818
418.7	22.44239
418.909	24.81055
419.118	23.31978
419.327	24.17739
419.536	24.23114
419.744	24.62623
419.953	27.02996
420.162	27.31021
420.371	26.95984
420.579	28.60768
420.788	29.54803
420.997	29.78698
421.205	30.42523
421.414	30.04155
421.623	30.21725
421.831	29.49897
422.04	30.27253
422.249	28.30114
422.457	28.56461
422.666	27.34731
422.874	28.51209
423.083	28.81865
423.291	28.84142
423.5	29.18423
423.708	29.85958
423.917	30.82078
424.125	29.80639
424.334	29.96292
424.542	31.96192
424.751	31.1818
424.959	30.38063
425.167	30.26873
425.376	29.94218
425.584	27.53597
425.793	26.95902
426.001	25.41152
426.209	24.75194
426.418	22.88326
426.626	21.74563
426.834	20.80519
427.042	20.06606
427.251	19.62942
427.459	20.43575
427.667	19.72044
427.875	18.85915
428.084	19.28314
428.292	20.35722
428.5	20.13467
428.708	19.01923
428.916	19.19721
429.124	19.85152
429.333	19.57023
429.541	19.64423
429.749	19.86089
429.957	19.86825
430.165	21.50492
430.373	18.73456
430.581	19.60765
430.789	20.64231
430.997	20.11552
431.205	19.32625
431.413	20.05091
431.621	19.59945
431.829	20.31247
432.037	19.84115
432.245	20.16121
432.453	20.30311
432.661	20.40502
432.869	22.03349
433.076	21.10166
433.284	21.76973
433.492	22.67677
433.7	22.9838
433.908	22.19532
434.116	22.4928
434.323	21.7644
434.531	21.5983
434.739	21.28671
434.947	20.64398
435.154	20.84972
435.362	20.07932
435.57	19.99533
435.778	19.81391
435.985	20.22963
436.193	19.83002
436.401	21.10962
436.608	20.14228
436.816	20.00731
437.023	21.29683
437.231	21.47166
437.439	20.66345
437.646	21.11189
437.854	20.83568
438.061	21.02328
438.269	20.98036
438.476	21.41597
438.684	21.49274
438.891	22.28523
439.099	22.5854
439.306	22.69609
439.514	22.83409
439.721	25.43966
439.929	25.0541
440.136	26.29351
440.343	26.7596
440.551	26.93399
440.758	28.73134
440.965	26.71246
441.173	26.68492
441.38	26.25974
441.587	25.12392
441.795	25.01553
442.002	23.79502
442.209	23.18769
442.416	22.64251
442.624	22.10642
442.831	21.40949
443.038	20.63959
443.245	20.19404
443.452	20.4632
443.66	21.14855
443.867	21.05416
444.074	20.88792
444.281	21.82215
444.488	22.49005
444.695	23.51167
444.902	23.98457
445.109	26.29781
445.316	26.56041
445.523	27.81471
445.73	28.40111
445.937	29.62407
446.144	30.77212
446.351	31.65694
446.558	29.80407
446.765	32.98307
446.972	31.32166
447.179	30.86185
447.386	31.12086
447.593	28.54914
447.8	29.36408
448.007	26.86013
448.214	25.33824
448.42	24.51957
448.627	24.26492
448.834	23.13922
449.041	22.49956
449.248	21.82296
449.454	21.32677
449.661	21.68585
449.868	20.6036
450.075	20.42741
450.281	19.99207
450.488	20.46492
450.695	20.35519
450.901	20.59696
451.108	20.4677
451.315	21.62685
451.521	20.74954
451.728	21.59843
451.935	20.57547
452.141	20.83779
452.348	20.84646
452.554	21.08672
452.761	20.8814
452.967	22.08982
453.174	21.16164
453.38	21.11087
453.587	20.36719
453.793	21.02051
454	21.1374
454.206	22.10482
454.413	21.64277
454.619	21.31274
454.825	20.67815
455.032	21.23215
455.238	21.60192
455.445	20.5307
455.651	21.11159
455.857	20.09002
456.064	20.97016
456.27	20.8719
456.476	20.85772
456.682	20.29059
456.889	21.14143
457.095	21.45227
457.301	22.52664
457.507	21.17063
457.714	21.41236
457.92	21.5066
458.126	20.9027
458.332	21.3128
458.538	22.1576
458.744	23.74438
458.951	25.16946
459.157	28.42135
459.363	28.50308
459.569	29.41205
459.775	29.91189
459.981	30.4127
460.187	31.05108
460.393	30.73674
460.599	30.14967
460.805	28.51945
461.011	26.11982
461.217	25.1785
461.423	23.02267
461.629	21.98897
461.835	22.00713
462.041	21.59154
462.247	22.58938
462.453	21.41599
462.658	21.18343
462.864	22.1195
463.07	21.63644
463.276	21.7759
463.482	21.73472
463.688	22.70263
463.893	21.10752
464.099	21.5125
464.305	22.79917
464.511	21.4039
464.716	21.5348
464.922	22.28369
465.128	20.98057
465.333	22.50893
465.539	22.29599
465.745	21.68228
465.95	21.74957
466.156	23.76443
466.362	22.41106
466.567	21.79192
466.773	21.63955
466.978	22.78857
467.184	21.31446
467.389	20.62814
467.595	22.16818
467.8	21.51291
468.006	22.6036
468.211	22.6762
468.417	21.0612
468.622	22.11644
468.828	21.92577
469.033	22.12119
469.239	23.81164
469.444	21.77248
469.649	22.37516
469.855	21.9097
470.06	22.07727
470.266	21.49435
470.471	22.55781
470.676	22.30684
470.881	20.81243
471.087	23.21684
471.292	23.22654
471.497	21.09504
471.703	22.02433
471.908	21.92923
472.113	22.30356
472.318	22.72169
472.523	21.50551
472.729	22.5728
472.934	22.36
473.139	22.10936
473.344	22.63808
473.549	23.03993
473.754	21.93273
473.959	23.63313
474.164	21.94675
474.369	22.02005
474.575	22.81083
474.78	22.26318
474.985	21.69936
475.19	21.01747
475.395	22.04427
475.6	22.08809
475.804	23.21555
476.009	22.32243
476.214	22.20096
476.419	22.1301
476.624	21.59887
476.829	21.84493
477.034	22.84719
477.239	22.03743
477.444	22.46057
477.648	22.77411
477.853	22.65793
478.058	22.11814
478.263	21.98247
478.468	21.87961
478.672	22.12489
478.877	23.46846
479.082	23.61247
479.287	22.63254
479.491	22.43832
479.696	21.95699
479.901	23.14982
480.105	22.88332
480.31	22.17948
480.515	22.75262
480.719	24.42041
480.924	23.19506
481.128	23.89912
481.333	25.5106
481.538	26.25499
481.742	27.6921
481.947	30.45197
482.151	33.00813
482.356	36.19299
482.56	42.00601
482.765	47.49938
482.969	56.30836
483.174	62.77505
483.378	71.67751
483.582	74.71454
483.787	78.3078
483.991	80.04997
484.196	79.75628
484.4	78.14468
484.604	76.90121
484.809	70.15363
485.013	64.8864
485.217	57.89272
485.422	51.80591
485.626	47.20583
485.83	44.95794
486.034	43.98079
486.239	45.5142
486.443	47.22017
486.647	49.15787
486.851	52.12667
487.055	55.97025
487.26	56.98813
487.464	59.08811
487.668	58.5956
487.872	59.83604
488.076	59.42281
488.28	56.82586
488.484	52.82103
488.688	50.62752
488.892	47.55967
489.096	43.69878
489.3	40.64553
489.504	37.73158
489.708	35.97244
489.912	35.17104
490.116	34.69977
490.32	35.28729
490.524	38.27257
490.728	41.21675
490.932	43.95077
491.136	47.00982
491.34	49.22395
491.544	50.23075
491.748	50.15595
491.951	49.92429
492.155	48.52984
492.359	46.48723
492.563	42.38813
492.767	39.23956
492.97	34.96192
493.174	30.95975
493.378	28.44974
493.582	25.72361
493.785	24.30303
493.989	23.64434
494.193	22.3832
494.396	21.55826
494.6	21.88477
494.804	21.30335
495.007	21.14695
495.211	21.74459
495.414	22.05743
495.618	23.17095
495.822	23.95529
496.025	24.07324
496.229	24.90786
496.432	25.00579
496.636	25.62588
496.839	26.09586
497.043	27.00324
497.246	26.39672
497.45	25.86815
497.653	26.14918
497.856	25.46332
498.06	24.83786
498.263	24.17248
498.467	23.74355
498.67	24.247
498.873	23.53958
499.077	22.8781
499.28	22.93495
499.483	23.41734
499.686	23.7248
499.89	22.94944
500.093	23.49061
500.296	22.83543
500.499	24.10169
500.703	23.0835
500.906	23.34171
501.109	24.02388
501.312	23.58743
501.515	23.05459
501.719	23.48905
501.922	23.91074
502.125	23.47737
502.328	23.34715
502.531	22.95038
502.734	23.23094
502.937	22.63688
503.14	23.33876
503.343	23.16864
503.546	23.35256
503.749	22.90529
503.952	23.78398
504.155	22.90807
504.358	23.79101
504.561	23.55992
504.764	22.60401
504.967	23.43686
505.17	23.31183
505.373	24.5604
505.576	23.19976
505.778	23.57544
505.981	22.78374
506.184	24.13448
506.387	22.35165
506.59	24.61311
506.793	24.18038
506.995	23.58074
507.198	22.32472
507.401	23.73184
507.604	23.5409
507.806	22.83885
508.009	23.11614
508.212	23.81576
508.414	23.1022
508.617	23.15553
508.82	23.40158
509.022	24.33647
509.225	23.64097
509.427	22.8162
509.63	24.12513
509.833	23.45637
510.035	23.13526
510.238	22.64371
510.44	24.08296
510.643	22.48285
510.845	24.61581
511.048	23.65831
511.25	23.23242
511.453	23.21112
511.655	23.59392
511.858	23.19164
512.06	23.97884
512.262	23.77542
512.465	24.09133
512.667	23.57887
512.869	22.778
513.072	23.96105
513.274	23.91862
513.476	23.89855
513.679	24.16598
513.881	22.94929
514.083	24.66423
514.286	23.21813
514.488	23.33658
514.69	23.13047
514.892	22.75263
515.094	24.20966
515.297	22.93809
515.499	23.71447
515.701	23.16908
515.903	24.8103
516.105	24.93491
516.307	24.07152
516.509	22.58646
516.711	22.9506
516.913	23.72172
517.116	23.53969
517.318	23.49061
517.52	24.99933
517.722	25.55199
517.924	25.65201
518.126	27.74378
518.328	27.57027
518.529	28.81501
518.731	29.35357
518.933	27.657
519.135	27.59705
519.337	27.91321
519.539	26.20398
519.741	23.93709
519.943	23.54958
520.145	23.09747
520.346	23.9976
520.548	23.51213
520.75	23.74422
520.952	23.47842
521.153	23.82143
521.355	23.86735
521.557	22.88324
521.759	23.57687
521.96	23.6372
522.162	22.85192
522.364	24.4268
522.565	23.1695
522.767	24.00248
522.969	24.38204
523.17	24.08081
523.372	23.64712
523.573	23.758
523.775	23.86649
523.977	23.18416
524.178	24.51974
524.38	23.44549
524.581	24.81616
524.783	25.16638
524.984	27.43694
525.186	27.96583
525.387	29.63081
525.589	29.82468
525.79	30.13239
525.991	30.52491
526.193	31.5159
526.394	30.79559
526.596	31.89249
526.797	33.0294
526.998	32.91345
527.2	35.73833
527.401	40.35943
527.602	44.53731
527.803	50.76386
528.005	54.85064
528.206	58.72021
528.407	61.51001
528.608	62.36338
528.81	62.43287
529.011	61.10013
529.212	61.30911
529.413	57.14015
529.614	52.80227
529.815	48.47539
530.017	43.97811
530.218	39.20184
530.419	35.47135
530.62	33.58339
530.821	32.00169
531.022	29.56591
531.223	30.5922
531.424	30.15429
531.625	31.14002
531.826	30.85942
532.027	32.94546
532.228	35.85661
532.429	37.53547
532.63	39.56864
532.831	41.90148
533.032	42.27828
533.233	43.72004
533.433	42.72076
533.634	42.9201
533.835	41.09488
534.036	39.35052
534.237	36.79112
534.438	34.30276
534.638	30.684
534.839	29.2535
535.04	27.89129
535.241	26.94076
535.441	28.45413
535.642	28.61685
535.843	28.53316
536.043	29.47282
536.244	30.07074
536.445	30.71052
536.645	31.47315
536.846	31.31945
537.047	31.07263
537.247	29.18165
537.448	28.25544
537.648	27.18332
537.849	25.19031
538.049	24.29303
538.25	23.98651
538.451	24.21727
538.651	23.49544
538.851	24.231
539.052	24.72425
539.252	24.4165
539.453	23.90303
539.653	24.56756
539.854	26.49694
540.054	29.38031
540.254	33.33652
540.455	37.17536
540.655	39.08976
540.855	43.05892
541.056	45.69673
541.256	45.79903
541.456	47.31147
541.657	46.91955
541.857	46.99343
542.057	44.41606
542.257	42.04944
542.458	41.17647
542.658	38.56934
542.858	34.90947
543.058	33.71164
543.258	32.0146
543.458	29.46821
543.659	28.3737
543.859	28.63126
544.059	27.88905
544.259	25.8953
544.459	25.66146
544.659	24.34183
544.859	24.5696
545.059	23.72131
545.259	24.47517
545.459	23.96628
545.659	25.17745
545.859	24.5657
546.059	25.19316
546.259	24.83594
546.459	25.00954
546.659	24.77471
546.859	25.46838
547.059	25.01526
547.258	24.38865
547.458	24.52858
547.658	23.30743
547.858	23.4246
548.058	24.27271
548.258	23.83628
548.457	23.36335
548.657	25.55552
548.857	23.9328
549.057	24.77594
549.256	24.78424
549.456	23.93097
549.656	22.64441
549.855	25.3261
550.055	23.78073
550.255	25.53473
550.454	24.19357
550.654	24.75795
550.853	25.40039
551.053	24.67442
551.253	24.51542
551.452	24.58637
551.652	23.45563
551.851	23.20958
552.051	24.18663
552.25	23.63417
552.45	23.7382
552.649	24.11036
552.849	23.66257
553.048	23.85648
553.248	24.73624
553.447	23.63243
553.646	24.67597
553.846	25.56344
554.045	24.83952
554.244	23.19087
554.444	25.46526
554.643	23.5605
554.842	25.52081
555.042	25.79354
555.241	23.82475
555.44	23.52807
555.64	24.77543
555.839	25.57891
556.038	24.67581
556.237	23.51817
556.436	24.41817
556.636	25.06824
556.835	23.80679
557.034	25.81653
557.233	24.26544
557.432	23.46772
557.631	25.25967
557.83	24.50002
558.029	24.0407
558.228	23.37533
558.427	23.75585
558.626	24.56355
558.825	23.44659
559.024	23.97705
559.223	25.82776
559.422	24.21526
559.621	24.53432
559.82	22.1481
560.019	24.41676
560.218	24.07923
560.417	22.1221
560.616	23.85649
560.815	27.03201
561.014	23.23927
561.212	25.90385
561.411	24.29171
561.61	23.21077
561.809	23.95235
562.008	25.25292
562.206	23.705
562.405	24.71726
562.604	23.94311
562.803	24.39182
563.001	24.15916
563.2	23.11423
563.399	24.54096
563.597	23.27738
563.796	24.02354
563.995	23.66881
564.193	24.90219
564.392	24.26705
564.59	26.27371
564.789	22.76945
564.988	23.71653
565.186	24.50119
565.385	24.29404
565.583	24.06175
565.782	24.15591
565.98	24.03286
566.179	24.29488
566.377	23.14394
566.575	23.79348
566.774	25.24425
566.972	24.79241
567.171	25.79566
567.369	24.89251
567.567	24.23116
567.766	24.47527
567.964	22.43815
568.162	24.54442
568.361	25.10862
568.559	23.9772
568.757	24.62371
568.956	24.02166
569.154	24.09399
569.352	24.70434
569.55	24.11392
569.748	24.07582
569.947	23.52706
570.145	23.36404
570.343	23.49219
570.541	24.73373
570.739	23.23248
570.937	24.18608
571.135	24.43408
571.333	25.42593
571.532	25.4322
571.73	24.47066
571.928	24.85305
572.126	24.29328
572.324	23.89075
572.522	25.19417
572.72	26.34723
572.918	24.32955
573.116	24.34117
573.313	23.99846
573.511	24.41134
573.709	23.56326
573.907	24.92024
574.105	24.16715
574.303	22.7723
574.501	22.9565
574.699	24.63038
574.896	24.71056
575.094	24.69241
575.292	23.12095
575.49	24.92742
575.688	24.0844
575.885	25.01572
576.083	25.94643
576.281	24.65482
576.478	23.58005
576.676	24.48778
576.874	22.9618
577.071	24.35849
577.269	26.69827
577.467	24.57251
577.664	24.01157
577.862	25.42346
578.059	23.39517
578.257	25.35637
578.455	23.8487
578.652	24.76541
578.85	22.47466
579.047	24.62259
579.245	24.60974
579.442	24.17102
579.64	24.71127
579.837	23.10795
580.034	27.00273
580.232	24.16641
580.429	22.76874
580.627	24.6829
580.824	25.81187
581.021	24.77316
581.219	23.99178
581.416	23.37942
581.613	25.67201
581.811	25.66917
582.008	23.65055
582.205	25.1985
582.402	24.54969
582.6	25.99417
582.797	24.22364
582.994	24.65953
583.191	25.40217
583.388	24.17368
583.586	25.16702
583.783	25.41166
583.98	24.26898
584.177	24.97228
584.374	21.54356
584.571	24.33608
584.768	24.22271
584.965	24.16694
585.162	25.10303
585.359	26.01435
585.556	24.36935
585.753	24.56914
585.95	23.24769
586.147	23.76233
586.344	25.37626
586.541	23.82688
586.738	23.5746
586.935	24.3431
587.132	23.64368
587.329	25.67395
587.526	24.56441
587.722	29.67248
587.919	23.03091
588.116	25.08385
588.313	26.21194
588.51	26.61217
588.706	24.0528
588.903	24.95019
589.1	25.20298
589.297	26.88347
589.493	24.37948
589.69	24.85707
589.887	23.67656
590.083	23.36349
590.28	23.82895
590.477	24.9743
590.673	25.43837
590.87	25.65845
591.067	24.29708
591.263	25.02735
591.46	25.07607
591.656	23.75271
591.853	25.41328
592.049	23.29349
592.246	23.61589
592.442	25.70187
592.639	25.98852
592.835	23.53408
593.032	24.85271
593.228	23.01278
593.425	22.83698
593.621	22.87802
593.817	24.92781
594.014	23.5103
594.21	24.72728
594.406	25.53889
594.603	25.20656
594.799	23.94226
594.995	22.10013
595.192	25.68927
595.388	24.15383
595.584	24.23644
595.78	23.13671
595.977	26.60856
596.173	26.46976
596.369	24.45733
596.565	23.33852
596.761	23.20532
596.957	25.52247
597.154	23.74408
597.35	24.09167
597.546	23.68022
597.742	25.17446
597.938	24.14815
598.134	23.72341
598.33	24.38581
598.526	25.72448
598.722	24.59457
598.918	26.23117
599.114	24.94981
599.31	23.08137
599.506	24.62984
599.702	23.87425
599.898	24.1799
600.094	25.23026
600.29	25.2643
600.485	25.51663
600.681	23.81305
600.877	26.38292
601.073	24.25215
601.269	26.45675
601.465	25.65589
601.66	23.45304
601.856	22.32241
602.052	26.12048
602.248	24.11056
602.443	22.77325
602.639	23.35663
602.835	23.94328
603.03	23.52654
603.226	25.51184
603.422	23.32715
603.617	24.08787
603.813	23.92009
604.009	24.23617
604.204	25.46174
604.4	22.97722
604.595	25.33747
604.791	23.31021
604.986	24.80927
605.182	23.66905
605.377	24.27811
605.573	23.7351
605.768	24.44578
605.964	25.03379
606.159	24.61932
606.355	25.10392
606.55	23.5471
606.746	25.79021
606.941	24.0895
607.136	26.72926
607.332	27.86572
607.527	23.11666
607.722	24.74734
607.918	24.3596
608.113	24.3478
608.308	25.43652
608.503	24.78243
608.699	24.75889
608.894	25.49873
609.089	23.64685
609.284	24.84121
609.479	24.2121
609.675	25.28489
609.87	23.79086
610.065	25.34107
610.26	25.5318
610.455	25.2801
610.65	24.20031
610.845	24.54346
611.04	25.58772
611.235	24.5392
611.43	24.39666
611.625	23.46624
611.82	26.21339
612.015	23.72469
612.21	26.30906
612.405	22.88649
612.6	26.76769
612.795	26.06496
612.99	25.30368
613.185	23.71132
613.38	23.61765
613.575	25.04542
613.77	28.28791
613.965	22.95706
614.159	23.4829
614.354	26.6688
614.549	26.33695
614.744	26.05183
614.938	23.7729
615.133	22.87713
615.328	26.81054
615.523	26.10232
615.717	28.76853
615.912	23.43866
616.107	25.29565
616.301	24.44981
616.496	24.01317
616.691	26.84492
616.885	26.35492
617.08	29.38601
617.274	26.03773
617.469	27.46733
617.664	26.06735
617.858	24.14377
618.053	25.39415
618.247	24.31062
618.442	21.51325
618.636	27.00094
618.831	23.58956
619.025	23.81515
619.219	28.73542
619.414	20.95073
619.608	24.7518
619.803	24.51427
619.997	27.85516
620.191	26.32082
620.386	24.95687
620.58	24.77577
620.774	22.92036
620.969	22.57806
621.163	25.21082
621.357	23.68467
621.551	24.55477
621.746	24.98033
621.94	24.17233
622.134	29.3231
622.328	27.73658
622.522	22.46604
622.716	26.54524
622.911	26.62401
623.105	26.25969
623.299	25.55431
623.493	29.209
623.687	23.591
623.881	24.3524
624.075	25.68383
624.269	26.8331
624.463	22.38294
624.657	22.31663
624.851	25.97667
625.045	26.29497
625.239	26.40126
625.433	24.99294
625.627	26.91344
625.821	24.33971
626.015	23.67862
626.209	25.20482
626.403	23.41294
626.596	25.70805
626.79	26.18784
626.984	23.33791
627.178	25.31005
627.372	25.79363
627.565	26.05649
627.759	22.88356
627.953	23.50155
628.147	25.50682
628.34	25.74561
628.534	28.30905
628.728	24.7104
628.921	25.98672
629.115	25.90233
629.309	26.33487
629.502	26.55388
629.696	25.03118
629.89	24.8246
630.083	25.29724
630.277	25.90061
630.47	27.45111
630.664	24.27699
630.857	23.02618
631.051	25.82008
631.244	26.84274
631.438	26.25909
631.631	23.37132
631.825	27.36049
632.018	26.42429
632.212	28.15586
632.405	27.30686
632.598	24.00922
632.792	24.79642
632.985	22.18038
633.178	24.2905
633.372	24.33837
633.565	24.81956
633.758	27.41426
633.952	23.36787
634.145	23.5709
634.338	25.18656
634.531	24.02447
634.724	23.96534
634.918	25.08424
635.111	24.61001
635.304	23.85886
635.497	28.92433
635.69	25.39004
635.883	26.99091
636.077	23.77272
636.27	25.80026
636.463	25.17643
636.656	25.42654
636.849	24.91705
637.042	26.30254
637.235	27.84021
637.428	26.28404
637.621	27.17863
637.814	27.32504
638.007	27.90419
638.2	27.30878
638.393	28.33467
638.586	23.07742
638.778	24.45072
638.971	24.62588
639.164	27.97823
639.357	25.74169
639.55	27.6164
639.743	26.8977
639.935	25.93005
640.128	28.92685
640.321	27.30585
640.514	25.36645
640.707	29.5075
640.899	26.05505
641.092	22.60134
641.285	38.4305
641.477	21.72
641.67	29.91267
641.863	28.20741
642.055	26.09352
642.248	24.86886
642.441	24.26026
642.633	26.31125
642.826	28.53217
643.018	28.2252
643.211	29.8254
643.403	28.26845
643.596	30.16049
643.788	30.16204
643.981	25.4114
644.173	27.81421
644.366	25.52613
644.558	21.70531
644.751	27.39471
644.943	22.62972
645.135	28.16673
645.328	28.10818
645.52	26.17162
645.712	27.67892
645.905	30.98674
646.097	23.43398
646.289	25.43437
646.482	29.68477
646.674	24.98457
646.866	28.60298
647.058	27.07331
647.251	23.66989
647.443	24.90914
647.635	25.42697
647.827	23.1205
648.019	24.91333
648.211	25.93159
648.404	25.74071
648.596	29.3528
648.788	26.72802
648.98	26.32524
649.172	26.59724
649.364	26.2012
649.556	22.57216
649.748	31.84532
649.94	23.6401
650.132	27.10872
650.324	23.36187
650.516	25.09387
650.708	29.10358
650.9	23.24224
651.092	24.77085
651.284	23.43651
651.476	23.35997
651.667	27.21295
651.859	28.89483
652.051	25.81497
652.243	25.64539
652.435	25.10281
652.627	27.4248
652.818	27.41959
653.01	23.14022
653.202	23.64193
653.394	24.81533
653.585	27.10574
653.777	35.42071
653.969	27.96569
654.16	28.33951
654.352	23.51596
654.544	24.95666
654.735	27.45085
654.927	26.4337
655.118	29.88835
655.31	26.62033
655.502	28.97473
655.693	25.66549
655.885	28.17436
656.076	28.96435
656.268	26.32536
656.459	30.00019
656.651	28.97501
656.842	25.18702
657.034	24.58776
657.225	28.88655
657.416	29.47154
657.608	30.0343
657.799	26.28959
657.99	29.10755
658.182	25.56615
658.373	25.72487
658.564	28.38065
658.756	26.75218
658.947	26.3948
659.138	24.37168
659.33	25.47244
659.521	24.95335
659.712	26.82799
659.903	25.68003
660.094	25.51467
660.286	23.08899
660.477	30.30795
660.668	28.18362
660.859	25.7744
661.05	23.47423
661.241	27.81416
661.432	26.79576
661.623	25.51669
661.814	24.95927
662.006	23.07237
662.197	26.41067
662.388	29.03745
662.579	26.47275
662.77	29.26674
662.96	32.97811
663.151	27.80624
663.342	23.09004
663.533	28.42542
663.724	27.65563
663.915	31.35629
664.106	26.34288
664.297	30.64872
664.488	28.4799
664.678	25.13748
664.869	29.0086
665.06	28.65576
665.251	26.97284
665.442	27.50428
665.632	23.82277
665.823	30.36129
666.014	18.81197
666.204	29.34688
666.395	29.89694
666.586	33.56572
666.776	28.72995
666.967	30.70159
667.158	27.25425
667.348	29.97053
667.539	24.37889
667.729	29.45617
667.92	25.11195
668.111	29.75318
668.301	28.07818
668.492	26.62109
668.682	27.98204
668.873	27.68478
669.063	24.60057
669.253	28.68632
669.444	28.81985
669.634	26.33155
669.825	31.89933
670.015	30.41171
670.206	24.16739
670.396	31.58857
670.586	26.13376
670.777	28.68178
670.967	21.81298
671.157	25.89724
671.347	25.27892
671.538	30.23188
671.728	28.97608
671.918	32.76567
672.108	29.44771
672.299	26.15018
672.489	28.50106
672.679	26.07508
672.869	28.09145
673.059	32.74736
673.249	28.41678
673.44	24.41796
673.63	27.32006
673.82	30.50556
674.01	25.09311
674.2	28.60757
674.39	35.15115
674.58	29.12401
674.77	27.3312
674.96	26.24238
675.15	38.9453
675.34	30.30854
675.53	27.44946
675.72	27.95626
675.91	22.93264
676.099	32.88803
676.289	33.87095
676.479	29.52482
676.669	25.65593
676.859	28.11986
677.049	24.4596
677.238	28.27805
677.428	33.44978
677.618	28.62486
677.808	31.92261
677.997	30.66205
678.187	25.03617
678.377	27.8422
678.567	26.11213
678.756	26.51718
678.946	27.42517
679.136	23.77617
679.325	25.86037
679.515	25.35261
679.704	25.65566
679.894	29.63039
680.084	28.8128
680.273	30.68808
680.463	26.25945
680.652	26.27252
680.842	28.01136
681.031	30.29569
681.221	26.32678
681.41	29.93031
681.6	27.91688
681.789	30.22097
681.978	32.07802
682.168	28.26986
682.357	28.66531
682.547	29.81242
682.736	29.18969
682.925	31.02782
683.115	31.90585
683.304	30.3869
683.493	28.98626
683.682	29.65684
683.872	30.20257
684.061	32.70366
684.25	29.29923
684.439	33.09838
684.629	30.84044
684.818	39.22057
685.007	28.05109
685.196	27.23197
685.385	33.72045
685.574	29.64391
685.763	31.07663
685.952	30.43865
686.142	25.34402
686.331	32.58705
686.52	23.85309
686.709	34.75734
686.898	33.35959
687.087	31.68148
687.276	33.73236
687.465	31.99922
687.654	29.29388
687.842	34.34876
688.031	26.57797
688.22	33.52944
688.409	30.65987
688.598	29.74907
688.787	38.30467
688.976	30.48806
689.165	35.24471
689.353	28.86596
689.542	30.73613
689.731	31.25279
689.92	35.3843
690.108	31.89493
690.297	28.92076
690.486	29.495
690.675	33.45917
690.863	34.92464
691.052	34.77539
691.241	30.65888
691.429	30.5623
691.618	36.12968
691.806	26.22089
691.995	28.95507
692.184	30.05389
692.372	28.95549
692.561	31.11756
692.749	30.23405
692.938	39.49554
693.126	31.52892
693.315	29.65922
693.503	32.40212
693.692	31.13526
693.88	35.14265
694.068	37.73629
694.257	30.24636
694.445	33.00151
694.634	23.50473
694.822	34.29743
695.01	35.50245
695.199	34.99082
695.387	36.92319
695.575	34.74483
695.763	30.38752
695.952	29.0847
696.14	26.27608
696.328	30.11833
696.516	30.90356
696.705	31.96045
696.893	31.32209
697.081	25.09119
697.269	33.24565
697.457	27.83848
697.645	27.21742
697.833	33.6626
698.021	28.2083
698.21	29.80049
698.398	30.44994
698.586	28.20734
698.774	26.82933
698.962	29.54166
699.15	27.8509
699.338	25.5254
699.526	32.05875
699.714	29.15019
699.901	28.86588
700.089	33.61552
700.277	28.30832
700.465	29.83837
700.653	32.60658
700.841	31.97029
701.029	27.87001
701.217	36.03823
701.404	31.94694
701.592	37.07733
701.78	38.60512
701.968	29.86944
702.155	30.66808
702.343	25.86734
702.531	35.56173
702.718	32.20203
702.906	30.47145
703.094	29.33736
703.281	37.3766
703.469	34.05778
703.657	35.1103
703.844	44.35299
704.032	38.39553
704.219	30.87899
704.407	33.02894
704.595	37.03207
704.782	31.59375
704.97	28.44879
705.157	30.89269
705.345	36.7345
705.532	42.02479
705.719	33.71337
705.907	37.99451
706.094	32.67993
706.282	39.33671
706.469	31.42581
706.656	33.13164
706.844	30.8094
707.031	36.46809
707.218	33.58173
707.406	38.78106
707.593	36.62256
707.78	35.02315
707.968	32.19452
708.155	29.00056
708.342	34.82852
708.529	34.17216
708.716	33.29735
708.904	40.39927
709.091	36.97007
709.278	28.39985
709.465	43.1789
709.652	40.84451
709.839	39.24374
710.026	35.02486
710.213	26.98783
710.4	36.49081
710.587	37.22398
710.774	38.61231
710.961	38.95475
711.148	33.60931
711.335	37.93445
711.522	32.69952
711.709	35.38751
711.896	44.38402
712.083	36.90453
712.27	30.79034
712.457	35.72875
712.644	28.94694
712.831	43.71173
713.017	34.54297
713.204	37.50255
713.391	31.79984
713.578	39.62158
713.765	40.6219
713.951	37.47744
714.138	49.7349
714.325	38.49466
714.512	35.74315
714.698	30.54686
714.885	43.13345
715.072	36.70753
715.258	35.70393
715.445	32.81324
715.631	41.59088
715.818	24.49216
716.005	32.54842
716.191	37.70437
716.378	34.09871
716.564	40.03509
716.751	31.63962
716.937	32.60314
717.124	40.23607
717.31	31.74679
717.497	43.10058
717.683	33.58403
717.869	45.33042
718.056	33.47588
718.242	38.24671
718.429	34.4621
718.615	29.22378
718.801	36.84429
718.988	40.00274
719.174	37.14447
719.36	36.13773
719.547	40.99568
719.733	37.27942
719.919	39.35997
720.105	39.2985
720.291	36.27195
720.478	37.09913
720.664	36.03026
720.85	35.24165
721.036	50.34538
721.222	45.13346
721.408	36.01281
721.595	47.35283
721.781	45.31848
721.967	42.18093
722.153	45.46725
722.339	38.95662
722.525	38.15992
722.711	31.25255
722.897	29.88347
723.083	35.09228
723.269	42.74887
723.455	49.9492
723.641	53.55802
723.827	37.65168
724.012	40.64832
724.198	34.37862
724.384	45.25021
724.57	41.62727
724.756	28.93535
724.942	26.52451
725.127	41.12802
725.313	44.62444
725.499	45.14018
725.685	47.59704
725.87	39.87762
726.056	33.00071
726.242	46.84394
726.428	28.79459
726.613	43.77255
726.799	34.46613
726.985	32.24987
727.17	27.06136
727.356	47.07616
727.541	31.34428
727.727	36.95982
727.913	42.40565
728.098	35.32413
728.284	42.15041
728.469	31.1131
728.655	33.96876
728.84	42.14489
729.026	43.1457
729.211	41.89088
729.397	42.32421
729.582	41.57308
729.767	38.08399
729.953	40.26338
730.138	42.90469
730.323	26.6552
730.509	32.81666
730.694	48.85412
730.879	41.76495
731.065	38.71389
731.25	51.73066
731.435	42.12629
731.621	29.56476
731.806	35.77583
731.991	40.99915
732.176	30.40031
732.361	46.7098
732.547	41.43892
732.732	29.90528
732.917	51.84538
733.102	30.72905
733.287	33.40188
733.472	38.5818
733.657	39.31628
733.842	28.99488
734.027	34.42077
734.212	37.31978
734.397	34.18337
734.582	40.15828
734.767	42.58488
734.952	47.43127
735.137	24.14139
735.322	46.71337
735.507	41.53741
735.692	38.89122
735.877	52.95653
736.062	50.60145
736.247	42.7898
736.431	36.72127
736.616	46.33617
736.801	40.8031
736.986	39.42652
737.171	34.58162
737.355	30.06236
737.54	47.13301
737.725	39.41549
737.909	56.73435
738.094	34.65289
738.279	46.47841
738.463	36.63417
738.648	42.21196
738.833	42.14106
739.017	51.57617
739.202	36.60764
739.386	37.51509
739.571	31.42244
739.756	44.14097
739.94	39.23348
740.125	45.23624
740.309	33.43115
740.494	43.92176
740.678	39.96701
740.863	42.85915
741.047	40.04977
741.231	48.51365
741.416	33.20132
741.6	50.94658
741.785	32.0429
741.969	45.5042
742.153	47.9786
742.338	26.2632
742.522	38.42611
742.706	44.93309
742.89	30.23763
743.075	41.54135
743.259	50.51626
743.443	46.30156
743.627	49.74799
743.812	57.95656
743.996	22.37943
744.18	39.00617
744.364	35.29757
744.548	59.69973
744.732	38.65125
744.916	46.49495
745.1	44.86664
745.285	38.5451
745.469	45.01627
745.653	52.38038
745.837	29.76669
746.021	57.92622
746.205	52.5447
746.389	41.37842
746.573	39.96861
746.757	53.74418
746.94	39.98288
747.124	50.85985
747.308	33.2663
747.492	48.28745
747.676	34.59363
747.86	61.28721
748.044	35.3056
748.227	28.085
748.411	67.4107
748.595	40.47443
748.779	33.44848
748.963	44.54145
749.146	42.71446
749.33	35.47139
749.514	33.95208
749.697	48.26857
749.881	34.78483
750.065	33.66895
750.248	41.38914
750.432	61.49478
750.616	42.67694
750.799	30.49505
750.983	56.31188
751.166	63.39546
751.35	28.35868
751.533	49.32721
751.717	49.20879
751.9	52.92004
752.084	36.26961
752.267	33.24624
752.451	36.32973
752.634	41.13013
752.818	45.17778
753.001	47.56475
753.184	48.25153
753.368	44.78166
753.551	17.36132
753.734	33.8896
753.918	56.90123
754.101	35.18014
754.284	47.1235
754.467	37.16305
754.651	38.39522
754.834	33.74001
755.017	50.44109
755.2	50.2588
755.384	31.5362
755.567	49.12145
755.75	49.19031
755.933	38.81117
756.116	42.20606
756.299	36.97989
756.482	33.57385
756.665	45.62373
756.848	42.9119
757.032	44.58907
757.215	28.38982
757.398	33.75252
757.581	34.93554
757.764	65.70589
757.947	39.11215
758.129	53.0754
758.312	17.87094
758.495	37.9416
758.678	41.36586
758.861	37.45648
759.044	56.93784
759.227	35.48682
759.41	35.18454
759.592	48.17616
759.775	38.84594
759.958	51.6314
760.141	31.6088
760.324	60.03911
760.506	54.73055
760.689	49.08701
760.872	63.2598
761.054	46.89619
761.237	38.67498
761.42	44.03566
761.602	50.39512
761.785	45.6344
761.968	50.90539
762.15	55.28911
762.333	36.29626
762.515	45.38726
762.698	37.21777
762.88	49.38575
763.063	45.3266
763.245	47.1649
763.428	33.81056
763.61	34.21192
763.793	32.49833
763.975	43.43002
764.158	39.26455
764.34	38.86031
764.522	35.1659
764.705	41.9522
764.887	53.79834
765.069	30.32513
765.252	46.99493
765.434	46.7418
765.616	41.45373
765.799	38.17774
765.981	47.64177
766.163	36.73283
766.345	51.14243
766.528	35.69686
766.71	21.86953
766.892	42.50175
767.074	54.3942
767.256	40.95239
767.438	57.39628
767.62	44.55553
767.802	60.99297
767.985	46.9985
768.167	61.74401
768.349	39.80886
768.531	49.03105
768.713	46.53125
768.895	49.36485
769.077	46.50377
769.259	68.22834
769.441	92.66148
769.623	49.84847
769.804	59.01067
769.986	58.58042
770.168	67.67766
770.35	81.55647
770.532	63.36537
770.714	63.88299
770.896	67.01797
771.077	33.41381
771.259	69.26365
771.441	55.27938
771.623	74.77024
771.804	88.4057
771.986	33.67176
772.168	46.41907
772.35	74.44049
772.531	89.23196
772.713	56.5264
772.894	77.60443
773.076	59.21884
773.258	45.47375
773.439	73.87613
773.621	85.03508
773.802	43.10464
773.984	54.16143
774.166	62.87935
774.347	82.38576
774.529	74.21384
774.71	29.34025
774.891	54.09328
775.073	54.30605
775.254	78.73188
775.436	45.6268
775.617	85.9523
775.799	47.61463
775.98	79.86607
776.161	87.16455
776.343	83.08177
776.524	55.27768
776.705	51.81415
776.886	31.88909
777.068	63.73569
777.249	101.09839
777.43	95.68219
777.611	42.2981
777.793	56.93643
777.974	86.38264
778.155	47.46584
778.336	42.59417
778.517	94.3008
778.698	45.64785
778.879	31.81282
779.061	17.94586
779.242	66.32651
779.423	63.93166
779.604	48.58297
779.785	52.79181
779.966	60.98015
780.147	75.85991
780.328	76.28753
780.509	102.84713
780.69	71.14835
780.871	50.11124
781.051	37.24674
781.232	62.85309
781.413	59.95366
781.594	52.7447
781.775	48.33594
781.956	46.25506
782.137	26.60616
782.317	48.08463
782.498	59.69079
782.679	60.12987
782.86	61.75966
783.04	48.06446
783.221	65.99641
783.402	92.04741
783.583	60.69018
783.763	69.12284
783.944	49.24667
784.124	36.09419
784.305	87.7276
784.486	65.30059
784.666	56.7403
784.847	34.29572
785.027	100.7521
785.208	47.34319
785.388	50.7958
785.569	51.05914
785.749	54.18413
785.93	52.50978
786.11	33.20228
786.291	67.99898
786.471	60.03964
786.652	72.17155
786.832	55.65461
787.012	65.27806
787.193	37.14679
787.373	60.0157
787.553	53.05456
787.734	62.22408
787.914	55.97095
788.094	66.29875
788.275	64.27636
788.455	50.67343
788.635	39.80812
788.815	62.57989
788.995	43.76911
789.176	35.61415
789.356	45.21776
789.536	54.80598
789.716	69.10208
789.896	43.41236
790.076	48.69757
790.256	60.06092
790.436	26.74832
790.616	40.53378
790.796	64.589
790.976	50.04745
791.156	46.56612
791.336	72.11851
791.516	61.73319
791.696	57.88102
791.876	37.3796
792.056	58.82258
792.236	73.3438
792.416	69.47791
792.596	66.06988
792.776	65.71239
792.956	63.61876
793.135	84.5798
793.315	40.25129
793.495	78.99663
793.675	64.90472
793.854	68.87086
794.034	74.2974
794.214	42.57085
794.394	69.42772
794.573	77.20706
794.753	56.44895
794.933	44.70492
795.112	58.21198
795.292	70.00603
795.472	89.14178
795.651	39.41297
795.831	54.95966
796.01	50.30581
796.19	55.2432
796.369	55.50433
796.549	65.08196
796.728	56.47724
796.908	41.12676
797.087	39.78062
797.267	51.25023
797.446	39.54924
797.626	64.12221
797.805	65.16282
797.984	46.08507
798.164	66.64712
798.343	42.09027
798.522	61.11648
798.702	61.1433
798.881	37.80799
799.06	53.93426
799.239	29.12759
799.419	42.23447
799.598	83.61538
799.777	64.00101
799.956	73.48478
800.136	51.37842
800.315	45.03974
800.494	66.31691
800.673	72.83858
800.852	67.32607
801.031	79.68688
801.21	65.72424
801.389	48.2507
801.568	59.26109
801.747	89.04111
801.926	57.9416
802.105	82.36406
802.284	49.87405
802.463	85.21719
802.642	60.56044
802.821	63.68285
803	81.84702
803.179	73.41537
803.358	78.74559
803.537	45.93985
803.716	63.74719
803.895	43.01496
804.073	59.16986
804.252	43.51203
804.431	65.6451
804.61	53.8915
804.789	72.08101
804.967	52.6266
805.146	50.34943
805.325	92.92692
805.503	66.73647
805.682	35.33951
805.861	100.93803
806.039	79.01216
806.218	52.3351
806.397	60.82448
806.575	59.69179
806.754	63.46916
806.932	38.18104
807.111	86.32192
807.289	72.42159
807.468	57.65021
807.646	76.63658
807.825	66.82124
808.003	62.15283
808.182	76.77138
808.36	58.71428
808.539	43.73908
808.717	86.47186
808.895	45.03788
809.074	65.01939
809.252	58.83935
809.43	73.99018
809.609	84.21263
809.787	90.82738
809.965	56.90345
810.144	63.34817
810.322	59.48784
810.5	69.73397
810.678	55.6771
810.856	100.70015
811.035	83.5277
811.213	75.47689
811.391	78.81816
811.569	67.79815
811.747	122.6326
811.925	81.69025
812.103	44.79986
812.281	61.23747
812.459	95.91027
812.637	103.92325
812.816	79.54295
812.994	103.23116
813.171	82.87447
813.349	74.26555
813.527	87.47687
813.705	82.21527
813.883	116.40433
814.061	80.77064
814.239	95.97728
814.417	106.17038
814.595	73.68003
814.773	70.70938
814.95	71.93894
815.128	79.0894
815.306	68.10579
815.484	65.42158
815.662	48.11033
815.839	45.17874
816.017	55.3256
816.195	91.79247
816.372	61.38066
816.55	78.91046
816.728	91.84095
816.905	62.60575
817.083	91.72624
817.261	66.61045
817.438	109.13736
817.616	104.14422
817.793	56.77364
817.971	85.90056
818.148	75.79611
818.326	89.56455
818.503	72.03549
818.681	95.51859
818.858	59.31674
819.036	64.55106
819.213	63.33584
819.391	52.11694
819.568	51.09909
819.745	47.48832
819.923	77.45428
820.1	53.3647
820.277	51.57041
820.455	56.89735
820.632	59.40806
820.809	61.04209
820.986	43.11798
821.164	38.48181
821.341	37.32062
821.518	45.95265
821.695	39.37493
821.872	38.63667
822.05	34.98978
822.227	31.71537
822.404	33.08015
822.581	35.37827
822.758	32.44959
822.935	32.55011
823.112	35.41655
823.289	32.75558
823.466	35.83944
823.643	34.15722
823.82	36.67754
823.997	35.54046
824.174	38.71369
824.351	44.18663
824.528	42.89189
824.705	42.27351
824.882	43.98848
825.059	52.60187
825.236	40.38552
825.412	41.72144
825.589	48.37342
825.766	61.10152
825.943	43.25441
826.12	49.7971
826.296	38.85185
826.473	44.59959
826.65	46.31508
826.827	53.40492
827.003	40.53825
827.18	42.91929
827.357	46.01944
827.533	42.21002
827.71	31.10896
827.887	38.85763
828.063	42.26281
828.24	38.4043
828.416	46.18079
828.593	39.69456
828.769	53.17762
828.946	55.98551
829.122	58.44725
829.299	56.65677
829.475	34.17328
829.652	55.602
829.828	81.68489
830.005	53.00765
830.181	70.20422
830.357	53.17562
830.534	77.8416
830.71	62.42568
830.886	73.19779
831.063	71.05535
831.239	87.16759
831.415	41.8468
831.592	90.60733
831.768	61.82836
831.944	50.65517
832.12	91.7823
832.296	81.09401
832.473	69.40956
832.649	54.62054
832.825	68.51666
833.001	46.0191
833.177	64.13155
833.353	58.03784
833.529	36.83847
833.705	51.67069
833.881	40.91469
834.058	41.47311
834.234	42.955
834.41	43.24894
834.586	36.80971
834.761	40.61221
834.937	45.02469
835.113	45.29719
835.289	41.35185
835.465	48.7322
835.641	40.26828
835.817	46.34678
835.993	76.30281
836.169	41.62122
836.344	59.38358
836.52	64.12437
836.696	66.02057
836.872	48.82318
837.048	124.41938
837.223	54.59158
837.399	102.52949
837.575	80.41092
837.75	78.52574
837.926	103.07679
838.102	167.32478
838.277	130.94373
838.453	175.45135
838.628	168.48128
838.804	68.64168
838.98	165.29326
839.155	83.50516
839.331	117.1692
839.506	78.98109
839.682	83.09477
839.857	91.3003
840.033	108.54197
840.208	63.53224
840.384	32.43712
840.559	59.90505
840.734	88.24415
840.91	116.05179
841.085	76.08224
841.26	75.97443
841.436	67.89543
841.611	65.89753
841.786	102.92462
841.962	130.3033
842.137	88.15863
842.312	54.00153
842.487	72.85765
842.663	61.89297
842.838	91.00949
843.013	271.6193
843.188	146.17553
843.363	133.03498
843.538	231.57022
843.714	236.27219
843.889	227.86913
844.064	193.27733
844.239	163.48778
844.414	253.66165
844.589	163.4836
844.764	270.67384
844.939	294.19286
845.114	279.71907
845.289	322.28102
845.464	357.0071
845.639	258.24183
845.814	148.21964
845.989	184.09273
846.163	202.51624
846.338	265.19956
846.513	332.26367
846.688	224.28119
846.863	222.00868
847.038	162.01973
847.212	203.81109
847.387	223.58451
847.562	248.60555
847.737	313.44989
847.911	127.73305
848.086	170.85554
848.261	336.11875
848.435	186.68538
848.61	293.73073
848.785	172.73749
848.959	331.5188
849.134	303.25634
849.308	642.84347
849.483	251.34199
849.658	355.67034
849.832	195.5404
850.007	150.48591
850.181	492.72558
850.356	243.87238
850.53	429.63056
850.705	154.1979
850.879	113.31571
851.053	209.11538
851.228	223.46095
851.402	339.31614
851.577	297.55532
851.751	414.24167
851.925	193.02757
852.099	100.69586
852.274	170.8945
852.448	220.34675
852.622	303.63394
852.797	229.63733
852.971	232.50404
853.145	272.92231
853.319	473.82048
853.493	452.38002
853.668	237.06568
853.842	545.94827
854.016	378.85298
854.19	461.40123
854.364	232.16187
854.538	304.04554
854.712	330.75875
854.886	215.74796
855.06	226.59618
855.234	82.17639
855.408	387.9104
855.582	345.95016
855.756	523.30279
855.93	380.76923
856.104	337.88417
856.278	346.9232
856.452	235.55032
856.626	249.02853
856.8	473.61494
856.973	363.12447
857.147	378.28559
857.321	326.64497
857.495	368.179
857.669	293.37763
857.842	286.75739
858.016	415.1834
858.19	174.46287
858.364	534.75643
858.537	227.33155
858.711	319.89661
858.885	238.20306
859.058	187.93417
859.232	152.0451
859.405	116.64416
859.579	339.31189
859.753	420.35829
859.926	199.90937
860.1	148.31948
860.273	297.38872
860.447	418.49058
860.62	228.15239
860.794	519.55396
860.967	236.79074
861.141	309.62207
861.314	483.79566
861.487	298.78036
861.661	364.93687
861.834	553.75093
862.008	357.85414
862.181	331.56448
862.354	260.42228
862.528	430.80553
862.701	246.34108
862.874	133.16279
863.047	227.71293
863.221	197.59248
863.394	113.45295
863.567	320.03054
863.74	121.84039
863.913	337.48435
864.087	315.18691
864.26	369.44384
864.433	241.59515
864.606	496.11487
864.779	311.39316
864.952	95.73875
865.125	279.15218
865.298	286.862
865.471	286.02175
865.644	442.41939
865.817	365.52881
865.99	397.96519
866.163	409.06767
866.336	178.87451
866.509	307.6168
866.682	254.541
866.855	434.50584
867.028	154.84069
867.2	274.10408
867.373	91.08395
867.546	263.05313
867.719	500.05258
867.892	348.07574
868.064	205.55003
868.237	259.35925
868.41	279.78634
868.583	184.93038
868.755	182.34025
868.928	232.22065
869.101	548.61126
869.273	416.06282
869.446	293.93187
869.619	453.82137
869.791	367.21835
869.964	408.8006
870.136	441.23514
870.309	220.89084
870.481	299.55883
870.654	130.93744
870.826	244.87479
870.999	205.97067
871.171	402.22606
871.344	178.54082
871.516	233.89486
871.689	182.19138
871.861	268.649
872.033	183.71857
872.206	221.12615
872.378	300.47923
872.55	245.95052
872.723	157.41101
872.895	232.73974
873.067	356.71153
873.24	312.52061
873.412	204.99334
873.584	236.16951
873.756	214.87537
873.928	251.71936
874.101	250.95183
874.273	283.64689
874.445	113.83204
874.617	154.0349
874.789	219.88391
874.961	231.08407
875.133	269.0419
875.305	249.03791
875.477	155.95803
875.649	121.09549
875.821	164.45784
875.993	350.12445
876.165	208.42764
876.337	268.59142
876.509	223.01775
876.681	267.3702
876.853	233.80558
877.025	252.56167
877.197	185.268
877.369	146.27504
877.541	288.31754
877.712	65.71922
877.884	150.4599
878.056	247.41246
878.228	136.82445
878.4	277.02038
878.571	135.96619
878.743	88.31751
878.915	196.91216
879.086	114.07731
879.258	144.12462
879.43	124.53328
879.601	110.60151
879.773	116.14507
879.945	34.85195
880.116	51.86725
880.288	38.60212
880.459	41.29996
880.631	37.53516
880.802	41.73611
880.974	40.60891
881.145	32.68604
881.317	40.32688
881.488	34.35332
881.66	36.91953
881.831	35.37848
882.002	40.12728
882.174	34.74444
882.345	38.79865
882.517	28.60367
882.688	43.26383
882.859	36.72957
883.03	51.49941
883.202	48.97975
883.373	47.1125
883.544	43.93316
883.715	64.65757
883.887	58.56397
884.058	49.41635
884.229	67.31549
884.4	69.24902
884.571	79.01975
884.742	66.96887
884.914	68.22908
885.085	102.60697
885.256	138.60796
885.427	109.78254
885.598	134.3766
885.769	128.93123
885.94	134.21589
886.111	92.64581
886.282	150.42865
886.453	124.63893
886.624	106.3102
886.795	162.44894
886.966	128.70907
887.136	185.57197
887.307	123.75479
887.478	218.65789
887.649	198.8692
887.82	204.20834
887.991	153.75996
888.161	247.72532
888.332	221.98099
888.503	119.67095
888.674	309.45338
888.844	364.28978
889.015	359.91805
889.186	164.10699
889.356	331.40065
889.527	143.89166
889.698	534.10029
889.868	227.58316
890.039	353.51654
890.209	209.30886
890.38	290.59063
890.551	266.12817
890.721	361.8127
890.892	353.73858
891.062	312.70866
891.233	370.61644
891.403	279.5854
891.574	201.80117
891.744	209.12415
891.914	251.95833
892.085	386.26554
892.255	77.92537
892.425	344.07928
892.596	229.26073
892.766	297.52254
892.936	401.90283
893.107	264.87485
893.277	142.99641
893.447	118.60368
893.618	85.74745
893.788	161.28313
893.958	97.75647
894.128	83.44283
894.298	99.39516
894.468	119.20073
894.639	62.99664
894.809	51.32314
894.979	66.7304
895.149	81.74961
895.319	60.71154
895.489	85.09031
895.659	111.75292
895.829	72.22444
895.999	76.57044
896.169	65.16374
896.339	79.99939
896.509	154.115
896.679	166.82255
896.849	196.75016
897.019	269.66739
897.189	226.46889
897.358	179.37589
897.528	299.11735
897.698	137.94503
897.868	282.45752
898.038	574.63337
898.208	502.0061
898.377	149.93769
898.547	810.32786
898.717	850.42463
898.886	364.02161
899.056	576.84006
899.226	902.07635
899.395	673.41281
899.565	721.55454
899.735	415.22048
899.904	648.08325
900.074	868.8326
900.244	328.80994
900.413	1752.54197
900.583	282.15594
900.752	3541.56504
900.922	620.16325
901.091	91.92819
901.261	689.09117
901.43	521.06064
901.599	695.97434
901.769	1416.34067
901.938	714.72556
902.108	603.4775
902.277	741.56146
902.446	305.05443
902.616	301.06676
902.785	444.52999
902.954	556.03493
903.124	294.97068
903.293	222.5921
903.462	105.10342
903.631	159.75743
903.801	105.91131
903.97	58.84984
904.139	94.68596
904.308	76.63301
904.477	73.84807
904.646	37.74301
904.816	56.55525
904.985	89.6472
905.154	123.73273
