Data from WindowProjectSample_Transmission__1__00001.txt Node

Date: Sat May 03 14:50:51 EDT 2025
User: jessi
Spectrometer: SR400872
Trigger mode: 0
Integration Time (sec): 5.000000E-1
Scans to average: 6
Electric dark correction enabled: true
Nonlinearity correction enabled: true
Boxcar width: 0
XAxis mode: Wavelengths
Number of Pixels in Spectrum: 3648
>>>>>Begin Spectral Data<<<<<
184.909	-14536.4223
185.132	2464.10776
185.355	-1964.31724
185.578	13105.02499
185.801	-120.75817
186.024	11301.89736
186.247	675.2365
186.47	-882.33542
186.693	78.04791
186.916	-1071.69886
187.139	5800.03559
187.362	1522.46514
187.585	13810.57073
187.808	2864.43931
188.031	49.77223
188.254	5531.49042
188.476	-22700.78034
188.699	1918.181
188.922	5301.29245
189.145	3507.37693
189.368	-660.37097
189.591	1933.82809
189.813	-6555.44559
190.036	2628.45511
190.259	1012.2285
190.482	-11159.35715
190.705	-3962.94017
190.927	1511.29291
191.15	-14145.42371
191.373	21829.91242
191.595	-2902.24217
191.818	2062.68669
192.041	-204.99898
192.263	1018.63287
192.486	-344.29611
192.709	-7652.43942
192.931	13264.93741
193.154	6227.68751
193.377	-12128.27869
193.599	-1717.86256
193.822	-1091.21344
194.044	2050.49869
194.267	1086.76707
194.489	-192.62389
194.712	1669.38787
194.934	98975.22128
195.157	1374.20048
195.379	953.82054
195.602	-4752.43628
195.824	1778.65735
196.047	-1159.42957
196.269	199819.82744
196.492	-2374.19066
196.714	4278.71313
196.936	3930.67338
197.159	3096.91993
197.381	7203.47448
197.604	367.74064
197.826	2440.02119
198.048	10273.00499
198.271	-19588.65536
198.493	2228.49487
198.715	2398.3583
198.938	-807.96792
199.16	2838.39679
199.382	1491.0315
199.604	-4165.48249
199.827	-5796.73471
200.049	-2340.89522
200.271	3994.77869
200.493	9822.55414
200.715	5968.65422
200.938	-10319.461
201.16	-13374.43054
201.382	946.04069
201.604	-1108.26052
201.826	2406.05379
202.048	2659.1683
202.27	5529.38755
202.492	-2966.53923
202.715	-1258.01993
202.937	-2721.56034
203.159	1532.23494
203.381	1917.28997
203.603	25194.06888
203.825	2952.03173
204.047	-12088.91502
204.269	5366.37145
204.491	-797.1127
204.713	2209.62971
204.935	-20539.01552
205.156	-2350.58285
205.378	6597.01713
205.6	-1869.86406
205.822	2715.2791
206.044	-1398.46145
206.266	1171.08599
206.488	1122.72904
206.71	2310.50699
206.932	-3653.36906
207.153	-1647.84453
207.375	-8927.19957
207.597	18191.33004
207.819	2046.79049
208.041	2517.61612
208.262	2270.78589
208.484	-1099.99579
208.706	-1052.77534
208.927	5483.78618
209.149	947.17923
209.371	-2782.03283
209.593	-885.89681
209.814	-2234.26795
210.036	-1167.76366
210.258	-4898.20521
210.479	-4092.56511
210.701	-4745.12571
210.922	6225.72133
211.144	-2468.14693
211.366	1294.32017
211.587	-32420.05358
211.809	-2376.4387
212.03	-1166.95134
212.252	859.63868
212.473	-4736.80794
212.695	1606.96104
212.916	-1703.41863
213.138	813.44703
213.359	-1092.10024
213.581	16803.33754
213.802	-413.42724
214.024	-2028.32596
214.245	-8513.16094
214.466	-175.5632
214.688	-2437.9215
214.909	-1778.11483
215.131	11244.96984
215.352	3155.6905
215.573	53788.60089
215.795	5117.01454
216.016	5959.11091
216.237	-736.92792
216.459	2450.35055
216.68	7454.17423
216.901	-4293.41071
217.122	5534.34287
217.344	1591.60261
217.565	-5028.1121
217.786	2205.92375
218.007	719.26192
218.228	996.6275
218.45	-2373.8116
218.671	2307.14469
218.892	2649.4233
219.113	1448.96323
219.334	-438.03372
219.555	6836.06715
219.776	4655.00256
219.997	1557.27139
220.219	814.60548
220.44	979.66682
220.661	1158.05455
220.882	5553.61022
221.103	3363.26407
221.324	1692.4454
221.545	72440.34869
221.766	-5511.26074
221.987	-768.71298
222.208	-2995.55113
222.429	5617.31898
222.65	-2410.45899
222.87	-2125.57341
223.091	3585.75471
223.312	-2163.76844
223.533	-4794.07349
223.754	2051.81924
223.975	1408.46933
224.196	-4087.58994
224.417	80891.53122
224.637	3817.70909
224.858	116.71054
225.079	3115.08985
225.3	2693.97125
225.521	4140.93721
225.741	2509.50631
225.962	895.14657
226.183	12334.20554
226.404	1322.52484
226.624	716.92558
226.845	853.74255
227.066	883.58033
227.286	517.78374
227.507	306.02627
227.728	214.88997
227.948	315.60366
228.169	105.07364
228.389	89.75243
228.61	51.35132
228.831	64.70372
229.051	9.50072
229.272	40.65036
229.492	59.03255
229.713	17.08658
229.933	40.75364
230.154	35.40994
230.374	60.97375
230.595	48.33571
230.815	34.28651
231.036	48.49654
231.256	-7.37084
231.477	93.57144
231.697	58.2988
231.917	58.2768
232.138	78.40167
232.358	182.02236
232.579	157.09968
232.799	30.22337
233.019	144.19672
233.24	173.86855
233.46	57.03873
233.68	99.14064
233.901	77.20171
234.121	45.42707
234.341	19.49665
234.561	-3.05498
234.782	33.36351
235.002	104.96675
235.222	-0.57423
235.442	84.32985
235.662	40.82611
235.883	87.51208
236.103	72.10921
236.323	69.97657
236.543	43.80444
236.763	58.93265
236.983	63.78927
237.203	77.08767
237.423	92.15634
237.643	142.14135
237.864	130.9512
238.084	34.43412
238.304	41.01637
238.524	81.20118
238.744	60.86293
238.964	100.3286
239.184	85.81224
239.404	92.55635
239.624	44.19183
239.843	88.85027
240.063	47.23148
240.283	28.64171
240.503	36.87923
240.723	31.77676
240.943	18.20826
241.163	24.14497
241.383	18.18136
241.603	9.1688
241.822	10.94186
242.042	8.38309
242.262	10.20747
242.482	11.83093
242.702	13.16534
242.921	5.34821
243.141	9.33147
243.361	8.63239
243.581	12.72791
243.8	11.09492
244.02	7.43502
244.24	13.32766
244.459	14.72557
244.679	26.93329
244.899	18.39694
245.118	19.86117
245.338	16.93135
245.558	18.59496
245.777	11.33929
245.997	12.54773
246.216	12.60858
246.436	6.92446
246.655	5.03861
246.875	4.55834
247.094	7.56209
247.314	2.70622
247.533	4.34348
247.753	6.10896
247.972	5.07995
248.192	1.80163
248.411	2.60902
248.631	5.61756
248.85	7.25131
249.07	4.93769
249.289	8.87864
249.508	6.96168
249.728	11.68518
249.947	12.00607
250.166	12.35778
250.386	7.45315
250.605	11.27217
250.824	15.66689
251.044	11.78505
251.263	35.96614
251.482	17.91126
251.701	17.62381
251.921	0.57618
252.14	5.8479
252.359	5.44365
252.578	13.98748
252.798	5.10339
253.017	12.6552
253.236	7.06647
253.455	8.46367
253.674	16.48127
253.893	8.16771
254.112	13.01257
254.331	17.64967
254.551	16.11826
254.77	6.97862
254.989	20.26793
255.208	19.92535
255.427	23.12977
255.646	19.98389
255.865	35.31643
256.084	13.21569
256.303	15.91845
256.522	21.53904
256.741	6.08553
256.96	6.40574
257.179	13.03779
257.397	15.35742
257.616	7.29762
257.835	8.53996
258.054	21.0697
258.273	13.88234
258.492	15.37179
258.711	9.8997
258.93	4.26113
259.148	5.24146
259.367	5.70444
259.586	7.43009
259.805	3.39195
260.023	6.76331
260.242	5.33398
260.461	3.58698
260.68	2.0159
260.898	6.50927
261.117	2.21444
261.336	1.60799
261.554	5.58453
261.773	5.58288
261.992	1.38781
262.21	5.60017
262.429	6.9609
262.648	11.35892
262.866	13.49105
263.085	7.72692
263.303	7.65296
263.522	13.32357
263.74	13.69741
263.959	21.91698
264.178	12.37417
264.396	10.69725
264.615	7.61551
264.833	17.75299
265.051	15.13975
265.27	14.34006
265.488	16.86429
265.707	10.3782
265.925	15.72184
266.144	7.53682
266.362	9.41181
266.58	9.73589
266.799	6.89148
267.017	8.55002
267.235	8.04529
267.454	5.16659
267.672	2.69755
267.89	7.05679
268.109	6.95739
268.327	6.55195
268.545	1.52509
268.763	6.84003
268.982	3.01801
269.2	8.12026
269.418	4.85879
269.636	3.51043
269.854	6.35217
270.073	4.92542
270.291	2.10709
270.509	3.30433
270.727	6.94202
270.945	11.24941
271.163	10.54255
271.381	2.69629
271.599	4.54775
271.817	7.55608
272.036	2.639
272.254	4.48398
272.472	3.47682
272.69	3.66857
272.908	3.75856
273.126	6.43263
273.344	8.00503
273.562	2.93842
273.779	3.97083
273.997	5.52559
274.215	6.78379
274.433	3.94404
274.651	6.69249
274.869	7.46558
275.087	3.67473
275.305	6.33692
275.523	3.6357
275.74	4.93249
275.958	8.58415
276.176	12.23553
276.394	3.46555
276.612	4.90812
276.829	4.53512
277.047	3.89571
277.265	4.02597
277.483	6.07904
277.7	6.42448
277.918	5.18715
278.136	9.3833
278.353	4.40363
278.571	2.48616
278.789	7.38042
279.006	1.4842
279.224	4.67692
279.442	7.70018
279.659	5.01393
279.877	3.82331
280.094	8.69111
280.312	1.45739
280.529	5.32843
280.747	1.48049
280.964	3.90204
281.182	9.20716
281.399	3.91867
281.617	5.98682
281.834	4.16231
282.052	3.27191
282.269	4.83608
282.487	3.81932
282.704	3.04134
282.921	3.62491
283.139	4.92071
283.356	6.45102
283.574	5.61869
283.791	3.05534
284.008	7.8974
284.226	4.48294
284.443	5.10349
284.66	5.94532
284.877	5.11702
285.095	3.24547
285.312	2.39594
285.529	1.78847
285.746	1.5579
285.964	3.01963
286.181	2.14854
286.398	2.84934
286.615	3.99533
286.832	3.88664
287.05	1.23309
287.267	2.73734
287.484	3.22232
287.701	4.1777
287.918	3.96625
288.135	4.30308
288.352	2.08964
288.569	2.46342
288.786	3.65214
289.003	2.62206
289.22	4.03487
289.437	2.91357
289.654	4.48223
289.871	4.61348
290.088	4.70389
290.305	3.30743
290.522	2.75344
290.739	3.31091
290.956	4.72616
291.173	5.6767
291.39	5.41349
291.607	3.738
291.824	2.80668
292.04	2.15625
292.257	4.49688
292.474	5.07612
292.691	3.5543
292.908	1.70028
293.125	3.02456
293.341	1.7572
293.558	7.82365
293.775	3.06195
293.992	3.62705
294.208	1.38801
294.425	2.07611
294.642	2.77961
294.858	4.17027
295.075	1.17144
295.292	3.17673
295.508	4.00763
295.725	5.76909
295.942	3.38679
296.158	3.0545
296.375	4.29581
296.591	3.34802
296.808	4.2924
297.024	5.16784
297.241	5.60169
297.458	6.33494
297.674	3.40969
297.891	5.91646
298.107	6.34512
298.323	5.21001
298.54	9.102
298.756	6.70475
298.973	6.13981
299.189	9.9443
299.406	7.96431
299.622	9.95323
299.838	10.52417
300.055	10.45383
300.271	8.43003
300.487	8.5299
300.704	9.80117
300.92	8.97262
301.136	14.84514
301.353	12.52322
301.569	11.3077
301.785	11.82388
302.001	13.23558
302.218	12.69092
302.434	13.51563
302.65	11.15729
302.866	12.38081
303.083	16.48751
303.299	16.57004
303.515	13.63173
303.731	15.14691
303.947	12.74481
304.163	14.05644
304.379	14.90502
304.595	15.58599
304.812	14.0216
305.028	14.01392
305.244	14.3961
305.46	15.84033
305.676	16.50161
305.892	17.75195
306.108	16.59928
306.324	15.43304
306.54	18.2759
306.756	16.54265
306.972	16.14166
307.187	16.48199
307.403	17.79562
307.619	15.31673
307.835	17.693
308.051	18.65137
308.267	15.28352
308.483	19.00715
308.699	17.84514
308.914	17.453
309.13	17.45168
309.346	15.93128
309.562	16.95177
309.778	16.43537
309.993	18.98773
310.209	19.00726
310.425	16.70657
310.641	18.7518
310.856	17.99081
311.072	17.71587
311.288	19.0459
311.503	20.29881
311.719	17.09423
311.935	17.40369
312.15	20.77234
312.366	20.63637
312.581	20.58897
312.797	20.34517
313.013	20.74065
313.228	19.48403
313.444	19.06231
313.659	18.71114
313.875	19.91357
314.09	19.4963
314.306	21.34808
314.521	21.04907
314.737	20.96157
314.952	19.8418
315.168	20.18482
315.383	21.14953
315.599	18.85912
315.814	20.15104
316.029	20.93959
316.245	19.08634
316.46	17.40528
316.675	21.60503
316.891	23.36539
317.106	23.94225
317.321	21.52146
317.537	21.50576
317.752	21.90534
317.967	21.71476
318.183	19.29172
318.398	20.01069
318.613	22.05705
318.828	22.87321
319.043	21.91856
319.259	21.1432
319.474	21.34417
319.689	22.88573
319.904	19.19464
320.119	23.04868
320.334	21.67224
320.549	21.32693
320.765	23.45981
320.98	23.00557
321.195	22.21397
321.41	21.74553
321.625	22.87005
321.84	24.38946
322.055	24.29771
322.27	21.45887
322.485	20.67088
322.7	22.75838
322.915	23.83657
323.13	22.31671
323.345	25.76073
323.56	24.98169
323.775	24.4594
323.989	24.3617
324.204	23.39585
324.419	25.28453
324.634	22.51115
324.849	24.32392
325.064	28.83545
325.279	26.07418
325.493	25.53888
325.708	26.10441
325.923	23.79984
326.138	24.53553
326.352	27.05247
326.567	26.30247
326.782	24.51219
326.997	25.17386
327.211	26.28044
327.426	25.74217
327.641	25.10623
327.855	23.82502
328.07	27.26105
328.285	28.93816
328.499	25.25953
328.714	26.75154
328.928	26.71098
329.143	25.8927
329.358	27.91533
329.572	27.47737
329.787	29.04034
330.001	29.60114
330.216	23.64498
330.43	30.45266
330.645	28.45875
330.859	28.46464
331.074	25.03717
331.288	27.11505
331.503	30.18766
331.717	25.01261
331.931	27.10208
332.146	28.24472
332.36	30.78327
332.575	28.10166
332.789	28.54059
333.003	28.3697
333.218	28.76708
333.432	28.15982
333.646	29.71962
333.86	31.35232
334.075	31.17368
334.289	27.99311
334.503	26.47903
334.717	30.51622
334.932	29.0195
335.146	30.77072
335.36	27.87947
335.574	31.10686
335.788	29.98171
336.003	31.7401
336.217	31.81533
336.431	31.45955
336.645	28.99669
336.859	28.81306
337.073	30.3933
337.287	31.31565
337.501	28.21125
337.715	31.9299
337.929	31.31645
338.143	29.57352
338.357	30.54579
338.571	30.74076
338.785	33.43611
338.999	30.84415
339.213	31.13532
339.427	30.88718
339.641	34.1327
339.855	32.19452
340.069	30.62801
340.283	34.03486
340.497	34.53946
340.711	34.15144
340.924	33.14188
341.138	31.90728
341.352	31.57074
341.566	33.91002
341.78	31.82462
341.993	32.69517
342.207	32.55331
342.421	34.58959
342.635	34.33442
342.848	33.39104
343.062	30.61263
343.276	33.59229
343.49	36.12441
343.703	33.36691
343.917	35.67296
344.131	36.36365
344.344	33.71549
344.558	34.13609
344.771	33.52125
344.985	36.84653
345.199	38.03202
345.412	36.11446
345.626	36.8647
345.839	34.17821
346.053	34.6965
346.266	34.96181
346.48	36.82121
346.693	36.63526
346.907	37.06298
347.12	35.10623
347.334	36.29972
347.547	37.47338
347.76	36.26106
347.974	38.38078
348.187	36.76189
348.401	36.62633
348.614	35.63543
348.827	36.88186
349.041	37.39986
349.254	34.97443
349.467	36.59414
349.681	36.19342
349.894	36.14203
350.107	39.19497
350.32	40.76872
350.534	35.28464
350.747	37.75238
350.96	36.99113
351.173	37.39529
351.386	38.07841
351.6	37.15869
351.813	38.04035
352.026	38.20979
352.239	37.36554
352.452	37.70211
352.665	40.08051
352.878	38.44973
353.092	42.12939
353.305	39.8904
353.518	39.94585
353.731	37.86941
353.944	40.78792
354.157	38.55734
354.37	39.06452
354.583	38.3251
354.796	38.7375
355.009	41.51501
355.222	39.95355
355.435	40.53147
355.647	41.81888
355.86	39.73854
356.073	41.28158
356.286	39.71457
356.499	42.32692
356.712	42.49913
356.925	41.64389
357.138	42.24803
357.35	40.22878
357.563	40.86047
357.776	42.1881
357.989	42.3562
358.201	43.07434
358.414	42.28231
358.627	44.23579
358.84	41.91455
359.052	40.69252
359.265	42.00699
359.478	43.8298
359.69	39.72717
359.903	43.74974
360.116	43.91619
360.328	40.94828
360.541	43.92983
360.753	42.62762
360.966	42.745
361.179	43.49481
361.391	43.23954
361.604	42.91924
361.816	43.77719
362.029	43.49626
362.241	43.92889
362.454	44.27563
362.666	43.44438
362.879	45.1408
363.091	44.13388
363.304	44.2752
363.516	44.2624
363.728	43.39084
363.941	45.4507
364.153	45.14672
364.366	42.19931
364.578	43.83085
364.79	45.97121
365.003	45.56767
365.215	44.33336
365.427	45.95736
365.639	46.2538
365.852	45.3908
366.064	47.78779
366.276	45.13332
366.488	45.74089
366.701	45.46957
366.913	45.43201
367.125	45.79779
367.337	45.20292
367.549	45.43273
367.762	45.96399
367.974	45.44326
368.186	46.25367
368.398	47.32809
368.61	46.8777
368.822	47.31249
369.034	45.68154
369.246	47.92724
369.458	50.46175
369.67	45.34214
369.882	48.0928
370.094	44.14551
370.306	48.31404
370.518	46.45015
370.73	45.50723
370.942	46.60572
371.154	47.46247
371.366	47.66246
371.578	48.76113
371.79	48.13715
372.002	49.16923
372.214	50.63239
372.425	48.21293
372.637	50.28606
372.849	48.81819
373.061	45.71825
373.273	48.66472
373.484	48.70916
373.696	49.75398
373.908	45.98172
374.12	49.02404
374.331	49.68225
374.543	47.66316
374.755	47.09229
374.967	48.75159
375.178	50.21894
375.39	48.118
375.602	48.9285
375.813	47.03101
376.025	48.29257
376.236	49.4968
376.448	49.68524
376.66	49.19505
376.871	49.97102
377.083	50.72497
377.294	51.78421
377.506	49.38878
377.717	51.92504
377.929	50.72488
378.14	49.94898
378.352	51.10805
378.563	51.35018
378.775	52.24401
378.986	49.85358
379.197	51.06718
379.409	50.31455
379.62	51.47838
379.832	51.01673
380.043	50.61093
380.254	51.52547
380.466	49.74224
380.677	55.1361
380.888	53.77215
381.1	55.15933
381.311	55.1774
381.522	51.77876
381.733	54.89182
381.945	51.67925
382.156	51.25371
382.367	51.86667
382.578	55.77311
382.789	55.63185
383.001	51.31959
383.212	55.06586
383.423	54.54067
383.634	53.84192
383.845	53.15556
384.056	52.02952
384.267	52.53206
384.478	52.85886
384.69	51.17571
384.901	53.40888
385.112	53.48592
385.323	55.95079
385.534	54.31682
385.745	54.09662
385.956	53.74696
386.167	52.52105
386.378	54.85129
386.588	53.38032
386.799	52.74047
387.01	52.21073
387.221	55.30431
387.432	54.01612
387.643	56.12533
387.854	54.04173
388.065	53.57468
388.275	54.37043
388.486	54.26929
388.697	55.32438
388.908	54.38645
389.119	55.97423
389.329	56.2102
389.54	54.79706
389.751	54.79999
389.962	56.04191
390.172	54.1682
390.383	54.57819
390.594	54.53864
390.804	53.96863
391.015	54.22924
391.226	55.29501
391.436	56.30372
391.647	56.21987
391.858	56.82955
392.068	53.98685
392.279	54.84122
392.489	56.58629
392.7	57.7799
392.91	54.86322
393.121	55.62069
393.331	56.99119
393.542	57.63154
393.752	57.24749
393.963	57.07727
394.173	56.98911
394.384	57.366
394.594	56.83647
394.804	55.51383
395.015	57.52115
395.225	57.87659
395.436	56.14872
395.646	57.47029
395.856	56.81801
396.067	55.77713
396.277	58.03856
396.487	58.01976
396.697	58.03954
396.908	58.28851
397.118	57.99439
397.328	57.58424
397.538	58.62788
397.749	57.03071
397.959	58.23397
398.169	57.57473
398.379	56.23513
398.589	57.92402
398.8	58.45414
399.01	58.08658
399.22	57.69005
399.43	60.30742
399.64	58.17087
399.85	58.80002
400.06	58.36152
400.27	57.63216
400.48	58.51638
400.69	59.39885
400.9	57.79918
401.11	57.04281
401.32	59.03395
401.53	58.18089
401.74	59.81555
401.95	58.42851
402.16	57.67188
402.37	58.45656
402.58	57.75512
402.79	59.15052
403	59.24581
403.209	57.33095
403.419	59.51244
403.629	57.82816
403.839	60.08489
404.049	60.41643
404.258	58.46493
404.468	58.55294
404.678	60.19438
404.888	60.45819
405.097	59.2223
405.307	59.38797
405.517	60.51375
405.727	59.89139
405.936	59.32064
406.146	60.20377
406.356	60.81816
406.565	60.19959
406.775	59.30832
406.984	60.10991
407.194	61.96347
407.404	60.31207
407.613	60.3313
407.823	61.09262
408.032	61.4942
408.242	61.05399
408.451	59.61952
408.661	60.39255
408.87	61.75331
409.08	59.22847
409.289	60.64878
409.499	60.13513
409.708	60.04975
409.918	58.03351
410.127	60.34311
410.336	61.94141
410.546	61.57198
410.755	60.42358
410.964	59.98559
411.174	59.82023
411.383	61.75865
411.592	61.51425
411.802	60.50675
412.011	62.50839
412.22	60.64005
412.429	62.68228
412.639	62.54637
412.848	62.50312
413.057	62.83848
413.266	62.13824
413.475	60.95136
413.685	62.66976
413.894	62.76491
414.103	62.84694
414.312	62.04905
414.521	60.58247
414.73	61.31333
414.939	63.73441
415.148	61.99937
415.357	61.70776
415.566	61.47452
415.776	61.24999
415.985	61.03694
416.194	62.37037
416.403	63.59674
416.611	60.21225
416.82	60.97724
417.029	62.38174
417.238	61.35326
417.447	61.56568
417.656	61.65466
417.865	61.34781
418.074	61.83458
418.283	62.05609
418.492	63.41043
418.7	63.25226
418.909	64.02067
419.118	62.53999
419.327	63.20178
419.536	62.88611
419.744	62.06769
419.953	63.78127
420.162	63.65955
420.371	62.06799
420.579	62.19333
420.788	63.37311
420.997	63.67169
421.205	63.72775
421.414	63.69379
421.623	64.03351
421.831	63.18628
422.04	64.5489
422.249	63.93871
422.457	64.07591
422.666	63.45888
422.874	65.17103
423.083	64.76663
423.291	64.57483
423.5	64.11291
423.708	64.11169
423.917	64.9124
424.125	63.99105
424.334	63.82094
424.542	66.31487
424.751	65.33382
424.959	65.46936
425.167	65.90363
425.376	66.11935
425.584	65.35557
425.793	66.42674
426.001	65.27167
426.209	66.94611
426.418	65.11132
426.626	65.44928
426.834	65.3981
427.042	65.79857
427.251	65.29078
427.459	66.40274
427.667	65.47184
427.875	64.2567
428.084	65.08112
428.292	66.54411
428.5	66.53858
428.708	64.9117
428.916	64.30279
429.124	65.49787
429.333	65.49645
429.541	65.12742
429.749	65.8899
429.957	64.8593
430.165	68.54257
430.373	64.26166
430.581	65.15399
430.789	67.66864
430.997	66.23036
431.205	65.24582
431.413	65.74723
431.621	64.68842
431.829	66.22444
432.037	65.16041
432.245	66.25085
432.453	66.32256
432.661	64.86652
432.869	67.81689
433.076	65.44614
433.284	66.4166
433.492	67.46144
433.7	68.19017
433.908	66.87547
434.116	67.49764
434.323	67.5009
434.531	67.27193
434.739	67.70435
434.947	68.55477
435.154	68.30771
435.362	68.4541
435.57	66.98087
435.778	67.49896
435.985	67.49417
436.193	67.09336
436.401	68.13287
436.608	67.22972
436.816	66.70371
437.023	68.20516
437.231	68.61815
437.439	67.63997
437.646	67.80618
437.854	67.06931
438.061	68.21063
438.269	67.1657
438.476	68.06944
438.684	67.04937
438.891	67.37765
439.099	66.87655
439.306	65.77215
439.514	66.56455
439.721	68.1708
439.929	67.09193
440.136	68.29602
440.343	68.18339
440.551	67.92763
440.758	70.50933
440.965	68.77031
441.173	68.8867
441.38	68.02072
441.587	69.43227
441.795	69.06541
442.002	69.28897
442.209	69.71322
442.416	69.99785
442.624	70.11797
442.831	69.79295
443.038	68.43118
443.245	68.09117
443.452	68.6508
443.66	69.83938
443.867	67.7099
444.074	67.56375
444.281	67.4012
444.488	67.60086
444.695	67.89687
444.902	67.8294
445.109	68.23065
445.316	67.43136
445.523	67.75849
445.73	67.15084
445.937	68.41319
446.144	68.68871
446.351	69.01297
446.558	68.60336
446.765	69.78278
446.972	70.01143
447.179	69.05691
447.386	70.32863
447.593	69.5178
447.8	71.45334
448.007	69.87241
448.214	70.35144
448.42	69.50669
448.627	71.61653
448.834	70.06356
449.041	70.13227
449.248	70.56236
449.454	71.01462
449.661	72.53583
449.868	70.10809
450.075	69.23784
450.281	68.31403
450.488	69.26264
450.695	68.83691
450.901	68.60063
451.108	69.66522
451.315	70.50222
451.521	68.74874
451.728	70.72893
451.935	68.8151
452.141	69.59663
452.348	69.60064
452.554	69.98379
452.761	69.74973
452.967	71.72768
453.174	70.38819
453.38	70.53858
453.587	69.32178
453.793	71.19373
454	72.04414
454.206	73.31154
454.413	72.20092
454.619	70.9593
454.825	69.396
455.032	70.65857
455.238	71.89589
455.445	69.90541
455.651	71.37435
455.857	69.34262
456.064	71.07631
456.27	70.5404
456.476	70.01688
456.682	69.62349
456.889	71.01665
457.095	71.08663
457.301	72.66464
457.507	70.45854
457.714	70.40842
457.92	70.16389
458.126	69.47246
458.332	69.46576
458.538	69.71949
458.744	69.34446
458.951	69.14899
459.157	71.48806
459.363	70.40197
459.569	70.60913
459.775	72.35479
459.981	70.62577
460.187	72.01962
460.393	72.42156
460.599	73.85571
460.805	72.29949
461.011	72.99648
461.217	74.74604
461.423	74.41532
461.629	72.74001
461.835	74.01485
462.041	72.74971
462.247	74.97661
462.453	72.36526
462.658	72.86684
462.864	73.27137
463.07	72.31381
463.276	71.92035
463.482	72.06765
463.688	73.09845
463.893	71.46529
464.099	71.58366
464.305	73.90829
464.511	71.58816
464.716	71.83163
464.922	73.05954
465.128	71.12775
465.333	73.31609
465.539	72.95783
465.745	72.24841
465.95	71.80601
466.156	75.55159
466.362	73.6209
466.567	72.23933
466.773	71.3567
466.978	74.19068
467.184	72.25737
467.389	70.45909
467.595	73.10171
467.8	72.55251
468.006	74.25576
468.211	74.18106
468.417	72.58035
468.622	73.65167
468.828	74.33171
469.033	73.39435
469.239	76.63728
469.444	72.76384
469.649	74.89885
469.855	72.91072
470.06	73.84743
470.266	71.84752
470.471	74.2077
470.676	74.2329
470.881	71.97091
471.087	74.63581
471.292	76.20317
471.497	72.11839
471.703	74.27761
471.908	72.87496
472.113	74.00511
472.318	74.47187
472.523	72.63609
472.729	74.10674
472.934	74.05815
473.139	73.91361
473.344	74.25718
473.549	75.42137
473.754	73.35229
473.959	76.77011
474.164	73.77716
474.369	73.11455
474.575	75.40837
474.78	74.293
474.985	73.29577
475.19	72.05678
475.395	72.89882
475.6	73.31294
475.804	75.75543
476.009	73.55261
476.214	73.46756
476.419	73.36484
476.624	72.113
476.829	73.2232
477.034	74.46348
477.239	73.73431
477.444	74.75901
477.648	74.47505
477.853	75.31369
478.058	73.84961
478.263	73.62879
478.468	73.38581
478.672	74.02756
478.877	75.9443
479.082	76.45902
479.287	74.63347
479.491	75.46942
479.696	73.19491
479.901	75.70388
480.105	75.25879
480.31	73.92043
480.515	74.2597
480.719	76.34572
480.924	73.98027
481.128	72.70024
481.333	73.36057
481.538	73.91212
481.742	73.25158
481.947	73.70315
482.151	72.84644
482.356	71.91237
482.56	76.71129
482.765	87.09444
482.969	98.07863
483.174	98.58532
483.378	98.58559
483.582	98.58541
483.787	98.58585
483.991	98.58547
484.196	98.58515
484.4	98.58526
484.604	98.5854
484.809	98.58509
485.013	98.58549
485.217	98.50615
485.422	94.90461
485.626	86.29819
485.83	81.86158
486.034	80.49537
486.239	82.91015
486.443	86.8549
486.647	90.70894
486.851	95.38322
487.055	97.98152
487.26	98.37128
487.464	98.58566
487.668	98.58544
487.872	98.58522
488.076	98.58533
488.28	98.18276
488.484	96.89149
488.688	92.64773
488.892	86.42156
489.096	80.13428
489.3	77.75049
489.504	77.27558
489.708	77.80426
489.912	77.27215
490.116	75.94571
490.32	74.58336
490.524	74.72363
490.728	75.68366
490.932	81.02571
491.136	86.59777
491.34	90.66632
491.544	92.14684
491.748	92.45508
491.951	90.84839
492.155	88.23616
492.359	84.15044
492.563	78.48825
492.767	78.48092
492.97	79.02899
493.174	78.73659
493.378	79.36125
493.582	78.30835
493.785	78.11739
493.989	78.44877
494.193	78.1464
494.396	76.66127
494.6	77.73982
494.804	76.23465
495.007	76.72872
495.211	76.63223
495.414	76.56944
495.618	76.30155
495.822	77.25832
496.025	76.02983
496.229	77.33266
496.432	76.26028
496.636	76.80691
496.839	77.10798
497.043	78.62621
497.246	77.06238
497.45	77.81553
497.653	77.48182
497.856	78.03187
498.06	77.26094
498.263	78.10397
498.467	77.8505
498.67	78.70958
498.873	78.81003
499.077	78.14636
499.28	78.46715
499.483	78.8966
499.686	78.80681
499.89	78.86983
500.093	78.90458
500.296	78.08216
500.499	79.34781
500.703	78.59321
500.906	78.42303
501.109	80.42668
501.312	78.49396
501.515	78.14496
501.719	78.53084
501.922	79.65269
502.125	78.30184
502.328	78.2939
502.531	76.54045
502.734	77.81272
502.937	76.07795
503.14	77.96893
503.343	77.1093
503.546	77.9686
503.749	77.20967
503.952	78.29473
504.155	77.1525
504.358	78.91832
504.561	78.84463
504.764	77.28406
504.967	79.05724
505.17	79.14235
505.373	80.43622
505.576	79.20186
505.778	79.4786
505.981	77.63326
506.184	79.26441
506.387	77.37201
506.59	80.6248
506.793	79.84416
506.995	78.39444
507.198	76.4141
507.401	78.4867
507.604	78.40857
507.806	76.84939
508.009	77.35925
508.212	78.5605
508.414	78.05651
508.617	77.97237
508.82	78.81439
509.022	79.832
509.225	79.2067
509.427	77.82976
509.63	80.19253
509.833	79.08383
510.035	78.98998
510.238	77.99142
510.44	80.85816
510.643	77.64077
510.845	81.79059
511.048	79.59782
511.25	78.87284
511.453	79.62945
511.655	79.93966
511.858	78.80424
512.06	80.58521
512.262	79.53154
512.465	80.7311
512.667	79.13096
512.869	78.72973
513.072	80.24384
513.274	80.55995
513.476	80.62152
513.679	80.64112
513.881	79.45881
514.083	81.70923
514.286	79.72872
514.488	79.33765
514.69	79.53064
514.892	78.54763
515.094	80.73283
515.297	79.11241
515.499	79.55244
515.701	79.17312
515.903	81.17831
516.105	81.35818
516.307	80.01688
516.509	77.71057
516.711	77.34413
516.913	79.78038
517.116	78.41331
517.318	78.48018
517.52	80.06291
517.722	79.74683
517.924	77.52613
518.126	78.98897
518.328	78.71702
518.529	80.02738
518.731	81.4827
518.933	79.91679
519.135	80.30155
519.337	82.03281
519.539	81.63387
519.741	79.69176
519.943	80.96466
520.145	81.52564
520.346	82.15561
520.548	80.78865
520.75	81.55952
520.952	81.1585
521.153	81.54444
521.355	81.38986
521.557	80.13498
521.759	81.21331
521.96	80.86901
522.162	79.95384
522.364	81.68398
522.565	79.91433
522.767	80.96041
522.969	81.68478
523.17	80.79842
523.372	81.44328
523.573	79.63741
523.775	79.94555
523.977	78.63749
524.178	81.7421
524.38	78.76301
524.581	79.61285
524.783	79.38174
524.984	80.50565
525.186	80.00084
525.387	80.00516
525.589	79.57958
525.79	80.26194
525.991	79.52531
526.193	80.92922
526.394	79.30068
526.596	80.79818
526.797	80.09928
526.998	79.19672
527.2	77.9618
527.401	78.64225
527.602	81.6382
527.803	92.09036
528.005	97.7518
528.206	98.58563
528.407	98.58503
528.608	98.58614
528.81	98.58522
529.011	98.58562
529.212	98.58483
529.413	98.30548
529.614	96.10449
529.815	88.02988
530.017	83.7865
530.218	83.97668
530.419	82.56236
530.62	82.78343
530.821	82.91044
531.022	81.13514
531.223	81.78891
531.424	81.88411
531.625	81.23196
531.826	81.02925
532.027	79.98782
532.228	81.00764
532.429	79.48322
532.63	79.6507
532.831	80.03656
533.032	81.04055
533.233	81.74967
533.433	81.49205
533.634	81.59349
533.835	81.82672
534.036	81.63268
534.237	82.76233
534.438	82.7673
534.638	83.05663
534.839	82.62852
535.04	83.71984
535.241	81.70298
535.441	82.99402
535.642	81.71032
535.843	80.21344
536.043	80.52402
536.244	80.74498
536.445	81.47322
536.645	82.45411
536.846	82.49471
537.047	83.65335
537.247	81.55433
537.448	83.2231
537.648	83.25356
537.849	83.54231
538.049	83.83128
538.25	84.46547
538.451	84.3397
538.651	81.5292
538.851	83.0065
539.052	83.564
539.252	82.72312
539.453	81.04906
539.653	81.14496
539.854	80.41651
540.054	79.691
540.254	80.25602
540.455	80.4266
540.655	79.74368
540.855	80.47119
541.056	83.90668
541.256	85.24009
541.456	86.16996
541.657	85.97579
541.857	85.11076
542.057	82.08417
542.257	82.44476
542.458	83.40357
542.658	85.14078
542.858	83.01236
543.058	84.92738
543.258	84.48475
543.458	82.63593
543.659	82.35168
543.859	84.13978
544.059	83.84982
544.259	83.68936
544.459	84.19623
544.659	83.48343
544.859	84.00449
545.059	82.52906
545.259	83.67234
545.459	82.96023
545.659	83.31719
545.859	82.44324
546.059	82.43903
546.259	81.64941
546.459	81.49779
546.659	82.4496
546.859	84.16288
547.059	83.6478
547.258	84.1553
547.458	84.35012
547.658	82.66794
547.858	83.61336
548.058	84.81403
548.258	84.87145
548.457	83.98333
548.657	87.59951
548.857	83.75888
549.057	86.24471
549.256	85.14894
549.456	84.13433
549.656	81.66789
549.855	86.80139
550.055	83.84207
550.255	85.8657
550.454	84.4132
550.654	85.20708
550.853	85.73508
551.053	85.03405
551.253	83.81608
551.452	84.89716
551.652	81.87353
551.851	81.81561
552.051	83.0665
552.25	83.17106
552.45	83.16652
552.649	83.97351
552.849	83.4011
553.048	84.5419
553.248	85.61893
553.447	83.6175
553.646	85.24538
553.846	87.70218
554.045	86.61261
554.244	83.20592
554.444	87.65298
554.643	83.87764
554.842	86.83813
555.042	87.30744
555.241	83.50095
555.44	83.52046
555.64	84.83122
555.839	87.42998
556.038	84.91505
556.237	83.7889
556.436	84.52033
556.636	85.81773
556.835	83.77905
557.034	86.67256
557.233	84.37786
557.432	83.96079
557.631	86.81761
557.83	85.4933
558.029	84.58757
558.228	83.97217
558.427	83.50065
558.626	86.29658
558.825	83.43477
559.024	86.24333
559.223	87.55162
559.422	85.22598
559.621	86.37551
559.82	81.16626
560.019	84.22754
560.218	83.7643
560.417	81.07298
560.616	84.05178
560.815	89.46524
561.014	83.69857
561.212	87.25866
561.411	84.87949
561.61	82.72915
561.809	84.47928
562.008	88.00699
562.206	85.14888
562.405	85.86253
562.604	85.43569
562.803	85.64675
563.001	85.17249
563.2	84.60051
563.399	86.73099
563.597	83.63138
563.796	84.57382
563.995	82.79352
564.193	85.26608
564.392	84.33479
564.59	87.29152
564.789	81.8995
564.988	84.28248
565.186	84.04014
565.385	83.66356
565.583	83.27594
565.782	84.69558
565.98	84.42518
566.179	85.09643
566.377	83.12588
566.575	85.44767
566.774	86.90724
566.972	87.07758
567.171	88.49416
567.369	88.62378
567.567	86.88407
567.766	87.14314
567.964	83.7722
568.162	86.53922
568.361	86.89575
568.559	86.06998
568.757	85.12069
568.956	86.34723
569.154	85.4345
569.352	86.633
569.55	85.50682
569.748	86.10913
569.947	84.28865
570.145	84.27594
570.343	84.19909
570.541	86.89489
570.739	83.10277
570.937	84.6737
571.135	86.03985
571.333	87.26898
571.532	86.72295
571.73	86.1503
571.928	87.14064
572.126	86.4513
572.324	84.81288
572.522	87.71846
572.72	89.85312
572.918	86.24742
573.116	86.14819
573.313	86.26451
573.511	86.17538
573.709	85.2328
573.907	87.02411
574.105	85.4006
574.303	82.94924
574.501	83.90902
574.699	86.30711
574.896	87.09423
575.094	86.15987
575.292	84.43135
575.49	86.95935
575.688	85.60762
575.885	88.12894
576.083	90.08449
576.281	87.37044
576.478	86.18733
576.676	88.09184
576.874	85.34788
577.071	87.32871
577.269	91.81826
577.467	87.17651
577.664	87.92354
577.862	88.7082
578.059	85.64148
578.257	88.45069
578.455	87.37678
578.652	87.56343
578.85	84.37199
579.047	86.63082
579.245	87.65966
579.442	87.23571
579.64	87.70013
579.837	84.23406
580.034	92.48978
580.232	86.11173
580.429	85.22262
580.627	87.93968
580.824	89.62795
581.021	88.51579
581.219	86.28465
581.416	86.3797
581.613	89.36635
581.811	90.77498
582.008	85.61482
582.205	88.51039
582.402	88.23998
582.6	90.6097
582.797	88.14885
582.994	87.66783
583.191	88.71784
583.388	87.94868
583.586	90.48717
583.783	90.15101
583.98	87.6139
584.177	87.80126
584.374	83.50303
584.571	88.20721
584.768	87.5348
584.965	87.36437
585.162	88.68229
585.359	90.8931
585.556	88.40938
585.753	87.71895
585.95	86.54088
586.147	85.47635
586.344	90.01701
586.541	89.75753
586.738	87.01072
586.935	88.35569
587.132	86.84168
587.329	89.52193
587.526	86.88055
587.722	96.07693
587.919	84.91956
588.116	87.45067
588.313	89.56815
588.51	92.08485
588.706	87.29835
588.903	89.46846
589.1	89.2929
589.297	92.7274
589.493	89.62891
589.69	88.99449
589.887	87.20149
590.083	87.02941
590.28	88.36871
590.477	90.45008
590.673	90.8872
590.87	91.82038
591.067	88.80133
591.263	90.42199
591.46	89.83121
591.656	88.19054
591.853	91.63224
592.049	88.02454
592.246	87.93041
592.442	91.58976
592.639	92.19844
592.835	87.29727
593.032	88.43587
593.228	85.61534
593.425	86.43766
593.621	85.26778
593.817	89.91111
594.014	86.23888
594.21	89.09421
594.406	90.12585
594.603	89.18136
594.799	88.04384
594.995	84.54146
595.192	89.72306
595.388	87.91372
595.584	87.84338
595.78	85.48822
595.977	92.44618
596.173	91.07152
596.369	86.65475
596.565	86.19906
596.761	86.39191
596.957	90.68691
597.154	87.16709
597.35	87.77164
597.546	87.37246
597.742	91.43189
597.938	89.56369
598.134	88.81314
598.33	91.92243
598.526	94.20314
598.722	91.75345
598.918	94.55136
599.114	91.44654
599.31	88.36939
599.506	90.79027
599.702	88.86469
599.898	89.81541
600.094	91.84788
600.29	93.37171
600.485	91.79396
600.681	90.14372
600.877	93.70194
601.073	90.01728
601.269	93.10924
601.465	92.24132
601.66	88.21853
601.856	86.09487
602.052	91.57924
602.248	88.3475
602.443	85.80182
602.639	87.10228
602.835	86.59626
603.03	87.10044
603.226	89.57681
603.422	87.63625
603.617	88.06907
603.813	87.5213
604.009	86.90947
604.204	91.65325
604.4	86.95244
604.595	90.7832
604.791	88.43004
604.986	91.05023
605.182	89.3405
605.377	89.19746
605.573	89.6488
605.768	92.24366
605.964	93.24903
606.159	94.15378
606.355	93.76333
606.55	91.16143
606.746	94.68399
606.941	90.86526
607.136	94.17241
607.332	96.60288
607.527	88.03617
607.722	90.53947
607.918	89.93598
608.113	87.31903
608.308	91.00631
608.503	90.26414
608.699	89.60201
608.894	90.09827
609.089	87.06695
609.284	90.10392
609.479	89.312
609.675	91.13069
609.87	89.84694
610.065	91.18523
610.26	93.1587
610.455	92.0023
610.65	91.01831
610.845	92.46322
611.04	94.88091
611.235	91.61268
611.43	90.42135
611.625	89.22079
611.82	96.0524
612.015	89.67808
612.21	94.68086
612.405	88.42032
612.6	95.00974
612.795	93.67518
612.99	94.30944
613.185	89.48296
613.38	90.27983
613.575	91.16226
613.77	99.2606
613.965	88.82054
614.159	90.13963
614.354	94.39754
614.549	95.35302
614.744	94.78812
614.938	90.6772
615.133	89.81915
615.328	95.88885
615.523	95.34956
615.717	100.63665
615.912	90.66233
616.107	93.89708
616.301	91.58367
616.496	91.80264
616.691	95.81537
616.885	95.2697
617.08	100.08332
617.274	96.13187
617.469	96.78718
617.664	94.2344
617.858	90.46984
618.053	94.04566
618.247	91.44675
618.442	88.25829
618.636	97.39231
618.831	92.09438
619.025	89.90661
619.219	100.45505
619.414	86.13174
619.608	92.28353
619.803	91.04503
619.997	97.96747
620.191	95.90896
620.386	93.80411
620.58	93.38275
620.774	88.78352
620.969	88.7674
621.163	93.13729
621.357	90.93505
621.551	92.65105
621.746	93.0915
621.94	92.74072
622.134	102.87183
622.328	98.51661
622.522	89.02068
622.716	96.28199
622.911	96.9951
623.105	97.13248
623.299	94.15331
623.493	100.65086
623.687	90.83092
623.881	91.51209
624.075	95.55382
624.269	95.73564
624.463	88.18873
624.657	88.39559
624.851	93.2024
625.045	95.50169
625.239	95.61556
625.433	92.22418
625.627	97.28461
625.821	90.58403
626.015	90.8166
626.209	93.16121
626.403	87.96023
626.596	93.79206
626.79	94.55788
626.984	89.97807
627.178	95.20083
627.372	94.53271
627.565	96.21324
627.759	89.04656
627.953	91.15103
628.147	95.42918
628.34	95.07135
628.534	100.16861
628.728	93.60212
628.921	96.47247
629.115	96.31719
629.309	95.86453
629.502	97.81653
629.696	94.33577
629.89	93.63303
630.083	94.13291
630.277	96.2516
630.47	99.15336
630.664	95.05336
630.857	90.06739
631.051	96.53386
631.244	99.19104
631.438	98.31816
631.631	92.87726
631.825	99.53413
632.018	97.97837
632.212	99.93027
632.405	98.27852
632.598	93.69651
632.792	94.51356
632.985	87.5449
633.178	92.22545
633.372	94.43134
633.565	93.16102
633.758	97.82786
633.952	92.77866
634.145	91.29233
634.338	93.56634
634.531	92.87494
634.724	95.67014
634.918	96.18268
635.111	95.93621
635.304	93.96219
635.497	104.16842
635.69	96.50685
635.883	99.54449
636.077	95.14596
636.27	97.27113
636.463	95.61974
636.656	97.22878
636.849	96.53632
637.042	98.55225
637.235	102.8076
637.428	99.24651
637.621	98.8307
637.814	101.84194
638.007	100.77782
638.2	101.76711
638.393	102.2224
638.586	94.01888
638.778	93.95727
638.971	97.80072
639.164	102.26886
639.357	99.09847
639.55	103.76923
639.743	100.66926
639.935	100.5566
640.128	104.95837
640.321	102.16631
640.514	99.03825
640.707	105.6393
640.899	99.42384
641.092	92.40328
641.285	128.42826
641.477	90.8691
641.67	108.04229
641.863	104.01928
642.055	99.58186
642.248	97.12356
642.441	98.81206
642.633	102.36336
642.826	104.46922
643.018	104.03044
643.211	106.0282
643.403	105.86256
643.596	105.61731
643.788	105.1414
643.981	96.66784
644.173	101.00602
644.366	99.34881
644.558	92.10537
644.751	105.76079
644.943	93.41879
645.135	105.07579
645.328	105.8748
645.52	103.99956
645.712	103.18917
645.905	111.30253
646.097	95.0326
646.289	100.18915
646.482	109.51683
646.674	96.66304
646.866	104.89573
647.058	102.94442
647.251	96.40051
647.443	98.44349
647.635	100.48679
647.827	94.4002
648.019	96.58143
648.211	100.54499
648.404	99.1969
648.596	106.87659
648.788	102.49363
648.98	99.31451
649.172	101.03821
649.364	101.10754
649.556	92.80745
649.748	111.66595
649.94	95.63801
650.132	103.29899
650.324	95.24522
650.516	97.59052
650.708	104.27502
650.9	95.61978
651.092	96.88106
651.284	93.88462
651.476	95.38269
651.667	103.91424
651.859	105.65457
652.051	99.73794
652.243	102.80561
652.435	98.51149
652.627	101.78879
652.818	104.28499
653.01	94.78335
653.202	94.46864
653.394	100.18841
653.585	104.77043
653.777	121.54946
653.969	105.87058
654.16	107.0286
654.352	97.67566
654.544	100.05212
654.735	107.10634
654.927	99.70315
655.118	106.73625
655.31	103.60545
655.502	106.96199
655.693	100.78505
655.885	102.77078
656.076	106.89989
656.268	101.82586
656.459	107.38026
656.651	105.19827
656.842	100.13075
657.034	97.23312
657.225	103.78032
657.416	107.3645
657.608	106.05156
657.799	99.35686
657.99	105.30984
658.182	95.04468
658.373	97.58575
658.564	101.89391
658.756	100.72629
658.947	99.21198
659.138	96.1345
659.33	97.76187
659.521	96.13974
659.712	100.99201
659.903	100.48248
660.094	99.51235
660.286	97.44185
660.477	110.14511
660.668	107.33253
660.859	104.22206
661.05	97.36235
661.241	106.69925
661.432	105.35532
661.623	103.11276
661.814	101.83105
662.006	98.76352
662.197	103.89249
662.388	109.5983
662.579	104.62658
662.77	109.6536
662.96	119.07067
663.151	109.3629
663.342	95.56352
663.533	108.28699
663.724	104.62374
663.915	112.80717
664.106	102.6798
664.297	113.32117
664.488	107.69151
664.678	101.45418
664.869	109.1612
665.06	112.09845
665.251	105.80501
665.442	106.64915
665.632	101.24184
665.823	113.26744
666.014	91.5727
666.204	108.08253
666.395	116.54114
666.586	121.55273
666.776	108.85721
666.967	115.61389
667.158	105.6482
667.348	110.47648
667.539	100.74881
667.729	107.12132
667.92	101.4666
668.111	107.34429
668.301	107.16798
668.492	105.01205
668.682	106.70959
668.873	107.49582
669.063	100.02319
669.253	107.93338
669.444	111.55823
669.634	105.55727
669.825	115.07455
670.015	112.91543
670.206	103.04421
670.396	119.04063
670.586	106.50286
670.777	111.3095
670.967	97.83164
671.157	107.66455
671.347	104.07896
671.538	116.95244
671.728	113.19921
671.918	116.24685
672.108	113.55391
672.299	109.72479
672.489	113.61967
672.679	105.50443
672.869	112.09055
673.059	122.51752
673.249	113.37363
673.44	106.64432
673.63	107.82226
673.82	115.01072
674.01	104.70259
674.2	110.8728
674.39	126.78344
674.58	113.27726
674.77	109.05075
674.96	110.41752
675.15	131.85569
675.34	116.78294
675.53	109.24623
675.72	110.16788
675.91	103.05903
676.099	122.46227
676.289	124.90114
676.479	116.78365
676.669	105.69777
676.859	113.08191
677.049	105.03069
677.238	107.67639
677.428	120.79838
677.618	111.12105
677.808	119.82012
677.997	111.46581
678.187	104.07789
678.377	107.68364
678.567	104.79135
678.756	109.70952
678.946	106.11705
679.136	100.07779
679.325	103.24293
679.515	100.6263
679.704	98.91514
679.894	110.6567
680.084	108.21784
680.273	113.14176
680.463	102.46844
680.652	104.22948
680.842	107.49119
681.031	113.96172
681.221	105.39566
681.41	112.41556
681.6	108.53499
681.789	114.81923
681.978	119.31486
682.168	111.53511
682.357	111.64489
682.547	115.65511
682.736	113.9174
682.925	122.45683
683.115	119.92253
683.304	118.34425
683.493	115.55841
683.682	119.24889
683.872	116.33666
684.061	118.83971
684.25	116.00025
684.439	126.33169
684.629	117.27613
684.818	136.05901
685.007	116.41572
685.196	115.11142
685.385	124.50565
685.574	119.10217
685.763	117.06479
685.952	116.86328
686.142	112.59988
686.331	126.11925
686.52	104.40028
686.709	128.71305
686.898	124.01566
687.087	120.02331
687.276	126.89626
687.465	121.06079
687.654	114.93923
687.842	126.22994
688.031	108.50533
688.22	127.17937
688.409	118.13147
688.598	117.66878
688.787	133.22524
688.976	115.1402
689.165	130.05039
689.353	112.96999
689.542	121.87719
689.731	123.47079
689.92	135.03759
690.108	124.56954
690.297	118.3813
690.486	121.43911
690.675	123.63892
690.863	131.3255
691.052	131.09964
691.241	122.98001
691.429	117.14048
691.618	128.80635
691.806	112.15402
691.995	117.65002
692.184	119.36372
692.372	117.43114
692.561	124.86485
692.749	121.01887
692.938	143.60769
693.126	124.65349
693.315	121.7052
693.503	128.58057
693.692	129.24914
693.88	131.06595
694.068	137.83239
694.257	120.27942
694.445	127.28656
694.634	108.84234
694.822	128.83204
695.01	133.64849
695.199	131.42566
695.387	134.04261
695.575	133.9342
695.763	123.20239
695.952	118.13432
696.14	108.07556
696.328	119.95207
696.516	123.00588
696.705	122.33013
696.893	122.23621
697.081	106.11044
697.269	122.43541
697.457	109.17495
697.645	106.64088
697.833	118.79879
698.021	107.26025
698.21	110.16199
698.398	111.25141
698.586	105.4095
698.774	105.19793
698.962	112.89344
699.15	109.01909
699.338	107.21319
699.526	120.22715
699.714	115.56021
699.901	113.63427
700.089	125.71362
700.277	116.97646
700.465	119.97681
700.653	129.12553
700.841	127.64161
701.029	118.37209
701.217	134.72023
701.404	128.35049
701.592	138.83265
701.78	141.44741
701.968	124.09669
702.155	124.29492
702.343	120.00657
702.531	142.66657
702.718	133.29886
702.906	125.82113
703.094	122.72848
703.281	141.85654
703.469	131.12335
703.657	139.1754
703.844	157.66785
704.032	143.98621
704.219	124.39055
704.407	134.31751
704.595	139.60248
704.782	134.90739
704.97	126.70462
705.157	125.27623
705.345	147.85168
705.532	160.53709
705.719	136.05615
705.907	144.62771
706.094	128.43804
706.282	154.75233
706.469	131.51197
706.656	131.90529
706.844	132.06482
707.031	139.03464
707.218	133.57702
707.406	147.79669
707.593	140.98346
707.78	136.50705
707.968	128.1341
708.155	126.28507
708.342	134.49128
708.529	136.37174
708.716	136.30768
708.904	145.66128
709.091	136.62584
709.278	123.66971
709.465	154.11485
709.652	147.26644
709.839	146.47515
710.026	136.61239
710.213	117.54698
710.4	136.20735
710.587	141.37671
710.774	145.98943
710.961	146.65792
711.148	135.2803
711.335	145.8061
711.522	136.38184
711.709	138.2738
711.896	152.21035
712.083	145.17333
712.27	128.80184
712.457	132.49137
712.644	121.10354
712.831	154.89982
713.017	137.66716
713.204	142.46362
713.391	128.60319
713.578	147.61078
713.765	151.06207
713.951	142.14191
714.138	165.28706
714.325	136.20508
714.512	139.7425
714.698	129.35473
714.885	150.34584
715.072	136.44269
715.258	138.32531
715.445	128.20594
715.631	150.41643
715.818	114.10725
716.005	131.26675
716.191	141.01535
716.378	133.59059
716.564	144.99064
716.751	131.07426
716.937	136.1756
717.124	153.76826
717.31	131.89937
717.497	166.75905
717.683	130.74211
717.869	178.15721
718.056	138.42352
718.242	149.6069
718.429	145.90019
718.615	134.10149
718.801	148.83614
718.988	159.02808
719.174	148.61375
719.36	146.20447
719.547	159.36153
719.733	145.87797
719.919	147.47674
720.105	165.08776
720.291	145.27837
720.478	151.98635
720.664	143.7755
720.85	142.2161
721.036	183.88349
721.222	168.12191
721.408	149.99266
721.595	179.58478
721.781	169.28656
721.967	170.29844
722.153	171.59976
722.339	165.59354
722.525	159.12508
722.711	141.90434
722.897	139.22254
723.083	146.75228
723.269	164.24428
723.455	183.07273
723.641	199.48199
723.827	158.14414
724.012	158.6431
724.198	155.82892
724.384	166.5137
724.57	156.99728
724.756	130.31223
724.942	132.1668
725.127	166.33201
725.313	172.47264
725.499	168.41774
725.685	180.96867
725.87	157.81612
726.056	140.12757
726.242	166.0495
726.428	131.9144
726.613	164.51165
726.799	147.8803
726.985	129.93545
727.17	128.56667
727.356	177.00877
727.541	141.00394
727.727	147.72638
727.913	154.74511
728.098	143.4588
728.284	163.08102
728.469	139.01998
728.655	148.70153
728.84	154.84874
729.026	167.29345
729.211	161.03218
729.397	150.7384
729.582	164.13693
729.767	152.90158
729.953	149.84099
730.138	167.98688
730.323	118.40481
730.509	145.5107
730.694	178.42914
730.879	156.04132
731.065	151.743
731.25	189.14425
731.435	160.16517
731.621	130.65771
731.806	141.09748
731.991	149.2158
732.176	136.94109
732.361	168.81021
732.547	161.62085
732.732	134.97644
732.917	184.39916
733.102	139.7562
733.287	143.01573
733.472	150.99393
733.657	150.62035
733.842	138.77221
734.027	147.85258
734.212	157.02747
734.397	141.74807
734.582	157.37627
734.767	172.03339
734.952	177.12125
735.137	120.96125
735.322	191.04489
735.507	164.54509
735.692	163.06909
735.877	191.33737
736.062	191.2224
736.247	172.94593
736.431	165.3908
736.616	181.1336
736.801	163.45871
736.986	165.77414
737.171	148.63451
737.355	150.06088
737.54	187.87603
737.725	151.10642
737.909	204.81646
738.094	152.42252
738.279	179.54246
738.463	154.22283
738.648	169.18621
738.833	165.69294
739.017	191.51406
739.202	161.69322
739.386	169.46543
739.571	145.47417
739.756	167.01641
739.94	170.66202
740.125	182.68744
740.309	145.34846
740.494	178.95482
740.678	167.68846
740.863	177.48939
741.047	169.57332
741.231	186.23549
741.416	145.8412
741.6	201.9268
741.785	161.80338
741.969	181.68416
742.153	195.42828
742.338	126.67657
742.522	173.52258
742.706	191.49279
742.89	145.65048
743.075	187.14096
743.259	208.07615
743.443	185.37214
743.627	207.16613
743.812	215.65306
743.996	140.78938
744.18	168.57661
744.364	166.24219
744.548	218.16685
744.732	164.11596
744.916	190.42537
745.1	189.20446
745.285	161.45511
745.469	192.00053
745.653	206.37785
745.837	151.99871
746.021	215.28911
746.205	186.87611
746.389	182.45594
746.573	163.89961
746.757	211.76243
746.94	163.07192
747.124	213.72224
747.308	158.4309
747.492	191.01446
747.676	162.21575
747.86	218.03349
748.044	162.4743
748.227	140.99815
748.411	259.69122
748.595	180.03198
748.779	163.36761
748.963	186.15008
749.146	167.06424
749.33	155.92935
749.514	151.17357
749.697	206.5959
749.881	157.85881
750.065	165.16487
750.248	187.93631
750.432	236.91126
750.616	172.87755
750.799	158.408
750.983	214.84583
751.166	234.46629
751.35	151.43182
751.533	195.89235
751.717	210.21144
751.9	222.96128
752.084	167.82135
752.267	173.85453
752.451	172.63557
752.634	192.40555
752.818	195.94145
753.001	203.75045
753.184	192.49
753.368	195.48838
753.551	113.07975
753.734	178.25755
753.918	216.9844
754.101	169.50997
754.284	195.12921
754.467	168.01908
754.651	169.4629
754.834	168.58941
755.017	209.61677
755.2	204.77849
755.384	160.60808
755.567	202.73889
755.75	216.95422
755.933	168.45642
756.116	190.71171
756.299	176.85665
756.482	174.20358
756.665	207.49309
756.848	179.24342
757.032	194.31068
757.215	152.90862
757.398	160.2652
757.581	168.45661
757.764	248.3589
757.947	178.94228
758.129	212.98609
758.312	134.19371
758.495	186.2093
758.678	180.94952
758.861	175.43309
759.044	247.53637
759.227	156.15404
759.41	178.40895
759.592	202.15125
759.775	188.02393
759.958	204.53698
760.141	165.4236
760.324	236.21145
760.506	216.75977
760.689	214.62663
760.872	254.49544
761.054	203.26303
761.237	197.07078
761.42	192.91019
761.602	201.33264
761.785	202.62943
761.968	202.72847
762.15	210.05088
762.333	175.84708
762.515	182.30699
762.698	166.8254
762.88	176.64322
763.063	171.43739
763.245	178.06235
763.428	149.23435
763.61	148.13765
763.793	135.79264
763.975	168.78991
764.158	156.71601
764.34	146.61193
764.522	143.04929
764.705	162.77574
764.887	201.90251
765.069	152.16356
765.252	196.71173
765.434	200.18504
765.616	185.94863
765.799	171.5461
765.981	198.62553
766.163	175.06134
766.345	221.34976
766.528	175.59348
766.71	138.43913
766.892	198.78747
767.074	215.7827
767.256	188.11817
767.438	242.08626
767.62	205.32782
767.802	265.49348
767.985	213.85357
768.167	276.75114
768.349	203.44428
768.531	244.11792
768.713	205.74563
768.895	241.18635
769.077	223.29542
769.259	302.13656
769.441	353.69784
769.623	246.78256
769.804	285.32404
769.986	279.69022
770.168	300.29182
770.35	348.31874
770.532	248.71459
770.714	275.06917
770.896	316.36466
771.077	194.79194
771.259	316.3587
771.441	325.62499
771.623	296.26159
771.804	407.52232
771.986	186.21235
772.168	230.70618
772.35	289.66578
772.531	384.44965
772.713	252.10528
772.894	348.57441
773.076	236.11807
773.258	244.97715
773.439	342.22891
773.621	324.87325
773.802	215.31725
773.984	258.66784
774.166	289.0965
774.347	371.2969
774.529	312.79014
774.71	198.08418
774.891	248.35542
775.073	253.39525
775.254	382.39449
775.436	258.32668
775.617	386.81302
775.799	282.91904
775.98	385.89781
776.161	373.29924
776.343	337.90519
776.524	225.91151
776.705	273.32283
776.886	173.81788
777.068	272.31049
777.249	416.43962
777.43	337.95047
777.611	209.80264
777.793	273.0164
777.974	339.60137
778.155	240.9919
778.336	230.06429
778.517	350.80216
778.698	226.11172
778.879	185.50568
779.061	150.39861
779.242	307.89195
779.423	324.70008
779.604	222.55355
779.785	263.50763
779.966	304.70506
780.147	299.44652
780.328	346.89616
780.509	378.6602
780.69	322.85251
780.871	220.34669
781.051	210.4423
781.232	256.63117
781.413	271.06428
781.594	285.74336
781.775	233.19331
781.956	230.1853
782.137	183.12949
782.317	269.63939
782.498	278.24812
782.679	281.23131
782.86	280.66789
783.04	236.4276
783.221	288.15104
783.402	335.89004
783.583	265.04611
783.763	303.18254
783.944	261.45898
784.124	194.07742
784.305	376.98602
784.486	342.46374
784.666	261.30645
784.847	207.22081
785.027	491.37532
785.208	250.743
785.388	216.14171
785.569	243.73445
785.749	246.21745
785.93	247.68738
786.11	195.89901
786.291	319.22505
786.471	325.44202
786.652	309.69142
786.832	281.48444
787.012	295.37626
787.193	223.55059
787.373	257.88274
787.553	227.22922
787.734	277.65904
787.914	238.59249
788.094	295.69022
788.275	252.82825
788.455	231.45573
788.635	201.72417
788.815	252.70281
788.995	201.49312
789.176	195.27815
789.356	209.53984
789.536	266.71036
789.716	277.63993
789.896	229.89407
790.076	228.53478
790.256	287.03399
790.436	172.83083
790.616	216.14684
790.796	276.43303
790.976	238.24487
791.156	242.23137
791.336	313.1171
791.516	292.09041
791.696	270.44561
791.876	199.46562
792.056	268.5153
792.236	336.23182
792.416	310.68374
792.596	298.87335
792.776	286.99262
792.956	336.56073
793.135	329.89533
793.315	199.68909
793.495	351.06459
793.675	301.13087
793.854	293.40426
794.034	307.62879
794.214	208.20259
794.394	341.53318
794.573	300.45227
794.753	272.90031
794.933	235.11569
795.112	309.20583
795.292	306.50027
795.472	374.76148
795.651	207.02208
795.831	275.42545
796.01	232.6788
796.19	250.44453
796.369	263.56283
796.549	294.46155
796.728	235.65703
796.908	199.80578
797.087	215.82659
797.267	282.6349
797.446	218.16684
797.626	273.27679
797.805	289.26945
797.984	204.3834
798.164	290.09606
798.343	227.80572
798.522	276.42346
798.702	264.93882
798.881	209.67189
799.06	265.33984
799.239	196.94297
799.419	247.71047
799.598	341.50215
799.777	298.69893
799.956	350.48622
800.136	231.09124
800.315	231.66875
800.494	288.7145
800.673	305.38614
800.852	331.43298
801.031	319.73493
801.21	325.58798
801.389	283.74141
801.568	309.44397
801.747	418.39964
801.926	349.73754
802.105	391.73414
802.284	247.25738
802.463	384.35174
802.642	276.1274
802.821	285.65548
803	390.91811
803.179	306.293
803.358	367.19705
803.537	239.83851
803.716	309.5387
803.895	271.61028
804.073	267.33554
804.252	291.18274
804.431	321.97146
804.61	334.77668
804.789	319.46005
804.967	240.90843
805.146	253.19278
805.325	447.92022
805.503	366.86258
805.682	217.32654
805.861	514.996
806.039	335.75712
806.218	245.9351
806.397	297.2668
806.575	294.78308
806.754	287.81174
806.932	218.34455
807.111	381.92799
807.289	361.38229
807.468	287.29105
807.646	354.37538
807.825	283.64625
808.003	314.08516
808.182	376.86481
808.36	321.54436
808.539	238.13806
808.717	460.94021
808.895	277.44953
809.074	314.70943
809.252	306.08345
809.43	452.26319
809.609	388.40327
809.787	387.3242
809.965	387.85153
810.144	322.8384
810.322	301.14123
810.5	461.69051
810.678	341.41629
810.856	465.35517
811.035	446.85347
811.213	328.4126
811.391	338.69588
811.569	329.46843
811.747	455.85428
811.925	396.46246
812.103	290.92963
812.281	354.55122
812.459	473.48709
812.637	462.48304
812.816	423.91476
812.994	420.70592
813.171	451.08148
813.349	354.5662
813.527	402.06066
813.705	460.67155
813.883	388.88074
814.061	535.93973
814.239	420.62777
814.417	503.66087
814.595	411.56951
814.773	440.78088
814.95	398.75034
815.128	376.96892
815.306	409.27302
815.484	348.1317
815.662	307.83069
815.839	289.43144
816.017	297.41415
816.195	358.61336
816.372	346.86196
816.55	381.62391
816.728	483.90696
816.905	301.31972
817.083	428.37421
817.261	338.17544
817.438	576.80235
817.616	476.15942
817.793	340.87597
817.971	428.71361
818.148	349.74295
818.326	389.87579
818.503	332.74453
818.681	551.09109
818.858	298.71689
819.036	317.0815
819.213	351.29092
819.391	247.1878
819.568	221.97979
819.745	241.77143
819.923	302.77543
820.1	229.83247
820.277	210.66291
820.455	216.59522
820.632	218.33861
820.809	244.12514
820.986	186.21659
821.164	150.76885
821.341	141.27394
821.518	157.64983
821.695	131.94682
821.872	125.61894
822.05	117.77819
822.227	110.47119
822.404	112.85728
822.581	121.11317
822.758	114.22341
822.935	115.24445
823.112	120.84854
823.289	116.00404
823.466	127.44885
823.643	129.19566
823.82	138.8051
823.997	143.90324
824.174	151.5902
824.351	180.21542
824.528	177.08093
824.705	174.89093
824.882	180.38231
825.059	216.49436
825.236	181.08176
825.412	195.63429
825.589	206.23938
825.766	244.39595
825.943	195.90879
826.12	202.14827
826.296	158.52192
826.473	175.96411
826.65	173.06993
826.827	181.5552
827.003	156.88334
827.18	154.87671
827.357	162.83579
827.533	156.65297
827.71	129.00732
827.887	156.03
828.063	158.63172
828.24	155.91369
828.416	184.27694
828.593	181.26494
828.769	211.62305
828.946	250.43765
829.122	270.1967
829.299	271.15015
829.475	202.06142
829.652	258.16081
829.828	352.60725
830.005	328.31274
830.181	397.8562
830.357	281.20582
830.534	401.31256
830.71	343.72918
830.886	397.6566
831.063	334.47199
831.239	435.6539
831.415	241.1509
831.592	433.88915
831.768	377.22842
831.944	243.08893
832.12	377.75364
832.296	357.39528
832.473	304.20455
832.649	247.29727
832.825	273.23063
833.001	213.01071
833.177	233.01208
833.353	215.00067
833.529	159.43109
833.705	193.99532
833.881	157.36967
834.058	172.1752
834.234	172.17268
834.41	167.5202
834.586	162.97472
834.761	176.12066
834.937	191.63309
835.113	206.04299
835.289	215.42123
835.465	213.42855
835.641	226.30907
835.817	258.67931
835.993	380.81903
836.169	229.82056
836.344	344.72365
836.52	400.40999
836.696	390.60426
836.872	300.56321
837.048	772.35843
837.223	435.52955
837.399	507.36332
837.575	405.17734
837.75	512.50264
837.926	512.70708
838.102	672.97995
838.277	665.33576
838.453	1163.44923
838.628	884.60362
838.804	580.77914
838.98	917.86305
839.155	621.51047
839.331	799.75431
839.506	451.03283
839.682	377.17871
839.857	452.6811
840.033	445.28217
840.208	280.4943
840.384	193.52558
840.559	358.44504
840.734	418.72061
840.91	467.07658
841.085	445.74977
841.26	466.04452
841.436	383.69977
841.611	479.14935
841.786	482.74944
841.962	923.22417
842.137	772.3315
842.312	481.8304
842.487	624.48998
842.663	682.34699
842.838	651.36442
843.013	2173.22877
843.188	924.97414
843.363	551.16352
843.538	1268.16928
843.714	1644.7727
843.889	863.08124
844.064	890.6931
844.239	708.97705
844.414	3311.95038
844.589	1035.13303
844.764	2439.22764
844.939	1288.76151
845.114	1519.56535
845.289	1412.6581
845.464	2649.40198
845.639	1174.79572
845.814	2368.76414
845.989	1711.41774
846.163	1017.81188
846.338	1156.41671
846.513	1463.05507
846.688	692.17396
846.863	1195.51983
847.038	1887.43242
847.212	697.51754
847.387	989.86161
847.562	4117.00374
847.737	4301.56071
847.911	734.30076
848.086	685.05518
848.261	1513.12498
848.435	576.31375
848.61	1145.71971
848.785	1029.39422
848.959	1320.07336
849.134	1973.05969
849.308	6454.97409
849.483	2695.04146
849.658	-36829.01674
849.832	1053.62879
850.007	667.6901
850.181	5568.61538
850.356	-2799.2674
850.53	2221.57887
850.705	972.24957
850.879	957.82659
851.053	1101.15892
851.228	2016.64383
851.402	1349.36223
851.577	863.21734
851.751	1505.55593
851.925	1135.32165
852.099	1423.22301
852.274	1312.44521
852.448	4296.66403
852.622	2753.94444
852.797	1192.18745
852.971	1205.06661
853.145	1449.55727
853.319	2398.53455
853.493	7624.82662
853.668	1271.93062
853.842	6684.39788
854.016	1545.00436
854.19	1689.84591
854.364	1285.00995
854.538	1169.5842
854.712	96839.83575
854.886	672.46645
855.06	1378.36681
855.234	435.83149
855.408	1065.24703
855.582	1779.62109
855.756	-47568.74722
855.93	1841.53261
856.104	7443.18824
856.278	2072.23879
856.452	1114.17785
856.626	1312.49488
856.8	1510.28808
856.973	1362.28404
857.147	4010.62158
857.321	2236.98594
857.495	1810.94678
857.669	1118.97767
857.842	1748.55898
858.016	1972.48472
858.19	-2966.16688
858.364	3091.60868
858.537	2827.63466
858.711	1156.64835
858.885	3402.09109
859.058	2555.39054
859.232	6937.952
859.405	1272.64297
859.579	894.93561
859.753	2141.06963
859.926	1032.17475
860.1	4255.30028
860.273	11835.22867
860.447	1159.03406
860.62	1355.1916
860.794	1831.85172
860.967	4368.92338
861.141	1325.86556
861.314	5146.57268
861.487	1585.9393
861.661	2311.11912
861.834	6120.96964
862.008	4935.31007
862.181	-18571.34362
862.354	-14498.53966
862.528	1222.27874
862.701	2715.58494
862.874	649.32753
863.047	2113.36625
863.221	1057.65914
863.394	827.06465
863.567	922.08672
863.74	1075.2735
863.913	1529.40522
864.087	5035.40492
864.26	2557.95578
864.433	1755.57298
864.606	1463.66117
864.779	-3599.74061
864.952	992.66567
865.125	-54302.14051
865.298	1765.49446
865.471	-2466.11083
865.644	4687.15479
865.817	1307.29429
865.99	1666.33903
866.163	1800.46806
866.336	1489.17306
866.509	4522.46869
866.682	-2121.06953
866.855	10631.25165
867.028	536.6019
867.2	1680.20902
867.373	418.70087
867.546	1891.41022
867.719	3322.56624
867.892	3450.90514
868.064	909.64497
868.237	1126.504
868.41	2722.6346
868.583	1092.70048
868.755	839.02604
868.928	1929.41709
869.101	1738.02703
869.273	2146.98094
869.446	1425.47968
869.619	1604.23596
869.791	1502.51659
869.964	7324.799
870.136	-3440.79184
870.309	-17288.84645
870.481	908.8861
870.654	565.32407
870.826	1207.67974
870.999	570.66851
871.171	1196.06744
871.344	742.82475
871.516	951.48451
871.689	1012.82962
871.861	1028.24763
872.033	3678.42164
872.206	963.05929
872.378	1694.96465
872.55	3417.12797
872.723	-1479.9334
872.895	1491.24818
873.067	1568.4556
873.24	1345.64503
873.412	4062.79434
873.584	3221.41917
873.756	1380.73854
873.928	1655.73441
874.101	2030.87521
874.273	2099.92321
874.445	457.70686
874.617	1422.59589
874.789	805.96588
874.961	1437.23606
875.133	1495.84255
875.305	1323.90967
875.477	1241.9828
875.649	549.46801
875.821	1256.63487
875.993	1469.85169
876.165	2684.82778
876.337	962.3625
876.509	1224.14727
876.681	958.5813
876.853	898.36617
877.025	1262.67478
877.197	931.02075
877.369	980.39122
877.541	1061.09453
877.712	846.947
877.884	619.54473
878.056	2724.39818
878.228	719.23507
878.4	974.16606
878.571	789.24253
878.743	457.16264
878.915	791.70784
879.086	411.32294
879.258	615.27358
879.43	460.39628
879.601	442.39659
879.773	411.23757
879.945	176.18209
880.116	197.95916
880.288	159.94497
880.459	155.63695
880.631	133.57178
880.802	142.01447
880.974	133.3438
881.145	119.62072
881.317	132.93146
881.488	118.00979
881.66	125.15262
881.831	122.39384
882.002	137.36141
882.174	126.02393
882.345	144.64614
882.517	125.12894
882.688	163.67855
882.859	162.02057
883.03	201.46595
883.202	214.23761
883.373	206.87958
883.544	227.60221
883.715	295.16089
883.887	301.32398
884.058	276.22434
884.229	352.06158
884.4	369.65319
884.571	397.1067
884.742	331.95963
884.914	464.18029
885.085	519.84682
885.256	662.22997
885.427	439.06298
885.598	550.66456
885.769	554.75802
885.94	715.10074
886.111	541.35489
886.282	699.02947
886.453	950.41881
886.624	697.54702
886.795	932.01217
886.966	1064.66986
887.136	1654.44017
887.307	964.93531
887.478	1038.19103
887.649	934.73779
887.82	2027.62087
887.991	713.07236
888.161	1566.86368
888.332	1387.05191
888.503	594.77182
888.674	1535.30345
888.844	1540.67038
889.015	-102306.63033
889.186	1343.32339
889.356	1426.71506
889.527	-24715.00275
889.698	3351.40017
889.868	1855.30186
890.039	1286.13489
890.209	1467.02901
890.38	975.89981
890.551	1610.5854
890.721	1477.62045
890.892	1125.26962
891.062	3073.78842
891.233	1216.25668
891.403	1404.62923
891.574	2225.52692
891.744	3515.11612
891.914	791.13979
892.085	2588.96148
892.255	383.98276
892.425	1539.90673
892.596	1447.46157
892.766	962.34599
892.936	1209.55935
893.107	961.92059
893.277	817.31638
893.447	1650.64034
893.618	743.3499
893.788	682.13993
893.958	417.06034
894.128	368.86386
894.298	457.89041
894.468	481.07466
894.639	266.07357
894.809	216.45144
894.979	277.41599
895.149	323.59992
895.319	290.35261
895.489	341.9016
895.659	470.45605
895.829	346.05439
895.999	360.06036
896.169	398.95947
896.339	522.77551
896.509	883.51727
896.679	873.6578
896.849	1299.17141
897.019	941.45141
897.189	4590.71921
897.358	771.92468
897.528	2872.65167
897.698	-7600.33659
897.868	798.73941
898.038	2404.23904
898.208	2244.52415
898.377	899.43782
898.547	5666.24462
898.717	4565.22298
898.886	1059.72031
899.056	2484.74921
899.226	4690.03739
899.395	-6866.38858
899.565	-7933.96919
899.735	-6389.4345
899.904	10474.3865
900.074	19089.52418
900.244	3006.96934
900.413	8486.65559
900.583	-1205.67378
900.752	-1105.68456
900.922	1533.43669
901.091	234.76701
901.261	1653.62504
901.43	3594.77931
901.599	1399.8008
901.769	2137.98794
901.938	8033.12172
902.108	975.97254
902.277	3357.2226
902.446	2342.3918
902.616	927.0507
902.785	3115.3978
902.954	2096.33402
903.124	1280.7209
903.293	962.7709
903.462	471.50703
903.631	677.97327
903.801	395.75626
903.97	289.53621
904.139	352.73727
904.308	289.80277
904.477	269.56482
904.646	212.35612
904.816	273.60336
904.985	419.04203
905.154	483.16034
