Data from WindowProjectSample_Transmission__3__00003.txt Node

Date: Sat May 03 14:54:01 EDT 2025
User: jessi
Spectrometer: SR400872
Trigger mode: 0
Integration Time (sec): 5.000010E-1
Scans to average: 6
Electric dark correction enabled: true
Nonlinearity correction enabled: true
Boxcar width: 0
XAxis mode: Wavelengths
Number of Pixels in Spectrum: 3648
>>>>>Begin Spectral Data<<<<<
184.909	18708.33519
185.132	2615.91082
185.355	23540.03554
185.578	-7813.32629
185.801	399.06581
186.024	-1452.69565
186.247	713.56363
186.47	1925.42921
186.693	-190.031
186.916	-3306.123
187.139	-2665.0675
187.362	1615.5155
187.585	2773.47258
187.808	-3958.56743
188.031	498.21952
188.254	-1195.19846
188.476	-662.59255
188.699	2453.33841
188.922	-809.47111
189.145	-9589.61118
189.368	-315.12874
189.591	-1383.01438
189.813	-1749.06347
190.036	1185.5546
190.259	1637.16279
190.482	542.66479
190.705	10376.88627
190.927	-1023.39798
191.15	3405.32449
191.373	2251.50739
191.595	-2232.06584
191.818	2447.96224
192.041	-265.60964
192.263	2624.60291
192.486	1671.31056
192.709	-5280.2779
192.931	2691.99922
193.154	-5923.45588
193.377	176871.29891
193.599	1433.46793
193.822	1457.78499
194.044	-1921.71484
194.267	393.79086
194.489	-525.42982
194.712	1364.95519
194.934	3257.62732
195.157	-16002.311
195.379	649.62098
195.602	2176.20782
195.824	1756.30817
196.047	2443.97579
196.269	2779.56351
196.492	3290.07634
196.714	2552.66906
196.936	1176.396
197.159	1301.06373
197.381	-2124.86325
197.604	-1135.67152
197.826	6240.25494
198.048	2920.08355
198.271	3834.57738
198.493	2228.29068
198.715	-5938.92162
198.938	-467.13947
199.16	1876.55734
199.382	1432.03976
199.604	-496.39412
199.827	8967.19481
200.049	867.70127
200.271	-2800.20834
200.493	-50346.65218
200.715	2129.26441
200.938	6831.58589
201.16	-6962.53869
201.382	-2850.62391
201.604	-1832.24495
201.826	6822.12605
202.048	854.22561
202.27	-16157.35072
202.492	4592.44776
202.715	-1023.0001
202.937	4499.59477
203.159	-2190.22479
203.381	857.08434
203.603	-3702.58131
203.825	-2527.52584
204.047	3208.22883
204.269	-2034.15911
204.491	2104.98788
204.713	1836.01648
204.935	14449.92051
205.156	1667.28929
205.378	-7325.23852
205.6	-4203.33214
205.822	9178.44419
206.044	-772.42564
206.266	3773.65854
206.488	973.55661
206.71	28578.92712
206.932	2256.13085
207.153	-4845.84335
207.375	-1692.77692
207.597	8150.26226
207.819	4365.26784
208.041	2151.18862
208.262	-3123.68402
208.484	-1178.19302
208.706	-2329.11709
208.927	25835.42561
209.149	891.52928
209.371	-6123.84665
209.593	1289.44358
209.814	5706.54739
210.036	-2107.29354
210.258	-5181.08828
210.479	-1285.94238
210.701	939.74903
210.922	7026.9161
211.144	-1132.4221
211.366	-5723.27848
211.587	-583.5436
211.809	9555.13828
212.03	-1149.10562
212.252	-1975.99118
212.473	756.9119
212.695	-2081.94573
212.916	2666.58867
213.138	2774.10279
213.359	-1849.17039
213.581	5806.70606
213.802	-1606.92978
214.024	18116.44115
214.245	-3091.42449
214.466	-611.69545
214.688	1585.47548
214.909	901.79894
215.131	-83831.89829
215.352	1599.35095
215.573	2477.44684
215.795	2832.97408
216.016	3744.52347
216.237	-541.20823
216.459	6127.0655
216.68	101448.16146
216.901	-78676.76309
217.122	1854.16906
217.344	5909.56147
217.565	-55774.94538
217.786	1449.44913
218.007	1651.20692
218.228	-967.53653
218.45	-1150.23228
218.671	-965.41995
218.892	1104.00901
219.113	-17092.90252
219.334	-383.65404
219.555	-5472.62538
219.776	1478.0208
219.997	3284.36268
220.219	1161.78425
220.44	2092.30397
220.661	-2537.62596
220.882	3498.1555
221.103	-1191.86039
221.324	977.86765
221.545	2143.38066
221.766	-5880.9405
221.987	3184.46765
222.208	-1848.37786
222.429	3566.80886
222.65	-114.1125
222.87	-533.20919
223.091	8127.60752
223.312	2362.39541
223.533	5973.09088
223.754	1800.69645
223.975	1395.58016
224.196	-9808.95211
224.417	991.65546
224.637	804.37403
224.858	-771.07527
225.079	6233.97171
225.3	518.65707
225.521	2058.29903
225.741	1264.56699
225.962	726.13997
226.183	237.05037
226.404	616.68623
226.624	573.56193
226.845	358.13678
227.066	370.27958
227.286	181.08041
227.507	92.98842
227.728	77.00575
227.948	124.62939
228.169	37.64921
228.389	44.72732
228.61	23.65032
228.831	33.39447
229.051	3.71838
229.272	20.64195
229.492	29.37925
229.713	8.17978
229.933	22.28375
230.154	17.50968
230.374	30.92433
230.595	24.27961
230.815	14.09735
231.036	22.32765
231.256	-5.96857
231.477	41.05646
231.697	26.15083
231.917	23.97979
232.138	32.12431
232.358	79.7536
232.579	61.01166
232.799	8.20272
233.019	65.52338
233.24	77.84825
233.46	23.33201
233.68	42.70026
233.901	27.64654
234.121	17.91153
234.341	5.68908
234.561	-3.10791
234.782	14.51272
235.002	42.05584
235.222	-1.09155
235.442	40.56244
235.662	18.2135
235.883	41.98236
236.103	36.3065
236.323	27.23383
236.543	16.59056
236.763	28.90662
236.983	26.58541
237.203	29.90393
237.423	40.89002
237.643	60.72299
237.864	52.98328
238.084	10.04712
238.304	20.1307
238.524	32.35453
238.744	30.25461
238.964	45.15588
239.184	40.39998
239.404	41.99673
239.624	22.63959
239.843	39.84149
240.063	21.88282
240.283	17.01947
240.503	16.48096
240.723	16.33025
240.943	8.57503
241.163	12.92922
241.383	10.2492
241.603	4.68939
241.822	5.49447
242.042	4.55438
242.262	5.22676
242.482	6.4512
242.702	8.16007
242.921	2.57875
243.141	5.52955
243.361	4.60544
243.581	7.27436
243.8	5.80628
244.02	3.49875
244.24	7.98927
244.459	7.4176
244.679	13.29888
244.899	8.74007
245.118	10.65067
245.338	8.45617
245.558	9.96837
245.777	5.61162
245.997	7.20092
246.216	7.34725
246.436	4.05931
246.655	2.98759
246.875	2.38745
247.094	4.7969
247.314	1.45135
247.533	2.57021
247.753	3.44581
247.972	2.78575
248.192	0.82852
248.411	1.57082
248.631	2.96727
248.85	3.88741
249.07	2.75575
249.289	5.17022
249.508	3.8853
249.728	6.32061
249.947	5.8419
250.166	6.75294
250.386	3.63791
250.605	4.64993
250.824	7.75478
251.044	5.73386
251.263	20.50205
251.482	10.10886
251.701	9.84919
251.921	-0.05707
252.14	3.17919
252.359	3.51441
252.578	8.17571
252.798	2.89216
253.017	6.82253
253.236	3.6854
253.455	4.4991
253.674	9.09047
253.893	4.10427
254.112	5.87559
254.331	8.44596
254.551	7.02883
254.77	2.50887
254.989	11.58369
255.208	9.08052
255.427	12.6828
255.646	9.95726
255.865	17.45568
256.084	6.33485
256.303	7.19274
256.522	11.46402
256.741	2.47928
256.96	2.58355
257.179	7.13146
257.397	8.17825
257.616	3.85495
257.835	4.74188
258.054	11.80848
258.273	7.81343
258.492	8.52026
258.711	4.97362
258.93	2.18248
259.148	3.20613
259.367	3.50941
259.586	4.49798
259.805	2.00779
260.023	4.09381
260.242	3.25542
260.461	2.15553
260.68	1.12553
260.898	3.86271
261.117	1.27722
261.336	0.71391
261.554	2.93775
261.773	2.99228
261.992	0.73284
262.21	2.70124
262.429	3.33784
262.648	6.25663
262.866	6.88582
263.085	4.31093
263.303	3.61145
263.522	7.08085
263.74	7.92639
263.959	12.11732
264.178	6.18954
264.396	5.80982
264.615	4.12992
264.833	10.03999
265.051	7.48571
265.27	8.08664
265.488	8.85806
265.707	5.30573
265.925	8.66998
266.144	3.59489
266.362	5.43827
266.58	5.41935
266.799	3.97465
267.017	4.98099
267.235	4.52393
267.454	2.6471
267.672	1.60788
267.89	3.73318
268.109	4.04442
268.327	3.44672
268.545	0.64236
268.763	3.57371
268.982	1.42987
269.2	4.24399
269.418	2.23869
269.636	1.83415
269.854	3.14663
270.073	2.84731
270.291	1.2765
270.509	1.55911
270.727	3.46127
270.945	5.82857
271.163	5.9559
271.381	1.0452
271.599	2.4585
271.817	4.38855
272.036	1.48679
272.254	2.73428
272.472	2.00294
272.69	2.12628
272.908	2.06758
273.126	3.73112
273.344	4.59222
273.562	1.59248
273.779	2.36501
273.997	3.265
274.215	4.04937
274.433	2.75611
274.651	4.0665
274.869	3.8067
275.087	2.31086
275.305	3.9487
275.523	1.91679
275.74	2.97643
275.958	4.8356
276.176	6.85803
276.394	1.96529
276.612	2.74642
276.829	2.564
277.047	2.33208
277.265	2.37808
277.483	3.11354
277.7	3.85828
277.918	2.9099
278.136	5.41734
278.353	2.69191
278.571	1.36998
278.789	4.19671
279.006	0.8549
279.224	2.25711
279.442	4.32835
279.659	3.08512
279.877	2.43211
280.094	4.54451
280.312	1.01945
280.529	2.82259
280.747	0.81653
280.964	2.35703
281.182	5.09748
281.399	2.34138
281.617	3.23583
281.834	2.4001
282.052	1.78262
282.269	2.61614
282.487	1.95715
282.704	1.63304
282.921	2.15705
283.139	2.57164
283.356	3.86239
283.574	3.07968
283.791	1.57413
284.008	4.61735
284.226	2.36399
284.443	2.60441
284.66	3.50197
284.877	2.8526
285.095	1.92833
285.312	1.34234
285.529	0.90113
285.746	0.69385
285.964	1.60107
286.181	1.02745
286.398	1.81003
286.615	2.31598
286.832	2.26891
287.05	0.75862
287.267	1.72164
287.484	1.78669
287.701	2.30916
287.918	2.10965
288.135	2.53962
288.352	1.21547
288.569	1.22945
288.786	2.08516
289.003	1.78007
289.22	2.32327
289.437	1.51308
289.654	2.58321
289.871	2.83137
290.088	2.57728
290.305	1.98058
290.522	1.69786
290.739	1.89316
290.956	2.72269
291.173	3.28699
291.39	3.06239
291.607	2.40304
291.824	1.59789
292.04	1.05737
292.257	2.64355
292.474	2.8638
292.691	1.60557
292.908	0.88955
293.125	1.60991
293.341	0.74885
293.558	4.40903
293.775	1.63674
293.992	2.00639
294.208	0.8256
294.425	1.12455
294.642	1.64503
294.858	2.2741
295.075	0.63154
295.292	1.68093
295.508	2.05591
295.725	3.39351
295.942	1.63528
296.158	1.08689
296.375	1.87322
296.591	1.3808
296.808	1.50831
297.024	1.71924
297.241	1.84677
297.458	2.18077
297.674	0.26504
297.891	1.73397
298.107	1.27441
298.323	1.01209
298.54	2.59055
298.756	1.16834
298.973	0.62038
299.189	2.63363
299.406	1.03644
299.622	2.54174
299.838	2.45366
300.055	2.43013
300.271	0.70199
300.487	0.95759
300.704	1.08958
300.92	0.7518
301.136	3.71491
301.353	2.38271
301.569	1.69866
301.785	2.04615
302.001	2.45251
302.218	2.02946
302.434	2.04986
302.65	0.65103
302.866	1.52832
303.083	3.4646
303.299	3.35857
303.515	1.73847
303.731	1.9737
303.947	0.68692
304.163	1.16433
304.379	2.07687
304.595	2.19865
304.812	1.16711
305.028	1.11241
305.244	1.42442
305.46	2.53611
305.676	2.71354
305.892	3.13803
306.108	1.82623
306.324	1.29987
306.54	3.34221
306.756	2.36433
306.972	2.33185
307.187	1.55833
307.403	3.05729
307.619	1.25303
307.835	2.74703
308.051	3.04597
308.267	0.5718
308.483	2.63793
308.699	2.27803
308.914	1.93944
309.13	1.72958
309.346	0.42163
309.562	1.00372
309.778	0.55397
309.993	2.21614
310.209	1.68145
310.425	0.74394
310.641	1.53992
310.856	0.90098
311.072	0.80801
311.288	1.62251
311.503	1.9161
311.719	0.39025
311.935	0.23118
312.15	2.14928
312.366	1.73011
312.581	2.26867
312.797	2.01135
313.013	2.50957
313.228	1.29481
313.444	1.8106
313.659	1.25051
313.875	2.26856
314.09	1.81314
314.306	2.71344
314.521	2.51921
314.737	2.38252
314.952	2.22629
315.168	1.6248
315.383	2.50909
315.599	1.55706
315.814	1.35103
316.029	2.41843
316.245	0.86858
316.46	0.5973
316.675	2.94332
316.891	3.45651
317.106	4.1714
317.321	2.32798
317.537	2.29716
317.752	2.51442
317.967	2.67031
318.183	1.27606
318.398	1.57972
318.613	2.77378
318.828	3.13091
319.043	2.53672
319.259	1.56243
319.474	2.05486
319.689	2.80083
319.904	0.49947
320.119	2.51335
320.334	2.19408
320.549	1.70797
320.765	2.75685
320.98	2.12793
321.195	2.75059
321.41	2.02283
321.625	2.44599
321.84	3.36309
322.055	3.52694
322.27	1.37198
322.485	1.06892
322.7	2.00838
322.915	2.88368
323.13	1.11257
323.345	3.26573
323.56	2.71332
323.775	2.50757
323.989	2.36877
324.204	2.0874
324.419	2.71206
324.634	0.86134
324.849	1.72248
325.064	4.1901
325.279	2.98588
325.493	2.47852
325.708	2.7235
325.923	1.25275
326.138	1.35102
326.352	3.21397
326.567	2.73325
326.782	1.56268
326.997	1.28852
327.211	2.38765
327.426	2.10302
327.641	1.79282
327.855	0.61907
328.07	2.47408
328.285	3.48794
328.499	1.74004
328.714	2.44597
328.928	2.56282
329.143	2.13198
329.358	2.88839
329.572	2.93923
329.787	3.00642
330.001	4.20569
330.216	0.68842
330.43	3.45031
330.645	3.31045
330.859	2.81002
331.074	1.28221
331.288	2.12252
331.503	3.20439
331.717	1.05361
331.931	2.20056
332.146	2.16373
332.36	3.50828
332.575	2.40453
332.789	2.178
333.003	1.83793
333.218	2.50024
333.432	1.66892
333.646	2.52894
333.86	3.29325
334.075	3.61524
334.289	1.69804
334.503	1.18322
334.717	2.62398
334.932	2.45643
335.146	3.07689
335.36	1.89761
335.574	2.4624
335.788	2.42694
336.003	3.05707
336.217	2.62612
336.431	2.45567
336.645	1.60342
336.859	1.04852
337.073	1.8954
337.287	2.22886
337.501	1.14013
337.715	2.21153
337.929	2.73657
338.143	1.22352
338.357	2.07381
338.571	1.28224
338.785	2.59393
338.999	1.54917
339.213	1.75763
339.427	0.8684
339.641	2.98813
339.855	1.91181
340.069	1.52579
340.283	2.9584
340.497	3.59478
340.711	2.58299
340.924	1.84457
341.138	1.2472
341.352	0.85375
341.566	2.15975
341.78	0.78683
341.993	1.56011
342.207	1.26647
342.421	2.34496
342.635	2.07706
342.848	1.58306
343.062	0.3012
343.276	1.6127
343.49	3.88565
343.703	1.53932
343.917	2.65611
344.131	2.93914
344.344	1.56935
344.558	1.64373
344.771	1.27382
344.985	3.09641
345.199	3.37416
345.412	2.19277
345.626	2.40093
345.839	0.66799
346.053	1.22378
346.266	1.26993
346.48	2.76118
346.693	2.23318
346.907	2.52448
347.12	1.22953
347.334	2.34129
347.547	2.33517
347.76	1.93135
347.974	2.85082
348.187	2.32335
348.401	1.84884
348.614	1.61492
348.827	1.76102
349.041	2.47958
349.254	0.92527
349.467	1.98796
349.681	1.02837
349.894	1.67652
350.107	3.08429
350.32	3.33665
350.534	0.71848
350.747	1.65164
350.96	1.30045
351.173	1.42216
351.386	1.99409
351.6	1.73829
351.813	1.49261
352.026	2.08969
352.239	1.19981
352.452	1.75166
352.665	2.70352
352.878	1.78026
353.092	3.87168
353.305	2.63734
353.518	2.3967
353.731	1.39266
353.944	3.08924
354.157	1.5317
354.37	1.44501
354.583	1.12656
354.796	0.96168
355.009	2.86421
355.222	2.18676
355.435	2.02618
355.647	3.00663
355.86	1.30583
356.073	1.99395
356.286	1.65578
356.499	2.66905
356.712	2.61271
356.925	2.43783
357.138	2.75447
357.35	1.27294
357.563	1.83067
357.776	2.08674
357.989	1.92586
358.201	2.44554
358.414	2.05289
358.627	3.15598
358.84	1.96981
359.052	1.27943
359.265	1.30968
359.478	2.83865
359.69	0.07975
359.903	2.64437
360.116	2.78594
360.328	0.87135
360.541	2.75885
360.753	1.45083
360.966	1.80069
361.179	1.93518
361.391	1.75368
361.604	1.349
361.816	1.69787
362.029	1.58738
362.241	1.48877
362.454	1.82916
362.666	1.48036
362.879	2.22605
363.091	1.83845
363.304	1.40313
363.516	1.87726
363.728	1.2172
363.941	2.38445
364.153	1.82571
364.366	0.66202
364.578	1.32506
364.79	2.44964
365.003	2.06768
365.215	1.76666
365.427	2.49542
365.639	3.01984
365.852	2.34907
366.064	3.58886
366.276	1.69003
366.488	2.36927
366.701	1.75565
366.913	1.95601
367.125	2.05898
367.337	1.61116
367.549	1.72708
367.762	1.99272
367.974	2.06471
368.186	1.74497
368.398	2.89578
368.61	2.6124
368.822	2.53923
369.034	2.07356
369.246	2.82116
369.458	4.06471
369.67	1.40449
369.882	3.52436
370.094	0.78671
370.306	3.33314
370.518	2.00125
370.73	1.56355
370.942	1.68303
371.154	2.11139
371.366	1.86111
371.578	2.45316
371.79	1.77577
372.002	3.0854
372.214	3.73988
372.425	2.28298
372.637	3.27741
372.849	2.33661
373.061	0.81041
373.273	2.59506
373.484	2.62972
373.696	2.91625
373.908	0.69007
374.12	2.76486
374.331	2.75933
374.543	1.71775
374.755	1.55245
374.967	2.35151
375.178	2.99671
375.39	2.20853
375.602	2.41904
375.813	1.38105
376.025	1.45936
376.236	2.32099
376.448	2.36906
376.66	2.23203
376.871	2.27155
377.083	3.16615
377.294	3.44766
377.506	2.14079
377.717	3.41841
377.929	2.44452
378.14	1.95634
378.352	2.8022
378.563	2.93683
378.775	3.41278
378.986	1.93651
379.197	2.54588
379.409	2.17587
379.62	3.03466
379.832	2.7025
380.043	2.44309
380.254	2.53215
380.466	1.71179
380.677	4.56052
380.888	4.2564
381.1	4.40371
381.311	4.3015
381.522	2.65022
381.733	4.64434
381.945	2.36051
382.156	2.56668
382.367	2.38964
382.578	4.70758
382.789	4.91986
383.001	2.28986
383.212	3.78244
383.423	3.89113
383.634	3.45597
383.845	3.15402
384.056	2.30825
384.267	2.67781
384.478	2.55596
384.69	1.82592
384.901	3.22469
385.112	2.89437
385.323	3.94621
385.534	3.17773
385.745	3.12124
385.956	3.05915
386.167	2.20921
386.378	3.08728
386.588	2.27268
386.799	2.23364
387.01	1.73076
387.221	3.58147
387.432	2.92557
387.643	4.20327
387.854	2.73949
388.065	2.73107
388.275	2.78477
388.486	2.62849
388.697	2.91503
388.908	2.6472
389.119	3.87381
389.329	4.0921
389.54	3.07979
389.751	3.36527
389.962	3.80505
390.172	3.04374
390.383	2.93134
390.594	2.69888
390.804	2.48626
391.015	2.72455
391.226	3.19265
391.436	3.57513
391.647	3.45955
391.858	3.60378
392.068	2.12644
392.279	2.51882
392.489	3.2949
392.7	3.9189
392.91	2.83832
393.121	2.78492
393.331	3.63523
393.542	3.97206
393.752	3.71016
393.963	3.5756
394.173	3.53191
394.384	3.83171
394.594	3.44537
394.804	2.6874
395.015	3.53581
395.225	3.7318
395.436	2.77493
395.646	3.79128
395.856	3.05874
396.067	2.38831
396.277	4.09466
396.487	3.62823
396.697	3.72657
396.908	3.9913
397.118	3.73826
397.328	3.65648
397.538	4.01394
397.749	3.09864
397.959	3.98805
398.169	3.95283
398.379	2.58124
398.589	3.82627
398.8	3.72124
399.01	3.53207
399.22	3.47912
399.43	5.03049
399.64	3.36514
399.85	3.97323
400.06	3.64185
400.27	3.24114
400.48	3.47115
400.69	4.52841
400.9	3.4705
401.11	2.92491
401.32	4.14992
401.53	3.22941
401.74	4.58284
401.95	4.14348
402.16	3.14469
402.37	4.00589
402.58	3.41484
402.79	4.14866
403	4.45201
403.209	3.43119
403.419	4.33991
403.629	3.32328
403.839	4.30949
404.049	4.45224
404.258	3.39539
404.468	3.43816
404.678	4.33463
404.888	4.57325
405.097	3.56924
405.307	3.85856
405.517	4.28495
405.727	4.07692
405.936	3.81353
406.146	3.98079
406.356	4.71853
406.565	3.83672
406.775	3.57751
406.984	3.51373
407.194	5.16169
407.404	3.91782
407.613	4.23919
407.823	4.46397
408.032	4.6322
408.242	4.46948
408.451	3.62518
408.661	3.98137
408.87	5.10376
409.08	3.54879
409.289	4.36148
409.499	4.03819
409.708	4.07116
409.918	2.77155
410.127	4.10004
410.336	5.13714
410.546	4.57075
410.755	3.78518
410.964	3.76075
411.174	3.46863
411.383	4.41145
411.592	4.34364
411.802	3.59556
412.011	4.58412
412.22	3.966
412.429	5.24726
412.639	4.95041
412.848	4.91805
413.057	5.22776
413.266	4.72681
413.475	4.17042
413.685	4.64095
413.894	4.55501
414.103	5.11796
414.312	4.7227
414.521	4.10112
414.73	4.42716
414.939	5.65593
415.148	4.91593
415.357	4.52696
415.566	4.19344
415.776	4.2241
415.985	4.18059
416.194	5.13708
416.403	5.65132
416.611	3.69821
416.82	4.12173
417.029	4.6955
417.238	4.2742
417.447	4.23534
417.656	4.56769
417.865	4.38019
418.074	4.75507
418.283	5.13122
418.492	6.00102
418.7	5.9061
418.909	7.00791
419.118	5.82687
419.327	6.42174
419.536	6.20246
419.744	6.17157
419.953	7.35088
420.162	7.53303
420.371	6.62188
420.579	6.99948
420.788	7.87991
420.997	8.18144
421.205	8.11913
421.414	7.96747
421.623	7.96431
421.831	7.48199
422.04	8.20779
422.249	7.2373
422.457	7.63597
422.666	6.88069
422.874	7.90372
423.083	8.10722
423.291	7.81347
423.5	7.8389
423.708	8.21889
423.917	8.63729
424.125	8.08681
424.334	7.7888
424.542	9.55695
424.751	8.97209
424.959	8.40692
425.167	8.79526
425.376	8.44099
425.584	7.40342
425.793	7.48679
426.001	6.45674
426.209	7.06714
426.418	5.92522
426.626	5.61898
426.834	5.27817
427.042	5.28049
427.251	5.02365
427.459	5.68019
427.667	5.36698
427.875	4.55832
428.084	4.9643
428.292	5.97681
428.5	5.65679
428.708	4.8273
428.916	4.65778
429.124	5.19619
429.333	5.11459
429.541	5.15557
429.749	5.36491
429.957	5.21127
430.165	6.82424
430.373	4.4253
430.581	5.3719
430.789	5.96567
430.997	5.0355
431.205	4.90991
431.413	5.44284
431.621	5.08017
431.829	5.80502
432.037	5.13549
432.245	5.57573
432.453	5.6458
432.661	5.33807
432.869	6.72238
433.076	5.46817
433.284	6.0195
433.492	6.35787
433.7	6.65831
433.908	5.7751
434.116	6.12722
434.323	5.99965
434.531	5.84536
434.739	5.94357
434.947	6.11312
435.154	6.16211
435.362	5.70118
435.57	5.39885
435.778	5.22596
435.985	5.74825
436.193	5.27611
436.401	6.2461
436.608	5.55389
436.816	5.39855
437.023	6.55518
437.231	6.60997
437.439	5.84698
437.646	6.09101
437.854	5.8138
438.061	6.19117
438.269	5.63421
438.476	6.28688
438.684	5.96476
438.891	6.01159
439.099	5.82369
439.306	5.63957
439.514	5.88056
439.721	7.12715
439.929	6.66518
440.136	7.67531
440.343	7.51586
440.551	7.44803
440.758	9.05535
440.965	7.89046
441.173	7.54002
441.38	7.02101
441.587	7.09058
441.795	6.73872
442.002	6.57898
442.209	6.70155
442.416	6.51832
442.624	6.40939
442.831	6.14782
443.038	5.64332
443.245	5.34391
443.452	5.56711
443.66	6.27114
443.867	5.57765
444.074	5.67309
444.281	5.79224
444.488	6.16725
444.695	6.56014
444.902	6.60508
445.109	7.73464
445.316	7.31181
445.523	7.57571
445.73	7.7073
445.937	8.39719
446.144	8.93123
446.351	9.19474
446.558	8.10267
446.765	9.81229
446.972	9.36093
447.179	8.66008
447.386	9.48633
447.593	7.70632
447.8	8.83505
448.007	7.36259
448.214	6.97004
448.42	6.59776
448.627	7.15726
448.834	6.31187
449.041	6.08008
449.248	5.93543
449.454	6.55941
449.661	7.02352
449.868	5.80085
450.075	5.64081
450.281	4.98743
450.488	5.25584
450.695	5.44463
450.901	5.41037
451.108	5.56882
451.315	6.52604
451.521	5.74204
451.728	6.63052
451.935	5.55666
452.141	5.78105
452.348	6.09795
452.554	5.83225
452.761	5.52256
452.967	6.93779
453.174	6.01826
453.38	6.18607
453.587	5.20296
453.793	6.04029
454	6.52713
454.206	7.21816
454.413	6.54997
454.619	6.25582
454.825	5.48082
455.032	6.29582
455.238	6.47363
455.445	5.26851
455.651	5.99348
455.857	5.05475
456.064	5.87917
456.27	5.84558
456.476	5.7849
456.682	5.27965
456.889	6.03173
457.095	6.25226
457.301	7.25364
457.507	6.10226
457.714	6.03828
457.92	6.05007
458.126	5.64453
458.332	6.03641
458.538	6.1291
458.744	6.55539
458.951	6.89261
459.157	8.81401
459.363	8.04909
459.569	8.3402
459.775	8.73331
459.981	8.37782
460.187	8.52202
460.393	8.82355
460.599	9.20326
460.805	8.10411
461.011	7.40348
461.217	7.58087
461.423	7.01105
461.629	6.31332
461.835	6.67243
462.041	6.16346
462.247	7.13141
462.453	6.11891
462.658	6.03324
462.864	6.60811
463.07	6.28809
463.276	6.42884
463.482	6.23834
463.688	7.13821
463.893	5.87613
464.099	6.03943
464.305	7.0113
464.511	5.84482
464.716	6.19739
464.922	6.66725
465.128	5.58207
465.333	7.26587
465.539	6.54225
465.745	6.30337
465.95	6.3935
466.156	8.02379
466.362	7.04792
466.567	6.25542
466.773	5.9093
466.978	7.42345
467.184	5.70512
467.389	5.27538
467.595	6.5872
467.8	5.79239
468.006	7.06893
468.211	7.21664
468.417	5.75519
468.622	6.63927
468.828	6.68576
469.033	6.56197
469.239	8.09482
469.444	6.07893
469.649	6.88734
469.855	6.32654
470.06	6.46383
470.266	5.59471
470.471	6.67985
470.676	6.60563
470.881	5.165
471.087	7.07026
471.292	7.6573
471.497	5.66457
471.703	6.11034
471.908	6.13074
472.113	6.47365
472.318	7.1063
472.523	5.74667
472.729	6.65965
472.934	6.64882
473.139	6.07611
473.344	6.56894
473.549	7.17823
473.754	5.99198
473.959	8.01762
474.164	6.11123
474.369	6.35142
474.575	6.83859
474.78	6.40388
474.985	6.00126
475.19	5.36029
475.395	5.95196
475.6	6.5215
475.804	7.43627
476.009	6.40877
476.214	6.41784
476.419	6.29462
476.624	5.58922
476.829	6.06497
477.034	6.75797
477.239	6.09371
477.444	6.92387
477.648	6.94402
477.853	6.8898
478.058	6.42122
478.263	6.22303
478.468	5.88734
478.672	6.06091
478.877	7.39232
479.082	7.46745
479.287	6.81393
479.491	6.57374
479.696	6.06775
479.901	6.96159
480.105	7.0683
480.31	6.30944
480.515	6.59254
480.719	7.8762
480.924	6.32172
481.128	6.26025
481.333	7.33256
481.538	7.56877
481.742	7.75363
481.947	8.8434
482.151	9.79053
482.356	10.27697
482.56	12.44913
482.765	14.0083
482.969	16.68012
483.174	18.59955
483.378	21.65761
483.582	22.06975
483.787	23.84426
483.991	23.76461
484.196	23.85158
484.4	23.19748
484.604	23.51053
484.809	20.79206
485.013	19.85349
485.217	17.50013
485.422	15.82563
485.626	14.22358
485.83	13.61611
486.034	13.22516
486.239	13.77821
486.443	14.0035
486.647	14.6481
486.851	15.64839
487.055	17.01983
487.26	16.7029
487.464	17.54234
487.668	16.9926
487.872	17.27042
488.076	17.60953
488.28	16.79225
488.484	15.31139
488.688	14.76124
488.892	14.10207
489.096	13.10724
489.3	11.95057
489.504	11.1758
489.708	10.7762
489.912	10.76172
490.116	10.42266
490.32	10.07035
490.524	11.49717
490.728	12.05939
490.932	12.81879
491.136	13.41005
491.34	14.53835
491.544	15.00961
491.748	14.48125
491.951	14.49043
492.155	13.87465
492.359	13.78607
492.563	12.03057
492.767	11.34104
492.97	10.14575
493.174	8.8059
493.378	8.1702
493.582	7.09216
493.785	7.01199
493.989	6.91208
494.193	6.58261
494.396	6.23143
494.6	6.72024
494.804	6.29764
495.007	6.48849
495.211	6.48634
495.414	6.80368
495.618	6.84832
495.822	7.54906
496.025	6.89931
496.229	7.3838
496.432	6.979
496.636	7.26107
496.839	7.28311
497.043	8.35941
497.246	7.54869
497.45	7.18812
497.653	7.40574
497.856	7.25086
498.06	6.69405
498.263	6.78732
498.467	6.61927
498.67	7.50052
498.873	7.06345
499.077	6.71462
499.28	6.78103
499.483	7.05
499.686	7.3982
499.89	7.09014
500.093	7.40963
500.296	6.39448
500.499	7.68575
500.703	6.77
500.906	7.07266
501.109	7.82068
501.312	6.74955
501.515	6.78068
501.719	7.08648
501.922	7.54418
502.125	7.07448
502.328	6.69278
502.531	6.21461
502.734	6.83119
502.937	5.86257
503.14	6.8629
503.343	6.29185
503.546	6.65322
503.749	6.54521
503.952	7.02072
504.155	6.47451
504.358	7.18146
504.561	6.98181
504.764	6.12478
504.967	6.9245
505.17	6.8183
505.373	7.9682
505.576	6.8481
505.778	7.2724
505.981	6.41333
506.184	7.47368
506.387	6.03725
506.59	8.04523
506.793	7.62918
506.995	7.13245
507.198	5.85984
507.401	7.24416
507.604	7.19367
507.806	6.47328
508.009	6.50161
508.212	7.40822
508.414	6.53079
508.617	6.73385
508.82	6.94079
509.022	7.81886
509.225	7.09411
509.427	6.21506
509.63	7.44201
509.833	6.88829
510.035	6.85783
510.238	6.10851
510.44	7.72028
510.643	5.87768
510.845	8.02952
511.048	7.29307
511.25	6.62427
511.453	6.68025
511.655	7.14625
511.858	6.80214
512.06	7.46705
512.262	6.96546
512.465	7.40258
512.667	6.72711
512.869	6.37084
513.072	7.16397
513.274	7.41797
513.476	7.38771
513.679	7.36526
513.881	6.25276
514.083	7.94009
514.286	6.56608
514.488	6.55963
514.69	6.50241
514.892	6.19713
515.094	7.15186
515.297	6.48793
515.499	6.88018
515.701	6.27262
515.903	7.94986
516.105	7.79287
516.307	7.18795
516.509	5.86884
516.711	6.29636
516.913	6.81904
517.116	6.98525
517.318	6.72435
517.52	7.62272
517.722	7.37078
517.924	6.70358
518.126	7.68724
518.328	7.39341
518.529	8.04438
518.731	8.90984
518.933	7.22676
519.135	7.68681
519.337	8.22448
519.539	7.53917
519.741	6.16365
519.943	6.99132
520.145	6.7881
520.346	7.43218
520.548	6.79106
520.75	7.1828
520.952	6.65007
521.153	7.13624
521.355	7.17368
521.557	6.44535
521.759	7.00738
521.96	6.80191
522.162	6.38397
522.364	7.53444
522.565	6.40917
522.767	7.33276
522.969	7.50655
523.17	7.12092
523.372	7.10589
523.573	6.71547
523.775	6.74871
523.977	6.34903
524.178	8.19058
524.38	6.71124
524.581	7.37845
524.783	7.01425
524.984	7.84752
525.186	7.70308
525.387	8.33768
525.589	8.34933
525.79	8.24816
525.991	7.96312
526.193	8.80307
526.394	8.15387
526.596	8.9181
526.797	9.35741
526.998	9.12718
527.2	9.49685
527.401	11.65112
527.602	12.67892
527.803	14.94921
528.005	15.80206
528.206	16.85916
528.407	17.77363
528.608	17.70222
528.81	17.7318
529.011	17.10644
529.212	17.81348
529.413	16.27553
529.614	15.28485
529.815	14.17746
530.017	12.92433
530.218	11.30236
530.419	10.2924
530.62	9.62207
530.821	9.20502
531.022	8.01032
531.223	8.82403
531.424	8.83253
531.625	8.89551
531.826	8.76529
532.027	9.27528
532.228	10.63689
532.429	10.71317
532.63	11.01773
532.831	11.90996
533.032	11.806
533.233	12.57722
533.433	11.95298
533.634	12.20004
533.835	11.40685
534.036	10.80157
534.237	10.20723
534.438	9.58238
534.638	8.22363
534.839	8.05281
535.04	8.14878
535.241	7.41329
535.441	8.58581
535.642	8.10047
535.843	7.39992
536.043	7.89212
536.244	8.04356
536.445	8.4774
536.645	9.04519
536.846	8.60497
537.047	9.18793
537.247	7.77229
537.448	7.58406
537.648	7.57607
537.849	7.1076
538.049	7.11062
538.25	7.41212
538.451	7.42859
538.651	6.67623
538.851	7.37821
539.052	7.92739
539.252	7.60974
539.453	7.20508
539.653	7.39011
539.854	7.55984
540.054	8.16302
540.254	9.71627
540.455	10.91778
540.655	10.80757
540.855	12.30345
541.056	13.09698
541.256	13.15796
541.456	13.64213
541.657	12.97691
541.857	13.65229
542.057	12.18257
542.257	11.47718
542.458	11.87738
542.658	11.46425
542.858	9.51489
543.058	9.85128
543.258	9.14231
543.458	7.7865
543.659	7.43194
543.859	8.13046
544.059	7.95987
544.259	7.20565
544.459	7.81583
544.659	6.84969
544.859	7.46962
545.059	6.79062
545.259	7.4744
545.459	7.35623
545.659	7.78547
545.859	7.34187
546.059	7.28006
546.259	6.73765
546.459	6.46822
546.659	6.6174
546.859	7.5883
547.059	7.33798
547.258	7.46751
547.458	7.49746
547.658	6.37297
547.858	6.64801
548.058	7.173
548.258	6.98395
548.457	6.5415
548.657	8.41856
548.857	6.94995
549.057	7.56753
549.256	7.37074
549.456	6.61831
549.656	5.59779
549.855	8.29295
550.055	6.74952
550.255	8.24297
550.454	7.09564
550.654	7.64336
550.853	8.0633
551.053	7.50256
551.253	7.16492
551.452	7.36409
551.652	6.16973
551.851	6.08906
552.051	6.9686
552.25	6.70906
552.45	6.7312
552.649	6.7536
552.849	6.54344
553.048	7.18277
553.248	7.62509
553.447	6.38237
553.646	7.69395
553.846	8.43583
554.045	7.85389
554.244	6.20376
554.444	8.1035
554.643	6.49336
554.842	8.15274
555.042	8.68871
555.241	6.58621
555.44	6.2251
555.64	7.29337
555.839	8.48798
556.038	7.18828
556.237	6.56838
556.436	7.1316
556.636	7.49004
556.835	6.32358
557.034	8.22359
557.233	6.89956
557.432	6.09952
557.631	7.94344
557.83	6.6228
558.029	6.80407
558.228	6.64882
558.427	6.31746
558.626	7.33872
558.825	6.50696
559.024	6.81962
559.223	8.4447
559.422	6.88033
559.621	7.53153
559.82	4.95901
560.019	7.00658
560.218	6.78755
560.417	4.68357
560.616	6.44018
560.815	9.58452
561.014	5.83665
561.212	8.25465
561.411	7.02281
561.61	5.7029
561.809	6.7184
562.008	8.34487
562.206	6.79198
562.405	7.46775
562.604	6.50914
562.803	6.90631
563.001	6.84868
563.2	5.8998
563.399	7.62992
563.597	5.97874
563.796	6.97415
563.995	5.78772
564.193	7.464
564.392	6.8109
564.59	8.68981
564.789	5.52005
564.988	6.6812
565.186	7.19502
565.385	7.33346
565.583	6.87028
565.782	6.92377
565.98	6.98489
566.179	7.05875
566.377	6.17828
566.575	6.42504
566.774	8.13651
566.972	7.72779
567.171	8.84215
567.369	8.132
567.567	7.31136
567.766	7.2686
567.964	5.6536
568.162	7.58725
568.361	7.97987
568.559	6.92099
568.757	7.43851
568.956	7.21996
569.154	7.08779
569.352	7.68586
569.55	6.83635
569.748	6.99678
569.947	6.44847
570.145	6.4068
570.343	6.33131
570.541	8.09058
570.739	6.03823
570.937	7.05986
571.135	7.49394
571.333	8.84605
571.532	8.52851
571.73	7.23754
571.928	7.86399
572.126	7.61365
572.324	6.80492
572.522	8.15328
572.72	9.30887
572.918	7.21978
573.116	7.44429
573.313	7.1445
573.511	7.16798
573.709	6.65442
573.907	7.63741
574.105	6.7762
574.303	6.05835
574.501	5.78736
574.699	7.51824
574.896	7.33365
575.094	7.9629
575.292	5.89747
575.49	8.03102
575.688	6.78218
575.885	8.4025
576.083	8.77586
576.281	7.54346
576.478	6.45331
576.676	7.68486
576.874	5.69808
577.071	6.59914
577.269	9.02952
577.467	7.23171
577.664	6.99934
577.862	7.77504
578.059	6.36723
578.257	7.85577
578.455	6.59297
578.652	7.17129
578.85	5.36359
579.047	7.19772
579.245	6.85048
579.442	7.00135
579.64	7.11756
579.837	5.44573
580.034	9.4886
580.232	6.81564
580.429	6.05488
580.627	7.7028
580.824	8.49485
581.021	7.43576
581.219	6.91133
581.416	6.06295
581.613	8.40708
581.811	8.31517
582.008	6.13711
582.205	7.79916
582.402	7.40654
582.6	9.33018
582.797	7.19994
582.994	7.43828
583.191	7.61254
583.388	7.23137
583.586	7.54754
583.783	8.39663
583.98	6.05937
584.177	7.62863
584.374	4.09059
584.571	6.85668
584.768	6.95944
584.965	6.28207
585.162	7.70875
585.359	8.86714
585.556	7.07344
585.753	7.61283
585.95	5.79398
586.147	6.42615
586.344	8.03305
586.541	6.99493
586.738	6.00609
586.935	7.14647
587.132	6.60723
587.329	8.16384
587.526	6.94065
587.722	12.38811
587.919	5.7879
588.116	7.56156
588.313	8.81797
588.51	9.52658
588.706	6.81487
588.903	7.65639
589.1	8.15094
589.297	9.9024
589.493	7.36477
589.69	8.00794
589.887	6.55331
590.083	6.20671
590.28	6.43105
590.477	8.102
590.673	8.15684
590.87	8.5013
591.067	6.96527
591.263	7.77471
591.46	7.66573
591.656	7.09104
591.853	9.04472
592.049	6.14293
592.246	6.39643
592.442	8.44013
592.639	8.64745
592.835	6.17131
593.032	8.02194
593.228	5.80619
593.425	5.62956
593.621	5.81291
593.817	7.63516
594.014	6.66061
594.21	7.3951
594.406	8.45975
594.603	7.48908
594.799	6.56905
594.995	4.99973
595.192	8.23937
595.388	6.59587
595.584	6.7566
595.78	5.83873
595.977	9.91059
596.173	9.03825
596.369	7.14598
596.565	6.73299
596.761	6.01666
596.957	8.65105
597.154	6.76088
597.35	6.75771
597.546	6.53437
597.742	7.98168
597.938	7.22891
598.134	6.17474
598.33	7.39758
598.526	8.76714
598.722	7.67844
598.918	9.39229
599.114	8.17164
599.31	6.42983
599.506	7.49901
599.702	6.69395
599.898	7.51001
600.094	8.25672
600.29	8.40417
600.485	8.64959
600.681	6.99475
600.877	9.35722
601.073	7.61116
601.269	9.97372
601.465	8.94926
601.66	6.25155
601.856	5.39484
602.052	9.46836
602.248	7.06603
602.443	5.47742
602.639	6.39038
602.835	6.67578
603.03	6.39818
603.226	8.20747
603.422	6.59521
603.617	7.08643
603.813	6.94225
604.009	6.85368
604.204	8.6979
604.4	6.19002
604.595	8.51921
604.791	6.33659
604.986	7.77135
605.182	6.54274
605.377	6.87531
605.573	6.73482
605.768	7.41764
605.964	7.92423
606.159	8.36379
606.355	8.61168
606.55	6.76269
606.746	8.59487
606.941	7.16021
607.136	9.70746
607.332	10.75799
607.527	5.87851
607.722	7.84025
607.918	7.07382
608.113	6.44768
608.308	8.27815
608.503	8.1955
608.699	7.81308
608.894	7.95186
609.089	6.6797
609.284	7.42947
609.479	7.05775
609.675	7.92029
609.87	7.36321
610.065	8.25751
610.26	8.48924
610.455	8.27398
610.65	7.0896
610.845	7.88713
611.04	8.43366
611.235	7.16037
611.43	7.01367
611.625	6.07304
611.82	9.19282
612.015	6.545
612.21	9.5856
612.405	5.74379
612.6	9.83423
612.795	8.95204
612.99	8.77685
613.185	6.24244
613.38	6.30655
613.575	7.95757
613.77	11.10628
613.965	5.35
614.159	6.23012
614.354	9.02616
614.549	9.13042
614.744	7.97472
614.938	6.09411
615.133	6.06212
615.328	9.64621
615.523	9.18971
615.717	11.35365
615.912	6.86105
616.107	7.71709
616.301	7.19704
616.496	6.65905
616.691	10.03308
616.885	8.89108
617.08	11.27778
617.274	9.41961
617.469	10.64867
617.664	8.50004
617.858	7.33938
618.053	8.2836
618.247	7.1839
618.442	4.60706
618.636	9.5367
618.831	6.97243
619.025	7.29695
619.219	11.61382
619.414	3.14617
619.608	7.87276
619.803	6.65668
619.997	10.7635
620.191	9.54182
620.386	8.61402
620.58	7.55965
620.774	5.62544
620.969	5.55034
621.163	8.2209
621.357	5.65333
621.551	7.50771
621.746	7.88378
621.94	7.53721
622.134	13.08003
622.328	10.89836
622.522	6.09388
622.716	9.17194
622.911	9.44416
623.105	9.20786
623.299	8.31295
623.493	12.80841
623.687	6.32508
623.881	7.51591
624.075	8.70299
624.269	9.66114
624.463	5.08904
624.657	5.71746
624.851	8.68168
625.045	8.84576
625.239	9.62946
625.433	7.18656
625.627	10.31227
625.821	6.68117
626.015	6.59334
626.209	7.85911
626.403	5.36613
626.596	8.10469
626.79	8.93034
626.984	6.13842
627.178	8.68638
627.372	8.53763
627.565	9.11283
627.759	5.96097
627.953	6.14165
628.147	8.77541
628.34	8.83418
628.534	10.83504
628.728	8.07818
628.921	9.29935
629.115	9.32162
629.309	9.2905
629.502	9.77121
629.696	8.45597
629.89	7.61506
630.083	8.24015
630.277	8.82815
630.47	11.0621
630.664	7.74183
630.857	6.09164
631.051	9.98685
631.244	10.35452
631.438	9.68995
631.631	6.94556
631.825	10.32772
632.018	8.92903
632.212	10.5073
632.405	10.09013
632.598	7.07045
632.792	8.31334
632.985	4.93301
633.178	7.62609
633.372	8.11625
633.565	7.85219
633.758	10.81993
633.952	6.4099
634.145	6.82829
634.338	7.50904
634.531	7.3513
634.724	6.99722
634.918	8.21399
635.111	7.63836
635.304	7.34404
635.497	11.96454
635.69	8.76074
635.883	10.09825
636.077	6.33142
636.27	8.95849
636.463	8.92764
636.656	9.087
636.849	7.59047
637.042	9.22411
637.235	11.90779
637.428	9.46352
637.621	9.68573
637.814	10.66747
638.007	10.73416
638.2	11.52825
638.393	12.09496
638.586	6.5896
638.778	7.51465
638.971	9.04611
639.164	11.80749
639.357	9.42716
639.55	11.89167
639.743	9.76765
639.935	9.95302
640.128	12.67965
640.321	9.79248
640.514	9.09724
640.707	13.89818
640.899	10.18178
641.092	6.01959
641.285	25.17148
641.477	5.08604
641.67	13.43725
641.863	11.46956
642.055	9.41836
642.248	8.77996
642.441	8.09459
642.633	10.19385
642.826	11.14454
643.018	11.81778
643.211	13.05655
643.403	13.18446
643.596	14.20918
643.788	13.36381
643.981	8.47578
644.173	10.96657
644.366	8.36778
644.558	5.93154
644.751	11.38398
644.943	6.69682
645.135	13.17933
645.328	13.26432
645.52	10.89911
645.712	11.93724
645.905	16.786
646.097	8.16352
646.289	10.73321
646.482	13.94703
646.674	8.32948
646.866	11.74269
647.058	10.63176
647.251	7.3921
647.443	7.82699
647.635	9.24041
647.827	7.78863
648.019	8.17566
648.211	9.65653
648.404	10.08769
648.596	13.69204
648.788	10.54412
648.98	9.72286
649.172	11.17213
649.364	10.72733
649.556	6.11926
649.748	15.08108
649.94	8.58196
650.132	11.23941
650.324	7.80814
650.516	8.37838
650.708	12.23641
650.9	7.13812
651.092	9.15146
651.284	6.76246
651.476	7.06008
651.667	11.18798
651.859	12.74992
652.051	9.62544
652.243	9.75491
652.435	8.40516
652.627	11.0374
652.818	10.20972
653.01	6.54234
653.202	8.32062
653.394	8.96054
653.585	11.13493
653.777	20.3565
653.969	13.24439
654.16	12.50783
654.352	8.09242
654.544	8.51868
654.735	13.41236
654.927	9.73296
655.118	13.8305
655.31	11.88127
655.502	12.57946
655.693	8.56916
655.885	11.75808
656.076	13.24197
656.268	10.59874
656.459	13.53072
656.651	12.57358
656.842	8.86336
657.034	8.43699
657.225	11.37374
657.416	13.35623
657.608	13.06103
657.799	9.82396
657.99	12.3818
658.182	8.51346
658.373	8.97284
658.564	11.96794
658.756	9.95525
658.947	9.90601
659.138	7.60844
659.33	9.13478
659.521	8.34645
659.712	9.91722
659.903	9.18907
660.094	8.75605
660.286	6.93729
660.477	13.87382
660.668	11.09771
660.859	10.19701
661.05	6.9525
661.241	11.30727
661.432	11.69847
661.623	9.55784
661.814	9.44708
662.006	6.53812
662.197	11.31562
662.388	13.55752
662.579	11.62317
662.77	13.57849
662.96	17.85662
663.151	13.10938
663.342	6.59015
663.533	11.34873
663.724	10.05631
663.915	15.42495
664.106	10.30734
664.297	15.16636
664.488	12.1396
664.678	9.7402
664.869	12.52845
665.06	13.27732
665.251	12.35813
665.442	12.49278
665.632	8.48955
665.823	16.85186
666.014	4.12933
666.204	13.06593
666.395	14.72496
666.586	19.45763
666.776	13.27222
666.967	15.92331
667.158	12.03365
667.348	15.13125
667.539	8.62048
667.729	13.31606
667.92	8.47344
668.111	13.70961
668.301	12.5465
668.492	10.75122
668.682	11.193
668.873	10.598
669.063	8.15649
669.253	11.37102
669.444	14.84194
669.634	10.2854
669.825	16.77729
670.015	13.72838
670.206	9.58454
670.396	18.01236
670.586	11.21761
670.777	12.91688
670.967	5.84078
671.157	10.88063
671.347	9.04302
671.538	16.68157
671.728	13.22079
671.918	17.02794
672.108	13.09532
672.299	11.4593
672.489	12.10064
672.679	10.96916
672.869	14.0251
673.059	17.92205
673.249	13.79123
673.44	8.79656
673.63	12.23715
673.82	14.76312
674.01	9.45996
674.2	14.25563
674.39	20.41513
674.58	13.92388
674.77	12.8971
674.96	12.32011
675.15	24.95629
675.34	16.40839
675.53	12.37857
675.72	11.85291
675.91	8.00673
676.099	17.73518
676.289	19.92018
676.479	15.19034
676.669	11.3988
676.859	14.00573
677.049	9.8645
677.238	12.04464
677.428	16.76358
677.618	14.17761
677.808	16.94022
677.997	13.84893
678.187	8.83531
678.377	12.01955
678.567	10.2259
678.756	10.77532
678.946	11.40513
679.136	8.04729
679.325	10.00363
679.515	9.48303
679.704	8.07651
679.894	13.88102
680.084	12.33939
680.273	15.25331
680.463	9.89623
680.652	9.53651
680.842	11.79553
681.031	14.51643
681.221	9.18667
681.41	13.26621
681.6	11.85973
681.789	15.02027
681.978	15.37025
682.168	13.50239
682.357	12.71821
682.547	14.05479
682.736	13.9562
682.925	16.76482
683.115	15.98381
683.304	15.64665
683.493	13.97594
683.682	14.7667
683.872	13.77708
684.061	16.81495
684.25	14.79153
684.439	20.41132
684.629	15.13135
684.818	24.46849
685.007	12.49946
685.196	12.13037
685.385	19.74826
685.574	14.51772
685.763	14.84972
685.952	14.28734
686.142	10.55305
686.331	17.59185
686.52	7.78348
686.709	19.79496
686.898	20.30791
687.087	15.47087
687.276	19.32059
687.465	17.95241
687.654	12.66945
687.842	19.25249
688.031	10.1439
688.22	19.38072
688.409	14.5101
688.598	14.22319
688.787	23.03496
688.976	14.45826
689.165	21.25442
689.353	12.92713
689.542	15.8449
689.731	17.85714
689.92	22.11024
690.108	17.9857
690.297	13.71425
690.486	15.86607
690.675	17.94867
690.863	21.50091
691.052	19.9887
691.241	16.26221
691.429	15.72978
691.618	21.44793
691.806	9.94399
691.995	14.28156
692.184	14.98377
692.372	12.85159
692.561	15.08336
692.749	16.1208
692.938	26.49247
693.126	17.51587
693.315	16.11439
693.503	17.58182
693.692	19.16763
693.88	19.08547
694.068	24.09066
694.257	15.81587
694.445	17.5875
694.634	8.73679
694.822	20.0876
695.01	20.63258
695.199	22.57002
695.387	22.16324
695.575	20.37468
695.763	16.19619
695.952	14.16768
696.14	8.79588
696.328	13.75137
696.516	16.95569
696.705	15.69087
696.893	16.84196
697.081	9.07668
697.269	18.85059
697.457	12.15538
697.645	11.22571
697.833	18.19941
698.021	12.50255
698.21	13.35016
698.398	14.00855
698.586	10.70239
698.774	10.2969
698.962	14.37328
699.15	11.29194
699.338	9.10418
699.526	16.19989
699.714	12.26093
699.901	12.27146
700.089	17.61653
700.277	11.88307
700.465	13.93187
700.653	17.95016
700.841	17.10097
701.029	12.74723
701.217	20.59081
701.404	16.75397
701.592	20.09786
701.78	25.45616
701.968	14.33328
702.155	16.21907
702.343	9.44958
702.531	22.09689
702.718	18.67086
702.906	16.04985
703.094	12.74183
703.281	22.17796
703.469	15.82855
703.657	21.05067
703.844	30.94083
704.032	24.80264
704.219	14.78653
704.407	18.91606
704.595	22.74622
704.782	18.63437
704.97	14.81592
705.157	14.52095
705.345	24.59223
705.532	30.91439
705.719	20.41861
705.907	24.22504
706.094	18.48482
706.282	26.13641
706.469	16.14765
706.656	18.28625
706.844	17.25246
707.031	22.9269
707.218	18.29838
707.406	25.724
707.593	21.29781
707.78	22.15622
707.968	16.82387
708.155	13.99049
708.342	21.42055
708.529	21.78311
708.716	20.09386
708.904	25.74277
709.091	21.44834
709.278	13.18835
709.465	26.35073
709.652	25.61811
709.839	24.13794
710.026	20.86407
710.213	10.40014
710.4	20.05702
710.587	23.68033
710.774	25.39581
710.961	25.66545
711.148	19.68712
711.335	25.97586
711.522	18.29511
711.709	21.48512
711.896	30.18027
712.083	23.73319
712.27	15.12208
712.457	19.85893
712.644	13.15513
712.831	30.54186
713.017	19.86807
713.204	22.88951
713.391	15.83002
713.578	27.44063
713.765	28.23626
713.951	23.57068
714.138	37.78576
714.325	23.89099
714.512	19.91933
714.698	16.85714
714.885	27.92371
715.072	23.29512
715.258	21.83707
715.445	18.1661
715.631	25.85859
715.818	8.20161
716.005	17.18093
716.191	24.73666
716.378	18.99772
716.564	24.77171
716.751	17.67193
716.937	18.74675
717.124	27.51302
717.31	17.63896
717.497	31.37152
717.683	18.63698
717.869	34.44806
718.056	19.96207
718.242	25.32457
718.429	21.3588
718.615	14.70014
718.801	21.72426
718.988	26.91518
719.174	26.07008
719.36	21.68776
719.547	27.57632
719.733	25.59272
719.919	24.95114
720.105	27.64653
720.291	21.25571
720.478	25.07325
720.664	21.443
720.85	19.78642
721.036	40.21044
721.222	31.80847
721.408	21.61269
721.595	34.32741
721.781	35.4294
721.967	32.38398
722.153	34.05297
722.339	27.58727
722.525	26.06094
722.711	18.89632
722.897	16.29067
723.083	20.78461
723.269	29.52271
723.455	41.45904
723.641	45.58716
723.827	26.88337
724.012	26.57396
724.198	22.56716
724.384	33.41536
724.57	26.16698
724.756	14.88213
724.942	12.21612
725.127	31.98876
725.313	33.70935
725.499	32.83469
725.685	37.95703
725.87	27.98428
726.056	18.77741
726.242	33.05501
726.428	14.98309
726.613	31.41391
726.799	22.48449
726.985	17.49773
727.17	15.62694
727.356	39.19056
727.541	18.97914
727.727	23.90078
727.913	28.98436
728.098	22.39595
728.284	29.96764
728.469	16.20589
728.655	19.3257
728.84	30.98754
729.026	28.44109
729.211	30.82772
729.397	27.44103
729.582	29.51316
729.767	23.32891
729.953	26.60318
730.138	33.61441
730.323	10.36212
730.509	16.89284
730.694	35.66078
730.879	28.91591
731.065	25.53818
731.25	41.48243
731.435	28.11785
731.621	15.45756
731.806	22.55456
731.991	26.91718
732.176	15.46091
732.361	33.76723
732.547	28.84634
732.732	13.34551
732.917	42.42324
733.102	16.34866
733.287	22.06157
733.472	25.47961
733.657	25.48602
733.842	15.52807
734.027	22.60695
734.212	22.64741
734.397	18.83832
734.582	25.02219
734.767	31.60955
734.952	35.35763
735.137	8.70367
735.322	37.20901
735.507	25.07657
735.692	28.48052
735.877	42.05885
736.062	41.20553
736.247	29.01803
736.431	26.449
736.616	34.99585
736.801	28.78075
736.986	27.30156
737.171	21.03651
737.355	14.98661
737.54	37.09967
737.725	25.40251
737.909	48.37729
738.094	22.72017
738.279	30.44204
738.463	25.4787
738.648	33.01708
738.833	29.81636
739.017	44.62587
739.202	28.648
739.386	25.34347
739.571	19.9839
739.756	35.0223
739.94	26.63012
740.125	34.81735
740.309	21.97173
740.494	31.85491
740.678	29.75343
740.863	32.75862
741.047	28.15868
741.231	38.90382
741.416	20.96715
741.6	40.68319
741.785	21.79038
741.969	36.43957
742.153	40.44767
742.338	10.66212
742.522	28.54791
742.706	34.48242
742.89	19.58892
743.075	31.48881
743.259	38.02371
743.443	38.56303
743.627	39.05805
743.812	49.77978
743.996	16.20468
744.18	28.62444
744.364	24.23812
744.548	51.52423
744.732	29.34101
744.916	33.97325
745.1	35.22469
745.285	28.17622
745.469	34.08007
745.653	45.60592
745.837	19.91682
746.021	47.33987
746.205	38.35379
746.389	29.86028
746.573	27.74983
746.757	42.77079
746.94	25.01519
747.124	39.21282
747.308	16.50007
747.492	37.64385
747.676	28.912
747.86	51.65756
748.044	26.5744
748.227	16.04685
748.411	65.29463
748.595	33.46047
748.779	24.47449
748.963	33.42726
749.146	30.54175
749.33	23.83827
749.514	20.11571
749.697	39.05361
749.881	24.93596
750.065	19.96713
750.248	30.84303
750.432	52.13836
750.616	31.07519
750.799	16.88749
750.983	53.99761
751.166	56.83128
751.35	16.767
751.533	41.33696
751.717	42.29693
751.9	44.79026
752.084	25.12768
752.267	17.18683
752.451	24.54816
752.634	29.33255
752.818	35.70472
753.001	40.40079
753.184	43.81721
753.368	33.46968
753.551	2.31066
753.734	23.50344
753.918	54.31151
754.101	23.87482
754.284	36.93211
754.467	27.60761
754.651	26.74621
754.834	24.05832
755.017	41.45342
755.2	41.73344
755.384	22.88283
755.567	35.84219
755.75	42.35849
755.933	26.87447
756.116	33.18597
756.299	24.52175
756.482	23.57531
756.665	37.61728
756.848	34.13103
757.032	38.75053
757.215	16.80112
757.398	23.32164
757.581	24.32556
757.764	56.26325
757.947	32.92103
758.129	42.06852
758.312	3.44761
758.495	31.69479
758.678	29.81142
758.861	30.24738
759.044	54.11695
759.227	26.94293
759.41	24.21555
759.592	38.2084
759.775	31.93765
759.958	40.88469
760.141	17.82545
760.324	52.47378
760.506	47.945
760.689	39.97019
760.872	59.47108
761.054	36.16068
761.237	26.77997
761.42	36.32654
761.602	41.28304
761.785	34.66403
761.968	42.15948
762.15	50.99545
762.333	30.23402
762.515	36.0209
762.698	26.16456
762.88	37.16255
763.063	33.01676
763.245	39.58653
763.428	22.95692
763.61	23.23915
763.793	19.4417
763.975	31.50779
764.158	25.2917
764.34	24.19055
764.522	20.73214
764.705	26.7413
764.887	44.52828
765.069	17.71753
765.252	35.39582
765.434	41.28132
765.616	32.22528
765.799	26.00466
765.981	39.67084
766.163	23.62653
766.345	42.58461
766.528	26.02219
766.71	9.07163
766.892	34.96536
767.074	43.78905
767.256	30.63292
767.438	49.22764
767.62	38.55051
767.802	55.69137
767.985	42.58737
768.167	54.46501
768.349	28.40975
768.531	41.46471
768.713	38.71634
768.895	45.83367
769.077	37.52276
769.259	64.07747
769.441	93.09563
769.623	43.56342
769.804	54.23313
769.986	53.30031
770.168	65.70498
770.35	76.47043
770.532	65.27185
770.714	62.7005
770.896	68.27247
771.077	22.11016
771.259	71.07292
771.441	58.60812
771.623	75.26648
771.804	91.98099
771.986	25.2257
772.168	46.82149
772.35	64.90054
772.531	95.28482
772.713	57.8596
772.894	74.45842
773.076	54.84672
773.258	46.50676
773.439	77.56079
773.621	82.73557
773.802	37.33051
773.984	53.33336
774.166	58.6948
774.347	92.48259
774.529	70.64684
774.71	19.87819
774.891	53.59207
775.073	49.64556
775.254	84.99414
775.436	39.35876
775.617	93.43539
775.799	42.54725
775.98	85.95894
776.161	88.94362
776.343	84.61658
776.524	56.71837
776.705	49.7762
776.886	28.27066
777.068	61.22472
777.249	116.20756
777.43	99.34334
777.611	37.11449
777.793	54.43317
777.974	86.05876
778.155	49.24958
778.336	41.93339
778.517	96.74526
778.698	45.29706
778.879	18.26487
779.061	10.56589
779.242	65.37522
779.423	59.80309
779.604	40.00469
779.785	48.24521
779.966	63.74381
780.147	77.75872
780.328	75.36521
780.509	106.5268
780.69	74.39802
780.871	45.38835
781.051	23.51753
781.232	59.06838
781.413	60.08408
781.594	44.77621
781.775	42.06923
781.956	44.05737
782.137	20.6395
782.317	38.33336
782.498	62.58489
782.679	63.88478
782.86	61.50093
783.04	35.47589
783.221	62.66235
783.402	97.16068
783.583	58.66663
783.763	71.79304
783.944	48.02629
784.124	31.19602
784.305	90.2692
784.486	68.39325
784.666	53.65752
784.847	23.79012
785.027	120.08752
785.208	35.59175
785.388	39.19563
785.569	40.86399
785.749	47.45908
785.93	42.38298
786.11	30.91664
786.291	57.22115
786.471	55.31121
786.652	69.19862
786.832	54.28314
787.012	65.61934
787.193	35.13841
787.373	55.56912
787.553	48.48334
787.734	59.33043
787.914	46.38279
788.094	68.72423
788.275	63.89271
788.455	46.22686
788.635	28.10041
788.815	59.87084
788.995	34.84688
789.176	30.23819
789.356	41.09268
789.536	49.09451
789.716	62.58024
789.896	39.643
790.076	46.80301
790.256	61.04473
790.436	12.4956
790.616	34.99068
790.796	60.37481
790.976	47.72286
791.156	42.8755
791.336	67.09138
791.516	60.86698
791.696	50.20699
791.876	24.30656
792.056	58.25324
792.236	78.27623
792.416	69.83314
792.596	66.49498
792.776	64.11327
792.956	71.39405
793.135	89.56065
793.315	36.00807
793.495	80.41842
793.675	69.56343
793.854	73.26789
794.034	72.03532
794.214	34.74584
794.394	72.49728
794.573	77.5856
794.753	55.07055
794.933	39.27413
795.112	57.06009
795.292	73.57388
795.472	91.22835
795.651	39.72131
795.831	58.82274
796.01	50.82736
796.19	46.6215
796.369	51.46396
796.549	64.0801
796.728	48.36012
796.908	34.81608
797.087	32.61737
797.267	52.19568
797.446	33.08512
797.626	59.40036
797.805	60.3119
797.984	44.30119
798.164	65.88526
798.343	39.84438
798.522	58.50139
798.702	53.3673
798.881	34.56944
799.06	50.47222
799.239	18.53754
799.419	38.05359
799.598	86.36661
799.777	62.35232
799.956	74.0462
800.136	48.56675
800.315	36.52331
800.494	58.69216
800.673	73.8948
800.852	68.59794
801.031	77.67016
801.21	66.42603
801.389	41.17207
801.568	55.15742
801.747	94.01192
801.926	51.05654
802.105	92.37636
802.284	49.0068
802.463	84.0778
802.642	59.67269
802.821	59.96832
803	80.25176
803.179	74.35566
803.358	78.06709
803.537	41.34709
803.716	67.33656
803.895	41.61058
804.073	49.90508
804.252	43.63283
804.431	63.88267
804.61	52.54707
804.789	86.82158
804.967	44.27813
805.146	46.73444
805.325	105.89486
805.503	70.20277
805.682	33.18999
805.861	122.98739
806.039	84.62905
806.218	37.38427
806.397	62.62055
806.575	58.74878
806.754	62.77301
806.932	45.10455
807.111	91.77318
807.289	78.70984
807.468	59.22134
807.646	81.41864
807.825	66.3026
808.003	68.90331
808.182	78.90575
808.36	59.37807
808.539	42.46309
808.717	93.20553
808.895	45.31245
809.074	64.32306
809.252	52.36757
809.43	86.81272
809.609	90.70904
809.787	105.2063
809.965	48.14646
810.144	64.8602
810.322	51.18422
810.5	73.91563
810.678	60.39589
810.856	103.37943
811.035	89.96654
811.213	88.10233
811.391	78.64405
811.569	62.78933
811.747	144.41548
811.925	90.5568
812.103	44.25821
812.281	54.90545
812.459	110.96487
812.637	102.7331
812.816	89.39018
812.994	113.6888
813.171	90.26141
813.349	81.72107
813.527	102.70793
813.705	97.03084
813.883	113.02407
814.061	95.34794
814.239	115.85793
814.417	124.90417
814.595	81.92486
814.773	71.36547
814.95	71.50016
815.128	76.4355
815.306	67.98775
815.484	65.37064
815.662	50.84678
815.839	49.7968
816.017	52.0861
816.195	93.34519
816.372	57.73524
816.55	90.29797
816.728	104.42238
816.905	61.12991
817.083	103.16906
817.261	70.67059
817.438	143.95695
817.616	113.74148
817.793	50.53702
817.971	80.96924
818.148	76.99658
818.326	108.94398
818.503	72.54123
818.681	97.11887
818.858	51.08509
819.036	61.34481
819.213	68.13031
819.391	50.9839
819.568	45.58876
819.745	43.7065
819.923	76.49419
820.1	52.5449
820.277	42.97763
820.455	55.82162
820.632	56.85864
820.809	57.69893
820.986	34.59153
821.164	28.50787
821.341	24.38136
821.518	35.14304
821.695	26.00932
821.872	23.56659
822.05	20.05965
822.227	15.77043
822.404	16.64819
822.581	20.57709
822.758	15.96215
822.935	16.84929
823.112	19.03667
823.289	15.39855
823.466	19.16761
823.643	18.10664
823.82	22.56893
823.997	19.89624
824.174	23.11398
824.351	32.31814
824.528	30.34771
824.705	27.27655
824.882	29.15996
825.059	38.46113
825.236	28.68801
825.412	29.55199
825.589	37.88971
825.766	54.09537
825.943	32.77079
826.12	40.05444
826.296	23.82374
826.473	35.2036
826.65	34.02479
826.827	42.93627
827.003	26.93624
827.18	29.87883
827.357	35.1539
827.533	28.11127
827.71	14.96363
827.887	25.6365
828.063	30.99754
828.24	25.13487
828.416	36.03127
828.593	29.29679
828.769	43.5796
828.946	48.09116
829.122	47.04323
829.299	50.25306
829.475	19.42692
829.652	45.7182
829.828	77.15831
830.005	52.99814
830.181	66.01242
830.357	45.65085
830.534	68.3487
830.71	60.82343
830.886	76.1959
831.063	62.55019
831.239	90.17158
831.415	35.70476
831.592	100.4875
831.768	51.99224
831.944	42.98599
832.12	106.2276
832.296	92.88953
832.473	77.84121
832.649	47.80371
832.825	71.73396
833.001	37.62112
833.177	59.18693
833.353	54.5513
833.529	28.85031
833.705	46.57644
833.881	32.61261
834.058	29.64875
834.234	31.76812
834.41	34.20602
834.586	23.23618
834.761	30.77528
834.937	36.2489
835.113	35.92693
835.289	31.81963
835.465	39.66002
835.641	36.11117
835.817	36.68013
835.993	69.39633
836.169	40.19731
836.344	53.10906
836.52	65.33165
836.696	70.02127
836.872	45.26477
837.048	149.70193
837.223	48.6159
837.399	128.70447
837.575	95.02891
837.75	88.10012
837.926	124.57958
838.102	189.69406
838.277	153.87587
838.453	210.58937
838.628	213.22474
838.804	59.03774
838.98	193.85034
839.155	87.0112
839.331	134.80003
839.506	93.42978
839.682	77.44782
839.857	103.08475
840.033	132.70112
840.208	51.89022
840.384	26.76126
840.559	60.69385
840.734	98.04913
840.91	133.80306
841.085	86.05593
841.26	84.44138
841.436	80.56425
841.611	72.79989
841.786	103.33395
841.962	161.76915
842.137	130.11624
842.312	54.47915
842.487	93.61295
842.663	71.95847
842.838	90.63761
843.013	284.04343
843.188	171.12792
843.363	125.44752
843.538	296.47791
843.714	340.3254
843.889	305.34976
844.064	286.91117
844.239	234.95222
844.414	425.90635
844.589	257.69738
844.764	393.74758
844.939	366.76287
845.114	389.60277
845.289	413.69574
845.464	465.21621
845.639	352.88023
845.814	154.31728
845.989	286.83448
846.163	250.02152
846.338	319.81809
846.513	393.76472
846.688	251.83112
846.863	303.68909
847.038	228.22207
847.212	269.81957
847.387	329.0534
847.562	257.21074
847.737	429.14697
847.911	160.60399
848.086	156.58433
848.261	374.68767
848.435	267.55458
848.61	325.60473
848.785	203.37444
848.959	412.75006
849.134	433.6222
849.308	632.68967
849.483	304.65274
849.658	534.38758
849.832	250.81654
850.007	205.75272
850.181	643.00612
850.356	256.80157
850.53	748.81571
850.705	334.48551
850.879	158.37239
851.053	267.39915
851.228	300.60734
851.402	444.94634
851.577	449.35757
851.751	576.24801
851.925	326.4527
852.099	106.11569
852.274	221.49837
852.448	286.7453
852.622	458.81741
852.797	312.46021
852.971	347.2014
853.145	390.00386
853.319	731.57957
853.493	631.38925
853.668	464.92027
853.842	742.21071
854.016	480.968
854.19	666.08904
854.364	350.71656
854.538	359.32791
854.712	723.56333
854.886	407.489
855.06	302.89639
855.234	107.52537
855.408	629.8902
855.582	387.06557
855.756	577.26825
855.93	521.88035
856.104	585.7089
856.278	534.58707
856.452	343.20224
856.626	386.77045
856.8	904.2399
856.973	368.04654
857.147	474.58559
857.321	457.9829
857.495	505.07206
857.669	343.55423
857.842	395.30208
858.016	561.75746
858.19	243.20189
858.364	777.01726
858.537	383.0263
858.711	491.79135
858.885	354.87634
859.058	246.97924
859.232	145.84976
859.405	145.44287
859.579	436.39266
859.753	517.97023
859.926	242.22522
860.1	217.99545
860.273	370.12937
860.447	458.82668
860.62	306.84163
860.794	585.50915
860.967	338.70392
861.141	478.50372
861.314	759.21612
861.487	429.90833
861.661	449.90089
861.834	512.83823
862.008	628.70341
862.181	370.5456
862.354	481.18292
862.528	476.58996
862.701	305.03984
862.874	168.11527
863.047	281.64552
863.221	262.06377
863.394	141.07533
863.567	401.93745
863.74	168.64696
863.913	494.74248
864.087	471.99632
864.26	449.14348
864.433	337.6101
864.606	584.92515
864.779	330.96682
864.952	146.92519
865.125	387.30647
865.298	299.94926
865.471	320.23836
865.644	738.89605
865.817	495.95549
865.99	480.13767
866.163	432.6529
866.336	251.37714
866.509	302.90057
866.682	550.05779
866.855	715.89107
867.028	176.7394
867.2	389.99497
867.373	85.33977
867.546	352.55753
867.719	677.42709
867.892	431.24877
868.064	237.50479
868.237	288.88545
868.41	351.94674
868.583	187.44219
868.755	188.78394
868.928	405.09535
869.101	806.3234
869.273	538.2203
869.446	523.81163
869.619	572.30116
869.791	355.10288
869.964	498.12626
870.136	801.77531
870.309	342.0893
870.481	373.23389
870.654	177.61212
870.826	312.72196
870.999	216.01923
871.171	389.93956
871.344	238.14096
871.516	296.57122
871.689	236.38598
871.861	329.95652
872.033	258.16362
872.206	230.08588
872.378	336.22225
872.55	345.89333
872.723	178.82415
872.895	326.98251
873.067	427.88814
873.24	354.71232
873.412	297.99119
873.584	373.3642
873.756	284.57424
873.928	428.57731
874.101	344.46018
874.273	400.39658
874.445	120.85933
874.617	195.61175
874.789	291.20998
874.961	299.45245
875.133	339.70953
875.305	377.70949
875.477	299.31044
875.649	163.66561
875.821	187.90487
875.993	592.17897
876.165	320.25667
876.337	369.10074
876.509	299.09106
876.681	358.17256
876.853	347.79178
877.025	349.25205
877.197	227.7896
877.369	156.3718
877.541	312.33705
877.712	70.47443
877.884	159.0043
878.056	326.71814
878.228	166.25679
878.4	369.00073
878.571	153.51719
878.743	109.42723
878.915	279.05708
879.086	118.88049
879.258	171.22791
879.43	169.95047
879.601	133.17129
879.773	132.3702
879.945	28.11732
880.116	51.04117
880.288	28.77643
880.459	32.14684
880.631	22.84718
880.802	29.83032
880.974	26.73249
881.145	18.10702
881.317	24.84145
881.488	19.49652
881.66	20.03346
881.831	20.70413
882.002	27.08261
882.174	19.60521
882.345	25.02563
882.517	11.95203
882.688	30.8351
882.859	23.25315
883.03	42.51542
883.202	38.88935
883.373	30.83428
883.544	33.11823
883.715	59.67947
883.887	51.43067
884.058	41.72096
884.229	61.70185
884.4	59.77988
884.571	73.06414
884.742	61.08524
884.914	74.00362
885.085	105.48988
885.256	139.23449
885.427	128.01039
885.598	150.18067
885.769	148.87877
885.94	141.807
886.111	88.61068
886.282	178.19049
886.453	144.62199
886.624	110.31446
886.795	218.69826
886.966	151.53494
887.136	202.73308
887.307	146.43188
887.478	298.84269
887.649	246.32805
887.82	256.34125
887.991	204.90243
888.161	331.57916
888.332	344.92723
888.503	135.90847
888.674	373.78221
888.844	524.54605
889.015	321.84536
889.186	238.52973
889.356	480.04959
889.527	157.84487
889.698	675.31787
889.868	258.05951
890.039	382.34042
890.209	276.30618
890.38	394.58923
890.551	332.67982
890.721	397.19125
890.892	430.9992
891.062	410.34829
891.233	517.82349
891.403	428.31602
891.574	246.94184
891.744	247.49733
891.914	327.48519
892.085	351.7457
892.255	101.98082
892.425	428.18222
892.596	304.43295
892.766	358.10379
892.936	449.26118
893.107	399.7636
893.277	164.73853
893.447	172.9293
893.618	96.68255
893.788	182.96915
893.958	120.84411
894.128	91.10116
894.298	118.70213
894.468	151.65574
894.639	60.37136
894.809	39.64096
894.979	65.3507
895.149	85.24777
895.319	68.12527
895.489	107.4474
895.659	136.54022
895.829	82.27114
895.999	83.60817
896.169	67.88197
896.339	92.20765
896.509	190.69564
896.679	190.8832
896.849	218.21501
897.019	259.11088
897.189	242.07137
897.358	206.40659
897.528	333.07011
897.698	221.00397
897.868	302.5924
898.038	617.1305
898.208	596.91369
898.377	175.63784
898.547	927.1794
898.717	1382.97075
898.886	390.69377
899.056	609.0285
899.226	1441.49192
899.395	727.9468
899.565	1225.17808
899.735	794.26063
899.904	880.06015
900.074	923.8275
900.244	316.54462
900.413	1210.3151
900.583	385.17677
900.752	1309.45882
900.922	962.3375
901.091	56.11318
901.261	1614.74636
901.43	532.78588
901.599	2266.18145
901.769	1429.38319
901.938	1052.6106
902.108	1551.70259
902.277	799.88898
902.446	364.6424
902.616	387.52373
902.785	526.58339
902.954	691.87577
903.124	463.9892
903.293	261.61657
903.462	126.77583
903.631	194.53728
903.801	141.89316
903.97	64.40459
904.139	107.98731
904.308	85.1569
904.477	72.05659
904.646	39.73866
904.816	60.46454
904.985	89.00075
905.154	134.52712
