Data from WindowProjectSample_Transmission__56__00056__010481502376259211.txt Node

Date: Mon May 05 18:19:02 EDT 2025
User: jessi
Spectrometer: SR400872
Trigger mode: 0
Integration Time (sec): 5.000010E-1
Scans to average: 20
Electric dark correction enabled: true
Nonlinearity correction enabled: true
Boxcar width: 0
XAxis mode: Wavelengths
Number of Pixels in Spectrum: 3648
>>>>>Begin Spectral Data<<<<<
184.909	20666.69108
185.132	-4930.04154
185.355	-3058.90252
185.578	-17398.87069
185.801	1392.74903
186.024	9852.96066
186.247	-1860.26704
186.47	1277.1763
186.693	598.77208
186.916	178.79343
187.139	-3658.21968
187.362	3413.1535
187.585	3957.72724
187.808	3645.24987
188.031	-48.44456
188.254	-50532.37043
188.476	-718.57154
188.699	6335.84744
188.922	483.00512
189.145	-14819.45829
189.368	-675.39389
189.591	-1451.5895
189.813	3041.2727
190.036	-47753.28211
190.259	-899.14284
190.482	-4594.50259
190.705	6926.43531
190.927	-2403.8786
191.15	12621.00436
191.373	3309.82646
191.595	-8654.20785
191.818	-3995.89757
192.041	-5241.16897
192.263	-3336.84592
192.486	-829.90053
192.709	-3797.11495
192.931	7648.84389
193.154	-27680.64126
193.377	-2710.01822
193.599	-2615.44843
193.822	-9165.2569
194.044	-1840.76165
194.267	1060.50623
194.489	323.5759
194.712	-43146.95316
194.934	-31951.32081
195.157	1162.65251
195.379	1452.19331
195.602	-6804.98834
195.824	-1354.79413
196.047	-8128.55419
196.269	2628.23411
196.492	-6329.07043
196.714	28793.45776
196.936	-8691.57112
197.159	-1176.69447
197.381	1131.34262
197.604	358.42919
197.826	12230.66058
198.048	-10821.36536
198.271	-2618.34776
198.493	7240.0762
198.715	2227.72765
198.938	-550.80665
199.16	7056.53643
199.382	-99781.30244
199.604	2794.81884
199.827	-1082.55198
200.049	-2725.82174
200.271	13044.28115
200.493	1199.6681
200.715	-36919.02536
200.938	-5752.446
201.16	-4206.67119
201.382	20339.96635
201.604	2194.26494
201.826	2245.12162
202.048	-1799.78827
202.27	-1835.76411
202.492	-36561.16925
202.715	2795.55421
202.937	-4349.03708
203.159	-6288.93792
203.381	1487.72089
203.603	6570.1476
203.825	6454.48494
204.047	2086.60553
204.269	-2740.75091
204.491	2115.74295
204.713	5853.21422
204.935	-463466.97078
205.156	1106.86688
205.378	-2897.24758
205.6	1684.9896
205.822	152713.66553
206.044	-1026.66972
206.266	1482.41122
206.488	4713.06739
206.71	-5215.64457
206.932	1059.66376
207.153	11395.3362
207.375	-6636.68362
207.597	-37509.52001
207.819	-2650.21371
208.041	2340.51497
208.262	502.75803
208.484	618.38144
208.706	-792.84693
208.927	-762.94736
209.149	541.74537
209.371	-2917.11059
209.593	-269.63447
209.814	-780.77006
210.036	565.81559
210.258	-560.88747
210.479	1669.28149
210.701	1515.76734
210.922	3183.91078
211.144	-3805.47376
211.366	2005.84621
211.587	7752.42851
211.809	-7377.51021
212.03	2227.49821
212.252	464.63898
212.473	1994.50008
212.695	-6374.32859
212.916	2686.82015
213.138	-771.96108
213.359	3620.10328
213.581	5036.62578
213.802	-822.44612
214.024	1091.64064
214.245	1840.34847
214.466	3728.06867
214.688	-3025.41634
214.909	-1072.49942
215.131	-1605.16991
215.352	-2894.37933
215.573	13934.87941
215.795	4867.07821
216.016	5343.38451
216.237	796.26092
216.459	3358.07101
216.68	1727.62394
216.901	4613.14788
217.122	-2862.26409
217.344	-11587.10458
217.565	3223.42162
217.786	8369.15458
218.007	14885.87874
218.228	-683.58872
218.45	5673.35713
218.671	804.02792
218.892	35058.74587
219.113	1429.43895
219.334	-484.96561
219.555	9713.55498
219.776	3162.72638
219.997	21145.89358
220.219	2858.59893
220.44	-10892.16881
220.661	458.04863
220.882	1399.34307
221.103	-1103.58972
221.324	2032.25606
221.545	2207.3259
221.766	-8273.63368
221.987	914.49904
222.208	1613.1666
222.429	4097.43912
222.65	239.4177
222.87	18831.47929
223.091	717.56052
223.312	549.10288
223.533	1262.74273
223.754	1500.60498
223.975	1300.59041
224.196	1934.99
224.417	1343.82981
224.637	620.99386
224.858	18.31713
225.079	1058.07431
225.3	625.32148
225.521	3739.65918
225.741	429.32141
225.962	475.29942
226.183	133.66904
226.404	635.20534
226.624	390.02432
226.845	589.50356
227.066	395.5275
227.286	239.84236
227.507	112.54689
227.728	116.35549
227.948	235.14399
228.169	73.12912
228.389	81.19963
228.61	46.17832
228.831	60.69951
229.051	2.41145
229.272	36.168
229.492	55.64656
229.713	13.24911
229.933	36.92763
230.154	30.62364
230.374	52.54395
230.595	35.88181
230.815	21.02098
231.036	38.59162
231.256	-7.32696
231.477	64.94373
231.697	38.0942
231.917	37.23463
232.138	54.69265
232.358	101.79747
232.579	99.16486
232.799	16.79887
233.019	99.00397
233.24	109.53921
233.46	37.11772
233.68	60.50634
233.901	41.96837
234.121	24.4771
234.341	15.65004
234.561	1.84441
234.782	18.59888
235.002	66.16001
235.222	-5.41802
235.442	62.36633
235.662	33.82573
235.883	58.49472
236.103	49.89164
236.323	34.94951
236.543	26.0416
236.763	34.78653
236.983	39.70017
237.203	41.83533
237.423	59.60403
237.643	83.69124
237.864	72.88485
238.084	19.08338
238.304	26.5531
238.524	42.80591
238.744	37.48501
238.964	71.84627
239.184	60.1463
239.404	61.07583
239.624	33.60629
239.843	57.59589
240.063	34.41688
240.283	22.20894
240.503	23.83418
240.723	24.37873
240.943	13.15552
241.163	18.91316
241.383	13.85441
241.603	7.35545
241.822	9.38027
242.042	6.27374
242.262	7.82743
242.482	9.31909
242.702	10.27497
242.921	2.31546
243.141	6.63028
243.361	6.31639
243.581	9.28553
243.8	7.09508
244.02	5.05834
244.24	9.13627
244.459	9.04169
244.679	17.90941
244.899	11.30548
245.118	12.495
245.338	11.34403
245.558	13.24032
245.777	8.4266
245.997	9.89701
246.216	10.03209
246.436	5.93721
246.655	4.33764
246.875	3.07873
247.094	6.09844
247.314	1.94472
247.533	3.52721
247.753	4.12921
247.972	3.36094
248.192	1.12798
248.411	1.67814
248.631	3.24461
248.85	4.46161
249.07	3.71465
249.289	5.74915
249.508	4.72132
249.728	7.29157
249.947	6.79316
250.166	8.53067
250.386	4.4625
250.605	6.91799
250.824	10.46949
251.044	6.9592
251.263	28.34112
251.482	14.683
251.701	10.95372
251.921	0.04294
252.14	2.77441
252.359	4.26953
252.578	10.09883
252.798	3.17082
253.017	8.78812
253.236	3.80935
253.455	5.68898
253.674	10.13956
253.893	4.79734
254.112	7.38812
254.331	10.66455
254.551	8.94936
254.77	2.90734
254.989	12.73324
255.208	8.93039
255.427	14.27224
255.646	10.60256
255.865	20.52785
256.084	7.90772
256.303	10.35995
256.522	13.18534
256.741	3.15211
256.96	2.86687
257.179	7.55174
257.397	10.36098
257.616	5.65598
257.835	5.72026
258.054	15.07534
258.273	10.43987
258.492	10.89404
258.711	6.30086
258.93	2.91949
259.148	4.60661
259.367	4.47674
259.586	5.34532
259.805	2.34595
260.023	5.11974
260.242	3.96301
260.461	2.76538
260.68	1.18584
260.898	4.27163
261.117	1.33265
261.336	0.93649
261.554	3.32598
261.773	3.33588
261.992	0.76244
262.21	3.34816
262.429	3.6035
262.648	7.3722
262.866	7.8164
263.085	5.31808
263.303	4.75728
263.522	8.84546
263.74	8.89285
263.959	14.79942
264.178	6.91996
264.396	5.94674
264.615	4.36639
264.833	10.44927
265.051	8.54235
265.27	10.21681
265.488	10.49686
265.707	5.99121
265.925	10.57999
266.144	4.45386
266.362	5.29828
266.58	5.34667
266.799	4.85043
267.017	6.11008
267.235	5.28733
267.454	3.14645
267.672	1.74966
267.89	3.77473
268.109	4.04441
268.327	4.29778
268.545	0.84345
268.763	3.67881
268.982	1.63645
269.2	4.25451
269.418	3.16143
269.636	1.63337
269.854	4.64039
270.073	3.08988
270.291	1.72459
270.509	1.47298
270.727	4.30336
270.945	6.98183
271.163	7.0609
271.381	1.16917
271.599	2.93814
271.817	5.14102
272.036	1.85101
272.254	3.00563
272.472	2.28709
272.69	2.45507
272.908	2.35351
273.126	4.38749
273.344	5.18459
273.562	1.69436
273.779	2.50316
273.997	3.71996
274.215	3.91413
274.433	2.79272
274.651	4.28311
274.869	4.4706
275.087	2.44279
275.305	3.99735
275.523	2.45963
275.74	2.72066
275.958	5.22009
276.176	8.11575
276.394	2.51516
276.612	3.04093
276.829	3.27414
277.047	2.43829
277.265	2.7859
277.483	3.4617
277.7	4.27789
277.918	3.36904
278.136	5.93364
278.353	2.83959
278.571	1.58493
278.789	4.21511
279.006	0.72007
279.224	2.9225
279.442	5.14318
279.659	3.49316
279.877	2.59478
280.094	5.60611
280.312	1.03913
280.529	3.28442
280.747	0.88098
280.964	2.43682
281.182	6.01333
281.399	2.59554
281.617	3.7854
281.834	2.5472
282.052	1.80928
282.269	3.06401
282.487	2.6432
282.704	1.88332
282.921	2.21719
283.139	3.28987
283.356	3.86485
283.574	3.79921
283.791	1.82149
284.008	5.50732
284.226	2.9247
284.443	3.12763
284.66	4.08824
284.877	3.2286
285.095	2.03447
285.312	1.52431
285.529	0.86578
285.746	0.70677
285.964	1.97457
286.181	1.34544
286.398	1.81087
286.615	2.6581
286.832	2.52812
287.05	0.5319
287.267	1.71469
287.484	1.81748
287.701	2.49613
287.918	2.46426
288.135	2.56652
288.352	1.0905
288.569	1.39306
288.786	2.43692
289.003	2.02802
289.22	2.97057
289.437	1.52457
289.654	2.83257
289.871	3.00429
290.088	2.80412
290.305	2.10767
290.522	1.6471
290.739	1.98057
290.956	3.05274
291.173	3.4241
291.39	3.31064
291.607	2.21268
291.824	1.6347
292.04	1.27809
292.257	2.92248
292.474	3.13239
292.691	1.80962
292.908	0.90938
293.125	1.5665
293.341	1.05265
293.558	4.76461
293.775	1.93097
293.992	1.83857
294.208	0.77416
294.425	1.15909
294.642	1.8072
294.858	3.02649
295.075	0.62219
295.292	1.84089
295.508	2.2021
295.725	3.99554
295.942	1.59922
296.158	1.14352
296.375	1.96001
296.591	1.48861
296.808	1.70096
297.024	1.87391
297.241	2.23464
297.458	2.26665
297.674	0.11788
297.891	1.74463
298.107	1.32923
298.323	1.09156
298.54	2.8987
298.756	1.19164
298.973	0.49253
299.189	2.97616
299.406	1.03241
299.622	2.66652
299.838	2.58656
300.055	2.51838
300.271	0.53977
300.487	1.00864
300.704	1.23152
300.92	0.5746
301.136	4.1076
301.353	2.51319
301.569	1.82838
301.785	2.13013
302.001	2.50942
302.218	2.13055
302.434	2.18276
302.65	0.63083
302.866	1.47752
303.083	3.78854
303.299	3.59532
303.515	1.91306
303.731	2.01123
303.947	0.55975
304.163	1.13416
304.379	1.93715
304.595	2.29528
304.812	1.10916
305.028	1.07529
305.244	1.62487
305.46	2.54321
305.676	2.49554
305.892	3.02889
306.108	2.18546
306.324	1.34672
306.54	3.51156
306.756	2.46222
306.972	2.26742
307.187	1.64683
307.403	3.35559
307.619	1.51817
307.835	3.06394
308.051	3.28244
308.267	0.93911
308.483	2.81439
308.699	2.38491
308.914	1.98878
309.13	1.76344
309.346	0.56598
309.562	0.92014
309.778	0.62203
309.993	2.41484
310.209	1.81417
310.425	0.83364
310.641	1.69425
310.856	0.89095
311.072	0.85262
311.288	1.77879
311.503	1.80972
311.719	0.26997
311.935	0.19875
312.15	2.07851
312.366	1.711
312.581	2.0841
312.797	1.74959
313.013	2.45685
313.228	1.24395
313.444	1.75362
313.659	1.3021
313.875	2.22077
314.09	1.65243
314.306	3.29524
314.521	2.66144
314.737	2.45494
314.952	1.90446
315.168	1.67371
315.383	2.14426
315.599	1.71043
315.814	1.44908
316.029	2.4097
316.245	0.5905
316.46	0.55337
316.675	2.8863
316.891	3.38787
317.106	4.37598
317.321	2.06805
317.537	2.39428
317.752	2.56758
317.967	2.7072
318.183	1.05084
318.398	1.4684
318.613	2.46407
318.828	3.18236
319.043	2.5643
319.259	1.53223
319.474	2.04554
319.689	2.99796
319.904	0.44686
320.119	2.42702
320.334	2.16912
320.549	1.67913
320.765	2.77511
320.98	2.07011
321.195	2.57094
321.41	1.82074
321.625	2.40943
321.84	3.49629
322.055	3.51505
322.27	1.2829
322.485	1.00491
322.7	2.04908
322.915	2.68637
323.13	1.05258
323.345	3.13321
323.56	2.65827
323.775	2.35992
323.989	2.2307
324.204	2.03272
324.419	2.76582
324.634	0.78746
324.849	1.7125
325.064	4.8602
325.279	2.69769
325.493	2.33544
325.708	2.75175
325.923	1.21484
326.138	1.20429
326.352	3.32782
326.567	2.93399
326.782	1.58736
326.997	1.30349
327.211	2.37325
327.426	2.19386
327.641	1.46149
327.855	0.45991
328.07	2.07631
328.285	3.26896
328.499	1.53923
328.714	2.04887
328.928	2.53399
329.143	1.74924
329.358	2.67284
329.572	2.78106
329.787	2.96859
330.001	4.02499
330.216	0.83151
330.43	3.47252
330.645	3.43324
330.859	2.67686
331.074	1.39758
331.288	2.05741
331.503	2.97286
331.717	1.06411
331.931	2.09176
332.146	2.04496
332.36	3.40169
332.575	2.30002
332.789	2.09813
333.003	2.03297
333.218	2.26008
333.432	1.2993
333.646	2.6626
333.86	3.21499
334.075	3.33609
334.289	1.48144
334.503	1.12261
334.717	2.16759
334.932	2.25413
335.146	3.02277
335.36	1.65612
335.574	2.4549
335.788	2.34317
336.003	2.8551
336.217	2.29026
336.431	2.37643
336.645	1.36197
336.859	0.837
337.073	1.56023
337.287	2.17027
337.501	0.97335
337.715	2.08797
337.929	2.78058
338.143	0.95972
338.357	1.84236
338.571	1.1351
338.785	2.23623
338.999	1.63287
339.213	1.38981
339.427	0.718
339.641	2.86126
339.855	1.61868
340.069	1.39418
340.283	2.62145
340.497	3.50985
340.711	2.16785
340.924	1.56953
341.138	0.95769
341.352	0.90567
341.566	2.15296
341.78	0.43143
341.993	1.48714
342.207	0.99203
342.421	2.01131
342.635	1.77498
342.848	1.31865
343.062	0.15403
343.276	1.32295
343.49	3.58135
343.703	1.27493
343.917	2.61141
344.131	2.60766
344.344	1.24415
344.558	1.49089
344.771	0.91511
344.985	3.22674
345.199	2.95699
345.412	2.07814
345.626	2.04082
345.839	0.58556
346.053	0.83651
346.266	0.92837
346.48	2.40491
346.693	2.05791
346.907	2.01006
347.12	1.12392
347.334	2.07721
347.547	2.07912
347.76	1.37341
347.974	2.7306
348.187	2.08342
348.401	1.30908
348.614	1.28967
348.827	1.38092
349.041	2.17205
349.254	0.51837
349.467	1.60065
349.681	0.72015
349.894	1.23193
350.107	2.75194
350.32	3.06672
350.534	0.53411
350.747	1.40448
350.96	1.10575
351.173	1.21018
351.386	1.5342
351.6	1.32049
351.813	1.15349
352.026	1.49817
352.239	0.62062
352.452	1.46933
352.665	2.41304
352.878	1.70825
353.092	3.22336
353.305	2.22238
353.518	1.83947
353.731	1.0409
353.944	2.55051
354.157	1.25622
354.37	0.92486
354.583	0.91605
354.796	0.34144
355.009	2.33744
355.222	1.83223
355.435	1.63438
355.647	2.38574
355.86	0.85127
356.073	1.51683
356.286	1.25068
356.499	2.05858
356.712	1.83532
356.925	2.05083
357.138	2.21877
357.35	0.87717
357.563	1.35682
357.776	1.63487
357.989	1.18192
358.201	1.80382
358.414	1.62648
358.627	2.49652
358.84	1.29511
359.052	0.69157
359.265	0.82755
359.478	2.39834
359.69	-0.31283
359.903	1.9343
360.116	2.08664
360.328	0.38694
360.541	2.03604
360.753	0.7275
360.966	0.99735
361.179	1.05361
361.391	0.95169
361.604	0.74299
361.816	1.06228
362.029	0.87896
362.241	0.77018
362.454	0.85984
362.666	0.63398
362.879	1.41246
363.091	1.08699
363.304	0.7633
363.516	1.33547
363.728	0.53588
363.941	1.74935
364.153	1.00028
364.366	-0.08417
364.578	0.62799
364.79	1.48848
365.003	1.24921
365.215	0.96372
365.427	1.68366
365.639	2.12241
365.852	1.44179
366.064	3.13956
366.276	1.05958
366.488	1.62795
366.701	0.99212
366.913	1.28954
367.125	1.12684
367.337	0.84692
367.549	0.97826
367.762	1.44193
367.974	1.42817
368.186	0.77749
368.398	2.00762
368.61	1.8721
368.822	1.79408
369.034	1.34365
369.246	1.78686
369.458	3.3621
369.67	0.74026
369.882	2.67086
370.094	0.14573
370.306	2.6501
370.518	1.11654
370.73	0.80066
370.942	0.81951
371.154	1.19131
371.366	0.94207
371.578	1.42698
371.79	0.81205
372.002	2.16778
372.214	2.6494
372.425	1.36901
372.637	2.23968
372.849	1.52562
373.061	0.00204
373.273	1.65738
373.484	1.5218
373.696	1.92692
373.908	-0.07308
374.12	2.26301
374.331	1.58155
374.543	0.87352
374.755	0.68984
374.967	1.47093
375.178	1.71208
375.39	1.08631
375.602	1.37379
375.813	0.44117
376.025	0.54067
376.236	1.45237
376.448	1.40905
376.66	0.92408
376.871	0.98276
377.083	2.17801
377.294	2.17474
377.506	0.95254
377.717	2.16064
377.929	1.46631
378.14	0.80225
378.352	1.6362
378.563	1.48784
378.775	2.19934
378.986	0.73922
379.197	1.29314
379.409	0.91919
379.62	1.86509
379.832	1.68202
380.043	1.22806
380.254	1.37432
380.466	0.67877
380.677	3.25645
380.888	2.70024
381.1	3.02466
381.311	2.89099
381.522	1.31054
381.733	3.36914
381.945	1.25128
382.156	1.47696
382.367	0.97577
382.578	3.32532
382.789	3.22063
383.001	1.14063
383.212	2.25083
383.423	2.39586
383.634	2.19941
383.845	1.74838
384.056	1.13495
384.267	1.47131
384.478	1.35153
384.69	0.61661
384.901	1.65972
385.112	1.65081
385.323	2.49644
385.534	1.76902
385.745	1.65792
385.956	1.72037
386.167	0.86084
386.378	1.75816
386.588	0.74007
386.799	1.05605
387.01	0.4549
387.221	2.04825
387.432	1.36461
387.643	2.70335
387.854	1.2955
388.065	1.26706
388.275	1.35143
388.486	1.26296
388.697	1.31576
388.908	1.23816
389.119	2.29311
389.329	2.59688
389.54	1.52948
389.751	1.72021
389.962	2.35982
390.172	1.74229
390.383	1.21611
390.594	1.1899
390.804	1.04546
391.015	1.10573
391.226	1.62093
391.436	1.87182
391.647	1.7999
391.858	1.92424
392.068	0.53266
392.279	0.83772
392.489	1.58575
392.7	2.3036
392.91	0.97566
393.121	1.1434
393.331	1.85461
393.542	2.28805
393.752	2.01226
393.963	1.78806
394.173	1.69083
394.384	1.93438
394.594	1.61143
394.804	1.00866
395.015	1.73805
395.225	1.97971
395.436	1.00609
395.646	1.96409
395.856	1.19095
396.067	0.80026
396.277	2.25086
396.487	1.97084
396.697	1.80328
396.908	1.98807
397.118	2.17364
397.328	1.90841
397.538	2.34032
397.749	1.32353
397.959	2.28538
398.169	2.28997
398.379	0.97183
398.589	2.35783
398.8	1.872
399.01	1.79152
399.22	1.65087
399.43	3.28208
399.64	1.70856
399.85	2.31307
400.06	1.88555
400.27	1.42926
400.48	1.86309
400.69	2.92784
400.9	1.53294
401.11	1.39574
401.32	2.44406
401.53	1.7637
401.74	2.92515
401.95	2.32815
402.16	1.34361
402.37	2.16828
402.58	1.56568
402.79	2.42763
403	2.65395
403.209	1.64893
403.419	2.6067
403.629	1.58246
403.839	2.55318
404.049	2.54828
404.258	1.67546
404.468	1.60605
404.678	2.33348
404.888	2.63095
405.097	1.56616
405.307	2.06389
405.517	2.41331
405.727	2.30296
405.936	1.94734
406.146	2.2511
406.356	2.90152
406.565	2.10296
406.775	1.86962
406.984	1.83938
407.194	3.15644
407.404	2.13562
407.613	2.41264
407.823	2.70864
408.032	2.84405
408.242	2.91465
408.451	1.90096
408.661	2.25228
408.87	3.39192
409.08	1.88293
409.289	2.49828
409.499	2.38263
409.708	2.38886
409.918	1.27721
410.127	2.40017
410.336	3.27006
410.546	2.74334
410.755	2.06783
410.964	2.20195
411.174	1.91505
411.383	2.65051
411.592	2.69359
411.802	1.80499
412.011	2.9453
412.22	2.3259
412.429	3.49016
412.639	3.41077
412.848	3.09874
413.057	3.25645
413.266	3.31819
413.475	2.63833
413.685	2.94184
413.894	3.0346
414.103	3.44513
414.312	3.08824
414.521	2.54209
414.73	2.64098
414.939	3.97841
415.148	3.06118
415.357	2.86856
415.566	2.48572
415.776	2.44826
415.985	2.45156
416.194	3.21269
416.403	3.73448
416.611	2.05838
416.82	2.46665
417.029	2.85814
417.238	2.49005
417.447	2.25631
417.656	2.57598
417.865	2.34984
418.074	2.56466
418.283	2.76244
418.492	3.29818
418.7	3.12293
418.909	3.78728
419.118	3.06903
419.327	3.2605
419.536	3.16384
419.744	2.9021
419.953	3.93662
420.162	3.94457
420.371	3.20922
420.579	3.30825
420.788	4.10608
420.997	4.17664
421.205	4.22004
421.414	4.10264
421.623	4.05664
421.831	3.79777
422.04	4.28558
422.249	3.57773
422.457	4.09618
422.666	3.51869
422.874	4.34249
423.083	4.351
423.291	4.33191
423.5	4.13819
423.708	4.35328
423.917	4.64312
424.125	4.26569
424.334	4.06974
424.542	5.51038
424.751	5.03041
424.959	4.76486
425.167	4.98161
425.376	4.81201
425.584	4.0771
425.793	4.28804
426.001	3.54607
426.209	4.02698
426.418	3.2437
426.626	3.1723
426.834	3.05932
427.042	3.39731
427.251	3.12949
427.459	3.87437
427.667	3.44996
427.875	2.78656
428.084	3.17668
428.292	4.08744
428.5	3.72784
428.708	2.93411
428.916	2.87338
429.124	3.51096
429.333	3.18132
429.541	3.30315
429.749	3.52062
429.957	3.45008
430.165	4.94777
430.373	2.78616
430.581	3.68069
430.789	4.29187
430.997	3.23319
431.205	3.0958
431.413	3.63096
431.621	3.295
431.829	3.86831
432.037	3.4137
432.245	3.84844
432.453	3.7907
432.661	3.50083
432.869	4.56389
433.076	3.18136
433.284	3.51805
433.492	3.98205
433.7	4.24969
433.908	3.44797
434.116	3.73709
434.323	3.79391
434.531	3.5911
434.739	3.94189
434.947	4.21806
435.154	4.12735
435.362	3.73949
435.57	3.57775
435.778	3.36404
435.985	3.84235
436.193	3.51507
436.401	4.33336
436.608	3.72862
436.816	3.54759
437.023	4.53443
437.231	4.59267
437.439	3.96513
437.646	4.11406
437.854	3.98425
438.061	4.17861
438.269	3.82415
438.476	4.18736
438.684	3.88125
438.891	3.7419
439.099	3.51307
439.306	3.32636
439.514	3.42483
439.721	4.25132
439.929	3.80524
440.136	4.47446
440.343	4.42904
440.551	4.28336
440.758	5.71766
440.965	4.71983
441.173	4.44292
441.38	4.16796
441.587	4.31207
441.795	4.03473
442.002	4.11288
442.209	4.08941
442.416	4.28644
442.624	4.28237
442.831	4.10789
443.038	3.73621
443.245	3.46986
443.452	3.82892
443.66	4.28841
443.867	3.67144
444.074	3.72961
444.281	3.64714
444.488	3.88386
444.695	4.04991
444.902	3.77407
445.109	4.5253
445.316	4.18163
445.523	4.33688
445.73	4.27857
445.937	4.92487
446.144	5.22344
446.351	5.41356
446.558	4.7225
446.765	5.97409
446.972	5.67099
447.179	5.19076
447.386	5.90732
447.593	4.76821
447.8	5.45296
448.007	4.50652
448.214	4.40891
448.42	3.96182
448.627	4.60532
448.834	4.07065
449.041	3.95739
449.248	4.05514
449.454	4.3954
449.661	4.956
449.868	3.85908
450.075	3.79713
450.281	3.02162
450.488	3.38361
450.695	3.61124
450.901	3.65234
451.108	3.67722
451.315	4.45122
451.521	3.94526
451.728	4.62602
451.935	3.61558
452.141	4.01686
452.348	4.00919
452.554	3.92236
452.761	3.817
452.967	4.82406
453.174	4.1931
453.38	4.21821
453.587	3.49829
453.793	4.1327
454	4.64855
454.206	5.15595
454.413	4.59457
454.619	4.28535
454.825	3.78265
455.032	4.4196
455.238	4.45875
455.445	3.46378
455.651	4.09527
455.857	3.26957
456.064	3.8716
456.27	3.89278
456.476	3.9176
456.682	3.38427
456.889	4.29438
457.095	4.38021
457.301	5.47436
457.507	4.14104
457.714	4.16946
457.92	4.17486
458.126	3.76753
458.332	4.10114
458.538	3.91827
458.744	4.06299
458.951	4.06603
459.157	5.62516
459.363	4.77587
459.569	4.79213
459.775	5.50567
459.981	4.87522
460.187	5.18611
460.393	5.5696
460.599	5.8567
460.805	5.10127
461.011	4.70211
461.217	4.97562
461.423	4.88684
461.629	4.21933
461.835	4.53903
462.041	4.13973
462.247	5.05674
462.453	4.1521
462.658	4.1584
462.864	4.59777
463.07	4.31825
463.276	4.40791
463.482	4.32241
463.688	4.91416
463.893	4.07189
464.099	4.17471
464.305	5.01368
464.511	3.98042
464.716	4.25914
464.922	4.63234
465.128	3.96985
465.333	5.18023
465.539	4.64657
465.745	4.34826
465.95	4.29504
466.156	5.7269
466.362	4.94603
466.567	4.34635
466.773	4.08613
466.978	5.15562
467.184	3.87992
467.389	3.30701
467.595	4.51007
467.8	3.90686
468.006	5.01142
468.211	4.96301
468.417	3.84854
468.622	4.52013
468.828	4.75949
469.033	4.57326
469.239	5.80052
469.444	4.16972
469.649	4.94455
469.855	4.39629
470.06	4.37899
470.266	4.02545
470.471	4.67609
470.676	4.61889
470.881	3.5893
471.087	5.12871
471.292	5.87832
471.497	3.86616
471.703	4.30755
471.908	4.16045
472.113	4.52224
472.318	4.8359
472.523	3.94914
472.729	4.66198
472.934	4.86039
473.139	4.11502
473.344	4.70966
473.549	4.977
473.754	4.1486
473.959	5.90154
474.164	4.00919
474.369	4.40694
474.575	4.94308
474.78	4.54891
474.985	4.09916
475.19	3.57766
475.395	4.12837
475.6	4.47662
475.804	5.24398
476.009	4.49613
476.214	4.49029
476.419	4.33901
476.624	3.6808
476.829	4.03307
477.034	4.87965
477.239	4.11665
477.444	4.78569
477.648	4.79383
477.853	4.72087
478.058	4.36895
478.263	4.07715
478.468	3.95612
478.672	3.98785
478.877	5.1894
479.082	5.26051
479.287	4.72257
479.491	4.47629
479.696	4.07143
479.901	4.83061
480.105	4.90013
480.31	4.19918
480.515	4.47907
480.719	5.60671
480.924	4.30683
481.128	4.05547
481.333	4.69822
481.538	4.62408
481.742	4.62418
481.947	5.34838
482.151	5.8139
482.356	6.06166
482.56	7.29654
482.765	8.0013
482.969	9.63225
483.174	10.86618
483.378	12.71524
483.582	13.08022
483.787	14.40824
483.991	14.60761
484.196	14.96916
484.4	14.65808
484.604	15.30269
484.809	13.64503
485.013	13.02004
485.217	11.81516
485.422	10.60372
485.626	9.57936
485.83	9.03311
486.034	8.51875
486.239	8.63171
486.443	8.74935
486.647	8.81458
486.851	9.60588
487.055	10.41009
487.26	10.03965
487.464	10.72624
487.668	10.3391
487.872	10.6978
488.076	11.01078
488.28	10.43537
488.484	9.84561
488.688	9.6515
488.892	9.34683
489.096	8.74074
489.3	7.8893
489.504	7.43874
489.708	7.19363
489.912	6.99943
490.116	6.81496
490.32	6.25345
490.524	6.98809
490.728	7.46814
490.932	7.63312
491.136	8.00089
491.34	8.90182
491.544	9.17384
491.748	8.96051
491.951	9.0951
492.155	8.78709
492.359	8.74655
492.563	7.82464
492.767	7.44242
492.97	6.75034
493.174	6.06156
493.378	5.52767
493.582	4.73087
493.785	4.69081
493.989	4.72664
494.193	4.76528
494.396	4.50155
494.6	5.00415
494.804	4.69689
495.007	4.2708
495.211	4.48331
495.414	4.52105
495.618	4.75145
495.822	5.31069
496.025	4.68993
496.229	5.00362
496.432	4.30031
496.636	4.74421
496.839	4.61145
497.043	5.36807
497.246	4.86054
497.45	4.52194
497.653	4.75436
497.856	4.7525
498.06	4.27412
498.263	4.59255
498.467	4.47597
498.67	5.04532
498.873	4.86372
499.077	4.57833
499.28	4.54935
499.483	4.79305
499.686	5.02488
499.89	4.82396
500.093	5.15269
500.296	4.33827
500.499	5.41003
500.703	4.67984
500.906	4.82827
501.109	5.44582
501.312	4.73366
501.515	4.58487
501.719	4.79075
501.922	5.24118
502.125	4.67887
502.328	4.59813
502.531	4.22158
502.734	4.56779
502.937	3.8816
503.14	4.70102
503.343	4.17341
503.546	4.50593
503.749	4.30052
503.952	4.98927
504.155	4.22216
504.358	4.88555
504.561	4.65728
504.764	4.04984
504.967	4.61811
505.17	4.63491
505.373	5.2772
505.576	4.64815
505.778	4.97908
505.981	4.24483
506.184	5.22414
506.387	3.89549
506.59	5.64821
506.793	5.27501
506.995	4.92731
507.198	3.76838
507.401	4.95397
507.604	4.90217
507.806	4.22118
508.009	4.28063
508.212	5.09482
508.414	4.33216
508.617	4.45623
508.82	4.73067
509.022	5.32189
509.225	4.71959
509.427	3.9853
509.63	5.32677
509.833	4.67776
510.035	4.54687
510.238	3.94467
510.44	5.27677
510.643	3.83188
510.845	5.59683
511.048	4.81026
511.25	4.4419
511.453	4.57172
511.655	4.80901
511.858	4.50153
512.06	5.02633
512.262	4.72779
512.465	5.08565
512.667	4.39332
512.869	4.19068
513.072	4.80843
513.274	5.01233
513.476	4.8275
513.679	5.06243
513.881	4.19864
514.083	5.45157
514.286	4.36375
514.488	4.35505
514.69	4.24107
514.892	4.03544
515.094	4.8394
515.297	4.29053
515.499	4.70101
515.701	4.15814
515.903	5.46891
516.105	5.44584
516.307	5.02521
516.509	3.82734
516.711	4.03964
516.913	4.68832
517.116	4.62599
517.318	4.40451
517.52	5.16299
517.722	4.95162
517.924	4.14525
518.126	4.8869
518.328	4.50287
518.529	5.11519
518.731	5.93126
518.933	4.52196
519.135	4.79646
519.337	5.43311
519.539	4.98771
519.741	3.98875
519.943	4.53966
520.145	4.5323
520.346	4.94133
520.548	4.46938
520.75	4.70073
520.952	4.48608
521.153	4.74771
521.355	4.89106
521.557	4.25473
521.759	4.77168
521.96	4.55117
522.162	4.10536
522.364	5.13325
522.565	4.321
522.767	5.00226
522.969	5.08913
523.17	4.8615
523.372	4.89967
523.573	4.40623
523.775	4.5559
523.977	4.31128
524.178	5.62259
524.38	4.45167
524.581	5.04508
524.783	4.58327
524.984	4.99343
525.186	4.77139
525.387	5.17725
525.589	5.10743
525.79	5.03617
525.991	4.93496
526.193	5.47466
526.394	4.88604
526.596	5.61593
526.797	5.71357
526.998	5.4637
527.2	5.52143
527.401	6.94976
527.602	7.39887
527.803	8.79592
528.005	9.30355
528.206	9.99769
528.407	10.78085
528.608	10.71343
528.81	10.97948
529.011	10.50954
529.212	11.33887
529.413	10.55441
529.614	9.92633
529.815	9.41985
530.017	8.74532
530.218	7.72144
530.419	6.71549
530.62	6.54202
530.821	6.275
531.022	5.19014
531.223	5.82094
531.424	5.80534
531.625	5.72178
531.826	5.43916
532.027	5.73805
532.228	6.61541
532.429	6.47712
532.63	6.53863
532.831	7.13274
533.032	7.30272
533.233	7.7518
533.433	7.54794
533.634	7.85161
533.835	7.23827
534.036	6.87126
534.237	6.63849
534.438	6.27297
534.638	5.47828
534.839	5.29482
535.04	5.39667
535.241	4.75745
535.441	5.5406
535.642	5.25375
535.843	4.60521
536.043	4.83315
536.244	4.93826
536.445	5.13749
536.645	5.78076
536.846	5.48439
537.047	6.02388
537.247	5.02098
537.448	4.91302
537.648	4.89366
537.849	4.80607
538.049	4.68958
538.25	4.95321
538.451	4.8796
538.651	4.41298
538.851	4.98385
539.052	5.30139
539.252	5.09385
539.453	4.76603
539.653	4.88793
539.854	4.78095
540.054	4.83857
540.254	5.93459
540.455	6.54451
540.655	6.27817
540.855	7.31357
541.056	8.01954
541.256	7.80213
541.456	8.60153
541.657	8.14942
541.857	8.89103
542.057	7.75821
542.257	7.462
542.458	7.88671
542.658	7.8579
542.858	6.44164
543.058	6.73263
543.258	6.19579
543.458	5.22167
543.659	4.91426
543.859	5.51552
544.059	5.21829
544.259	4.88678
544.459	5.33014
544.659	4.69581
544.859	5.02976
545.059	4.6314
545.259	5.13271
545.459	4.92731
545.659	5.25767
545.859	4.88501
546.059	5.05205
546.259	4.51781
546.459	4.21181
546.659	4.41929
546.859	5.18965
547.059	4.9061
547.258	5.03657
547.458	5.1003
547.658	4.3884
547.858	4.2777
548.058	4.85501
548.258	4.63309
548.457	4.33696
548.657	6.09121
548.857	4.64334
549.057	5.19251
549.256	4.99278
549.456	4.52954
549.656	3.76118
549.855	6.04339
550.055	4.59304
550.255	5.77972
550.454	5.01383
550.654	5.32452
550.853	5.7103
551.053	5.15764
551.253	5.02089
551.452	5.25466
551.652	4.09752
551.851	4.06861
552.051	4.55633
552.25	4.58587
552.45	4.44091
552.649	4.49842
552.849	4.33277
553.048	4.9206
553.248	5.16056
553.447	4.22651
553.646	5.26581
553.846	6.33367
554.045	5.59024
554.244	4.07329
554.444	5.67313
554.643	4.44097
554.842	5.75266
555.042	6.0041
555.241	4.49881
555.44	4.30454
555.64	5.07231
555.839	5.70696
556.038	5.074
556.237	4.41943
556.436	4.91092
556.636	5.12638
556.835	4.44137
557.034	5.71412
557.233	4.80054
557.432	4.0675
557.631	5.36013
557.83	4.81962
558.029	4.44247
558.228	4.59683
558.427	4.33695
558.626	5.09286
558.825	4.25787
559.024	4.81735
559.223	6.03222
559.422	4.9148
559.621	5.17873
559.82	3.55255
560.019	4.86861
560.218	4.4817
560.417	3.19974
560.616	4.63234
560.815	6.96045
561.014	3.9625
561.212	5.79032
561.411	4.93967
561.61	3.94943
561.809	4.63726
562.008	6.1007
562.206	4.70127
562.405	5.12818
562.604	4.79638
562.803	4.98001
563.001	4.86518
563.2	3.96919
563.399	5.21883
563.597	4.43569
563.796	4.96499
563.995	4.0517
564.193	5.3458
564.392	4.55887
564.59	6.31613
564.789	3.74644
564.988	4.75192
565.186	4.91892
565.385	4.72908
565.583	4.60363
565.782	4.80222
565.98	4.70515
566.179	4.71983
566.377	4.15926
566.575	4.29478
566.774	5.69133
566.972	5.34002
567.171	6.05252
567.369	5.80587
567.567	4.98284
567.766	5.0532
567.964	3.54964
568.162	5.29718
568.361	5.76586
568.559	4.76583
568.757	5.0176
568.956	4.89013
569.154	4.84394
569.352	5.37615
569.55	4.827
569.748	4.82477
569.947	4.29295
570.145	4.30315
570.343	4.27414
570.541	5.87531
570.739	4.08299
570.937	4.96116
571.135	5.18852
571.333	6.47041
571.532	6.17484
571.73	5.19497
571.928	5.58871
572.126	5.33805
572.324	4.69801
572.522	5.62174
572.72	6.58299
572.918	4.9169
573.116	5.14585
573.313	4.73977
573.511	4.86947
573.709	4.65449
573.907	5.52259
574.105	4.75403
574.303	4.01086
574.501	4.02881
574.699	5.2232
574.896	5.08187
575.094	5.46733
575.292	4.16981
575.49	5.53832
575.688	4.82893
575.885	5.8818
576.083	6.49049
576.281	5.38881
576.478	4.43259
576.676	5.32217
576.874	4.24343
577.071	4.9874
577.269	6.55476
577.467	4.83031
577.664	5.03703
577.862	5.49548
578.059	4.54999
578.257	5.61093
578.455	4.95828
578.652	5.05917
578.85	3.71733
579.047	5.25947
579.245	4.82248
579.442	5.20872
579.64	4.90719
579.837	3.78607
580.034	7.02645
580.232	4.76216
580.429	4.36458
580.627	5.45251
580.824	6.0734
581.021	5.55099
581.219	4.75851
581.416	4.65925
581.613	6.30718
581.811	6.02581
582.008	4.53019
582.205	5.77842
582.402	5.47463
582.6	6.37039
582.797	5.24937
582.994	5.55556
583.191	5.95324
583.388	5.12663
583.586	5.73728
583.783	6.26339
583.98	4.48314
584.177	5.42274
584.374	3.26558
584.571	5.04669
584.768	5.34828
584.965	4.9755
585.162	5.92779
585.359	6.45371
585.556	5.36219
585.753	5.61102
585.95	4.17157
586.147	4.54077
586.344	5.68164
586.541	5.20063
586.738	4.41718
586.935	5.27093
587.132	4.75782
587.329	6.203
587.526	5.2759
587.722	9.30902
587.919	4.32255
588.116	5.63233
588.313	6.49133
588.51	6.96758
588.706	5.17422
588.903	5.76777
589.1	6.04848
589.297	7.82929
589.493	5.39935
589.69	5.86044
589.887	4.9925
590.083	4.44093
590.28	4.76063
590.477	6.24011
590.673	5.76652
590.87	6.50296
591.067	4.90354
591.263	5.64584
591.46	5.60072
591.656	5.19883
591.853	6.83229
592.049	4.84042
592.246	4.87682
592.442	6.46892
592.639	6.26854
592.835	4.70099
593.032	5.83636
593.228	4.36278
593.425	4.39154
593.621	4.28006
593.817	5.65752
594.014	4.74219
594.21	5.71162
594.406	6.32787
594.603	5.55076
594.799	4.9864
594.995	3.62343
595.192	6.22005
595.388	5.08226
595.584	4.92602
595.78	4.25855
595.977	7.77024
596.173	6.71604
596.369	5.1982
596.565	4.76145
596.761	4.31101
596.957	6.25446
597.154	4.67053
597.35	4.92537
597.546	4.78944
597.742	5.66014
597.938	5.47813
598.134	4.5566
598.33	5.3345
598.526	6.32897
598.722	5.75898
598.918	6.85974
599.114	6.06862
599.31	4.44508
599.506	5.60303
599.702	4.95132
599.898	5.79919
600.094	6.37117
600.29	6.41808
600.485	6.36696
600.681	5.23501
600.877	7.06356
601.073	5.51459
601.269	7.66292
601.465	7.07653
601.66	4.75354
601.856	4.1032
602.052	7.58983
602.248	5.4025
602.443	3.89646
602.639	4.51858
602.835	4.93134
603.03	4.92206
603.226	6.20999
603.422	4.85938
603.617	5.19196
603.813	5.18372
604.009	4.93834
604.204	6.43435
604.4	4.28498
604.595	6.26134
604.791	4.63403
604.986	5.52975
605.182	4.79202
605.377	5.02394
605.573	5.08175
605.768	5.33812
605.964	5.76395
606.159	5.99835
606.355	6.36679
606.55	5.09133
606.746	6.38599
606.941	5.59615
607.136	7.1787
607.332	8.13438
607.527	4.50613
607.722	5.9147
607.918	5.41092
608.113	4.90255
608.308	6.29085
608.503	6.18665
608.699	6.00991
608.894	5.91276
609.089	4.86873
609.284	5.8843
609.479	5.18139
609.675	6.08546
609.87	5.43064
610.065	6.09386
610.26	6.2888
610.455	6.18953
610.65	5.57429
610.845	5.91261
611.04	6.34644
611.235	5.51986
611.43	5.57661
611.625	4.81902
611.82	7.00522
612.015	5.19684
612.21	7.43408
612.405	4.51439
612.6	7.5861
612.795	7.34898
612.99	6.57683
613.185	4.97181
613.38	5.3054
613.575	6.18885
613.77	8.80918
613.965	4.61886
614.159	5.26245
614.354	7.19983
614.549	7.16428
614.744	6.61853
614.938	4.90685
615.133	4.71908
615.328	7.50544
615.523	7.30686
615.717	9.02359
615.912	5.5384
616.107	6.25868
616.301	5.72901
616.496	5.16293
616.691	7.97818
616.885	6.91385
617.08	8.93558
617.274	7.15693
617.469	8.32726
617.664	6.79436
617.858	5.60382
618.053	6.40065
618.247	5.85904
618.442	3.97969
618.636	7.62545
618.831	5.37431
619.025	5.65621
619.219	9.26907
619.414	2.80843
619.608	5.84372
619.803	5.328
619.997	8.50287
620.191	7.39954
620.386	6.74591
620.58	6.06416
620.774	4.3731
620.969	4.46641
621.163	6.07565
621.357	4.96153
621.551	6.05464
621.746	6.32709
621.94	6.04909
622.134	10.00901
622.328	8.61009
622.522	4.71469
622.716	7.45466
622.911	7.3469
623.105	7.31845
623.299	6.5038
623.493	9.78718
623.687	5.42718
623.881	5.60719
624.075	7.02421
624.269	7.4713
624.463	4.26832
624.657	4.43707
624.851	6.94282
625.045	7.12397
625.239	7.2026
625.433	5.35154
625.627	8.35779
625.821	5.67327
626.015	5.30257
626.209	6.21764
626.403	4.40733
626.596	6.66807
626.79	7.03222
626.984	4.92204
627.178	6.73764
627.372	6.50833
627.565	6.97747
627.759	4.61296
627.953	4.98764
628.147	6.40267
628.34	6.91364
628.534	8.46687
628.728	5.97756
628.921	7.44332
629.115	7.18794
629.309	7.4615
629.502	7.69023
629.696	6.57171
629.89	6.44952
630.083	6.89863
630.277	6.64692
630.47	8.45522
630.664	6.02251
630.857	4.72994
631.051	7.39381
631.244	7.91477
631.438	7.48305
631.631	5.8688
631.825	8.09061
632.018	7.137
632.212	8.80592
632.405	7.79004
632.598	5.57176
632.792	6.89115
632.985	4.02478
633.178	6.07146
633.372	6.34867
633.565	6.37857
633.758	7.9511
633.952	5.61917
634.145	5.51628
634.338	6.39035
634.531	5.79167
634.724	5.52231
634.918	6.5115
635.111	6.15968
635.304	5.76466
635.497	9.32476
635.69	6.93487
635.883	8.03749
636.077	5.21969
636.27	7.191
636.463	7.09711
636.656	7.17784
636.849	6.22465
637.042	7.36279
637.235	9.33952
637.428	7.7153
637.621	7.14645
637.814	8.72739
638.007	8.86363
638.2	8.91663
638.393	9.33473
638.586	5.13648
638.778	6.28219
638.971	6.95998
639.164	8.79153
639.357	7.51565
639.55	9.17539
639.743	7.81196
639.935	7.96843
640.128	10.47607
640.321	8.23619
640.514	7.49439
640.707	10.8813
640.899	8.36294
641.092	4.79265
641.285	22.76355
641.477	4.27701
641.67	11.02114
641.863	8.9443
642.055	7.56242
642.248	7.41945
642.441	6.8938
642.633	8.24578
642.826	9.275
643.018	9.4166
643.211	10.17725
643.403	10.77579
643.596	10.63276
643.788	10.0658
643.981	6.75653
644.173	8.62138
644.366	6.82306
644.558	5.08112
644.751	9.05815
644.943	5.6345
645.135	10.21338
645.328	10.48509
645.52	8.7765
645.712	9.13011
645.905	12.87706
646.097	5.96034
646.289	8.37292
646.482	11.10996
646.674	6.57034
646.866	9.44645
647.058	8.6003
647.251	6.31568
647.443	6.95865
647.635	7.56097
647.827	6.15194
648.019	5.73908
648.211	7.56254
648.404	8.2647
648.596	10.2367
648.788	8.38452
648.98	7.94713
649.172	8.6936
649.364	8.6066
649.556	5.15956
649.748	11.76093
649.94	6.16598
650.132	8.90059
650.324	6.8092
650.516	6.77612
650.708	9.47143
650.9	5.57702
651.092	5.61428
651.284	5.67978
651.476	5.96752
651.667	9.04538
651.859	10.11275
652.051	7.64332
652.243	8.07274
652.435	7.32907
652.627	8.65483
652.818	8.44298
653.01	5.42699
653.202	6.81989
653.394	7.30452
653.585	8.7817
653.777	15.38184
653.969	10.64231
654.16	10.11942
654.352	6.58232
654.544	7.87496
654.735	10.27993
654.927	8.16011
655.118	10.59677
655.31	9.58907
655.502	10.11544
655.693	7.80353
655.885	8.79111
656.076	10.57661
656.268	8.60852
656.459	10.82564
656.651	10.62031
656.842	7.52
657.034	7.02976
657.225	9.85717
657.416	10.70868
657.608	10.7488
657.799	8.15659
657.99	10.12653
658.182	6.85131
658.373	6.96525
658.564	10.12985
658.756	8.72344
658.947	7.70032
659.138	6.60409
659.33	7.16536
659.521	6.82518
659.712	7.78151
659.903	7.60192
660.094	7.18361
660.286	5.72337
660.477	10.83635
660.668	9.18483
660.859	8.05113
661.05	6.09394
661.241	9.19827
661.432	9.05048
661.623	7.92815
661.814	7.50131
662.006	6.02393
662.197	8.98425
662.388	10.54294
662.579	9.11224
662.77	11.0552
662.96	13.51487
663.151	10.41968
663.342	5.63885
663.533	9.57869
663.724	8.34869
663.915	12.48577
664.106	8.75873
664.297	12.29018
664.488	10.00118
664.678	7.69742
664.869	10.49773
665.06	10.80028
665.251	9.1154
665.442	10.20081
665.632	7.14803
665.823	12.8647
666.014	4.36225
666.204	10.38233
666.395	11.44116
666.586	13.74175
666.776	10.40643
666.967	12.62479
667.158	9.26666
667.348	12.2487
667.539	7.25413
667.729	11.17539
667.92	7.88635
668.111	11.16717
668.301	10.84314
668.492	8.71829
668.682	9.28975
668.873	9.00735
669.063	6.91722
669.253	9.62003
669.444	12.57095
669.634	8.97227
669.825	12.68164
670.015	11.53125
670.206	8.01497
670.396	13.65035
670.586	8.89695
670.777	10.25307
670.967	5.42225
671.157	9.07263
671.347	8.05291
671.538	12.59401
671.728	10.78388
671.918	13.12733
672.108	11.69356
672.299	9.30946
672.489	10.0473
672.679	8.39668
672.869	11.2219
673.059	14.34099
673.249	11.16815
673.44	7.58567
673.63	8.90165
673.82	11.86584
674.01	7.64842
674.2	11.00723
674.39	15.52709
674.58	10.98585
674.77	10.11041
674.96	9.30378
675.15	18.6974
675.34	12.17076
675.53	10.18522
675.72	8.93798
675.91	6.96606
676.099	13.89406
676.289	15.36055
676.479	12.60352
676.669	8.80402
676.859	11.54095
677.049	8.77027
677.238	10.10111
677.428	13.88408
677.618	11.11872
677.808	14.01877
677.997	11.22308
678.187	8.27403
678.377	10.0024
678.567	8.67361
678.756	9.29558
678.946	9.61631
679.136	7.21546
679.325	8.8628
679.515	8.45856
679.704	7.19943
679.894	11.84315
680.084	10.61645
680.273	12.57459
680.463	7.95159
680.652	8.05685
680.842	9.62751
681.031	11.55397
681.221	8.19914
681.41	10.67096
681.6	9.69759
681.789	11.39853
681.978	12.35594
682.168	10.95911
682.357	10.62832
682.547	11.31513
682.736	10.84023
682.925	13.21462
683.115	12.98134
683.304	11.8399
683.493	10.63384
683.682	12.0154
683.872	11.44394
684.061	13.11967
684.25	11.9349
684.439	16.39626
684.629	12.33726
684.818	18.88088
685.007	11.00393
685.196	10.27756
685.385	15.57251
685.574	12.07369
685.763	11.704
685.952	11.90208
686.142	8.35951
686.331	14.2043
686.52	7.61769
686.709	16.53118
686.898	15.58722
687.087	12.63003
687.276	15.4603
687.465	14.41439
687.654	10.71323
687.842	15.08823
688.031	8.33751
688.22	14.94921
688.409	11.89238
688.598	11.94234
688.787	17.55731
688.976	11.52766
689.165	16.91816
689.353	10.55049
689.542	13.18902
689.731	14.47447
689.92	17.4998
690.108	14.14051
690.297	11.52146
690.486	12.55894
690.675	13.40755
690.863	16.21862
691.052	16.17844
691.241	12.8988
691.429	13.19524
691.618	15.80524
691.806	9.32226
691.995	11.56737
692.184	12.41144
692.372	11.4463
692.561	12.27972
692.749	13.15384
692.938	21.82051
693.126	13.651
693.315	11.76782
693.503	14.82675
693.692	15.6651
693.88	15.12708
694.068	18.40436
694.257	13.53684
694.445	14.45914
694.634	7.98395
694.822	15.37972
695.01	15.9602
695.199	19.26514
695.387	17.28828
695.575	16.74134
695.763	12.58309
695.952	12.16242
696.14	8.66514
696.328	11.16003
696.516	13.47331
696.705	13.6429
696.893	13.3413
697.081	8.80168
697.269	15.24432
697.457	10.23295
697.645	9.2797
697.833	14.55154
698.021	10.20227
698.21	10.8037
698.398	11.46818
698.586	8.99953
698.774	8.62497
698.962	11.69059
699.15	8.94275
699.338	7.84209
699.526	12.85412
699.714	10.00096
699.901	9.96688
700.089	13.40266
700.277	9.83701
700.465	11.41948
700.653	13.72894
700.841	13.27232
701.029	10.24441
701.217	16.11656
701.404	12.37938
701.592	16.48688
701.78	19.84261
701.968	11.98892
702.155	12.30797
702.343	10.05328
702.531	17.29991
702.718	14.53115
702.906	11.30951
703.094	12.07121
703.281	16.93785
703.469	12.20546
703.657	16.74233
703.844	24.32844
704.032	19.65736
704.219	13.04384
704.407	15.45345
704.595	18.57291
704.782	16.34374
704.97	14.52995
705.157	13.27596
705.345	20.58177
705.532	26.31122
705.719	17.8808
705.907	20.60395
706.094	17.15179
706.282	24.24272
706.469	17.12879
706.656	18.61933
706.844	16.54869
707.031	21.98872
707.218	20.50008
707.406	23.94079
707.593	20.87968
707.78	21.45145
707.968	19.52864
708.155	16.86859
708.342	21.87095
708.529	21.96085
708.716	20.96003
708.904	24.79397
709.091	21.66375
709.278	16.65489
709.465	25.89577
709.652	24.70415
709.839	23.68964
710.026	19.80148
710.213	13.88965
710.4	19.72802
710.587	20.60561
710.774	22.67764
710.961	22.5902
711.148	19.84843
711.335	22.61643
711.522	18.6481
711.709	20.92899
711.896	25.89794
712.083	22.99284
712.27	16.68018
712.457	20.61895
712.644	14.65257
712.831	26.40957
713.017	20.6857
713.204	21.40924
713.391	16.60635
713.578	22.06484
713.765	24.06695
713.951	20.14116
714.138	29.56183
714.325	19.4188
714.512	17.87924
714.698	14.63661
714.885	22.72168
715.072	17.85365
715.258	16.76273
715.445	15.20837
715.631	21.22492
715.818	8.33715
716.005	14.71103
716.191	19.0395
716.378	15.14041
716.564	19.01924
716.751	13.37009
716.937	14.83976
717.124	20.16447
717.31	14.13463
717.497	24.07854
717.683	14.07442
717.869	24.05216
718.056	14.54027
718.242	18.57903
718.429	16.38578
718.615	12.52333
718.801	16.47443
718.988	21.32922
719.174	19.41025
719.36	16.06708
719.547	22.07687
719.733	18.88777
719.919	18.52058
720.105	19.16476
720.291	17.58956
720.478	18.508
720.664	16.35212
720.85	14.91563
721.036	29.06688
721.222	24.71041
721.408	17.40179
721.595	24.94332
721.781	24.29652
721.967	22.38742
722.153	24.93598
722.339	20.46223
722.525	19.41881
722.711	13.65382
722.897	12.83076
723.083	16.95723
723.269	23.23407
723.455	30.87873
723.641	36.08263
723.827	18.70364
724.012	21.05106
724.198	19.64214
724.384	24.01497
724.57	20.09257
724.756	12.8688
724.942	10.42317
725.127	23.74924
725.313	24.17559
725.499	23.92057
725.685	27.75377
725.87	19.91415
726.056	15.10709
726.242	23.85063
726.428	11.89147
726.613	22.38158
726.799	16.94829
726.985	14.12935
727.17	11.83311
727.356	28.17412
727.541	15.34285
727.727	18.15607
727.913	22.1106
728.098	17.02844
728.284	22.068
728.469	14.24512
728.655	15.47275
728.84	23.35724
729.026	22.48228
729.211	22.34844
729.397	20.03814
729.582	22.23287
729.767	17.90051
729.953	20.45645
730.138	25.07307
730.323	9.29284
730.509	13.44565
730.694	26.25504
730.879	22.0114
731.065	20.19529
731.25	29.8641
731.435	21.86009
731.621	12.37187
731.806	16.47714
731.991	20.29466
732.176	13.34375
732.361	25.5793
732.547	20.11687
732.732	12.43265
732.917	30.26571
733.102	13.83217
733.287	16.73936
733.472	18.59216
733.657	18.68261
733.842	12.80896
734.027	16.75549
734.212	18.12632
734.397	15.87745
734.582	19.04657
734.767	22.93828
734.952	25.93036
735.137	8.35193
735.322	25.80111
735.507	20.60138
735.692	20.4364
735.877	29.29693
736.062	29.085
736.247	20.61844
736.431	18.80207
736.616	25.12177
736.801	21.51421
736.986	19.63173
737.171	14.95852
737.355	14.81444
737.54	26.89083
737.725	20.73405
737.909	33.99039
738.094	17.70743
738.279	23.62466
738.463	18.37559
738.648	23.92383
738.833	21.17462
739.017	31.27927
739.202	18.31269
739.386	18.5644
739.571	15.84013
739.756	24.25102
739.94	19.86198
740.125	23.15758
740.309	16.72069
740.494	24.63032
740.678	21.75997
740.863	23.29144
741.047	21.44262
741.231	28.69979
741.416	17.33879
741.6	29.02749
741.785	16.25827
741.969	24.4012
742.153	28.61122
742.338	10.39467
742.522	20.00768
742.706	25.42809
742.89	14.53592
743.075	20.38141
743.259	27.01112
743.443	26.78074
743.627	27.39936
743.812	32.56505
743.996	12.49604
744.18	19.31576
744.364	18.54313
744.548	34.47805
744.732	19.76527
744.916	26.13393
745.1	24.29296
745.285	19.18095
745.469	23.81835
745.653	30.3849
745.837	14.44872
746.021	34.4969
746.205	28.48756
746.389	22.52955
746.573	19.30689
746.757	29.41037
746.94	18.92879
747.124	27.9049
747.308	15.17273
747.492	28.27237
747.676	16.76285
747.86	36.86022
748.044	19.20249
748.227	13.63833
748.411	44.50046
748.595	22.70196
748.779	18.13591
748.963	23.12323
749.146	22.12875
749.33	17.24116
749.514	16.61805
749.697	28.58218
749.881	17.51066
750.065	16.00593
750.248	21.86488
750.432	35.40261
750.616	22.34168
750.799	15.49743
750.983	37.57981
751.166	36.58431
751.35	12.77786
751.533	26.38859
751.717	31.76857
751.9	31.04948
752.084	19.84744
752.267	17.2185
752.451	17.97509
752.634	23.45748
752.818	25.94353
753.001	28.0228
753.184	29.20805
753.368	24.38755
753.551	3.86246
753.734	17.96748
753.918	37.75125
754.101	18.48745
754.284	27.25667
754.467	20.34781
754.651	17.65275
754.834	18.38597
755.017	29.24225
755.2	29.10757
755.384	17.16993
755.567	25.37024
755.75	27.97214
755.933	19.28789
756.116	27.47494
756.299	18.67063
756.482	17.21486
756.665	27.13914
756.848	23.39579
757.032	23.56436
757.215	13.9519
757.398	16.90877
757.581	17.56589
757.764	39.99279
757.947	22.28608
758.129	28.32022
758.312	7.15551
758.495	21.70053
758.678	22.32999
758.861	20.48333
759.044	34.19247
759.227	16.85826
759.41	16.71129
759.592	26.23052
759.775	20.89018
759.958	29.25014
760.141	14.67881
760.324	37.20512
760.506	31.65752
760.689	26.61244
760.872	37.26296
761.054	25.40008
761.237	21.19913
761.42	23.32887
761.602	27.55955
761.785	25.14191
761.968	29.78874
762.15	34.42059
762.333	22.21264
762.515	25.52239
762.698	20.00984
762.88	28.44805
763.063	26.15707
763.245	29.9901
763.428	17.63132
763.61	19.64585
763.793	15.28539
763.975	24.46414
764.158	20.26821
764.34	19.26348
764.522	16.45905
764.705	20.52683
764.887	31.34076
765.069	13.62708
765.252	25.6787
765.434	27.00565
765.616	22.7464
765.799	17.84744
765.981	26.58425
766.163	17.29234
766.345	31.57612
766.528	17.2908
766.71	9.51232
766.892	23.96343
767.074	31.74312
767.256	21.16588
767.438	34.85863
767.62	24.36919
767.802	39.97251
767.985	27.59227
768.167	35.74278
768.349	19.3589
768.531	26.34004
768.713	24.76312
768.895	29.2773
769.077	25.4544
769.259	41.92898
769.441	58.23476
769.623	29.70182
769.804	35.32357
769.986	33.12075
770.168	39.63866
770.35	50.10537
770.532	37.98459
770.714	41.04345
770.896	40.3961
771.077	16.52272
771.259	42.93224
771.441	38.1292
771.623	44.06604
771.804	58.68533
771.986	17.78505
772.168	28.50598
772.35	42.34266
772.531	60.46765
772.713	35.57667
772.894	46.82928
773.076	35.54915
773.258	28.6983
773.439	49.01371
773.621	54.41518
773.802	22.73202
773.984	29.31983
774.166	36.47937
774.347	53.1184
774.529	44.97841
774.71	14.63773
774.891	33.50055
775.073	28.65182
775.254	49.24961
775.436	27.48236
775.617	60.12851
775.799	29.5443
775.98	49.04693
776.161	55.00187
776.343	56.78711
776.524	34.74402
776.705	34.60495
776.886	16.41929
777.068	36.58851
777.249	84.55781
777.43	57.44788
777.611	23.3419
777.793	31.42363
777.974	56.25104
778.155	28.28029
778.336	26.27226
778.517	64.30131
778.698	26.88222
778.879	15.92014
779.061	8.95118
779.242	40.90312
779.423	38.80542
779.604	29.47152
779.785	31.38384
779.966	38.10244
780.147	47.94276
780.328	46.08847
780.509	67.59544
780.69	46.67649
780.871	29.71193
781.051	19.6304
781.232	37.31815
781.413	37.39897
781.594	30.77601
781.775	29.99828
781.956	26.19842
782.137	13.92858
782.317	30.83531
782.498	37.68833
782.679	35.71004
782.86	37.91186
783.04	27.01477
783.221	37.85827
783.402	59.31048
783.583	36.18277
783.763	46.04597
783.944	29.20898
784.124	21.28382
784.305	57.46237
784.486	43.67728
784.666	34.12572
784.847	17.70897
785.027	80.31306
785.208	28.05534
785.388	27.30173
785.569	27.60006
785.749	32.43809
785.93	30.46993
786.11	19.01724
786.291	42.29646
786.471	37.48181
786.652	46.09867
786.832	34.70557
787.012	38.00693
787.193	23.27343
787.373	36.28583
787.553	28.86942
787.734	37.20265
787.914	32.64077
788.094	48.47285
788.275	38.01256
788.455	32.06178
788.635	23.10756
788.815	37.89663
788.995	25.69009
789.176	19.22217
789.356	27.24585
789.536	33.22897
789.716	40.19034
789.896	27.31465
790.076	30.1007
790.256	38.81548
790.436	13.06747
790.616	24.84504
790.796	36.8776
790.976	30.37331
791.156	28.6117
791.336	42.59765
791.516	39.26197
791.696	32.68488
791.876	19.47683
792.056	37.05753
792.236	47.26167
792.416	45.32719
792.596	39.98625
792.776	39.91925
792.956	44.31011
793.135	57.02684
793.315	21.32456
793.495	47.99787
793.675	44.59857
793.854	45.07449
794.034	47.30261
794.214	23.24543
794.394	44.32972
794.573	50.97507
794.753	36.67673
794.933	25.62725
795.112	37.49298
795.292	47.22216
795.472	55.96508
795.651	20.98889
795.831	35.66885
796.01	31.66145
796.19	31.36749
796.369	36.06694
796.549	39.74162
796.728	33.57531
796.908	21.18778
797.087	24.33245
797.267	32.25388
797.446	23.44974
797.626	40.74926
797.805	39.57749
797.984	25.32278
798.164	44.49445
798.343	26.35653
798.522	37.34544
798.702	35.94528
798.881	22.35216
799.06	31.06288
799.239	15.35967
799.419	24.84508
799.598	55.45015
799.777	40.65636
799.956	48.01315
800.136	30.99037
800.315	24.94531
800.494	38.95635
800.673	47.06954
800.852	43.4749
801.031	50.28101
801.21	42.13927
801.389	29.53977
801.568	37.44972
801.747	58.81617
801.926	35.13316
802.105	53.81214
802.284	30.30326
802.463	56.30577
802.642	37.63274
802.821	37.88381
803	51.07731
803.179	46.99328
803.358	48.36275
803.537	27.15485
803.716	36.15279
803.895	27.27782
804.073	32.31983
804.252	27.87187
804.431	40.7267
804.61	34.21138
804.789	45.528
804.967	29.30949
805.146	30.30183
805.325	64.18679
805.503	41.13502
805.682	19.7591
805.861	78.81876
806.039	53.33373
806.218	30.18872
806.397	36.9947
806.575	35.76996
806.754	39.79122
806.932	25.80116
807.111	48.19632
807.289	47.68526
807.468	35.72273
807.646	50.10683
807.825	42.04841
808.003	37.15073
808.182	48.39353
808.36	37.58663
808.539	25.85103
808.717	54.27845
808.895	28.3966
809.074	39.05812
809.252	34.52904
809.43	43.75903
809.609	52.22924
809.787	54.57563
809.965	31.50992
810.144	36.12746
810.322	33.78964
810.5	42.01193
810.678	31.43678
810.856	65.80994
811.035	50.62522
811.213	45.77654
811.391	52.30317
811.569	39.99892
811.747	86.28065
811.925	52.12249
812.103	31.03249
812.281	38.40167
812.459	61.65144
812.637	62.23724
812.816	48.48789
812.994	65.51027
813.171	53.77851
813.349	46.30811
813.527	50.05243
813.705	56.35148
813.883	71.5937
814.061	51.08173
814.239	63.1255
814.417	71.02826
814.595	47.05973
814.773	44.67352
814.95	38.84228
815.128	45.95033
815.306	39.42194
815.484	35.60303
815.662	26.45682
815.839	24.35073
816.017	31.16044
816.195	53.53388
816.372	32.87598
816.55	48.21819
816.728	61.58136
816.905	35.40512
817.083	61.65013
817.261	37.42945
817.438	84.35294
817.616	64.31244
817.793	32.41461
817.971	50.38856
818.148	47.44676
818.326	57.44878
818.503	43.02791
818.681	61.93575
818.858	35.91974
819.036	39.64388
819.213	42.63671
819.391	31.52421
819.568	31.08457
819.745	26.5015
819.923	49.70458
820.1	35.39443
820.277	29.92948
820.455	34.4409
820.632	37.68408
820.809	41.17438
820.986	25.25504
821.164	20.29946
821.341	18.05956
821.518	29.15221
821.695	20.23602
821.872	18.52437
822.05	15.72153
822.227	12.50551
822.404	12.99282
822.581	15.43316
822.758	12.45623
822.935	12.7181
823.112	14.09939
823.289	11.49512
823.466	14.46004
823.643	13.35714
823.82	16.17848
823.997	13.94513
824.174	16.67379
824.351	23.23351
824.528	20.80634
824.705	18.73898
824.882	21.3945
825.059	28.56216
825.236	19.61013
825.412	20.60794
825.589	25.35199
825.766	38.20258
825.943	22.70224
826.12	26.37137
826.296	18.20618
826.473	25.09663
826.65	24.45453
826.827	30.03974
827.003	19.7134
827.18	22.44702
827.357	25.32902
827.533	21.4896
827.71	11.34606
827.887	18.68558
828.063	21.8444
828.24	17.54613
828.416	24.64434
828.593	19.86308
828.769	28.85804
828.946	29.85194
829.122	29.64797
829.299	28.66606
829.475	17.76159
829.652	28.40541
829.828	48.25243
830.005	28.97765
830.181	42.69821
830.357	30.52881
830.534	43.68404
830.71	34.01877
830.886	41.74587
831.063	39.87107
831.239	54.207
831.415	26.71701
831.592	57.6454
831.768	35.80609
831.944	30.40911
832.12	61.14564
832.296	58.64233
832.473	48.15028
832.649	32.57893
832.825	47.91655
833.001	28.78649
833.177	41.87704
833.353	38.70397
833.529	22.41421
833.705	34.50713
833.881	23.02756
834.058	21.25435
834.234	24.03417
834.41	23.02677
834.586	18.04962
834.761	21.9396
834.937	25.10576
835.113	25.18483
835.289	21.545
835.465	25.52998
835.641	23.17514
835.817	25.20684
835.993	44.42143
836.169	22.3587
836.344	34.28812
836.52	38.86942
836.696	37.22373
836.872	28.63543
837.048	86.52527
837.223	32.05237
837.399	64.33738
837.575	47.63513
837.75	46.52963
837.926	65.41465
838.102	97.09155
838.277	74.80875
838.453	109.26866
838.628	105.93978
838.804	38.6035
838.98	93.42776
839.155	46.27627
839.331	69.4355
839.506	47.21251
839.682	48.5926
839.857	67.40352
840.033	77.73604
840.208	36.23914
840.384	17.3187
840.559	36.10651
840.734	57.85443
840.91	72.01219
841.085	45.22653
841.26	42.45815
841.436	39.4797
841.611	38.25695
841.786	60.95713
841.962	77.9487
842.137	49.86591
842.312	30.44716
842.487	44.46392
842.663	37.91305
842.838	45.76005
843.013	145.05396
843.188	71.62295
843.363	74.19375
843.538	122.16684
843.714	122.33488
843.889	128.60165
844.064	135.84307
844.239	109.03247
844.414	125.73168
844.589	82.84978
844.764	156.34146
844.939	151.51052
845.114	167.38361
845.289	157.93319
845.464	222.55587
845.639	150.03452
845.814	66.76539
845.989	83.79518
846.163	103.09368
846.338	112.21255
846.513	153.74101
846.688	103.91675
846.863	106.12259
847.038	96.70807
847.212	106.03967
847.387	106.82504
847.562	107.73759
847.737	141.53499
847.911	50.96753
848.086	59.86281
848.261	227.65646
848.435	95.13682
848.61	144.25443
848.785	79.56996
848.959	152.78038
849.134	211.79213
849.308	220.45546
849.483	111.82736
849.658	178.89914
849.832	96.77557
850.007	80.68009
850.181	241.83456
850.356	90.13437
850.53	232.46184
850.705	64.1871
850.879	41.98357
851.053	101.65399
851.228	89.30474
851.402	127.38654
851.577	158.66634
851.751	182.97828
851.925	115.23822
852.099	49.11448
852.274	82.24913
852.448	109.11313
852.622	141.8411
852.797	120.2959
852.971	108.59439
853.145	116.96763
853.319	340.96137
853.493	163.11465
853.668	87.5429
853.842	206.74687
854.016	173.00301
854.19	197.95359
854.364	122.62792
854.538	128.73507
854.712	176.42249
854.886	107.58149
855.06	94.18091
855.234	46.16614
855.408	185.42456
855.582	157.54625
855.756	159.03288
855.93	207.38896
856.104	138.36984
856.278	154.31943
856.452	112.54359
856.626	151.47834
856.8	248.04793
856.973	141.296
857.147	134.88842
857.321	136.40237
857.495	171.52733
857.669	115.30627
857.842	97.38012
858.016	168.19546
858.19	87.54581
858.364	275.86565
858.537	98.23065
858.711	121.72341
858.885	109.50503
859.058	91.19878
859.232	54.51014
859.405	59.13757
859.579	159.01489
859.753	132.91656
859.926	89.39782
860.1	62.56462
860.273	116.9708
860.447	193.74705
860.62	104.2916
860.794	236.15451
860.967	138.23741
861.141	172.73679
861.314	254.79373
861.487	158.09565
861.661	196.46638
861.834	193.52451
862.008	166.78094
862.181	120.75238
862.354	128.73806
862.528	144.69074
862.701	96.55147
862.874	73.75858
863.047	105.27866
863.221	103.19622
863.394	50.1819
863.567	198.30634
863.74	36.2826
863.913	164.28014
864.087	141.95747
864.26	166.24234
864.433	122.16043
864.606	217.15516
864.779	129.8302
864.952	58.64584
865.125	98.75539
865.298	115.6537
865.471	124.11829
865.644	259.29733
865.817	201.01538
865.99	162.87018
866.163	188.68725
866.336	103.18035
866.509	121.11335
866.682	103.59538
866.855	184.97512
867.028	72.02172
867.2	155.27483
867.373	44.75476
867.546	137.02605
867.719	253.55828
867.892	149.13892
868.064	83.32715
868.237	142.28468
868.41	116.63103
868.583	67.85221
868.755	73.20135
868.928	120.43573
869.101	261.59026
869.273	188.06253
869.446	155.33705
869.619	178.85875
869.791	121.70618
869.964	176.94718
870.136	165.21718
870.309	126.7087
870.481	133.02248
870.654	60.20629
870.826	129.18197
870.999	98.32842
871.171	169.16314
871.344	98.12904
871.516	108.26933
871.689	87.3859
871.861	137.11606
872.033	89.51199
872.206	111.27828
872.378	174.80752
872.55	115.0844
872.723	67.03048
872.895	110.90387
873.067	176.75105
873.24	192.7856
873.412	101.23156
873.584	110.14201
873.756	109.14364
873.928	146.05391
874.101	142.43353
874.273	154.60092
874.445	52.26992
874.617	75.27418
874.789	132.95037
874.961	105.03334
875.133	150.17259
875.305	126.63709
875.477	80.22166
875.649	64.73749
875.821	82.30612
875.993	217.42744
876.165	79.59433
876.337	146.03149
876.509	110.82087
876.681	144.96111
876.853	136.3327
877.025	134.65813
877.197	94.17255
877.369	84.88448
877.541	167.99537
877.712	45.77036
877.884	73.25086
878.056	158.68788
878.228	80.88661
878.4	148.52221
878.571	80.5619
878.743	60.76273
878.915	139.38047
879.086	78.46197
879.258	95.53947
879.43	90.24451
879.601	79.13811
879.773	81.65081
879.945	18.99443
880.116	34.97693
880.288	22.37473
880.459	24.53499
880.631	18.46116
880.802	22.81826
880.974	21.74781
881.145	14.51754
881.317	19.8498
881.488	14.5858
881.66	16.47721
881.831	14.56001
882.002	21.13212
882.174	14.98561
882.345	20.0116
882.517	10.17346
882.688	22.87702
882.859	18.85712
883.03	31.56713
883.202	29.27853
883.373	24.50486
883.544	24.40883
883.715	45.55962
883.887	34.7971
884.058	29.44337
884.229	43.98136
884.4	43.61069
884.571	51.8805
884.742	45.05232
884.914	48.68537
885.085	69.80274
885.256	90.17595
885.427	71.67381
885.598	86.13035
885.769	92.65899
885.94	84.92246
886.111	54.37056
886.282	104.08294
886.453	85.81722
886.624	61.40579
886.795	101.74068
886.966	84.73219
887.136	112.17356
887.307	73.76888
887.478	146.07312
887.649	131.74771
887.82	129.502
887.991	101.0744
888.161	142.56751
888.332	140.29982
888.503	69.68334
888.674	185.25897
888.844	208.82267
889.015	159.98541
889.186	75.51789
889.356	189.51493
889.527	73.2693
889.698	335.99325
889.868	100.66133
890.039	134.83678
890.209	115.44287
890.38	171.52686
890.551	138.95971
890.721	197.31696
890.892	157.50719
891.062	109.78142
891.233	140.69342
891.403	105.36998
891.574	79.37123
891.744	109.88311
891.914	153.00802
892.085	124.38067
892.255	36.49923
892.425	199.79346
892.596	151.48736
892.766	142.19202
892.936	204.41977
893.107	160.2811
893.277	93.14992
893.447	67.40866
893.618	48.01882
893.788	106.20403
893.958	52.85342
894.128	56.28192
894.298	66.44979
894.468	92.79481
894.639	42.53578
894.809	26.45694
894.979	47.65253
895.149	53.05661
895.319	41.45783
895.489	62.07301
895.659	78.22768
895.829	51.71544
895.999	52.46287
896.169	37.68535
896.339	47.92889
896.509	106.22862
896.679	118.03618
896.849	109.4095
897.019	157.9914
897.189	120.29243
897.358	106.65383
897.528	164.1845
897.698	52.67423
897.868	149.26794
898.038	258.81348
898.208	237.52226
898.377	74.17409
898.547	243.92557
898.717	389.18342
898.886	149.05337
899.056	240.78021
899.226	364.15399
899.395	204.65505
899.565	278.87479
899.735	185.37905
899.904	303.67042
900.074	258.50169
900.244	121.12066
900.413	478.24785
900.583	99.59761
900.752	158.35604
900.922	288.34897
901.091	20.722
901.261	245.35686
901.43	228.16086
901.599	231.78984
901.769	520.63872
901.938	269.25795
902.108	261.04956
902.277	340.01133
902.446	96.04634
902.616	111.53854
902.785	158.91162
902.954	273.45273
903.124	178.57087
903.293	141.80048
903.462	79.37828
903.631	106.98384
903.801	80.37332
903.97	43.78524
904.139	75.62178
904.308	52.29681
904.477	44.04813
904.646	25.74664
904.816	41.43682
904.985	58.37039
905.154	91.62519
