Data from WindowProjectSample_Transmission__55__00055__0868501948003481.txt Node

Date: Mon May 05 18:17:47 EDT 2025
User: jessi
Spectrometer: SR400872
Trigger mode: 0
Integration Time (sec): 5.000010E-1
Scans to average: 20
Electric dark correction enabled: true
Nonlinearity correction enabled: true
Boxcar width: 0
XAxis mode: Wavelengths
Number of Pixels in Spectrum: 3648
>>>>>Begin Spectral Data<<<<<
184.909	21251.72481
185.132	-4960.40473
185.355	-2953.84732
185.578	-18001.29507
185.801	1490.78594
186.024	10061.40521
186.247	-1660.02406
186.47	1094.69692
186.693	155.57043
186.916	174.81127
187.139	-3591.19066
187.362	3537.87113
187.585	4089.11441
187.808	3582.22586
188.031	42.19155
188.254	-56182.88971
188.476	-750.17298
188.699	6035.40544
188.922	599.83186
189.145	-15157.76944
189.368	-607.55095
189.591	-1159.8431
189.813	2926.10453
190.036	-47253.32216
190.259	-756.82806
190.482	-3999.80082
190.705	6832.38339
190.927	-2465.18622
191.15	12799.55142
191.373	3263.62326
191.595	-8868.73264
191.818	-4081.5753
192.041	-6023.99285
192.263	-3313.86157
192.486	-638.47464
192.709	-3788.03485
192.931	7365.63108
193.154	-27820.54945
193.377	-2693.44042
193.599	-2431.99424
193.822	-8965.59839
194.044	-1905.43334
194.267	1243.01347
194.489	318.30418
194.712	-40913.44641
194.934	-31198.51307
195.157	1149.23527
195.379	1260.23224
195.602	-7010.25419
195.824	-1218.01541
196.047	-8447.29905
196.269	2594.18773
196.492	-6334.04407
196.714	28070.47451
196.936	-8334.75682
197.159	-1110.6108
197.381	1079.79816
197.604	457.20043
197.826	11147.99499
198.048	-9434.87263
198.271	-2710.61668
198.493	7197.94139
198.715	2237.37035
198.938	-438.86902
199.16	6677.8712
199.382	-99733.64001
199.604	2395.77183
199.827	-1037.46158
200.049	-2794.6408
200.271	13733.54473
200.493	1191.50644
200.715	-36938.90422
200.938	-6026.44287
201.16	-4044.08538
201.382	20146.9953
201.604	2240.51842
201.826	2234.5084
202.048	-1890.27498
202.27	-1841.46404
202.492	-35762.57101
202.715	2824.85956
202.937	-4325.28069
203.159	-5791.82512
203.381	1394.34169
203.603	6443.94078
203.825	6060.89542
204.047	2144.87723
204.269	-2687.23348
204.491	2158.00701
204.713	5771.2127
204.935	-464792.05551
205.156	1135.21194
205.378	-2878.16534
205.6	1660.04765
205.822	148764.43926
206.044	-905.44875
206.266	1535.59516
206.488	3797.64412
206.71	-5087.20811
206.932	1079.90893
207.153	11936.87257
207.375	-6743.3904
207.597	-36605.18818
207.819	-2723.02262
208.041	2381.21709
208.262	455.65764
208.484	659.30327
208.706	-766.00576
208.927	-840.66748
209.149	534.60342
209.371	-2877.39606
209.593	-275.68443
209.814	-783.49117
210.036	519.59717
210.258	-574.43661
210.479	1718.66219
210.701	1723.73524
210.922	3048.54217
211.144	-3804.60746
211.366	2012.28738
211.587	6973.37083
211.809	-7801.09696
212.03	2252.69368
212.252	448.37486
212.473	2116.38394
212.695	-6365.53187
212.916	2944.82702
213.138	-672.20539
213.359	3619.00135
213.581	5016.88406
213.802	-795.23812
214.024	1088.40338
214.245	1889.10941
214.466	2827.19922
214.688	-3041.53837
214.909	-1222.24266
215.131	-1684.09032
215.352	-3034.36533
215.573	14404.17287
215.795	5210.54086
216.016	5174.13808
216.237	774.46596
216.459	3302.02511
216.68	1705.3585
216.901	4871.19326
217.122	-3056.91865
217.344	-11444.98239
217.565	3262.57879
217.786	8728.15545
218.007	14876.36732
218.228	-576.62814
218.45	5509.23136
218.671	694.11244
218.892	36617.41338
219.113	1381.76847
219.334	-356.19408
219.555	8722.7129
219.776	2927.52731
219.997	22019.76727
220.219	2680.1389
220.44	-10592.89616
220.661	455.98897
220.882	1406.09831
221.103	-982.60671
221.324	2098.29634
221.545	2211.90943
221.766	-8679.36969
221.987	923.9936
222.208	1628.06997
222.429	4264.71482
222.65	175.62317
222.87	18988.65844
223.091	703.33633
223.312	533.60465
223.533	1334.84467
223.754	1424.2438
223.975	1356.31033
224.196	1928.41518
224.417	1273.28357
224.637	540.35312
224.858	26.24257
225.079	1043.83421
225.3	649.77461
225.521	3717.14242
225.741	442.57395
225.962	493.40611
226.183	141.32075
226.404	648.19649
226.624	434.59822
226.845	580.43145
227.066	387.63689
227.286	239.38759
227.507	122.25649
227.728	110.77563
227.948	225.7167
228.169	72.54519
228.389	86.71359
228.61	44.09614
228.831	61.42154
229.051	2.41507
229.272	36.76054
229.492	54.39661
229.713	12.61152
229.933	36.21076
230.154	29.63281
230.374	52.29432
230.595	37.50516
230.815	21.9563
231.036	35.75704
231.256	-8.26703
231.477	64.98803
231.697	37.14835
231.917	37.65708
232.138	55.18879
232.358	101.36667
232.579	100.89298
232.799	17.42082
233.019	96.57461
233.24	113.06938
233.46	36.51141
233.68	60.46374
233.901	42.54967
234.121	21.351
234.341	9.92598
234.561	-3.73823
234.782	17.07382
235.002	66.60867
235.222	-3.90442
235.442	62.36008
235.662	30.86083
235.883	58.99915
236.103	47.98841
236.323	34.32651
236.543	29.06064
236.763	38.05657
236.983	39.64093
237.203	38.147
237.423	57.35686
237.643	84.12201
237.864	69.24573
238.084	17.99993
238.304	23.57133
238.524	41.52556
238.744	38.30712
238.964	70.23635
239.184	60.53967
239.404	62.60256
239.624	34.40903
239.843	57.48548
240.063	34.28222
240.283	21.11249
240.503	24.18872
240.723	23.92234
240.943	13.58742
241.163	18.82599
241.383	14.25961
241.603	6.91875
241.822	9.17869
242.042	6.07146
242.262	8.06967
242.482	9.19971
242.702	10.39023
242.921	2.66737
243.141	6.23539
243.361	6.17727
243.581	9.25289
243.8	6.9081
244.02	5.46483
244.24	8.78434
244.459	8.92329
244.679	16.38744
244.899	10.90897
245.118	12.48843
245.338	11.06602
245.558	13.25011
245.777	8.53529
245.997	10.20254
246.216	9.95372
246.436	6.1262
246.655	4.59274
246.875	3.03717
247.094	6.13072
247.314	1.99994
247.533	3.38087
247.753	4.18775
247.972	3.33716
248.192	1.05211
248.411	1.77769
248.631	3.47176
248.85	4.43451
249.07	3.76889
249.289	5.49365
249.508	4.78479
249.728	6.96896
249.947	6.66737
250.166	8.83382
250.386	3.99312
250.605	6.61777
250.824	9.99179
251.044	6.91861
251.263	28.08394
251.482	14.17479
251.701	11.35243
251.921	-0.22779
252.14	2.85647
252.359	3.25862
252.578	10.04924
252.798	2.93657
253.017	8.50778
253.236	3.82262
253.455	5.42945
253.674	9.66281
253.893	4.83076
254.112	7.57026
254.331	10.62752
254.551	7.93148
254.77	3.23882
254.989	13.15513
255.208	8.82759
255.427	14.08159
255.646	10.3947
255.865	21.23162
256.084	8.91023
256.303	10.02444
256.522	13.32525
256.741	2.94135
256.96	2.42289
257.179	7.08976
257.397	10.66367
257.616	5.67009
257.835	5.69423
258.054	14.77474
258.273	10.22863
258.492	10.47463
258.711	6.51031
258.93	2.88719
259.148	4.42931
259.367	4.41419
259.586	5.59979
259.805	2.1471
260.023	5.03455
260.242	3.85374
260.461	2.60783
260.68	1.19766
260.898	4.23656
261.117	1.34459
261.336	0.86672
261.554	3.24446
261.773	3.07545
261.992	0.58987
262.21	3.08774
262.429	3.35348
262.648	6.91699
262.866	7.89807
263.085	5.37787
263.303	4.94795
263.522	8.33808
263.74	8.70332
263.959	15.36174
264.178	6.83016
264.396	6.32154
264.615	4.57116
264.833	9.92809
265.051	8.31071
265.27	10.5881
265.488	10.96265
265.707	6.03713
265.925	10.45328
266.144	4.64254
266.362	5.61635
266.58	5.03971
266.799	4.70755
267.017	5.99938
267.235	4.98004
267.454	3.10112
267.672	1.75151
267.89	3.81221
268.109	4.23401
268.327	4.30153
268.545	0.7478
268.763	4.04601
268.982	1.29743
269.2	4.00472
269.418	2.86768
269.636	1.89589
269.854	4.64028
270.073	2.99644
270.291	1.63231
270.509	1.80671
270.727	4.27729
270.945	6.97396
271.163	6.84694
271.381	1.36826
271.599	2.94645
271.817	5.30091
272.036	1.72277
272.254	3.00592
272.472	2.21781
272.69	2.38048
272.908	2.13459
273.126	4.44191
273.344	5.14198
273.562	1.61933
273.779	2.4441
273.997	3.60546
274.215	3.95886
274.433	2.78582
274.651	4.26603
274.869	4.51827
275.087	2.58394
275.305	4.02579
275.523	2.53372
275.74	2.7612
275.958	5.0743
276.176	7.743
276.394	2.47911
276.612	3.08977
276.829	3.11902
277.047	2.64003
277.265	2.66211
277.483	3.29398
277.7	4.11163
277.918	3.26497
278.136	6.01938
278.353	2.72589
278.571	1.49857
278.789	4.23956
279.006	0.72456
279.224	2.71229
279.442	5.1308
279.659	3.35179
279.877	2.49133
280.094	5.69868
280.312	0.87183
280.529	3.30528
280.747	0.83792
280.964	2.56487
281.182	5.73269
281.399	2.57778
281.617	3.62342
281.834	2.47655
282.052	1.82554
282.269	3.09573
282.487	2.39817
282.704	1.96718
282.921	2.18989
283.139	3.14188
283.356	3.86723
283.574	3.59806
283.791	1.76485
284.008	5.4597
284.226	2.81879
284.443	3.11774
284.66	4.24856
284.877	3.26057
285.095	1.89306
285.312	1.54018
285.529	0.8655
285.746	0.7291
285.964	1.99131
286.181	1.41451
286.398	1.89779
286.615	2.55896
286.832	2.48026
287.05	0.51322
287.267	1.74137
287.484	1.80834
287.701	2.51264
287.918	2.58003
288.135	2.49471
288.352	1.23249
288.569	1.23273
288.786	2.25129
289.003	2.01255
289.22	2.93171
289.437	1.48372
289.654	2.81718
289.871	2.84588
290.088	2.77981
290.305	2.04526
290.522	1.61815
290.739	1.96846
290.956	3.0569
291.173	3.51339
291.39	3.38095
291.607	2.26654
291.824	1.62952
292.04	1.21238
292.257	2.71282
292.474	3.01527
292.691	1.74481
292.908	0.87154
293.125	1.60518
293.341	1.11867
293.558	4.66296
293.775	1.84064
293.992	1.81305
294.208	0.78952
294.425	1.18014
294.642	1.73307
294.858	2.41155
295.075	0.59338
295.292	1.90618
295.508	2.16086
295.725	3.91985
295.942	1.59958
296.158	1.16076
296.375	1.99379
296.591	1.47373
296.808	1.66688
297.024	1.9067
297.241	2.14908
297.458	2.32723
297.674	0.11858
297.891	1.7602
298.107	1.40468
298.323	1.09033
298.54	3.01454
298.756	1.18322
298.973	0.6073
299.189	2.94939
299.406	1.10907
299.622	2.71896
299.838	2.57087
300.055	2.59053
300.271	0.51594
300.487	0.9487
300.704	1.19156
300.92	0.64702
301.136	4.08836
301.353	2.51141
301.569	1.84336
301.785	2.0932
302.001	2.57635
302.218	2.20057
302.434	2.22027
302.65	0.73682
302.866	1.52439
303.083	3.85104
303.299	3.64845
303.515	1.97607
303.731	2.06841
303.947	0.55304
304.163	1.22928
304.379	2.05046
304.595	2.36735
304.812	1.22531
305.028	1.22914
305.244	1.70251
305.46	2.58578
305.676	2.60263
305.892	3.06139
306.108	2.24662
306.324	1.51384
306.54	3.65325
306.756	2.40461
306.972	2.40531
307.187	1.85706
307.403	3.19946
307.619	1.64269
307.835	3.01913
308.051	3.4503
308.267	0.92095
308.483	2.95651
308.699	2.46223
308.914	1.90246
309.13	1.8389
309.346	0.65052
309.562	1.07327
309.778	0.72836
309.993	2.40506
310.209	1.88636
310.425	0.85606
310.641	1.72095
310.856	1.0652
311.072	0.98386
311.288	1.71556
311.503	1.97866
311.719	0.40505
311.935	0.28209
312.15	2.29938
312.366	1.86024
312.581	2.20641
312.797	1.88641
313.013	2.57386
313.228	1.31552
313.444	1.75822
313.659	1.29856
313.875	2.44496
314.09	1.83249
314.306	3.0977
314.521	2.54919
314.737	2.60172
314.952	1.8793
315.168	1.89765
315.383	2.21195
315.599	1.67682
315.814	1.58632
316.029	2.42052
316.245	0.93197
316.46	0.56166
316.675	3.08093
316.891	3.45258
317.106	4.56146
317.321	2.21128
317.537	2.47195
317.752	2.63886
317.967	2.67291
318.183	1.17524
318.398	1.66817
318.613	2.7815
318.828	3.22717
319.043	2.59319
319.259	1.81966
319.474	2.11577
319.689	3.08177
319.904	0.48616
320.119	2.54025
320.334	2.31178
320.549	1.71307
320.765	2.93636
320.98	2.19085
321.195	2.59576
321.41	1.94025
321.625	2.76089
321.84	3.57497
322.055	3.64873
322.27	1.65059
322.485	1.13186
322.7	2.40256
322.915	2.84976
323.13	1.26969
323.345	3.49605
323.56	2.67874
323.775	2.68195
323.989	2.40451
324.204	2.34005
324.419	2.9955
324.634	0.98416
324.849	1.9233
325.064	5.21342
325.279	2.90082
325.493	2.45284
325.708	2.86999
325.923	1.33625
326.138	1.57534
326.352	3.44778
326.567	2.94627
326.782	1.71336
326.997	1.51638
327.211	2.58007
327.426	2.37778
327.641	1.68799
327.855	0.80659
328.07	2.37092
328.285	3.44372
328.499	1.55273
328.714	2.33873
328.928	2.65792
329.143	1.98554
329.358	3.01428
329.572	2.95602
329.787	3.24773
330.001	4.33037
330.216	0.90435
330.43	3.80822
330.645	3.5246
330.859	2.92065
331.074	1.60197
331.288	2.19953
331.503	3.25465
331.717	1.22752
331.931	2.33663
332.146	2.32938
332.36	3.75402
332.575	2.54668
332.789	2.3983
333.003	2.41999
333.218	2.6542
333.432	1.76063
333.646	2.87146
333.86	3.77356
334.075	3.58872
334.289	1.65217
334.503	1.30976
334.717	2.58948
334.932	2.60925
335.146	3.17881
335.36	1.84358
335.574	2.88983
335.788	2.69279
336.003	3.05518
336.217	2.72082
336.431	2.75746
336.645	1.88015
336.859	1.3029
337.073	2.099
337.287	2.49456
337.501	1.28917
337.715	2.55359
337.929	2.98741
338.143	1.14221
338.357	2.11472
338.571	1.58111
338.785	2.74368
338.999	1.96318
339.213	1.8137
339.427	1.04132
339.641	3.42222
339.855	1.95429
340.069	1.73846
340.283	3.02326
340.497	3.78412
340.711	2.59216
340.924	2.14117
341.138	1.29588
341.352	1.20225
341.566	2.49766
341.78	0.97027
341.993	1.94456
342.207	1.43299
342.421	2.43332
342.635	2.07918
342.848	1.81451
343.062	0.57386
343.276	1.75031
343.49	3.97881
343.703	1.69427
343.917	3.19884
344.131	3.13015
344.344	1.66634
344.558	1.92397
344.771	1.25557
344.985	3.73609
345.199	3.62395
345.412	2.49222
345.626	2.56764
345.839	0.95745
346.053	1.43291
346.266	1.3749
346.48	2.83473
346.693	2.61339
346.907	2.52018
347.12	1.52066
347.334	2.55309
347.547	2.59804
347.76	2.06109
347.974	3.259
348.187	2.56108
348.401	2.00445
348.614	1.75311
348.827	1.94965
349.041	2.77084
349.254	1.08982
349.467	1.9646
349.681	1.31467
349.894	1.76158
350.107	3.32998
350.32	3.70513
350.534	1.17599
350.747	1.98336
350.96	1.60655
351.173	1.87101
351.386	2.03892
351.6	1.87439
351.813	2.0307
352.026	2.0723
352.239	1.30438
352.452	2.09271
352.665	3.13181
352.878	2.3734
353.092	4.04845
353.305	2.86808
353.518	2.50439
353.731	1.61889
353.944	3.26528
354.157	1.96533
354.37	1.74481
354.583	1.54775
354.796	1.21834
355.009	3.11979
355.222	2.55874
355.435	2.34536
355.647	3.09882
355.86	1.71441
356.073	2.38593
356.286	2.04196
356.499	3.04326
356.712	2.68736
356.925	2.89767
357.138	2.92861
357.35	1.83257
357.563	2.0776
357.776	2.56463
357.989	2.27528
358.201	2.79647
358.414	2.60934
358.627	3.42387
358.84	2.23953
359.052	1.51878
359.265	1.92813
359.478	3.25685
359.69	0.72425
359.903	2.95892
360.116	3.1866
360.328	1.36699
360.541	3.1258
360.753	1.76273
360.966	2.13793
361.179	2.26398
361.391	2.18435
361.604	1.96338
361.816	2.2009
362.029	2.08264
362.241	1.87716
362.454	2.162
362.666	1.87173
362.879	2.74165
363.091	2.26952
363.304	1.96284
363.516	2.39945
363.728	1.69941
363.941	2.89929
364.153	2.39109
364.366	1.18734
364.578	1.77581
364.79	2.77481
365.003	2.60827
365.215	2.11821
365.427	2.97789
365.639	3.31968
365.852	2.75229
366.064	4.25096
366.276	2.42253
366.488	2.90565
366.701	2.43226
366.913	2.53508
367.125	2.45226
367.337	2.11704
367.549	2.28852
367.762	2.76578
367.974	2.62665
368.186	2.36055
368.398	3.3734
368.61	3.16791
368.822	3.14907
369.034	2.54626
369.246	3.2985
369.458	4.97638
369.67	2.14202
369.882	4.06669
370.094	1.59252
370.306	3.99661
370.518	2.67993
370.73	2.42941
370.942	2.3747
371.154	2.83195
371.366	2.66091
371.578	3.1535
371.79	2.55188
372.002	3.72078
372.214	4.40438
372.425	2.92269
372.637	3.89648
372.849	3.24962
373.061	1.63846
373.273	3.36009
373.484	3.26768
373.696	3.67748
373.908	1.71321
374.12	3.85883
374.331	3.37372
374.543	2.57013
374.755	2.44116
374.967	3.17613
375.178	3.65363
375.39	2.94979
375.602	3.39755
375.813	2.21877
376.025	2.56905
376.236	3.3773
376.448	3.54108
376.66	3.11209
376.871	3.12022
377.083	4.17767
377.294	4.5446
377.506	3.10301
377.717	4.31456
377.929	3.59191
378.14	3.20475
378.352	3.7102
378.563	3.87939
378.775	4.45047
378.986	2.91513
379.197	3.46919
379.409	3.01827
379.62	4.08842
379.832	3.9915
380.043	3.52393
380.254	3.80282
380.466	2.97096
380.677	5.66406
380.888	5.06163
381.1	5.44627
381.311	5.53501
381.522	3.97633
381.733	5.78884
381.945	3.73886
382.156	3.86014
382.367	3.55935
382.578	5.83699
382.789	5.70452
383.001	3.65706
383.212	5.09982
383.423	5.12855
383.634	4.95382
383.845	4.62259
384.056	3.95198
384.267	4.34431
384.478	4.30619
384.69	3.5499
384.901	4.59195
385.112	4.49167
385.323	5.54934
385.534	4.77574
385.745	4.63547
385.956	4.60574
386.167	3.91342
386.378	4.79809
386.588	4.04177
386.799	4.06926
387.01	3.60578
387.221	5.19172
387.432	4.59997
387.643	5.78252
387.854	4.52214
388.065	4.4898
388.275	4.68292
388.486	4.41142
388.697	4.79702
388.908	4.52617
389.119	5.58684
389.329	5.8334
389.54	4.94904
389.751	5.18537
389.962	5.94312
390.172	5.11477
390.383	4.90217
390.594	4.6519
390.804	4.82787
391.015	4.93144
391.226	5.41378
391.436	5.64892
391.647	5.59131
391.858	5.8007
392.068	4.46109
392.279	4.80156
392.489	5.62867
392.7	6.17144
392.91	5.15853
393.121	5.14138
393.331	5.88619
393.542	6.31458
393.752	6.17062
393.963	5.97607
394.173	5.95446
394.384	6.13771
394.594	5.91633
394.804	5.13479
395.015	6.04956
395.225	6.25482
395.436	5.38475
395.646	6.17437
395.856	5.71723
396.067	5.16812
396.277	6.50943
396.487	6.26895
396.697	6.35647
396.908	6.40934
397.118	6.50286
397.328	6.32486
397.538	6.82097
397.749	5.85599
397.959	6.92833
398.169	6.59702
398.379	5.56667
398.589	6.70535
398.8	6.58246
399.01	6.59589
399.22	6.31839
399.43	7.8605
399.64	6.55792
399.85	6.98586
400.06	6.75382
400.27	6.254
400.48	6.61638
400.69	7.59161
400.9	6.44849
401.11	6.20413
401.32	7.3372
401.53	6.45382
401.74	7.8335
401.95	7.18686
402.16	6.66816
402.37	7.20566
402.58	6.85694
402.79	7.40176
403	7.84582
403.209	6.82006
403.419	8.00865
403.629	6.78371
403.839	8.05604
404.049	7.92589
404.258	7.27625
404.468	7.00614
404.678	7.71661
404.888	8.2556
405.097	7.30031
405.307	7.51147
405.517	8.01717
405.727	7.92
405.936	7.56876
406.146	7.89793
406.356	8.54765
406.565	7.73695
406.775	7.57552
406.984	7.48874
407.194	8.933
407.404	7.79178
407.613	8.25059
407.823	8.34239
408.032	8.49817
408.242	8.47457
408.451	7.76349
408.661	7.96125
408.87	9.14344
409.08	7.66144
409.289	8.28489
409.499	8.35345
409.708	8.22901
409.918	7.02585
410.127	8.53796
410.336	9.27926
410.546	8.78006
410.755	8.1404
410.964	8.18375
411.174	7.74596
411.383	8.7398
411.592	8.60308
411.802	7.87401
412.011	8.82697
412.22	8.28412
412.429	9.55626
412.639	9.3773
412.848	9.03933
413.057	9.3079
413.266	9.2436
413.475	8.67157
413.685	8.9562
413.894	9.3312
414.103	9.42687
414.312	9.36824
414.521	8.57185
414.73	8.88738
414.939	10.17516
415.148	9.33426
415.357	9.16993
415.566	9.00559
415.776	8.83388
415.985	8.97804
416.194	9.6474
416.403	10.49767
416.611	8.63856
416.82	9.2633
417.029	9.60984
417.238	9.24094
417.447	9.1703
417.656	9.50981
417.865	9.25885
418.074	9.63984
418.283	9.70897
418.492	10.40192
418.7	10.20039
418.909	11.1615
419.118	10.32386
419.327	10.70188
419.536	10.63616
419.744	10.76087
419.953	11.97154
420.162	12.19466
420.371	11.79002
420.579	12.45541
420.788	13.23547
420.997	13.30888
421.205	13.69707
421.414	13.51212
421.623	13.59195
421.831	13.22385
422.04	13.69782
422.249	12.86606
422.457	13.14135
422.666	12.32251
422.874	13.16795
423.083	13.25617
423.291	13.30323
423.5	13.13073
423.708	13.67955
423.917	14.14342
424.125	13.73807
424.334	13.62725
424.542	15.17802
424.751	14.65857
424.959	14.26415
425.167	14.25255
425.376	14.11152
425.584	12.87557
425.793	12.74492
426.001	11.83799
426.209	11.79545
426.418	10.71326
426.626	10.28734
426.834	10.27793
427.042	10.55903
427.251	10.25414
427.459	11.04544
427.667	10.59943
427.875	9.97183
428.084	10.30438
428.292	11.14706
428.5	10.85944
428.708	10.05096
428.916	10.07755
429.124	10.50148
429.333	10.45593
429.541	10.5188
429.749	10.72251
429.957	10.71043
430.165	12.21977
430.373	9.86547
430.581	10.77065
430.789	11.5507
430.997	10.58824
431.205	10.43069
431.413	10.96637
431.621	10.61641
431.829	11.25608
432.037	10.80893
432.245	11.19712
432.453	11.311
432.661	10.98552
432.869	12.08589
433.076	10.78631
433.284	11.07869
433.492	11.52291
433.7	11.69869
433.908	10.99405
434.116	11.26419
434.323	11.27657
434.531	11.13221
434.739	11.40998
434.947	11.53998
435.154	11.5387
435.362	11.12256
435.57	11.02396
435.778	10.75351
435.985	11.31494
436.193	10.87908
436.401	11.87737
436.608	11.08579
436.816	10.96854
437.023	11.98257
437.231	12.19734
437.439	11.47915
437.646	11.63172
437.854	11.51797
438.061	11.72208
438.269	11.3797
438.476	11.7784
438.684	11.48103
438.891	11.44543
439.099	11.23238
439.306	11.07124
439.514	11.18256
439.721	12.15796
439.929	11.98933
440.136	12.91683
440.343	12.98282
440.551	13.01468
440.758	14.39824
440.965	13.15074
441.173	12.99933
441.38	12.77935
441.587	12.34506
441.795	12.15616
442.002	11.79019
442.209	11.75368
442.416	11.89675
442.624	11.96313
442.831	11.75618
443.038	11.37202
443.245	11.11251
443.452	11.57513
443.66	11.91173
443.867	11.49806
444.074	11.39992
444.281	11.52597
444.488	11.66723
444.695	11.94359
444.902	11.74951
445.109	12.87865
445.316	12.862
445.523	13.36892
445.73	13.68002
445.937	14.52897
446.144	15.0363
446.351	15.53147
446.558	14.65014
446.765	16.4174
446.972	15.59082
447.179	15.2616
447.386	15.69672
447.593	14.03087
447.8	14.87819
448.007	13.33861
448.214	12.71618
448.42	12.10511
448.627	12.38014
448.834	11.82154
449.041	11.72618
449.248	11.67816
449.454	12.14899
449.661	12.63416
449.868	11.70182
450.075	11.50529
450.281	10.73064
450.488	11.28099
450.695	11.36988
450.901	11.60354
451.108	11.53561
451.315	12.38883
451.521	11.72926
451.728	12.44668
451.935	11.51931
452.141	11.82797
452.348	11.92251
452.554	11.87189
452.761	11.72916
452.967	12.85072
453.174	12.04287
453.38	12.20894
453.587	11.47024
453.793	12.04814
454	12.45549
454.206	13.10694
454.413	12.56008
454.619	12.32168
454.825	11.6167
455.032	12.40889
455.238	12.55338
455.445	11.4548
455.651	12.01038
455.857	11.27282
456.064	11.90313
456.27	11.81814
456.476	11.95531
456.682	11.41767
456.889	12.3582
457.095	12.3421
457.301	13.44653
457.507	12.20076
457.714	12.20747
457.92	12.22806
458.126	11.92312
458.332	12.24697
458.538	12.17453
458.744	12.46831
458.951	12.43681
459.157	14.58949
459.363	14.12128
459.569	14.57256
459.775	15.18492
459.981	15.13585
460.187	15.50777
460.393	15.53885
460.599	15.71605
460.805	14.69061
461.011	13.61714
461.217	13.26823
461.423	12.95305
461.629	12.4205
461.835	12.63854
462.041	12.35091
462.247	13.22821
462.453	12.28189
462.658	12.30941
462.864	12.78698
463.07	12.39459
463.276	12.57476
463.482	12.46172
463.688	13.20053
463.893	12.2179
464.099	12.37253
464.305	13.22266
464.511	12.23513
464.716	12.49593
464.922	13.0401
465.128	12.14017
465.333	13.43627
465.539	13.01979
465.745	12.696
465.95	12.62902
466.156	14.11462
466.362	13.30333
466.567	12.68494
466.773	12.33395
466.978	13.58913
467.184	12.26836
467.389	11.78827
467.595	12.75517
467.8	12.4284
468.006	13.42783
468.211	13.40611
468.417	12.21466
468.622	12.94072
468.828	13.25835
469.033	13.02705
469.239	14.18042
469.444	12.60763
469.649	13.35521
469.855	12.91599
470.06	12.86418
470.266	12.39283
470.471	13.24988
470.676	12.98274
470.881	12.013
471.087	13.53737
471.292	14.34213
471.497	12.23457
471.703	12.93867
471.908	12.68713
472.113	13.13299
472.318	13.43867
472.523	12.44921
472.729	13.17187
472.934	13.2857
473.139	12.78369
473.344	13.15119
473.549	13.58258
473.754	12.60944
473.959	14.53088
474.164	12.63484
474.369	12.99075
474.575	13.49609
474.78	13.10705
474.985	12.6661
475.19	12.12512
475.395	12.60826
475.6	13.15007
475.804	13.81558
476.009	13.2469
476.214	13.1216
476.419	13.04572
476.624	12.43091
476.829	12.72716
477.034	13.58792
477.239	12.85985
477.444	13.54284
477.648	13.5596
477.853	13.50029
478.058	13.2043
478.263	12.86874
478.468	12.75755
478.672	12.81975
478.877	13.95608
479.082	14.04885
479.287	13.43747
479.491	13.25373
479.696	12.92365
479.901	13.60754
480.105	13.78976
480.31	13.02661
480.515	13.35246
480.719	14.46735
480.924	13.27009
481.128	12.98099
481.333	13.68475
481.538	13.72711
481.742	14.14519
481.947	15.45009
482.151	16.8441
482.356	18.05053
482.56	21.09183
482.765	23.52156
482.969	27.72837
483.174	31.38706
483.378	36.14222
483.582	37.9799
483.787	40.62247
483.991	41.73431
484.196	42.41164
484.4	41.8454
484.604	41.90216
484.809	38.61773
485.013	36.18181
485.217	32.93985
485.422	29.64573
485.626	26.73667
485.83	25.06244
486.034	24.12016
486.239	24.48679
486.443	24.99747
486.647	25.78343
486.851	27.24349
487.055	29.25988
487.26	29.49359
487.464	30.98914
487.668	30.69035
487.872	31.58507
488.076	31.57151
488.28	30.49347
488.484	28.74574
488.688	27.88768
488.892	26.40292
489.096	24.44086
489.3	22.62524
489.504	21.07404
489.708	19.89276
489.912	19.33996
490.116	18.82421
490.32	18.65561
490.524	20.02343
490.728	21.21304
490.932	22.62698
491.136	24.02244
491.34	25.60354
491.544	26.28488
491.748	26.51792
491.951	26.64025
492.155	25.88883
492.359	25.17515
492.563	23.31741
492.767	21.96569
492.97	19.73174
493.174	17.77441
493.378	16.15137
493.582	14.41323
493.785	13.7537
493.989	13.79087
494.193	13.71129
494.396	13.64829
494.6	14.13848
494.804	13.92694
495.007	13.58979
495.211	13.64594
495.414	13.7443
495.618	14.1253
495.822	14.58088
496.025	14.14671
496.229	14.36108
496.432	13.79468
496.636	14.07962
496.839	14.09134
497.043	14.71623
497.246	14.37369
497.45	14.04187
497.653	14.28886
497.856	14.15524
498.06	13.7695
498.263	14.07898
498.467	13.92061
498.67	14.51754
498.873	14.30458
499.077	13.97319
499.28	14.04514
499.483	14.15593
499.686	14.42065
499.89	14.13308
500.093	14.48457
500.296	13.83573
500.499	14.82693
500.703	14.0461
500.906	14.36556
501.109	14.92054
501.312	14.14877
501.515	14.05123
501.719	14.27093
501.922	14.64327
502.125	14.18204
502.328	14.12532
502.531	13.72949
502.734	14.13669
502.937	13.52227
503.14	14.21296
503.343	13.87289
503.546	14.17909
503.749	13.86691
503.952	14.67833
504.155	13.94146
504.358	14.45873
504.561	14.32216
504.764	13.73261
504.967	14.34086
505.17	14.15675
505.373	15.01004
505.576	14.25826
505.778	14.77779
505.981	13.91736
506.184	14.84525
506.387	13.64491
506.59	15.27531
506.793	14.71053
506.995	14.56317
507.198	13.5981
507.401	14.69101
507.604	14.61732
507.806	14.12241
508.009	14.11836
508.212	14.89443
508.414	14.20763
508.617	14.24903
508.82	14.50272
509.022	15.16539
509.225	14.67016
509.427	13.86477
509.63	15.12089
509.833	14.60064
510.035	14.2785
510.238	13.79519
510.44	15.15476
510.643	13.5925
510.845	15.40337
511.048	14.69343
511.25	14.3383
511.453	14.3205
511.655	14.71048
511.858	14.30697
512.06	14.94836
512.262	14.57678
512.465	14.96856
512.667	14.26887
512.869	14.00829
513.072	14.67796
513.274	14.83302
513.476	14.73156
513.679	14.88687
513.881	14.05899
514.083	15.22495
514.286	14.12209
514.488	14.23475
514.69	14.04456
514.892	13.87237
515.094	14.79922
515.297	14.09436
515.499	14.57384
515.701	14.12646
515.903	15.36109
516.105	15.40437
516.307	14.91802
516.509	13.78595
516.711	14.0937
516.913	14.74195
517.116	14.79869
517.318	14.47466
517.52	15.35329
517.722	15.08582
517.924	14.29914
518.126	15.12316
518.328	14.77064
518.529	15.59155
518.731	16.34577
518.933	15.03639
519.135	15.21398
519.337	15.70472
519.539	15.04216
519.741	14.0612
519.943	14.56592
520.145	14.5299
520.346	14.98605
520.548	14.44936
520.75	14.70616
520.952	14.52351
521.153	14.78807
521.355	14.78957
521.557	14.21592
521.759	14.6845
521.96	14.7564
522.162	14.17986
522.364	15.21886
522.565	14.3487
522.767	15.00279
522.969	15.18408
523.17	15.0071
523.372	15.00808
523.573	14.60732
523.775	14.71302
523.977	14.4959
524.178	15.72795
524.38	14.64313
524.581	15.27306
524.783	14.92655
524.984	15.33477
525.186	15.19969
525.387	16.00098
525.589	16.06378
525.79	16.44246
525.991	16.52864
526.193	17.18492
526.394	16.84731
526.596	17.73047
526.797	18.13084
526.998	17.9233
527.2	18.97049
527.401	21.43599
527.602	23.33028
527.803	26.65121
528.005	28.83858
528.206	31.19782
528.407	33.08742
528.608	33.82424
528.81	34.39016
529.011	33.93093
529.212	34.60266
529.413	32.7095
529.614	30.81545
529.815	28.63131
530.017	26.40006
530.218	23.46216
530.419	21.12487
530.62	19.97482
530.821	18.84782
531.022	17.165
531.223	17.58805
531.424	17.26487
531.625	17.45374
531.826	17.10861
532.027	18.0087
532.228	19.60996
532.429	20.23397
532.63	21.03935
532.831	22.4644
533.032	22.95254
533.233	23.89358
533.433	23.69072
533.634	23.89865
533.835	23.0202
534.036	22.3306
534.237	21.22042
534.438	19.96954
534.638	18.11454
534.839	17.10454
535.04	16.43786
535.241	15.63581
535.441	16.18125
535.642	16.01982
535.843	15.5501
536.043	16.09925
536.244	16.50731
536.445	16.88176
536.645	17.66544
536.846	17.34879
537.047	17.69029
537.247	16.56429
537.448	16.08528
537.648	15.57968
537.849	15.19581
538.049	15.10922
538.25	15.32252
538.451	15.36936
538.651	14.70916
538.851	15.53061
539.052	15.75785
539.252	15.75756
539.453	15.22991
539.653	15.58052
539.854	15.5121
540.054	15.68924
540.254	18.00729
540.455	19.77342
540.655	20.78919
540.855	23.09216
541.056	24.7043
541.256	25.09317
541.456	26.42431
541.657	26.21313
541.857	26.75333
542.057	25.28783
542.257	24.39271
542.458	24.08819
542.658	23.01917
542.858	20.76193
543.058	20.03276
543.258	19.01017
543.458	17.28486
543.659	16.50059
543.859	16.69497
544.059	16.15959
544.259	15.32892
544.459	15.86913
544.659	15.14506
544.859	15.5414
545.059	15.25288
545.259	15.78617
545.459	15.59205
545.659	15.91099
545.859	15.50252
546.059	15.74511
546.259	15.29594
546.459	14.98454
546.659	15.1504
546.859	15.90607
547.059	15.75329
547.258	15.80087
547.458	15.66337
547.658	14.972
547.858	14.83036
548.058	15.52246
548.258	15.15443
548.457	14.88253
548.657	16.53289
548.857	15.26974
549.057	15.60368
549.256	15.55982
549.456	15.04894
549.656	14.3846
549.855	16.44455
550.055	15.06207
550.255	16.34013
550.454	15.56347
550.654	15.86508
550.853	16.27205
551.053	15.86235
551.253	15.61987
551.452	15.83043
551.652	14.81832
551.851	14.82787
552.051	15.4013
552.25	15.32818
552.45	15.1964
552.649	15.46724
552.849	15.17292
553.048	15.61276
553.248	15.91417
553.447	14.96184
553.646	15.89964
553.846	17.06181
554.045	16.20614
554.244	14.68824
554.444	16.19081
554.643	14.94604
554.842	16.40644
555.042	16.61598
555.241	15.15473
555.44	14.82304
555.64	15.72322
555.839	16.39639
556.038	15.72562
556.237	14.94979
556.436	15.61432
556.636	15.74317
556.835	15.04811
557.034	16.4082
557.233	15.57472
557.432	14.61518
557.631	16.14741
557.83	15.34398
558.029	15.18445
558.228	15.16258
558.427	14.92253
558.626	15.56476
558.825	14.89204
559.024	15.4524
559.223	16.6425
559.422	15.28428
559.621	15.76054
559.82	14.22984
560.019	15.53784
560.218	15.24498
560.417	14.07264
560.616	15.44564
560.815	17.77763
561.014	14.72938
561.212	16.64856
561.411	15.86812
561.61	14.8911
561.809	15.35431
562.008	16.85923
562.206	15.3201
562.405	16.01228
562.604	15.48265
562.803	15.62787
563.001	15.60285
563.2	14.80939
563.399	15.95698
563.597	14.81277
563.796	15.61785
563.995	15.17857
564.193	16.24703
564.392	15.50404
564.59	17.07247
564.789	14.51321
564.988	15.63802
565.186	16.05192
565.385	15.92552
565.583	15.76283
565.782	15.98101
565.98	15.79218
566.179	15.78034
566.377	15.38642
566.575	15.37144
566.774	16.72278
566.972	16.30001
567.171	17.11466
567.369	16.65431
567.567	16.03822
567.766	15.88033
567.964	14.70025
568.162	16.15398
568.361	16.70357
568.559	15.55609
568.757	16.06349
568.956	15.79808
569.154	15.98887
569.352	16.27818
569.55	15.82748
569.748	15.7697
569.947	15.50249
570.145	15.31304
570.343	15.30962
570.541	16.91693
570.739	15.24554
570.937	15.96548
571.135	16.41715
571.333	17.62567
571.532	17.51909
571.73	16.30269
571.928	16.57561
572.126	16.53838
572.324	15.91297
572.522	16.7755
572.72	17.72512
572.918	16.07924
573.116	16.37751
573.313	15.89864
573.511	16.04273
573.709	15.7606
573.907	16.64734
574.105	15.93318
574.303	15.18884
574.501	15.07238
574.699	16.46873
574.896	16.32245
575.094	16.65702
575.292	15.28292
575.49	16.80241
575.688	15.99314
575.885	16.85744
576.083	17.69906
576.281	16.46173
576.478	15.47872
576.676	16.41705
576.874	15.17854
577.071	15.9869
577.269	17.56089
577.467	15.85217
577.664	15.93886
577.862	16.55041
578.059	15.27073
578.257	16.52478
578.455	15.80957
578.652	16.07846
578.85	14.51093
579.047	16.06562
579.245	15.69887
579.442	15.93208
579.64	15.65814
579.837	14.6899
580.034	17.86473
580.232	15.67579
580.429	14.95258
580.627	16.3599
580.824	16.89925
581.021	16.3083
581.219	15.59734
581.416	15.4295
581.613	17.10804
581.811	17.01957
582.008	15.27663
582.205	16.73058
582.402	16.03565
582.6	17.04307
582.797	15.92286
582.994	16.34017
583.191	16.53035
583.388	15.96915
583.586	16.56709
583.783	16.82652
583.98	15.18229
584.177	16.13526
584.374	13.96595
584.571	15.65542
584.768	15.82317
584.965	15.5117
585.162	16.65503
585.359	17.31111
585.556	15.90302
585.753	16.32258
585.95	14.90782
586.147	15.23423
586.344	16.39811
586.541	15.66186
586.738	15.0008
586.935	15.98751
587.132	15.38912
587.329	16.90472
587.526	16.05841
587.722	20.13842
587.919	14.93819
588.116	16.47738
588.313	17.18344
588.51	17.87859
588.706	16.05851
588.903	16.66501
589.1	16.91059
589.297	18.37124
589.493	16.25379
589.69	16.74348
589.887	15.74403
590.083	15.38697
590.28	15.67868
590.477	17.09423
590.673	16.65728
590.87	17.13465
591.067	15.46892
591.263	16.36544
591.46	16.24577
591.656	16.06012
591.853	17.43707
592.049	15.55795
592.246	15.68046
592.442	17.00131
592.639	17.35539
592.835	15.50216
593.032	16.47775
593.228	15.10678
593.425	15.00151
593.621	15.1137
593.817	16.67977
594.014	15.68233
594.21	16.69953
594.406	17.19477
594.603	16.56801
594.799	15.89313
594.995	14.59272
595.192	17.24878
595.388	16.15559
595.584	16.11685
595.78	15.51995
595.977	18.90696
596.173	18.02461
596.369	16.44069
596.565	16.02619
596.761	15.6048
596.957	17.77271
597.154	16.15646
597.35	16.2448
597.546	16.14636
597.742	16.96202
597.938	16.6972
598.134	15.7962
598.33	16.38719
598.526	17.24492
598.722	16.51354
598.918	17.77259
599.114	16.77149
599.31	15.10134
599.506	16.0776
599.702	15.47568
599.898	16.30512
600.094	16.9145
600.29	16.96479
600.485	17.08591
600.681	15.68533
600.877	17.84667
601.073	16.28658
601.269	18.30949
601.465	17.70389
601.66	15.53166
601.856	14.8668
602.052	18.4223
602.248	16.43899
602.443	15.04591
602.639	15.73866
602.835	16.08922
603.03	16.06626
603.226	17.49389
603.422	16.19011
603.617	16.68368
603.813	16.59792
604.009	16.48496
604.204	17.96445
604.4	15.74864
604.595	17.78528
604.791	16.05077
604.986	17.10057
605.182	16.18298
605.377	16.41994
605.573	16.41963
605.768	16.57415
605.964	17.02249
606.159	16.9995
606.355	17.27044
606.55	16.11109
606.746	17.34512
606.941	16.31801
607.136	18.26436
607.332	19.00766
607.527	15.45206
607.722	16.80285
607.918	16.33748
608.113	16.04874
608.308	17.62215
608.503	17.39883
608.699	17.27316
608.894	17.50469
609.089	16.44744
609.284	17.2237
609.479	16.65017
609.675	17.46992
609.87	16.76359
610.065	17.52862
610.26	17.57656
610.455	17.36677
610.65	16.76286
610.845	16.99165
611.04	17.41236
611.235	16.51387
611.43	16.40106
611.625	15.55185
611.82	17.88744
612.015	15.88756
612.21	18.20556
612.405	15.33039
612.6	17.93945
612.795	17.85886
612.99	17.20991
613.185	15.50785
613.38	15.80876
613.575	16.55095
613.77	19.79075
613.965	15.20317
614.159	16.10971
614.354	17.9482
614.549	17.58125
614.744	17.21358
614.938	15.28944
615.133	15.18753
615.328	17.9675
615.523	17.68084
615.717	19.69827
615.912	16.03699
616.107	16.72647
616.301	16.37225
616.496	15.89745
616.691	18.26527
616.885	17.42694
617.08	19.83144
617.274	17.709
617.469	18.78683
617.664	17.33762
617.858	16.31956
618.053	17.08706
618.247	16.54624
618.442	14.2712
618.636	18.30822
618.831	16.02543
619.025	15.92383
619.219	19.85454
619.414	13.24178
619.608	16.27766
619.803	15.79778
619.997	19.14304
620.191	17.7793
620.386	17.15124
620.58	16.23192
620.774	14.70401
620.969	15.13442
621.163	16.66414
621.357	15.74852
621.551	16.55298
621.746	16.83387
621.94	16.34487
622.134	20.18411
622.328	19.16168
622.522	14.98066
622.716	17.75084
622.911	17.80113
623.105	17.86399
623.299	17.25527
623.493	20.08493
623.687	15.93894
623.881	15.90082
624.075	17.27547
624.269	18.3176
624.463	14.68398
624.657	14.97399
624.851	17.49289
625.045	17.65851
625.239	18.10432
625.433	16.6473
625.627	19.0011
625.821	16.5203
626.015	16.36237
626.209	17.37304
626.403	15.36246
626.596	17.75007
626.79	18.18884
626.984	15.93931
627.178	17.76593
627.372	17.62868
627.565	17.97056
627.759	15.54417
627.953	15.80653
628.147	17.38675
628.34	17.75904
628.534	19.4855
628.728	16.94163
628.921	17.94328
629.115	17.67915
629.309	17.90066
629.502	18.22003
629.696	17.10072
629.89	16.81243
630.083	17.32837
630.277	17.28967
630.47	18.9122
630.664	16.46888
630.857	14.99329
631.051	17.73949
631.244	18.24485
631.438	17.75187
631.631	16.04746
631.825	18.71682
632.018	17.53338
632.212	19.22051
632.405	18.48506
632.598	16.07254
632.792	17.29449
632.985	14.3245
633.178	16.83814
633.372	17.10537
633.565	16.87665
633.758	18.6767
633.952	16.1929
634.145	16.01832
634.338	17.06054
634.531	16.57499
634.724	16.27776
634.918	17.26018
635.111	16.58004
635.304	16.26386
635.497	20.01728
635.69	17.61437
635.883	18.56836
636.077	15.90536
636.27	17.8468
636.463	17.29177
636.656	17.17564
636.849	16.91688
637.042	17.81698
637.235	19.53903
637.428	18.09657
637.621	17.58202
637.814	18.93405
638.007	19.03056
638.2	19.12065
638.393	19.78807
638.586	15.20782
638.778	16.53426
638.971	16.74987
639.164	18.97585
639.357	17.25035
639.55	19.39928
639.743	18.05779
639.935	18.05128
640.128	20.54565
640.321	18.43514
640.514	17.55371
640.707	20.4164
640.899	18.52403
641.092	14.98997
641.285	32.6837
641.477	14.44237
641.67	21.20143
641.863	18.99892
642.055	17.88848
642.248	17.17839
642.441	17.14208
642.633	18.17575
642.826	18.73883
643.018	19.49339
643.211	20.33344
643.403	20.33227
643.596	20.69498
643.788	19.97721
643.981	16.92532
644.173	18.75198
644.366	16.72035
644.558	14.87332
644.751	18.89377
644.943	15.70941
645.135	20.00401
645.328	19.97304
645.52	18.44779
645.712	19.06742
645.905	22.55832
646.097	15.97863
646.289	18.00569
646.482	21.49011
646.674	16.21744
646.866	19.50344
647.058	18.44182
647.251	16.15536
647.443	16.77147
647.635	17.35074
647.827	16.13507
648.019	16.16847
648.211	17.24614
648.404	17.7841
648.596	20.27902
648.788	18.29572
648.98	17.76462
649.172	18.44662
649.364	18.71729
649.556	15.15822
649.748	22.25243
649.94	16.22388
650.132	19.29977
650.324	16.43961
650.516	16.98747
650.708	19.72207
650.9	15.83201
651.092	15.467
651.284	15.95101
651.476	16.12304
651.667	19.00037
651.859	20.51722
652.051	17.70641
652.243	18.07298
652.435	17.27924
652.627	18.70449
652.818	18.71316
653.01	15.68794
653.202	16.71536
653.394	16.6879
653.585	18.66558
653.777	24.91535
653.969	20.24063
654.16	19.88836
654.352	16.14795
654.544	17.71799
654.735	19.70501
654.927	18.03251
655.118	20.50445
655.31	19.14166
655.502	20.17365
655.693	17.33869
655.885	18.96072
656.076	20.55676
656.268	18.44776
656.459	20.60347
656.651	20.5082
656.842	17.53392
657.034	16.92813
657.225	20.00525
657.416	20.97635
657.608	20.71183
657.799	18.52715
657.99	20.60595
658.182	17.8546
658.373	17.55542
658.564	20.64685
658.756	19.45938
658.947	18.65274
659.138	17.69148
659.33	18.13106
659.521	17.88082
659.712	18.62682
659.903	18.39516
660.094	17.77781
660.286	16.37793
660.477	21.47953
660.668	19.42262
660.859	18.5067
661.05	16.26282
661.241	19.4317
661.432	18.91865
661.623	17.57971
661.814	17.57019
662.006	15.98195
662.197	19.07367
662.388	20.22817
662.579	19.08583
662.77	20.6297
662.96	23.19155
663.151	20.03349
663.342	15.46131
663.533	19.47198
663.724	18.45947
663.915	22.13651
664.106	18.76234
664.297	21.75185
664.488	19.8604
664.678	17.1448
664.869	20.45705
665.06	20.10983
665.251	19.03362
665.442	20.00991
665.632	17.14944
665.823	22.21092
666.014	13.53688
666.204	19.60277
666.395	21.1588
666.586	23.38741
666.776	20.32402
666.967	22.07853
667.158	19.06718
667.348	21.92069
667.539	16.97799
667.729	20.72318
667.92	17.76893
668.111	20.93397
668.301	20.3194
668.492	19.02902
668.682	19.44385
668.873	18.9961
669.063	16.68673
669.253	19.94949
669.444	22.06888
669.634	19.06071
669.825	22.699
670.015	21.84673
670.206	17.61059
670.396	22.87097
670.586	18.99198
670.777	19.98441
670.967	15.22464
671.157	18.6816
671.347	17.72347
671.538	22.0556
671.728	20.14741
671.918	22.99032
672.108	21.18705
672.299	18.77878
672.489	19.71227
672.679	17.8331
672.869	20.81791
673.059	24.37408
673.249	20.4553
673.44	17.38737
673.63	18.85774
673.82	21.46195
674.01	17.53247
674.2	20.4451
674.39	25.34734
674.58	20.88918
674.77	19.74323
674.96	19.48666
675.15	28.27641
675.34	21.87419
675.53	19.56553
675.72	18.42043
675.91	16.47848
676.099	23.51008
676.289	24.70357
676.479	22.19393
676.669	18.55661
676.859	20.68925
677.049	18.22296
677.238	19.99533
677.428	23.84343
677.618	20.94696
677.808	24.34907
677.997	20.87976
678.187	18.17908
678.377	20.18307
678.567	18.82828
678.756	19.49157
678.946	20.38137
679.136	17.56708
679.325	19.10601
679.515	18.73285
679.704	18.13572
679.894	22.45729
680.084	21.26184
680.273	22.95389
680.463	18.93926
680.652	18.62113
680.842	20.30849
681.031	22.37507
681.221	18.82742
681.41	21.75324
681.6	19.82873
681.789	21.60877
681.978	22.70378
682.168	21.11235
682.357	20.52175
682.547	21.4956
682.736	20.64835
682.925	22.99318
683.115	23.23531
683.304	22.22939
683.493	20.54474
683.682	21.79406
683.872	21.79765
684.061	23.08055
684.25	21.81549
684.439	26.32295
684.629	22.32657
684.818	28.53407
685.007	20.94828
685.196	19.95294
685.385	25.63815
685.574	21.89073
685.763	21.58298
685.952	21.61535
686.142	18.00133
686.331	24.20766
686.52	17.71163
686.709	26.04414
686.898	25.80096
687.087	22.80731
687.276	25.20232
687.465	24.18372
687.654	20.86113
687.842	24.74306
688.031	18.65442
688.22	24.98694
688.409	22.06548
688.598	21.72429
688.787	27.84918
688.976	21.92065
689.165	26.49552
689.353	20.42499
689.542	22.63386
689.731	24.61273
689.92	27.41954
690.108	23.48482
690.297	21.06597
690.486	22.23876
690.675	23.76772
690.863	25.82641
691.052	25.76715
691.241	22.90445
691.429	22.85604
691.618	25.91229
691.806	19.12035
691.995	21.60246
692.184	21.76938
692.372	21.25784
692.561	22.53671
692.749	22.94269
692.938	31.15171
693.126	23.64476
693.315	21.95017
693.503	24.07177
693.692	25.20643
693.88	25.17408
694.068	28.42935
694.257	23.20749
694.445	24.33158
694.634	18.13788
694.822	24.64624
695.01	26.4643
695.199	28.5916
695.387	26.63854
695.575	26.42696
695.763	22.21344
695.952	22.34169
696.14	19.0488
696.328	21.26337
696.516	23.37358
696.705	24.19711
696.893	23.40272
697.081	19.06174
697.269	25.31667
697.457	20.78878
697.645	20.1849
697.833	25.55442
698.021	21.29915
698.21	22.13986
698.398	22.86443
698.586	20.51379
698.774	20.11908
698.962	23.03009
699.15	20.63482
699.338	19.24762
699.526	24.03754
699.714	21.08264
699.901	21.27323
700.089	24.42641
700.277	20.72971
700.465	21.91586
700.653	24.44979
700.841	23.92564
701.029	20.7574
701.217	27.0693
701.404	23.05889
701.592	27.45233
701.78	29.795
701.968	22.59081
702.155	22.11783
702.343	19.33957
702.531	27.09549
702.718	23.96861
702.906	21.62154
703.094	21.82053
703.281	27.43525
703.469	23.54019
703.657	26.83676
703.844	33.7211
704.032	29.93054
704.219	22.15202
704.407	25.78226
704.595	28.49462
704.782	25.6305
704.97	24.49416
705.157	23.88529
705.345	30.55009
705.532	36.4758
705.719	27.82146
705.907	30.68341
706.094	27.77729
706.282	33.8546
706.469	27.40573
706.656	28.61881
706.844	27.22622
707.031	32.08787
707.218	30.35736
707.406	34.11462
707.593	31.65218
707.78	31.74851
707.968	29.6078
708.155	27.34631
708.342	31.95939
708.529	31.96412
708.716	31.25917
708.904	34.69362
709.091	31.95675
709.278	26.69371
709.465	36.46139
709.652	34.51696
709.839	33.81691
710.026	29.61398
710.213	23.99696
710.4	29.96205
710.587	31.66436
710.774	32.73055
710.961	33.02665
711.148	29.67055
711.335	32.35386
711.522	29.12159
711.709	30.83278
711.896	36.60044
712.083	32.67691
712.27	26.78596
712.457	30.30508
712.644	25.01865
712.831	36.66508
713.017	30.33275
713.204	32.42086
713.391	26.83547
713.578	32.31982
713.765	34.61095
713.951	30.29481
714.138	39.66173
714.325	29.87724
714.512	28.36752
714.698	24.50368
714.885	32.78832
715.072	27.78559
715.258	27.31663
715.445	24.77168
715.631	31.79927
715.818	18.833
716.005	25.12281
716.191	29.24241
716.378	24.90991
716.564	29.99076
716.751	24.14531
716.937	25.51483
717.124	29.85187
717.31	23.09965
717.497	33.50875
717.683	23.63594
717.869	35.40765
718.056	24.71459
718.242	29.05028
718.429	25.93958
718.615	23.04257
718.801	26.55622
718.988	31.25448
719.174	29.00697
719.36	25.52962
719.547	32.38176
719.733	27.93902
719.919	27.1814
720.105	29.00903
720.291	26.25161
720.478	27.84617
720.664	26.36107
720.85	24.49661
721.036	38.81888
721.222	33.43528
721.408	26.83728
721.595	34.71847
721.781	33.9134
721.967	32.2098
722.153	34.54239
722.339	29.46178
722.525	29.34648
722.711	22.96805
722.897	22.55391
723.083	25.6246
723.269	31.81649
723.455	39.78722
723.641	45.9334
723.827	28.39334
724.012	29.5677
724.198	27.97138
724.384	33.61711
724.57	29.38921
724.756	22.2815
724.942	19.8895
725.127	33.11319
725.313	33.34717
725.499	32.55105
725.685	36.21142
725.87	29.60424
726.056	24.63084
726.242	34.1222
726.428	21.76459
726.613	32.55067
726.799	26.45778
726.985	24.03034
727.17	21.7271
727.356	37.82804
727.541	24.61838
727.727	27.59489
727.913	31.66594
728.098	26.31089
728.284	31.27149
728.469	23.24272
728.655	25.10318
728.84	32.79152
729.026	32.09127
729.211	31.87027
729.397	29.97594
729.582	31.80029
729.767	27.90246
729.953	30.00684
730.138	33.89158
730.323	19.31512
730.509	23.88291
730.694	36.30341
730.879	31.50655
731.065	29.59234
731.25	39.40493
731.435	31.75455
731.621	22.39109
731.806	26.42414
731.991	30.11363
732.176	23.10665
732.361	36.62367
732.547	30.32315
732.732	22.39153
732.917	39.11897
733.102	23.75833
733.287	26.24227
733.472	28.3165
733.657	28.35917
733.842	22.71057
734.027	26.24309
734.212	28.00503
734.397	25.10345
734.582	29.43975
734.767	32.99777
734.952	35.61804
735.137	18.06053
735.322	35.94642
735.507	31.61751
735.692	29.63925
735.877	39.60885
736.062	38.58226
736.247	31.29272
736.431	28.4376
736.616	33.84683
736.801	30.52776
736.986	29.33077
737.171	24.23759
737.355	23.22201
737.54	35.74637
737.725	29.67629
737.909	43.13123
738.094	26.13037
738.279	33.03944
738.463	28.5129
738.648	32.34485
738.833	31.09971
739.017	40.60667
739.202	28.50612
739.386	28.0501
739.571	25.0761
739.756	33.40252
739.94	29.60018
740.125	32.10453
740.309	25.98567
740.494	33.12389
740.678	30.55378
740.863	32.51646
741.047	30.2909
741.231	37.65608
741.416	26.47481
741.6	38.86552
741.785	26.52028
741.969	34.73308
742.153	38.21632
742.338	20.13592
742.522	29.26512
742.706	33.90198
742.89	24.37249
743.075	29.40692
743.259	36.74373
743.443	36.89357
743.627	37.37339
743.812	42.79012
743.996	22.57628
744.18	28.13582
744.364	27.54978
744.548	43.60899
744.732	29.26414
744.916	35.49765
745.1	34.39173
745.285	28.76964
745.469	33.69098
745.653	38.88194
745.837	23.63713
746.021	43.48393
746.205	37.46299
746.389	31.6792
746.573	29.52667
746.757	40.13792
746.94	28.05334
747.124	38.47501
747.308	24.58937
747.492	36.40088
747.676	25.91222
747.86	45.51097
748.044	28.59723
748.227	22.08619
748.411	54.14186
748.595	31.52359
748.779	25.83413
748.963	33.39946
749.146	31.13343
749.33	26.14437
749.514	26.52015
749.697	38.13396
749.881	26.209
750.065	25.29131
750.248	32.36421
750.432	45.23465
750.616	31.45233
750.799	23.99518
750.983	46.55969
751.166	45.35025
751.35	23.19639
751.533	38.77902
751.717	41.18631
751.9	39.9627
752.084	29.34245
752.267	26.70596
752.451	27.52148
752.634	31.86264
752.818	34.70606
753.001	36.227
753.184	37.70636
753.368	34.07221
753.551	13.42764
753.734	26.89356
753.918	46.55713
754.101	28.44528
754.284	36.08019
754.467	29.04644
754.651	28.31904
754.834	26.43637
755.017	38.80084
755.2	39.10205
755.384	25.60524
755.567	35.7724
755.75	36.66319
755.933	29.50124
756.116	36.83056
756.299	28.49579
756.482	26.43647
756.665	35.10679
756.848	32.43212
757.032	32.78371
757.215	23.5194
757.398	26.43844
757.581	26.20794
757.764	50.20002
757.947	31.09628
758.129	38.09716
758.312	17.11605
758.495	30.5828
758.678	31.37076
758.861	29.64381
759.044	44.35999
759.227	25.59958
759.41	27.17553
759.592	35.66116
759.775	30.44243
759.958	36.93763
760.141	25.44757
760.324	47.88981
760.506	41.09768
760.689	35.49982
760.872	45.6791
761.054	34.27188
761.237	31.1979
761.42	32.62819
761.602	37.84576
761.785	33.68156
761.968	40.57451
762.15	43.87783
762.333	31.59959
762.515	36.17849
762.698	29.81203
762.88	37.78293
763.063	35.00956
763.245	39.96735
763.428	27.08482
763.61	29.38161
763.793	25.17786
763.975	34.24477
764.158	29.75751
764.34	28.80664
764.522	27.47864
764.705	30.58067
764.887	41.40324
765.069	22.91466
765.252	34.94124
765.434	35.37443
765.616	32.55054
765.799	27.49331
765.981	36.402
766.163	27.59696
766.345	41.3718
766.528	27.44043
766.71	19.3545
766.892	32.67734
767.074	40.84992
767.256	30.09898
767.438	43.98204
767.62	34.52561
767.802	49.53164
767.985	36.98153
768.167	46.13222
768.349	29.97006
768.531	36.71385
768.713	34.29176
768.895	38.81765
769.077	34.92279
769.259	53.25797
769.441	67.94171
769.623	38.26686
769.804	45.80443
769.986	43.36503
770.168	48.73823
770.35	58.69092
770.532	46.0965
770.714	50.39736
770.896	51.25705
771.077	25.38829
771.259	53.53819
771.441	46.39848
771.623	54.32815
771.804	67.06808
771.986	27.61943
772.168	36.9067
772.35	51.22003
772.531	68.36841
772.713	45.62189
772.894	56.14285
773.076	44.33699
773.258	38.86863
773.439	58.95544
773.621	66.40728
773.802	35.44639
773.984	38.43748
774.166	47.44801
774.347	61.11818
774.529	54.63838
774.71	25.02492
774.891	42.17035
775.073	38.36631
775.254	58.67289
775.436	37.30147
775.617	70.17138
775.799	38.97047
775.98	58.01282
776.161	65.28947
776.343	65.45579
776.524	42.73888
776.705	42.57974
776.886	25.24525
777.068	47.78565
777.249	94.69327
777.43	67.50706
777.611	34.03788
777.793	41.47232
777.974	67.07347
778.155	39.10818
778.336	34.86231
778.517	73.73756
778.698	35.52482
778.879	25.27429
779.061	18.07109
779.242	48.1705
779.423	50.96962
779.604	39.53357
779.785	40.41996
779.966	46.90963
780.147	57.37713
780.328	57.35293
780.509	76.909
780.69	56.92682
780.871	36.82919
781.051	31.04506
781.232	45.1567
781.413	46.92729
781.594	41.99913
781.775	40.43214
781.956	37.07074
782.137	23.47737
782.317	40.97498
782.498	44.86114
782.679	47.2133
782.86	48.8696
783.04	36.82395
783.221	46.56168
783.402	67.65568
783.583	45.99701
783.763	57.26859
783.944	39.20118
784.124	31.12962
784.305	67.42835
784.486	54.42595
784.666	43.61516
784.847	27.98112
785.027	87.44834
785.208	38.30907
785.388	38.1831
785.569	38.95859
785.749	43.38171
785.93	40.71271
786.11	28.63016
786.291	51.86771
786.471	48.55691
786.652	54.19337
786.832	42.78636
787.012	47.02667
787.193	33.72186
787.373	46.90218
787.553	39.54229
787.734	48.71965
787.914	41.68039
788.094	57.95584
788.275	47.66577
788.455	41.57653
788.635	31.17806
788.815	47.80065
788.995	34.45926
789.176	28.75854
789.356	35.86358
789.536	42.1144
789.716	49.20963
789.896	37.62361
790.076	39.30801
790.256	48.89044
790.436	22.96638
790.616	33.10375
790.796	47.74801
790.976	39.69019
791.156	38.5761
791.336	52.29961
791.516	49.06933
791.696	41.75902
791.876	30.10847
792.056	46.03339
792.236	56.06458
792.416	55.31088
792.596	49.77595
792.776	51.35441
792.956	54.76634
793.135	67.49512
793.315	33.61414
793.495	58.86679
793.675	54.61269
793.854	54.53031
794.034	57.70785
794.214	33.03301
794.394	52.99399
794.573	59.28387
794.753	46.6115
794.933	35.20508
795.112	47.88058
795.292	57.31157
795.472	68.17986
795.651	30.21671
795.831	45.1618
796.01	41.41553
796.19	41.05231
796.369	43.57304
796.549	50.42651
796.728	44.03098
796.908	29.79368
797.087	32.87973
797.267	41.19714
797.446	32.07957
797.626	51.00283
797.805	50.67152
797.984	36.81734
798.164	54.26834
798.343	36.9666
798.522	46.0592
798.702	46.71264
798.881	31.15755
799.06	41.4901
799.239	25.286
799.419	35.18413
799.598	66.1954
799.777	48.87502
799.956	59.12568
800.136	41.85065
800.315	34.15355
800.494	49.08633
800.673	58.69847
800.852	54.52343
801.031	59.90595
801.21	51.06104
801.389	38.30885
801.568	46.47025
801.747	70.27457
801.926	45.64158
802.105	63.22983
802.284	40.54122
802.463	67.02288
802.642	49.76161
802.821	47.73646
803	62.37607
803.179	56.91101
803.358	59.73584
803.537	37.5894
803.716	44.71818
803.895	38.04835
804.073	43.29151
804.252	36.08862
804.431	51.69273
804.61	43.32552
804.789	57.06286
804.967	38.63942
805.146	39.32625
805.325	75.32989
805.503	48.75822
805.682	31.80081
805.861	88.742
806.039	63.34344
806.218	40.25605
806.397	47.64719
806.575	44.57281
806.754	49.34006
806.932	35.45457
807.111	58.64114
807.289	57.33577
807.468	46.06845
807.646	57.08968
807.825	53.94581
808.003	48.52864
808.182	57.63503
808.36	45.35951
808.539	36.67162
808.717	67.16068
808.895	38.04594
809.074	49.83854
809.252	45.01093
809.43	53.03977
809.609	61.85863
809.787	65.36432
809.965	43.67963
810.144	44.55101
810.322	43.04636
810.5	53.17281
810.678	41.65493
810.856	76.48996
811.035	59.65231
811.213	54.74239
811.391	65.28951
811.569	51.74334
811.747	97.1276
811.925	63.96108
812.103	39.42567
812.281	46.85808
812.459	70.57669
812.637	70.80059
812.816	59.86499
812.994	76.05363
813.171	66.98787
813.349	54.44477
813.527	62.89513
813.705	68.96583
813.883	85.2239
814.061	60.19785
814.239	72.0008
814.417	79.07759
814.595	56.51747
814.773	55.30759
814.95	46.48446
815.128	57.0656
815.306	53.09381
815.484	46.9452
815.662	36.89
815.839	33.72198
816.017	43.14973
816.195	63.06889
816.372	44.51131
816.55	58.50144
816.728	73.1623
816.905	48.42909
817.083	70.19176
817.261	48.25063
817.438	94.0242
817.616	73.34141
817.793	42.3264
817.971	60.77832
818.148	59.67712
818.326	69.09212
818.503	52.89251
818.681	73.21462
818.858	46.09849
819.036	48.62713
819.213	52.49211
819.391	41.55952
819.568	41.46021
819.745	36.43774
819.923	58.74571
820.1	45.07702
820.277	38.38273
820.455	44.03559
820.632	47.36067
820.809	50.79232
820.986	35.61952
821.164	31.17281
821.341	29.32639
821.518	39.59236
821.695	31.46292
821.872	29.78212
822.05	27.80443
822.227	24.43354
822.404	25.29171
822.581	27.70503
822.758	25.09477
822.935	25.14317
823.112	27.2053
823.289	24.48823
823.466	27.26352
823.643	26.33814
823.82	29.22112
823.997	27.24599
824.174	30.31223
824.351	36.68627
824.528	34.82437
824.705	33.20914
824.882	34.71325
825.059	42.34518
825.236	33.39824
825.412	34.24403
825.589	39.57706
825.766	51.95879
825.943	35.75377
826.12	39.77979
826.296	31.67333
826.473	37.69932
826.65	37.26386
826.827	42.0181
827.003	31.693
827.18	34.48644
827.357	37.7874
827.533	33.07377
827.71	23.92244
827.887	30.29498
828.063	33.47003
828.24	29.5754
828.416	36.30116
828.593	31.3292
828.769	40.89602
828.946	40.44493
829.122	42.56039
829.299	41.68325
829.475	30.28005
829.652	40.91486
829.828	60.29712
830.005	43.58548
830.181	54.81179
830.357	43.86896
830.534	57.55637
830.71	45.93283
830.886	56.41178
831.063	54.69775
831.239	67.40075
831.415	36.76211
831.592	66.61805
831.768	46.79001
831.944	39.76262
832.12	72.247
832.296	69.51623
832.473	57.46004
832.649	41.25239
832.825	58.44702
833.001	38.30399
833.177	52.02411
833.353	48.38257
833.529	31.98005
833.705	44.99503
833.881	33.00152
834.058	32.28138
834.234	34.83077
834.41	34.51891
834.586	28.55756
834.761	31.69924
834.937	35.38416
835.113	35.74246
835.289	31.63808
835.465	36.33387
835.641	34.24373
835.817	35.91834
835.993	56.18705
836.169	34.41014
836.344	47.78376
836.52	50.28039
836.696	47.64266
836.872	40.49378
837.048	99.7961
837.223	45.05573
837.399	73.92348
837.575	60.78305
837.75	59.62189
837.926	77.69852
838.102	107.10594
838.277	92.22526
838.453	122.07238
838.628	121.08047
838.804	51.92743
838.98	107.462
839.155	57.59526
839.331	76.60819
839.506	58.84352
839.682	54.99108
839.857	79.07525
840.033	90.53262
840.208	48.43884
840.384	28.90325
840.559	45.8278
840.734	66.74238
840.91	84.56728
841.085	54.34272
841.26	54.43469
841.436	48.90404
841.611	50.13141
841.786	69.7087
841.962	89.63274
842.137	60.6233
842.312	43.78134
842.487	54.7714
842.663	46.2635
842.838	55.87132
843.013	162.172
843.188	81.91112
843.363	85.02245
843.538	134.75609
843.714	130.2925
843.889	135.01446
844.064	151.95749
844.239	119.33057
844.414	136.84503
844.589	93.33157
844.764	168.80563
844.939	165.76193
845.114	180.17145
845.289	172.49202
845.464	229.82501
845.639	160.39297
845.814	81.97804
845.989	90.68285
846.163	117.4412
846.338	126.43569
846.513	163.09363
846.688	112.42113
846.863	116.5552
847.038	107.62872
847.212	112.99482
847.387	119.70488
847.562	124.00493
847.737	152.11207
847.911	66.658
848.086	78.01862
848.261	255.30944
848.435	110.07215
848.61	161.12692
848.785	86.33092
848.959	166.78607
849.134	221.75292
849.308	219.63095
849.483	131.77755
849.658	190.11928
849.832	106.10607
850.007	99.1469
850.181	253.60797
850.356	96.4556
850.53	238.01647
850.705	81.71977
850.879	51.78091
851.053	113.0072
851.228	108.36887
851.402	137.03499
851.577	171.38284
851.751	195.10108
851.925	130.66389
852.099	65.74945
852.274	92.8673
852.448	113.56246
852.622	154.63042
852.797	122.38454
852.971	115.97252
853.145	127.58528
853.319	357.77493
853.493	180.82112
853.668	107.39524
853.842	226.00823
854.016	181.86173
854.19	202.92393
854.364	135.14944
854.538	142.55149
854.712	183.22193
854.886	123.32953
855.06	113.58163
855.234	50.55989
855.408	199.16613
855.582	169.17653
855.756	169.67484
855.93	224.93482
856.104	151.47113
856.278	172.25673
856.452	122.86996
856.626	165.36211
856.8	263.93693
856.973	160.07916
857.147	146.48525
857.321	154.50098
857.495	180.56357
857.669	124.84559
857.842	110.00184
858.016	182.37107
858.19	96.28812
858.364	288.22267
858.537	113.94443
858.711	134.48254
858.885	123.19435
859.058	104.3681
859.232	60.72864
859.405	76.94666
859.579	166.29644
859.753	148.23338
859.926	109.09978
860.1	69.11044
860.273	134.00638
860.447	211.92665
860.62	116.53182
860.794	253.37062
860.967	139.06407
861.141	184.4107
861.314	263.373
861.487	162.15532
861.661	206.63126
861.834	206.66907
862.008	180.48327
862.181	134.29428
862.354	130.15035
862.528	152.70367
862.701	112.25257
862.874	72.30108
863.047	122.56906
863.221	110.39852
863.394	62.59923
863.567	211.89569
863.74	55.65994
863.913	173.00033
864.087	147.48845
864.26	181.54332
864.433	128.66297
864.606	234.75164
864.779	139.24935
864.952	71.39375
865.125	108.54882
865.298	127.92744
865.471	132.70101
865.644	259.86044
865.817	205.5051
865.99	176.22291
866.163	199.57453
866.336	115.51201
866.509	132.35888
866.682	112.38445
866.855	192.62861
867.028	88.07794
867.2	159.26496
867.373	54.43904
867.546	149.07936
867.719	265.29952
867.892	163.55265
868.064	102.50975
868.237	151.87937
868.41	131.7429
868.583	85.43528
868.755	86.05445
868.928	136.97887
869.101	270.33974
869.273	200.36432
869.446	167.23073
869.619	191.47476
869.791	134.27057
869.964	191.65722
870.136	177.0219
870.309	146.56646
870.481	143.97512
870.654	76.27498
870.826	149.49449
870.999	118.91078
871.171	185.14548
871.344	114.32899
871.516	132.16771
871.689	97.95258
871.861	145.6592
872.033	104.84034
872.206	120.38959
872.378	192.21741
872.55	121.95022
872.723	86.15692
872.895	124.85416
873.067	191.67037
873.24	212.27791
873.412	110.69487
873.584	125.3633
873.756	113.4548
873.928	155.72253
874.101	147.87532
874.273	166.07408
874.445	59.03699
874.617	86.43085
874.789	150.98961
874.961	121.64997
875.133	164.35846
875.305	138.39468
875.477	97.37194
875.649	79.59628
875.821	100.37196
875.993	229.22713
876.165	93.17228
876.337	155.64783
876.509	121.84798
876.681	153.91035
876.853	144.16372
877.025	150.13713
877.197	104.19822
877.369	94.65282
877.541	186.35479
877.712	56.58378
877.884	83.09217
878.056	168.19614
878.228	93.10787
878.4	160.22742
878.571	96.06622
878.743	72.1488
878.915	149.25319
879.086	90.81455
879.258	109.8027
879.43	102.67237
879.601	89.09703
879.773	97.06619
879.945	29.5989
880.116	47.0569
880.288	32.65317
880.459	35.35553
880.631	29.98913
880.802	33.81883
880.974	31.97208
881.145	25.75353
881.317	31.23702
881.488	26.16524
881.66	28.25151
881.831	25.79288
882.002	32.50824
882.174	26.61542
882.345	32.12075
882.517	22.64607
882.688	35.1772
882.859	31.62448
883.03	44.95139
883.202	42.61396
883.373	38.67713
883.544	38.99971
883.715	60.76999
883.887	51.2671
884.058	44.5519
884.229	62.15679
884.4	63.20065
884.571	69.52151
884.742	63.90413
884.914	66.68079
885.085	91.01473
885.256	109.86345
885.427	93.21714
885.598	107.50675
885.769	113.84975
885.94	105.23473
886.111	74.60228
886.282	128.20655
886.453	103.61543
886.624	76.93408
886.795	124.7324
886.966	102.75473
887.136	131.60126
887.307	87.25985
887.478	161.93569
887.649	145.99715
887.82	148.7179
887.991	116.11846
888.161	155.32371
888.332	157.29048
888.503	81.19641
888.674	207.79451
888.844	213.23951
889.015	178.40159
889.186	82.40065
889.356	210.70218
889.527	84.18306
889.698	353.95879
889.868	120.35003
890.039	151.08872
890.209	131.61947
890.38	180.56447
890.551	153.29317
890.721	215.71314
890.892	170.9424
891.062	127.63872
891.233	149.7028
891.403	121.60498
891.574	99.45097
891.744	127.25174
891.914	166.55148
892.085	140.03772
892.255	61.42784
892.425	213.90037
892.596	173.01063
892.766	156.19931
892.936	212.77646
893.107	182.76221
893.277	103.38797
893.447	82.35122
893.618	57.55426
893.788	119.06895
893.958	64.33651
894.128	72.05756
894.298	74.40468
894.468	104.49692
894.639	52.98353
894.809	39.59091
894.979	55.32207
895.149	63.37072
895.319	54.63973
895.489	71.38077
895.659	88.83194
895.829	62.52295
895.999	66.03984
896.169	51.48849
896.339	60.04126
896.509	117.89782
896.679	130.86092
896.849	127.67375
897.019	179.33712
897.189	141.5253
897.358	124.02334
897.528	182.05061
897.698	67.82529
897.868	160.12732
898.038	273.02238
898.208	257.02293
898.377	89.44088
898.547	265.63055
898.717	411.51257
898.886	165.26668
899.056	255.85728
899.226	382.26264
899.395	237.90325
899.565	295.64066
899.735	194.5381
899.904	337.12255
900.074	267.2574
900.244	129.32759
900.413	509.55063
900.583	122.54495
900.752	178.57205
900.922	304.07619
901.091	48.09251
901.261	267.57499
901.43	260.63128
901.599	240.51442
901.769	535.40796
901.938	284.78597
902.108	272.26703
902.277	352.03657
902.446	104.02065
902.616	123.59482
902.785	171.00472
902.954	280.8426
903.124	191.15118
903.293	151.83453
903.462	91.71943
903.631	118.75539
903.801	88.1748
903.97	55.18161
904.139	83.71954
904.308	63.17638
904.477	54.69349
904.646	33.75244
904.816	50.31505
904.985	69.3485
905.154	103.40897
