Data from WindowProjectSample_Transmission__22__00022.txt Node

Date: Sat May 03 15:16:40 EDT 2025
User: jessi
Spectrometer: SR400872
Trigger mode: 0
Integration Time (sec): 5.000010E-1
Scans to average: 6
Electric dark correction enabled: true
Nonlinearity correction enabled: true
Boxcar width: 0
XAxis mode: Wavelengths
Number of Pixels in Spectrum: 3648
>>>>>Begin Spectral Data<<<<<
184.909	18465.55347
185.132	2535.08902
185.355	24455.90998
185.578	-8262.64234
185.801	453.17719
186.024	-1549.42006
186.247	730.63018
186.47	2304.60435
186.693	-254.79776
186.916	-1968.65326
187.139	-2579.48131
187.362	1555.77362
187.585	2769.72332
187.808	-3564.98232
188.031	266.94723
188.254	-1336.15739
188.476	-828.82116
188.699	2501.75356
188.922	-697.20499
189.145	-10549.91733
189.368	-303.94335
189.591	-1067.09015
189.813	-1719.80916
190.036	1175.86709
190.259	1777.7826
190.482	653.84126
190.705	11050.8583
190.927	-1145.80133
191.15	3536.86741
191.373	2283.01147
191.595	-2207.8081
191.818	2466.96218
192.041	-376.87264
192.263	2668.45034
192.486	1813.63187
192.709	-5577.88958
192.931	2743.06885
193.154	-6391.90597
193.377	194567.21228
193.599	1292.72052
193.822	2016.69777
194.044	-2081.76894
194.267	448.49821
194.489	-478.28335
194.712	1393.48699
194.934	3361.01516
195.157	-16350.72707
195.379	738.20751
195.602	2342.33235
195.824	2158.48191
196.047	2184.77495
196.269	3029.91755
196.492	3352.17757
196.714	2692.00279
196.936	1205.31135
197.159	1472.93062
197.381	-2379.15708
197.604	-1280.89031
197.826	6370.25967
198.048	2928.61019
198.271	4274.04061
198.493	2171.84054
198.715	-6037.75699
198.938	-552.00145
199.16	2011.19345
199.382	1464.02754
199.604	-660.40591
199.827	9312.57687
200.049	999.74917
200.271	-2939.55597
200.493	-53684.35369
200.715	2369.2452
200.938	6802.40586
201.16	-7349.95008
201.382	-3069.60216
201.604	-1951.04744
201.826	6935.54292
202.048	928.16387
202.27	-17603.67894
202.492	4845.80607
202.715	-1150.90605
202.937	4450.9078
203.159	-2173.98909
203.381	875.53939
203.603	-3808.9239
203.825	-2861.09176
204.047	3436.11782
204.269	-2232.10655
204.491	2199.16181
204.713	1916.00505
204.935	16328.34713
205.156	1810.39553
205.378	-8264.81559
205.6	-4151.07379
205.822	9133.29949
206.044	-633.88491
206.266	4239.38931
206.488	1156.589
206.71	29523.44891
206.932	2530.96148
207.153	-5018.16179
207.375	-1959.3554
207.597	8748.35833
207.819	4440.46499
208.041	2210.26497
208.262	-2383.65018
208.484	-1348.59686
208.706	-2974.27174
208.927	30860.3847
209.149	943.12774
209.371	-6418.31647
209.593	913.23914
209.814	5553.46458
210.036	-3509.62362
210.258	-5816.39248
210.479	-1384.63105
210.701	1030.8028
210.922	7208.46644
211.144	-1276.61425
211.366	-6408.17148
211.587	-660.2249
211.809	9788.35897
212.03	-1168.03692
212.252	-2409.22952
212.473	779.77678
212.695	-2763.95302
212.916	2703.89487
213.138	4419.45677
213.359	-1960.93729
213.581	5971.42052
213.802	-1488.51475
214.024	17645.47181
214.245	-3666.36077
214.466	-755.43754
214.688	1689.79966
214.909	934.08546
215.131	-92743.46691
215.352	1755.06224
215.573	2403.8565
215.795	2877.69229
216.016	4376.51117
216.237	-685.88266
216.459	6945.61203
216.68	101140.87212
216.901	-80555.71287
217.122	1953.98241
217.344	6409.7853
217.565	-57973.81846
217.786	1561.19143
218.007	1626.43121
218.228	-1001.74532
218.45	-1179.63116
218.671	-1218.71678
218.892	1131.90399
219.113	-20200.09851
219.334	-325.61661
219.555	-5723.28107
219.776	1591.35351
219.997	3438.71571
220.219	1098.30232
220.44	2368.72745
220.661	-2831.99706
220.882	3608.21718
221.103	-1188.27395
221.324	1029.71923
221.545	2257.0646
221.766	-5960.96433
221.987	4047.5439
222.208	-1732.53722
222.429	3472.58474
222.65	-139.60039
222.87	-607.69788
223.091	7693.10838
223.312	2675.10784
223.533	6348.73096
223.754	1896.95422
223.975	1437.14564
224.196	-11538.27899
224.417	1148.283
224.637	827.12435
224.858	-445.50093
225.079	6785.4166
225.3	629.29939
225.521	2061.3917
225.741	1561.26196
225.962	757.9018
226.183	302.09102
226.404	665.34841
226.624	605.53217
226.845	396.29732
227.066	440.41793
227.286	195.28376
227.507	109.11311
227.728	80.31011
227.948	123.56387
228.169	42.38504
228.389	45.80526
228.61	25.86411
228.831	36.52031
229.051	3.47286
229.272	22.73413
229.492	30.66945
229.713	9.64492
229.933	22.53302
230.154	19.10863
230.374	33.19572
230.595	24.27678
230.815	16.90931
231.036	21.73538
231.256	-4.91332
231.477	42.7232
231.697	25.27224
231.917	23.9436
232.138	37.74835
232.358	75.30285
232.579	64.4003
232.799	12.54351
233.019	67.05286
233.24	79.14524
233.46	24.59395
233.68	41.08442
233.901	31.75153
234.121	20.74689
234.341	10.81453
234.561	-2.68203
234.782	16.02515
235.002	48.34093
235.222	-1.06035
235.442	40.86465
235.662	18.80191
235.883	43.80593
236.103	35.67257
236.323	24.08129
236.543	20.62701
236.763	32.67333
236.983	28.26936
237.203	29.7008
237.423	45.35873
237.643	64.34432
237.864	51.90773
238.084	15.0916
238.304	19.67774
238.524	34.92377
238.744	30.2501
238.964	47.57034
239.184	44.58632
239.404	45.43344
239.624	25.03678
239.843	40.14176
240.063	24.88065
240.283	16.18952
240.503	16.94936
240.723	18.07762
240.943	8.54984
241.163	13.8093
241.383	10.09874
241.603	4.66399
241.822	6.99824
242.042	4.8186
242.262	6.62249
242.482	7.00687
242.702	8.37924
242.921	2.52429
243.141	5.92318
243.361	4.77097
243.581	7.33752
243.8	6.59425
244.02	4.08089
244.24	7.58088
244.459	7.64191
244.679	14.25676
244.899	10.25212
245.118	11.1661
245.338	8.67356
245.558	10.83942
245.777	6.41121
245.997	7.24892
246.216	7.6368
246.436	4.24017
246.655	2.97006
246.875	2.79777
247.094	4.93353
247.314	1.77905
247.533	2.73388
247.753	3.69812
247.972	2.68807
248.192	1.22722
248.411	1.60057
248.631	3.14572
248.85	4.20937
249.07	3.09924
249.289	5.33765
249.508	3.91972
249.728	5.5385
249.947	6.6343
250.166	6.92772
250.386	3.85898
250.605	5.8933
250.824	8.5733
251.044	6.54672
251.263	20.59901
251.482	10.93404
251.701	10.16412
251.921	0.71091
252.14	3.15544
252.359	3.44471
252.578	8.21265
252.798	2.73774
253.017	7.87784
253.236	3.94865
253.455	4.4277
253.674	9.34643
253.893	4.92288
254.112	6.62619
254.331	10.05595
254.551	7.41061
254.77	3.78937
254.989	11.96692
255.208	10.6181
255.427	13.01857
255.646	10.84356
255.865	17.92437
256.084	6.93754
256.303	8.41886
256.522	10.88424
256.741	3.73725
256.96	3.38562
257.179	6.94437
257.397	8.90447
257.616	4.98835
257.835	5.35814
258.054	12.08573
258.273	7.90144
258.492	8.48822
258.711	5.39961
258.93	2.39882
259.148	3.57083
259.367	3.51255
259.586	4.60225
259.805	2.06743
260.023	4.09038
260.242	3.37152
260.461	2.2392
260.68	1.41885
260.898	3.90717
261.117	1.28077
261.336	0.96885
261.554	3.30938
261.773	3.24687
261.992	0.48436
262.21	3.05772
262.429	4.25204
262.648	6.46294
262.866	6.78252
263.085	4.57327
263.303	4.56828
263.522	7.59898
263.74	7.88372
263.959	12.53095
264.178	6.59192
264.396	5.89553
264.615	4.14571
264.833	9.77975
265.051	8.69928
265.27	8.54121
265.488	9.32176
265.707	5.95846
265.925	9.24108
266.144	4.4758
266.362	5.36553
266.58	5.21724
266.799	4.43238
267.017	5.12743
267.235	4.61485
267.454	3.01318
267.672	1.72083
267.89	3.5805
268.109	4.04608
268.327	4.05016
268.545	0.91859
268.763	3.69517
268.982	1.20917
269.2	4.61507
269.418	2.73761
269.636	1.92147
269.854	3.38629
270.073	3.01926
270.291	1.45078
270.509	1.91669
270.727	3.85602
270.945	6.20831
271.163	6.35413
271.381	1.7718
271.599	2.50063
271.817	4.4472
272.036	1.70542
272.254	2.66369
272.472	2.07895
272.69	1.99692
272.908	2.16021
273.126	3.61813
273.344	4.81323
273.562	1.93423
273.779	2.57422
273.997	3.32118
274.215	3.99852
274.433	2.67164
274.651	4.09013
274.869	4.15587
275.087	2.67613
275.305	4.06837
275.523	2.13433
275.74	2.96265
275.958	4.87966
276.176	7.18094
276.394	2.11359
276.612	2.9432
276.829	2.98832
277.047	2.40563
277.265	2.58137
277.483	3.51744
277.7	3.9227
277.918	3.04878
278.136	5.27544
278.353	2.81381
278.571	1.45604
278.789	4.62571
279.006	0.82793
279.224	2.64446
279.442	4.83312
279.659	3.06166
279.877	2.11179
280.094	5.00152
280.312	1.3857
280.529	3.35569
280.747	0.73165
280.964	2.42763
281.182	5.37786
281.399	2.31477
281.617	3.39291
281.834	2.37209
282.052	1.90873
282.269	2.8513
282.487	2.28568
282.704	1.85126
282.921	1.99935
283.139	3.03141
283.356	4.04866
283.574	3.03922
283.791	1.59151
284.008	4.69139
284.226	2.64118
284.443	2.87579
284.66	3.46714
284.877	3.08969
285.095	1.8802
285.312	1.48885
285.529	0.97274
285.746	0.80763
285.964	1.97302
286.181	1.21408
286.398	1.92405
286.615	2.49566
286.832	2.44908
287.05	0.82952
287.267	1.69416
287.484	1.82687
287.701	2.40818
287.918	2.39897
288.135	2.59561
288.352	0.97364
288.569	1.43341
288.786	2.2811
289.003	1.75417
289.22	2.59764
289.437	1.63583
289.654	2.67623
289.871	2.84763
290.088	2.72213
290.305	2.2019
290.522	1.65761
290.739	1.97147
290.956	2.86615
291.173	3.44261
291.39	3.21651
291.607	2.29718
291.824	1.71307
292.04	1.15344
292.257	2.52217
292.474	2.9957
292.691	2.00029
292.908	0.9293
293.125	1.60101
293.341	1.12887
293.558	4.85829
293.775	1.88743
293.992	2.19922
294.208	0.79677
294.425	1.09748
294.642	1.71244
294.858	2.44436
295.075	0.67088
295.292	1.80447
295.508	2.40899
295.725	3.45102
295.942	1.72655
296.158	1.03635
296.375	1.86166
296.591	1.47081
296.808	1.67019
297.024	1.85314
297.241	2.0582
297.458	2.24585
297.674	0.15146
297.891	1.69255
298.107	1.22381
298.323	1.05083
298.54	2.56146
298.756	1.14701
298.973	0.50655
299.189	2.72133
299.406	1.11285
299.622	2.7661
299.838	2.60155
300.055	2.51362
300.271	0.78896
300.487	0.83968
300.704	1.14292
300.92	0.72206
301.136	3.62067
301.353	2.64208
301.569	1.77072
301.785	2.11778
302.001	2.48475
302.218	2.24121
302.434	2.07816
302.65	0.76736
302.866	1.67706
303.083	3.60544
303.299	3.48709
303.515	1.81284
303.731	2.0411
303.947	0.76644
304.163	1.15046
304.379	1.96175
304.595	2.32164
304.812	1.33748
305.028	1.13414
305.244	1.55147
305.46	2.5515
305.676	2.59895
305.892	2.91981
306.108	1.93516
306.324	1.39775
306.54	3.41542
306.756	2.47057
306.972	2.37146
307.187	1.64217
307.403	3.23129
307.619	1.31442
307.835	2.73447
308.051	3.16738
308.267	0.64768
308.483	2.70915
308.699	2.2472
308.914	1.9757
309.13	1.74748
309.346	0.42834
309.562	0.92566
309.778	0.63937
309.993	2.26998
310.209	1.71335
310.425	0.78495
310.641	1.57603
310.856	0.93411
311.072	0.77351
311.288	1.76821
311.503	1.86655
311.719	0.37741
311.935	0.32879
312.15	2.08198
312.366	1.72071
312.581	2.25478
312.797	1.79733
313.013	2.33829
313.228	1.50412
313.444	1.89039
313.659	1.32592
313.875	2.14414
314.09	1.76897
314.306	2.75109
314.521	2.49381
314.737	2.26082
314.952	2.16943
315.168	1.53704
315.383	2.4983
315.599	1.78799
315.814	1.43137
316.029	2.41012
316.245	0.70401
316.46	0.61188
316.675	2.89401
316.891	3.67933
317.106	4.44645
317.321	2.43152
317.537	2.42787
317.752	2.49529
317.967	2.7223
318.183	1.25184
318.398	1.64645
318.613	2.80281
318.828	3.23023
319.043	2.72858
319.259	1.39659
319.474	2.05266
319.689	2.78733
319.904	0.34184
320.119	2.69285
320.334	2.31833
320.549	1.75891
320.765	2.85359
320.98	2.39784
321.195	2.8218
321.41	1.73118
321.625	2.71721
321.84	3.6397
322.055	3.63072
322.27	1.32061
322.485	1.05396
322.7	2.04805
322.915	3.10794
323.13	1.09171
323.345	3.24957
323.56	2.6053
323.775	2.48728
323.989	2.47834
324.204	2.02999
324.419	2.63967
324.634	0.93773
324.849	1.83016
325.064	4.02287
325.279	3.02026
325.493	2.49003
325.708	2.97582
325.923	1.30098
326.138	1.29544
326.352	3.33589
326.567	2.85359
326.782	1.69875
326.997	1.33141
327.211	2.37984
327.426	2.24382
327.641	1.51218
327.855	0.59273
328.07	2.56377
328.285	3.44775
328.499	1.72439
328.714	2.56558
328.928	2.74503
329.143	2.23604
329.358	2.76733
329.572	2.96732
329.787	3.25387
330.001	4.14212
330.216	0.69861
330.43	3.67324
330.645	3.55178
330.859	2.77496
331.074	1.33165
331.288	2.23532
331.503	3.03749
331.717	1.18138
331.931	1.95053
332.146	1.90296
332.36	3.51354
332.575	2.54137
332.789	2.28966
333.003	1.83704
333.218	2.49153
333.432	1.77938
333.646	2.60184
333.86	3.3028
334.075	3.53827
334.289	1.75505
334.503	1.28946
334.717	2.59064
334.932	2.48085
335.146	3.12641
335.36	1.66057
335.574	2.65976
335.788	2.55733
336.003	3.19841
336.217	2.53841
336.431	2.60686
336.645	1.61557
336.859	0.84394
337.073	1.76356
337.287	2.25274
337.501	1.12943
337.715	2.22214
337.929	2.70687
338.143	1.15759
338.357	2.06422
338.571	1.13378
338.785	2.43423
338.999	1.60291
339.213	1.78593
339.427	0.76118
339.641	3.01043
339.855	1.97763
340.069	1.45882
340.283	2.9902
340.497	3.60565
340.711	2.4711
340.924	1.55371
341.138	1.07035
341.352	0.86663
341.566	2.14769
341.78	0.55981
341.993	1.49234
342.207	0.96406
342.421	2.26231
342.635	2.14302
342.848	1.52876
343.062	0.17907
343.276	1.42322
343.49	3.95799
343.703	1.37419
343.917	2.67107
344.131	2.776
344.344	1.4055
344.558	1.5073
344.771	1.28767
344.985	3.25547
345.199	3.35029
345.412	2.1044
345.626	2.17613
345.839	0.64901
346.053	1.05162
346.266	1.07983
346.48	2.54208
346.693	2.17172
346.907	2.41382
347.12	1.25961
347.334	2.07792
347.547	2.39976
347.76	1.75248
347.974	2.88849
348.187	2.39942
348.401	1.65269
348.614	1.49125
348.827	1.6474
349.041	2.50222
349.254	0.76415
349.467	1.71002
349.681	0.61469
349.894	1.49513
350.107	2.96656
350.32	3.11097
350.534	0.57936
350.747	1.42544
350.96	1.1044
351.173	1.27767
351.386	1.8067
351.6	1.44638
351.813	1.3687
352.026	1.81381
352.239	0.84717
352.452	1.55059
352.665	2.47612
352.878	1.6713
353.092	3.78302
353.305	2.32023
353.518	2.15733
353.731	1.20242
353.944	2.99312
354.157	1.13424
354.37	0.99293
354.583	0.92233
354.796	0.62116
355.009	2.69747
355.222	1.75439
355.435	1.81003
355.647	2.72177
355.86	0.91187
356.073	1.60903
356.286	1.27613
356.499	2.35157
356.712	2.15345
356.925	2.11209
357.138	2.53226
357.35	0.91225
357.563	1.43046
357.776	1.83963
357.989	1.1747
358.201	2.12823
358.414	1.62373
358.627	2.60274
358.84	1.31637
359.052	0.99139
359.265	0.78762
359.478	2.56035
359.69	-0.35031
359.903	2.019
360.116	2.26758
360.328	0.43107
360.541	2.29801
360.753	0.78316
360.966	1.05452
361.179	1.11987
361.391	1.17131
361.604	0.72541
361.816	1.14311
362.029	0.95601
362.241	0.83607
362.454	1.00527
362.666	0.84345
362.879	1.33127
363.091	1.24329
363.304	0.89148
363.516	1.54273
363.728	0.53046
363.941	1.86484
364.153	0.86187
364.366	0.02307
364.578	0.81897
364.79	1.81189
365.003	1.33804
365.215	1.27592
365.427	1.78555
365.639	2.45288
365.852	1.77848
366.064	3.12439
366.276	1.12039
366.488	1.97671
366.701	1.25123
366.913	1.33834
367.125	1.49227
367.337	1.03497
367.549	1.25238
367.762	1.50028
367.974	1.57364
368.186	0.83543
368.398	2.40644
368.61	1.97664
368.822	2.07874
369.034	1.61822
369.246	1.99495
369.458	3.2838
369.67	0.87138
369.882	2.97282
370.094	0.13519
370.306	2.85749
370.518	1.31401
370.73	0.703
370.942	0.91657
371.154	1.17867
371.366	1.02489
371.578	1.69959
371.79	0.78185
372.002	2.50906
372.214	2.77059
372.425	1.58946
372.637	2.57583
372.849	1.52781
373.061	-0.08327
373.273	1.76021
373.484	1.87124
373.696	2.24128
373.908	0.09755
374.12	2.18756
374.331	1.92202
374.543	0.8465
374.755	0.65148
374.967	1.58496
375.178	1.96636
375.39	1.47601
375.602	1.70493
375.813	0.50327
376.025	0.43849
376.236	1.4443
376.448	1.55002
376.66	1.05547
376.871	1.02807
377.083	2.24395
377.294	2.22462
377.506	1.10954
377.717	2.2074
377.929	1.62223
378.14	0.78785
378.352	1.75688
378.563	1.74867
378.775	2.41233
378.986	0.92492
379.197	1.35269
379.409	1.19999
379.62	2.06491
379.832	1.63621
380.043	1.387
380.254	1.56405
380.466	0.60942
380.677	3.53954
380.888	3.13771
381.1	3.39374
381.311	3.00577
381.522	1.51847
381.733	3.64743
381.945	1.24906
382.156	1.59736
382.367	1.24009
382.578	3.66035
382.789	3.38972
383.001	1.35562
383.212	2.4461
383.423	2.58875
383.634	2.29363
383.845	1.87383
384.056	1.15266
384.267	1.42808
384.478	1.49023
384.69	0.72868
384.901	2.00223
385.112	1.79911
385.323	2.49751
385.534	1.95168
385.745	2.0137
385.956	1.96914
386.167	0.88682
386.378	2.05355
386.588	0.91573
386.799	1.09161
387.01	0.59145
387.221	2.41596
387.432	1.74194
387.643	3.05414
387.854	1.66785
388.065	1.6628
388.275	1.66812
388.486	1.60323
388.697	1.64957
388.908	1.56643
389.119	2.76643
389.329	2.92382
389.54	1.9478
389.751	2.36808
389.962	2.89396
390.172	2.0345
390.383	1.76303
390.594	1.53561
390.804	1.48446
391.015	1.51815
391.226	2.08188
391.436	2.51576
391.647	2.38294
391.858	2.43946
392.068	1.02619
392.279	1.41718
392.489	2.09914
392.7	2.96441
392.91	1.64625
393.121	1.79238
393.331	2.58563
393.542	3.06096
393.752	2.76317
393.963	2.55195
394.173	2.62271
394.384	2.82929
394.594	2.40981
394.804	1.7276
395.015	2.43262
395.225	2.90761
395.436	1.84377
395.646	3.02778
395.856	2.19677
396.067	1.76245
396.277	3.39391
396.487	3.07801
396.697	2.92175
396.908	3.36027
397.118	3.28602
397.328	2.94715
397.538	3.53791
397.749	2.39428
397.959	3.49168
398.169	3.47622
398.379	2.17553
398.589	3.2916
398.8	3.13356
399.01	3.09589
399.22	3.14592
399.43	4.72103
399.64	2.95492
399.85	3.79765
400.06	3.28015
400.27	2.93573
400.48	3.40569
400.69	4.41336
400.9	3.06885
401.11	2.75926
401.32	4.18004
401.53	3.27869
401.74	4.67963
401.95	3.9306
402.16	3.225
402.37	3.84662
402.58	3.34331
402.79	4.28028
403	4.27086
403.209	3.44679
403.419	4.53816
403.629	3.46023
403.839	4.57298
404.049	4.42935
404.258	3.81353
404.468	3.77592
404.678	4.67831
404.888	4.93474
405.097	4.1291
405.307	4.16335
405.517	4.8521
405.727	4.69793
405.936	4.31662
406.146	4.69688
406.356	5.38714
406.565	4.55397
406.775	4.30016
406.984	4.384
407.194	6.07321
407.404	4.78888
407.613	5.10154
407.823	5.37095
408.032	5.58227
408.242	5.41997
408.451	4.55237
408.661	4.7812
408.87	5.97958
409.08	4.2423
409.289	5.3658
409.499	5.18326
409.708	5.07387
409.918	3.74327
410.127	5.24232
410.336	6.23345
410.546	5.81981
410.755	4.95317
410.964	5.06136
411.174	4.68529
411.383	5.79693
411.592	5.55254
411.802	4.66822
412.011	6.18711
412.22	5.39562
412.429	6.51878
412.639	6.59262
412.848	6.21553
413.057	6.73193
413.266	6.14376
413.475	5.59229
413.685	6.15712
413.894	6.34259
414.103	6.36928
414.312	6.5007
414.521	5.67225
414.73	6.13906
414.939	7.21589
415.148	6.35141
415.357	6.17621
415.566	5.92665
415.776	6.09938
415.985	5.84056
416.194	6.60157
416.403	7.43789
416.611	5.42219
416.82	6.01183
417.029	6.59547
417.238	6.00751
417.447	6.08251
417.656	6.43889
417.865	6.25868
418.074	6.70941
418.283	7.30823
418.492	8.19894
418.7	7.94416
418.909	9.44545
419.118	8.43695
419.327	8.81935
419.536	8.77971
419.744	8.77581
419.953	10.24004
420.162	10.43373
420.371	9.46558
420.579	10.08397
420.788	11.28276
420.997	11.25639
421.205	11.59189
421.414	11.29667
421.623	11.57837
421.831	11.20255
422.04	11.61283
422.249	10.61204
422.457	11.07353
422.666	10.30425
422.874	11.31634
423.083	11.51116
423.291	11.29916
423.5	11.1571
423.708	11.56716
423.917	12.20722
424.125	11.62571
424.334	11.51089
424.542	13.42048
424.751	12.76429
424.959	12.33087
425.167	12.47446
425.376	12.36748
425.584	11.07591
425.793	10.98179
426.001	9.94392
426.209	10.31865
426.418	9.00108
426.626	8.39611
426.834	8.09524
427.042	8.06042
427.251	7.71487
427.459	8.46881
427.667	8.08741
427.875	7.16393
428.084	7.64877
428.292	8.59835
428.5	8.29603
428.708	7.3408
428.916	7.33032
429.124	7.91232
429.333	7.70984
429.541	7.7117
429.749	7.95589
429.957	7.76632
430.165	9.36386
430.373	7.20445
430.581	8.09525
430.789	8.85296
430.997	7.61356
431.205	7.36068
431.413	8.18803
431.621	7.75133
431.829	8.56492
432.037	7.74923
432.245	8.39374
432.453	8.31223
432.661	8.01165
432.869	9.59036
433.076	8.2319
433.284	8.8857
433.492	9.44943
433.7	9.74833
433.908	8.84676
434.116	9.25687
434.323	8.94402
434.531	8.93942
434.739	8.99497
434.947	9.01579
435.154	9.04913
435.362	8.56684
435.57	8.40769
435.778	8.05386
435.985	8.65758
436.193	8.184
436.401	9.10561
436.608	8.50754
436.816	8.27262
437.023	9.41903
437.231	9.34185
437.439	8.74186
437.646	8.87659
437.854	8.78531
438.061	9.0814
438.269	8.54453
438.476	9.12858
438.684	8.90086
438.891	9.16367
439.099	8.96204
439.306	8.87709
439.514	9.00179
439.721	10.56927
439.929	10.21017
440.136	11.39129
440.343	11.22053
440.551	11.02143
440.758	12.93888
440.965	11.53557
441.173	11.14527
441.38	10.91192
441.587	10.81487
441.795	10.43476
442.002	10.07593
442.209	10.0641
442.416	9.93716
442.624	9.51386
442.831	9.36431
443.038	8.76169
443.245	8.42218
443.452	8.67847
443.66	9.2623
443.867	8.5935
444.074	8.54716
444.281	8.82302
444.488	9.10684
444.695	9.6864
444.902	9.92295
445.109	11.19018
445.316	10.9812
445.523	11.34108
445.73	11.57126
445.937	12.49819
446.144	13.1544
446.351	13.50735
446.558	12.37761
446.765	14.36656
446.972	13.72775
447.179	13.12543
447.386	13.73866
447.593	12.20231
447.8	13.24661
448.007	11.50954
448.214	10.75759
448.42	10.26556
448.627	10.92586
448.834	9.82315
449.041	9.65103
449.248	9.23377
449.454	9.65135
449.661	10.09742
449.868	8.98106
450.075	8.71491
450.281	8.06937
450.488	8.54868
450.695	8.50267
450.901	8.3509
451.108	8.87299
451.315	9.45499
451.521	8.68458
451.728	9.60877
451.935	8.67952
452.141	8.90822
452.348	9.05214
452.554	9.11329
452.761	8.81805
452.967	10.11439
453.174	9.10008
453.38	9.30727
453.587	8.59727
453.793	9.23098
454	9.81597
454.206	10.49658
454.413	9.94084
454.619	9.43567
454.825	8.6383
455.032	9.51024
455.238	9.66321
455.445	8.37514
455.651	9.07214
455.857	8.15524
456.064	8.95922
456.27	8.99534
456.476	8.88164
456.682	8.3008
456.889	9.18905
457.095	9.6443
457.301	10.30373
457.507	9.28263
457.714	9.07031
457.92	9.18011
458.126	8.79023
458.332	8.93769
458.538	9.0492
458.744	9.51439
458.951	10.11791
459.157	12.37576
459.363	11.8192
459.569	12.2867
459.775	13.1003
459.981	12.81559
460.187	13.23942
460.393	13.22213
460.599	13.52529
460.805	12.45742
461.011	11.58128
461.217	11.69883
461.423	10.67087
461.629	9.84924
461.835	10.17948
462.041	9.58298
462.247	10.55126
462.453	9.43499
462.658	9.49973
462.864	10.05952
463.07	9.63804
463.276	9.65548
463.482	9.42534
463.688	10.37299
463.893	9.06847
464.099	9.1368
464.305	10.35161
464.511	9.1841
464.716	9.44791
464.922	9.84813
465.128	8.9095
465.333	10.35885
465.539	9.95027
465.745	9.70685
465.95	9.51119
466.156	11.25424
466.362	10.25755
466.567	9.44266
466.773	9.22279
466.978	10.6941
467.184	9.0534
467.389	8.58981
467.595	9.76403
467.8	9.16427
468.006	10.37043
468.211	10.34855
468.417	9.00976
468.622	10.1075
468.828	10.07045
469.033	9.91123
469.239	11.38198
469.444	9.30565
469.649	10.14887
469.855	9.48753
470.06	9.74981
470.266	9.154
470.471	9.85946
470.676	10.05863
470.881	8.57372
471.087	10.69587
471.292	10.83622
471.497	8.94923
471.703	9.43324
471.908	9.17727
472.113	9.64524
472.318	10.32097
472.523	8.96442
472.729	10.03822
472.934	10.00483
473.139	9.51973
473.344	10.2037
473.549	10.57831
473.754	9.24337
473.959	11.58276
474.164	9.42623
474.369	9.62929
474.575	10.1761
474.78	9.90444
474.985	9.18891
475.19	8.79674
475.395	9.20566
475.6	9.72879
475.804	10.58245
476.009	9.75672
476.214	9.55267
476.419	9.59711
476.624	8.92585
476.829	9.3448
477.034	10.07604
477.239	9.3896
477.444	10.07032
477.648	10.1928
477.853	10.16481
478.058	9.69541
478.263	9.45612
478.468	9.26182
478.672	9.40456
478.877	10.77747
479.082	11.043
479.287	10.12532
479.491	10.06863
479.696	9.24205
479.901	10.39175
480.105	10.2805
480.31	9.51379
480.515	9.77403
480.719	11.08917
480.924	9.56892
481.128	9.56841
481.333	10.67957
481.538	10.96397
481.742	11.42023
481.947	12.56926
482.151	13.64917
482.356	14.66006
482.56	17.27431
482.765	19.22603
482.969	22.95728
483.174	25.79572
483.378	30.2175
483.582	31.58373
483.787	33.8951
483.991	34.88579
484.196	35.12395
484.4	34.54839
484.604	34.71681
484.809	31.59038
485.013	30.08478
485.217	27.15893
485.422	24.30024
485.626	21.98356
485.83	20.57761
486.034	19.59081
486.239	19.80824
486.443	20.32432
486.647	20.99445
486.851	22.33781
487.055	24.26354
487.26	24.32056
487.464	25.61813
487.668	24.99404
487.872	25.71923
488.076	25.80493
488.28	24.98591
488.484	23.48472
488.688	22.5404
488.892	21.708
489.096	19.98361
489.3	18.28451
489.504	17.22127
489.708	16.29008
489.912	15.76404
490.116	15.42246
490.32	14.89322
490.524	16.07129
490.728	17.27373
490.932	18.28791
491.136	19.43444
491.34	21.24396
491.544	21.93999
491.748	21.61475
491.951	21.5699
492.155	21.01157
492.359	20.57592
492.563	18.52697
492.767	17.60053
492.97	15.8911
493.174	14.03989
493.378	12.81706
493.582	11.24455
493.785	10.86143
493.989	10.5708
494.193	10.02317
494.396	9.67101
494.6	9.94223
494.804	9.55453
495.007	9.79673
495.211	9.87268
495.414	9.98843
495.618	10.1362
495.822	10.72661
496.025	10.1635
496.229	10.74132
496.432	10.28063
496.636	10.86833
496.839	10.92933
497.043	11.86718
497.246	11.26099
497.45	10.84682
497.653	11.02933
497.856	10.99853
498.06	10.3415
498.263	10.47049
498.467	10.33293
498.67	10.90815
498.873	10.84303
499.077	10.34243
499.28	10.35075
499.483	10.51822
499.686	10.96391
499.89	10.64964
500.093	10.92903
500.296	10.00261
500.499	11.34671
500.703	10.12483
500.906	10.69266
501.109	11.45757
501.312	10.45846
501.515	10.08209
501.719	10.55367
501.922	11.11235
502.125	10.53945
502.328	10.12225
502.531	9.81785
502.734	10.05102
502.937	9.29294
503.14	10.37408
503.343	9.90943
503.546	10.12955
503.749	9.8093
503.952	10.52598
504.155	9.95107
504.358	10.5904
504.561	10.54922
504.764	9.64037
504.967	10.37208
505.17	10.19179
505.373	11.31988
505.576	10.30033
505.778	10.83736
505.981	9.85187
506.184	10.9794
506.387	9.25567
506.59	11.55616
506.793	10.96306
506.995	10.51276
507.198	9.17022
507.401	10.41605
507.604	10.50969
507.806	9.67397
508.009	10.02169
508.212	10.89608
508.414	10.09404
508.617	10.0843
508.82	10.36369
509.022	11.2483
509.225	10.56685
509.427	9.70906
509.63	11.10722
509.833	10.30418
510.035	10.35986
510.238	9.51953
510.44	11.11798
510.643	9.43501
510.845	11.61483
511.048	10.71422
511.25	10.21305
511.453	10.28689
511.655	10.44383
511.858	10.28589
512.06	10.916
512.262	10.55499
512.465	11.00672
512.667	10.24294
512.869	9.94952
513.072	10.78223
513.274	10.99553
513.476	10.9609
513.679	10.97352
513.881	9.83195
514.083	11.31722
514.286	10.2102
514.488	9.98902
514.69	9.90283
514.892	9.48379
515.094	10.65644
515.297	9.95233
515.499	10.29875
515.701	9.69374
515.903	11.33346
516.105	11.2354
516.307	10.69949
516.509	9.15393
516.711	9.44287
516.913	10.23008
517.116	10.34052
517.318	9.97762
517.52	10.82854
517.722	10.78746
517.924	10.09759
518.126	11.21484
518.328	11.19013
518.529	11.97053
518.731	12.78812
518.933	11.22058
519.135	11.67859
519.337	12.12699
519.539	11.32914
519.741	9.98475
519.943	10.56033
520.145	10.75453
520.346	11.14524
520.548	10.46121
520.75	11.02046
520.952	10.38418
521.153	10.89325
521.355	10.68248
521.557	10.1116
521.759	10.72217
521.96	10.36007
522.162	9.80491
522.364	10.88927
522.565	9.85278
522.767	10.88567
522.969	11.10277
523.17	10.5873
523.372	10.52401
523.573	10.04213
523.775	9.9761
523.977	9.70486
524.178	11.38489
524.38	9.88889
524.581	10.5114
524.783	10.05279
524.984	11.19051
525.186	11.36246
525.387	12.26054
525.589	12.14833
525.79	12.22694
525.991	12.18889
526.193	13.0558
526.394	12.25775
526.596	13.31468
526.797	13.60493
526.998	13.54032
527.2	13.93662
527.401	16.41068
527.602	17.65764
527.803	20.6572
528.005	22.27013
528.206	24.31012
528.407	25.70432
528.608	25.62748
528.81	26.47597
529.011	25.4287
529.212	26.46755
529.413	24.70598
529.614	23.14419
529.815	21.59842
530.017	19.98079
530.218	17.45072
530.419	15.60778
530.62	14.77498
530.821	13.80434
531.022	12.29454
531.223	13.23531
531.424	12.86868
531.625	13.03384
531.826	12.78697
532.027	13.41955
532.228	15.12966
532.429	15.16933
532.63	15.83839
532.831	17.16012
533.032	17.54999
533.233	18.35042
533.433	17.85136
533.634	18.28119
533.835	17.15563
534.036	16.46661
534.237	15.71422
534.438	14.71089
534.638	13.07756
534.839	12.44883
535.04	12.1073
535.241	11.30902
535.441	12.28532
535.642	11.80846
535.843	11.04588
536.043	11.66115
536.244	12.11637
536.445	12.39456
536.645	13.29404
536.846	12.86833
537.047	13.35955
537.247	11.86366
537.448	11.74341
537.648	11.47581
537.849	10.98705
538.049	11.01506
538.25	11.31678
538.451	11.12881
538.651	10.0908
538.851	10.93037
539.052	11.32946
539.252	11.00844
539.453	10.44983
539.653	10.61537
539.854	10.6519
540.054	11.56255
540.254	13.51814
540.455	14.8258
540.655	15.32245
540.855	17.40447
541.056	18.7559
541.256	18.95645
541.456	19.91899
541.657	19.4206
541.857	19.94239
542.057	18.37195
542.257	17.63431
542.458	17.82613
542.658	17.03853
542.858	15.02051
543.058	14.79294
543.258	13.68474
543.458	12.14323
543.659	11.69196
543.859	12.21021
544.059	11.74209
544.259	10.85621
544.459	11.52309
544.659	10.73893
544.859	11.07501
545.059	10.37326
545.259	11.09358
545.459	10.77054
545.659	11.2186
545.859	10.63585
546.059	10.90228
546.259	10.34115
546.459	10.04113
546.659	10.20023
546.859	11.47763
547.059	10.98448
547.258	11.11764
547.458	11.29829
547.658	10.33793
547.858	10.27075
548.058	11.21709
548.258	10.81703
548.457	10.29655
548.657	12.27245
548.857	10.64829
549.057	11.44419
549.256	11.15147
549.456	10.46089
549.656	9.21766
549.855	11.93182
550.055	10.19556
550.255	11.78856
550.454	11.00557
550.654	11.08432
550.853	11.49278
551.053	11.38566
551.253	10.87073
551.452	10.80862
551.652	9.53323
551.851	9.31491
552.051	10.33126
552.25	10.18277
552.45	10.10083
552.649	10.27934
552.849	10.22184
553.048	10.56264
553.248	11.22355
553.447	9.83077
553.646	11.38274
553.846	12.12316
554.045	11.5979
554.244	9.78354
554.444	11.97646
554.643	10.14145
554.842	11.76681
555.042	12.20231
555.241	10.1302
555.44	9.75345
555.64	11.14015
555.839	11.99376
556.038	10.78035
556.237	9.86996
556.436	10.66287
556.636	10.92753
556.835	10.15071
557.034	11.88255
557.233	10.40357
557.432	9.49531
557.631	11.44762
557.83	10.31362
558.029	10.37388
558.228	10.03853
558.427	9.96301
558.626	10.90211
558.825	9.88579
559.024	10.64639
559.223	11.93774
559.422	10.35846
559.621	11.08564
559.82	8.63057
560.019	10.66429
560.218	10.31705
560.417	8.2634
560.616	9.9563
560.815	13.24045
561.014	9.45921
561.212	11.79838
561.411	10.57338
561.61	9.46646
561.809	10.52811
562.008	11.76476
562.206	10.55192
562.405	11.21122
562.604	10.50594
562.803	10.95513
563.001	10.41056
563.2	9.5851
563.399	11.10499
563.597	9.89384
563.796	10.66887
563.995	9.69078
564.193	11.13071
564.392	10.43955
564.59	12.41933
564.789	8.71256
564.988	10.05991
565.186	10.79253
565.385	10.33948
565.583	10.50205
565.782	10.62973
565.98	10.71268
566.179	10.50198
566.377	9.95358
566.575	10.23391
566.774	11.96578
566.972	11.56726
567.171	12.44475
567.369	12.08353
567.567	10.92802
567.766	10.9689
567.964	9.28852
568.162	11.21599
568.361	11.70692
568.559	10.61541
568.757	10.84818
568.956	10.94976
569.154	10.57882
569.352	11.3644
569.55	10.62344
569.748	10.8539
569.947	10.08653
570.145	9.9403
570.343	9.68023
570.541	11.60578
570.739	9.66745
570.937	10.74054
571.135	11.11672
571.333	12.36562
571.532	12.40588
571.73	11.26061
571.928	11.88421
572.126	11.59772
572.324	10.53771
572.522	12.08884
572.72	13.16795
572.918	11.20839
573.116	11.3742
573.313	11.0477
573.511	10.90721
573.709	10.4957
573.907	11.66245
574.105	10.64336
574.303	9.52868
574.501	9.75198
574.699	11.28487
574.896	11.37337
575.094	11.50456
575.292	9.73128
575.49	11.6262
575.688	10.68397
575.885	12.24109
576.083	12.80207
576.281	11.56815
576.478	10.48818
576.676	11.47999
576.874	9.79328
577.071	10.78465
577.269	13.21658
577.467	10.87674
577.664	11.01495
577.862	11.84604
578.059	10.37235
578.257	11.83844
578.455	10.48869
578.652	10.96331
578.85	9.03275
579.047	11.09716
579.245	10.5876
579.442	10.74324
579.64	10.84226
579.837	9.10945
580.034	13.49848
580.232	10.46897
580.429	9.60914
580.627	11.30266
580.824	12.06956
581.021	11.14543
581.219	10.33983
581.416	9.77849
581.613	12.11397
581.811	12.23583
582.008	9.77271
582.205	11.78778
582.402	11.1402
582.6	12.38426
582.797	10.92298
582.994	11.30697
583.191	11.44086
583.388	11.03732
583.586	11.44246
583.783	11.83076
583.98	10.08376
584.177	11.07059
584.374	7.49562
584.571	10.63436
584.768	10.81728
584.965	9.99919
585.162	11.27424
585.359	12.54604
585.556	10.58365
585.753	11.16639
585.95	9.59054
586.147	10.06532
586.344	11.44945
586.541	10.7176
586.738	9.32814
586.935	10.80303
587.132	10.03692
587.329	12.12102
587.526	10.68115
587.722	16.12264
587.919	9.64647
588.116	11.53294
588.313	12.4459
588.51	13.45604
588.706	10.4626
588.903	11.21397
589.1	12.13021
589.297	13.62856
589.493	11.05508
589.69	11.71642
589.887	10.50681
590.083	10.10644
590.28	10.61088
590.477	12.08951
590.673	11.82269
590.87	12.47407
591.067	10.85246
591.263	11.55977
591.46	11.73108
591.656	11.11187
591.853	13.02652
592.049	10.21869
592.246	10.6512
592.442	12.5365
592.639	12.11271
592.835	9.91193
593.032	11.28383
593.228	9.2455
593.425	9.33216
593.621	9.46476
593.817	11.26132
594.014	10.19994
594.21	11.06537
594.406	11.93373
594.603	11.35195
594.799	10.71209
594.995	8.66011
595.192	12.13601
595.388	10.68324
595.584	10.57091
595.78	9.69601
595.977	13.41168
596.173	13.0033
596.369	10.96659
596.565	10.40012
596.761	10.00801
596.957	12.80738
597.154	10.46251
597.35	11.07555
597.546	10.62022
597.742	12.35452
597.938	11.80173
598.134	10.78053
598.33	11.96329
598.526	13.06658
598.722	11.54529
598.918	13.34606
599.114	12.06387
599.31	10.35554
599.506	11.23311
599.702	10.35318
599.898	11.21577
600.094	11.98403
600.29	11.87321
600.485	12.31368
600.681	10.54301
600.877	13.22846
601.073	11.14112
601.269	13.58433
601.465	12.62691
601.66	10.1
601.856	9.19965
602.052	13.04513
602.248	10.39372
602.443	8.94521
602.639	9.7687
602.835	10.24499
603.03	10.29442
603.226	12.31281
603.422	10.3049
603.617	10.93424
603.813	10.89169
604.009	10.90014
604.204	12.63761
604.4	9.92448
604.595	12.78078
604.791	10.71016
604.986	11.87124
605.182	11.02925
605.377	11.28555
605.573	11.33089
605.768	12.03056
605.964	12.26925
606.159	12.57178
606.355	12.76323
606.55	11.34953
606.746	12.96282
606.941	11.12374
607.136	13.74034
607.332	15.11722
607.527	9.70462
607.722	11.23724
607.918	11.19539
608.113	10.13118
608.308	12.11538
608.503	11.96859
608.699	12.06095
608.894	11.93185
609.089	10.63326
609.284	11.51366
609.479	11.08276
609.675	12.11941
609.87	11.57946
610.065	12.44559
610.26	13.00649
610.455	12.82559
610.65	11.75653
610.845	12.42074
611.04	12.78998
611.235	11.44935
611.43	11.06778
611.625	10.04527
611.82	13.19545
612.015	10.45256
612.21	13.81319
612.405	9.45935
612.6	14.02134
612.795	13.10028
612.99	12.57985
613.185	10.10238
613.38	10.29632
613.575	11.46807
613.77	15.50702
613.965	9.45344
614.159	10.39242
614.354	13.09973
614.549	13.14191
614.744	12.40909
614.938	10.09028
615.133	9.76415
615.328	13.66038
615.523	12.8417
615.717	15.35684
615.912	10.33761
616.107	11.88324
616.301	11.06668
616.496	10.33807
616.691	13.70225
616.885	12.87246
617.08	15.32685
617.274	13.27245
617.469	15.00192
617.664	12.6041
617.858	11.21344
618.053	12.14957
618.247	11.17982
618.442	8.3775
618.636	13.78977
618.831	10.90833
619.025	10.70327
619.219	15.43027
619.414	7.1565
619.608	11.40467
619.803	10.5861
619.997	14.68594
620.191	13.42837
620.386	12.22477
620.58	11.85514
620.774	9.52071
620.969	9.80548
621.163	11.9828
621.357	9.95589
621.551	11.21019
621.746	11.81855
621.94	11.21425
622.134	17.35777
622.328	15.24645
622.522	9.51524
622.716	13.44239
622.911	13.08768
623.105	13.57043
623.299	12.21469
623.493	16.77887
623.687	9.86062
623.881	11.20887
624.075	12.39126
624.269	13.37862
624.463	9.13325
624.657	9.4196
624.851	12.58735
625.045	12.79077
625.239	13.48673
625.433	11.31802
625.627	14.32568
625.821	10.76476
626.015	10.66922
626.209	12.07609
626.403	9.64785
626.596	12.46407
626.79	13.1235
626.984	10.35252
627.178	12.69349
627.372	12.7388
627.565	13.32416
627.759	10.36916
627.953	10.50899
628.147	12.97025
628.34	12.87239
628.534	14.98892
628.728	12.12876
628.921	13.74842
629.115	13.1639
629.309	13.51586
629.502	14.07286
629.696	12.3268
629.89	11.91416
630.083	12.39421
630.277	13.12039
630.47	15.15173
630.664	11.48717
630.857	9.84478
631.051	13.5675
631.244	14.18866
631.438	13.31401
631.631	10.97804
631.825	14.38605
632.018	13.5893
632.212	15.2153
632.405	14.32596
632.598	11.04563
632.792	11.75221
632.985	8.88011
633.178	11.63365
633.372	11.75358
633.565	12.02081
633.758	14.46296
633.952	10.71892
634.145	11.02955
634.338	12.09137
634.531	11.49601
634.724	11.48754
634.918	12.53562
635.111	11.61723
635.304	12.135
635.497	16.2194
635.69	12.5442
635.883	14.2619
636.077	10.71016
636.27	13.46354
636.463	12.81109
636.656	12.7045
636.849	11.4347
637.042	13.64648
637.235	15.76805
637.428	14.03713
637.621	14.10973
637.814	14.93708
638.007	15.56149
638.2	15.50192
638.393	15.88413
638.586	10.92032
638.778	11.57713
638.971	12.68045
639.164	16.49026
639.357	13.33168
639.55	15.1733
639.743	14.15067
639.935	13.77629
640.128	16.64242
640.321	13.78976
640.514	13.02666
640.707	17.55415
640.899	14.29336
641.092	9.80933
641.285	29.04119
641.477	8.33253
641.67	17.8865
641.863	15.43894
642.055	13.25266
642.248	12.34787
642.441	11.65006
642.633	14.07269
642.826	15.56296
643.018	15.39661
643.211	17.63802
643.403	16.7006
643.596	17.82381
643.788	16.88542
643.981	11.874
644.173	15.06975
644.366	13.28324
644.558	9.84003
644.751	15.08862
644.943	10.2152
645.135	16.88814
645.328	16.77763
645.52	14.70781
645.712	15.73917
645.905	20.45551
646.097	11.73988
646.289	14.92983
646.482	18.20396
646.674	12.42396
646.866	15.97561
647.058	14.80221
647.251	11.72754
647.443	12.42647
647.635	12.73764
647.827	11.68699
648.019	11.98531
648.211	13.59227
648.404	13.95303
648.596	17.92404
648.788	14.13055
648.98	13.93313
649.172	14.97914
649.364	14.28406
649.556	9.61391
649.748	19.61041
649.94	11.83054
650.132	15.49693
650.324	11.94015
650.516	12.09156
650.708	16.20856
650.9	11.08798
651.092	13.23108
651.284	10.6329
651.476	11.49806
651.667	14.80676
651.859	16.32573
652.051	13.17597
652.243	14.04234
652.435	12.62603
652.627	14.89222
652.818	15.02435
653.01	10.16469
653.202	12.57548
653.394	13.13089
653.585	14.5529
653.777	25.11942
653.969	17.44446
654.16	16.72223
654.352	11.62763
654.544	13.42689
654.735	17.2398
654.927	14.11842
655.118	17.93821
655.31	15.74156
655.502	16.95871
655.693	12.94755
655.885	16.02958
656.076	16.8248
656.268	13.96491
656.459	17.93985
656.651	16.94326
656.842	12.48266
657.034	11.70112
657.225	15.93184
657.416	16.55556
657.608	17.46125
657.799	13.95475
657.99	16.19976
658.182	12.71771
658.373	12.93298
658.564	16.21141
658.756	13.83464
658.947	13.36453
659.138	11.98209
659.33	13.10939
659.521	12.4013
659.712	13.74443
659.903	14.04103
660.094	13.11207
660.286	11.2017
660.477	18.3597
660.668	16.06141
660.859	14.21256
661.05	10.54622
661.241	15.99322
661.432	15.51818
661.623	14.27691
661.814	13.6596
662.006	10.47332
662.197	15.48688
662.388	17.5998
662.579	14.89176
662.77	17.90413
662.96	22.603
663.151	16.86293
663.342	10.26264
663.533	15.04946
663.724	14.41547
663.915	19.02638
664.106	14.52604
664.297	19.98528
664.488	16.86093
664.678	13.34836
664.869	16.6096
665.06	17.47587
665.251	15.57257
665.442	15.53812
665.632	12.08922
665.823	20.14165
666.014	7.93782
666.204	17.17727
666.395	18.82282
666.586	23.31945
666.776	17.84021
666.967	20.39732
667.158	16.37365
667.348	19.25368
667.539	12.34189
667.729	18.08932
667.92	13.09703
668.111	18.03997
668.301	17.78265
668.492	14.93743
668.682	15.24375
668.873	15.20996
669.063	11.97176
669.253	15.48813
669.444	18.09953
669.634	14.82749
669.825	20.7877
670.015	17.71017
670.206	13.05253
670.396	21.38014
670.586	14.99886
670.777	17.21359
670.967	9.90793
671.157	14.27372
671.347	13.37813
671.538	19.98126
671.728	17.52295
671.918	21.22567
672.108	18.13241
672.299	15.65067
672.489	17.09304
672.679	13.64826
672.869	16.63535
673.059	20.82386
673.249	17.70836
673.44	12.95136
673.63	15.55079
673.82	18.75689
674.01	12.96677
674.2	17.97472
674.39	24.96761
674.58	18.25404
674.77	16.73731
674.96	16.05537
675.15	28.96373
675.34	20.78843
675.53	16.27992
675.72	15.3313
675.91	11.57796
676.099	22.34359
676.289	23.45153
676.479	19.82974
676.669	14.96667
676.859	17.94454
677.049	13.22125
677.238	16.91504
677.428	21.77445
677.618	19.06884
677.808	20.47259
677.997	17.6887
678.187	13.4793
678.377	16.43684
678.567	14.9788
678.756	15.01785
678.946	15.42254
679.136	12.01517
679.325	14.25788
679.515	13.80368
679.704	12.97989
679.894	18.12977
680.084	17.04759
680.273	18.76422
680.463	14.09674
680.652	14.20355
680.842	16.11931
681.031	19.03413
681.221	14.33998
681.41	17.71858
681.6	15.8649
681.789	19.1801
681.978	20.51776
682.168	17.1249
682.357	17.70996
682.547	19.32384
682.736	17.70086
682.925	21.33996
683.115	20.59629
683.304	20.22902
683.493	18.53238
683.682	18.76303
683.872	18.92037
684.061	21.37891
684.25	19.64442
684.439	24.73575
684.629	19.66514
684.818	29.52068
685.007	17.18191
685.196	16.89642
685.385	24.35126
685.574	19.48095
685.763	18.86149
685.952	18.734
686.142	13.22804
686.331	22.66222
686.52	11.75522
686.709	24.18722
686.898	23.91907
687.087	20.93737
687.276	24.3118
687.465	22.48127
687.654	16.94035
687.842	24.26073
688.031	13.73263
688.22	23.599
688.409	19.12729
688.598	19.87718
688.787	27.84879
688.976	19.42188
689.165	26.23488
689.353	17.69066
689.542	20.4564
689.731	22.74355
689.92	27.1889
690.108	22.38536
690.297	17.47427
690.486	19.03564
690.675	22.07515
690.863	25.99103
691.052	25.30917
691.241	20.47347
691.429	20.57097
691.618	25.81133
691.806	14.7965
691.995	17.84327
692.184	20.14638
692.372	17.70625
692.561	20.00017
692.749	19.73265
692.938	30.74633
693.126	22.51253
693.315	19.87137
693.503	22.01832
693.692	23.62937
693.88	24.10804
694.068	29.2515
694.257	20.06776
694.445	21.97288
694.634	13.21357
694.822	23.89777
695.01	25.18537
695.199	27.24193
695.387	26.16664
695.575	24.88441
695.763	20.07332
695.952	18.90626
696.14	14.43101
696.328	17.69067
696.516	20.62472
696.705	20.11985
696.893	20.83778
697.081	12.9185
697.269	22.65307
697.457	15.52565
697.645	14.91361
697.833	22.82693
698.021	16.6501
698.21	18.29144
698.398	18.13357
698.586	15.3482
698.774	15.51993
698.962	18.86715
699.15	15.99002
699.338	14.68051
699.526	21.5131
699.714	17.34808
699.901	17.16987
700.089	23.66622
700.277	17.26971
700.465	19.14879
700.653	23.37201
700.841	21.72877
701.029	17.30743
701.217	24.6935
701.404	21.75216
701.592	25.5841
701.78	30.1472
701.968	19.75573
702.155	20.91822
702.343	13.53176
702.531	26.48186
702.718	23.40145
702.906	19.77407
703.094	18.26167
703.281	26.8287
703.469	21.13123
703.657	26.4291
703.844	35.83625
704.032	30.42074
704.219	18.94982
704.407	23.28698
704.595	28.16549
704.782	23.08373
704.97	18.96648
705.157	19.96937
705.345	29.38488
705.532	36.78981
705.719	24.5272
705.907	28.9425
706.094	22.92258
706.282	31.09526
706.469	20.77262
706.656	23.35309
706.844	21.24162
707.031	26.72663
707.218	23.50873
707.406	30.7123
707.593	26.65647
707.78	27.14583
707.968	22.49624
708.155	18.51946
708.342	25.5407
708.529	26.20037
708.716	24.36035
708.904	30.79392
709.091	27.1833
709.278	18.13263
709.465	32.7975
709.652	30.37113
709.839	29.20907
710.026	25.91204
710.213	16.08293
710.4	25.25594
710.587	29.2984
710.774	29.13328
710.961	29.58799
711.148	23.94027
711.335	29.21473
711.522	23.68978
711.709	26.44091
711.896	36.26784
712.083	28.85903
712.27	19.1922
712.457	24.13537
712.644	17.5087
712.831	34.31236
713.017	24.78564
713.204	27.99181
713.391	21.98857
713.578	31.03324
713.765	32.75924
713.951	28.00784
714.138	43.06655
714.325	28.9032
714.512	24.513
714.698	21.47832
714.885	34.09435
715.072	28.14929
715.258	26.66015
715.445	22.98594
715.631	30.73368
715.818	13.43459
716.005	21.53143
716.191	29.6184
716.378	22.99211
716.564	30.65418
716.751	22.00583
716.937	23.87118
717.124	32.46009
717.31	21.7558
717.497	37.20894
717.683	24.18963
717.869	40.13491
718.056	25.29099
718.242	30.96354
718.429	25.75283
718.615	21.78325
718.801	26.48214
718.988	33.10968
719.174	31.51717
719.36	25.12165
719.547	33.09312
719.733	31.33652
719.919	29.64502
720.105	33.79622
720.291	29.14965
720.478	29.77271
720.664	26.59549
720.85	23.23948
721.036	47.19152
721.222	37.76091
721.408	27.00821
721.595	39.12625
721.781	39.79452
721.967	35.75059
722.153	38.80484
722.339	32.9126
722.525	30.16947
722.711	25.04032
722.897	21.09933
723.083	25.228
723.269	34.25991
723.455	46.22222
723.641	49.49289
723.827	30.84775
724.012	31.42877
724.198	26.23704
724.384	36.82806
724.57	30.95315
724.756	20.21921
724.942	17.20563
725.127	35.68798
725.313	37.85899
725.499	38.04473
725.685	41.73831
725.87	31.02668
726.056	23.53919
726.242	37.78737
726.428	18.65902
726.613	35.28887
726.799	28.13619
726.985	22.71775
727.17	19.75472
727.356	42.35234
727.541	22.92379
727.727	29.29592
727.913	35.00198
728.098	26.71807
728.284	35.08477
728.469	21.68375
728.655	24.47612
728.84	35.49256
729.026	34.07673
729.211	37.19679
729.397	33.18005
729.582	33.70422
729.767	29.71203
729.953	32.6996
730.138	36.87803
730.323	16.82057
730.509	23.20553
730.694	38.02586
730.879	34.16516
731.065	31.54176
731.25	44.75053
731.435	33.99233
731.621	21.69863
731.806	27.23754
731.991	32.60386
732.176	20.82647
732.361	40.44024
732.547	33.76007
732.732	19.5228
732.917	47.50372
733.102	21.78267
733.287	24.73877
733.472	31.08506
733.657	31.87895
733.842	20.80646
734.027	27.27359
734.212	27.14872
734.397	25.89114
734.582	30.98855
734.767	36.95871
734.952	39.87243
735.137	15.23485
735.322	43.34746
735.507	33.29976
735.692	32.22517
735.877	48.75997
736.062	45.86389
736.247	34.21974
736.431	31.57392
736.616	38.85893
736.801	32.89723
736.986	33.15831
737.171	26.21232
737.355	20.90962
737.54	41.31193
737.725	31.41547
737.909	53.93553
738.094	28.89285
738.279	38.88244
738.463	30.30163
738.648	36.73819
738.833	35.42324
739.017	48.73787
739.202	31.52468
739.386	31.01001
739.571	25.87127
739.756	41.54095
739.94	32.69001
740.125	40.56314
740.309	27.42846
740.494	39.64793
740.678	32.78478
740.863	39.12934
741.047	33.7039
741.231	44.60552
741.416	28.66638
741.6	45.36406
741.785	25.88402
741.969	42.37039
742.153	44.10804
742.338	16.47712
742.522	32.70742
742.706	39.23228
742.89	21.6383
743.075	33.92336
743.259	45.31271
743.443	44.02672
743.627	44.42652
743.812	52.92853
743.996	21.31205
744.18	34.78428
744.364	30.00889
744.548	58.23736
744.732	35.0598
744.916	40.08546
745.1	40.87898
745.285	33.4535
745.469	37.89479
745.653	49.65862
745.837	23.32676
746.021	55.43509
746.205	43.06632
746.389	36.17681
746.573	33.08212
746.757	46.22022
746.94	30.32644
747.124	45.86699
747.308	24.15849
747.492	42.95834
747.676	28.83941
747.86	57.01802
748.044	30.52499
748.227	20.4721
748.411	71.8396
748.595	39.70724
748.779	28.16205
748.963	38.48536
749.146	36.45968
749.33	28.83311
749.514	26.34758
749.697	45.00245
749.881	29.85159
750.065	27.02212
750.248	36.49274
750.432	57.99495
750.616	36.30308
750.799	21.08813
750.983	57.65631
751.166	62.40805
751.35	22.67141
751.533	45.68373
751.717	51.20182
751.9	51.72201
752.084	31.41693
752.267	25.22901
752.451	29.93587
752.634	37.11788
752.818	42.45477
753.001	42.49494
753.184	46.44296
753.368	40.83501
753.551	9.18208
753.734	30.34283
753.918	58.31733
754.101	27.73424
754.284	42.69776
754.467	34.05586
754.651	31.51373
754.834	31.0297
755.017	46.03044
755.2	48.17183
755.384	24.22249
755.567	45.07117
755.75	46.75651
755.933	33.83098
756.116	42.38068
756.299	31.31542
756.482	29.87154
756.665	43.101
756.848	40.77909
757.032	42.7385
757.215	21.72513
757.398	29.47293
757.581	28.66265
757.764	63.0544
757.947	36.12676
758.129	49.26119
758.312	10.62837
758.495	37.26273
758.678	34.77281
758.861	34.48813
759.044	58.01656
759.227	29.5436
759.41	29.75759
759.592	41.80624
759.775	36.61736
759.958	48.3225
760.141	24.01152
760.324	59.77806
760.506	53.60642
760.689	43.87379
760.872	64.57929
761.054	41.93521
761.237	28.64511
761.42	43.77421
761.602	46.93964
761.785	39.07166
761.968	50.8687
762.15	56.75264
762.333	34.35972
762.515	40.17585
762.698	31.18344
762.88	42.7212
763.063	37.70781
763.245	44.74928
763.428	27.32704
763.61	27.83178
763.793	25.30084
763.975	38.72728
764.158	31.29669
764.34	30.68653
764.522	25.44937
764.705	30.71045
764.887	48.36932
765.069	22.4173
765.252	42.6153
765.434	45.40383
765.616	36.19808
765.799	28.94061
765.981	44.68438
766.163	26.62933
766.345	48.43095
766.528	30.38009
766.71	15.8768
766.892	39.00372
767.074	52.80932
767.256	37.3791
767.438	56.63951
767.62	43.35296
767.802	64.34628
767.985	45.02757
768.167	61.37766
768.349	37.19697
768.531	47.83262
768.713	42.42748
768.895	54.86817
769.077	41.58681
769.259	73.13971
769.441	104.34954
769.623	53.30796
769.804	62.75227
769.986	58.15319
770.168	75.6777
770.35	84.63683
770.532	70.87637
770.714	68.3866
770.896	77.96027
771.077	28.569
771.259	78.9721
771.441	59.09191
771.623	82.31773
771.804	100.59833
771.986	31.07204
772.168	48.6216
772.35	76.78273
772.531	100.37432
772.713	61.19407
772.894	78.93348
773.076	57.37601
773.258	45.68438
773.439	83.87719
773.621	88.24505
773.802	42.8085
773.984	60.02723
774.166	64.95243
774.347	92.15435
774.529	77.03495
774.71	22.26075
774.891	57.35918
775.073	53.28297
775.254	91.14073
775.436	49.47268
775.617	101.94145
775.799	50.32924
775.98	89.43476
776.161	94.015
776.343	92.02168
776.524	62.1957
776.705	55.01544
776.886	30.03366
777.068	63.18056
777.249	119.55142
777.43	98.62318
777.611	37.31859
777.793	63.67755
777.974	95.17188
778.155	57.76493
778.336	50.65778
778.517	105.47187
778.698	47.96726
778.879	25.46152
779.061	11.29671
779.242	69.73387
779.423	69.42318
779.604	51.62416
779.785	57.78081
779.966	68.45193
780.147	79.33083
780.328	82.31162
780.509	111.00969
780.69	79.28118
780.871	51.08013
781.051	28.13584
781.232	66.45771
781.413	70.8285
781.594	53.86655
781.775	49.65935
781.956	49.57157
782.137	26.52009
782.317	47.92213
782.498	70.62533
782.679	69.347
782.86	67.42905
783.04	42.79472
783.221	72.80707
783.402	107.11691
783.583	67.05437
783.763	80.97429
783.944	55.37105
784.124	34.40387
784.305	96.56966
784.486	70.26991
784.666	57.71166
784.847	32.30008
785.027	125.30137
785.208	45.51191
785.388	48.59611
785.569	46.58917
785.749	55.4343
785.93	51.18725
786.11	31.88938
786.291	66.50701
786.471	68.30491
786.652	77.21015
786.832	57.11132
787.012	68.8589
787.193	38.53916
787.373	63.37291
787.553	52.8474
787.734	68.82512
787.914	50.46777
788.094	74.16472
788.275	68.63304
788.455	56.16615
788.635	35.73039
788.815	66.35735
788.995	43.22197
789.176	33.44026
789.356	44.37657
789.536	52.29027
789.716	70.84171
789.896	47.14822
790.076	50.87647
790.256	69.41593
790.436	19.48668
790.616	43.01333
790.796	66.98105
790.976	52.00278
791.156	45.39904
791.336	79.14943
791.516	65.67863
791.696	55.09971
791.876	33.4444
792.056	60.55149
792.236	87.05418
792.416	75.11905
792.596	70.98548
792.776	69.4457
792.956	75.32799
793.135	96.99955
793.315	40.51876
793.495	85.41443
793.675	79.2121
793.854	81.68428
794.034	79.4512
794.214	35.4631
794.394	80.98827
794.573	84.2895
794.753	60.5745
794.933	49.42238
795.112	68.57285
795.292	73.71916
795.472	95.80716
795.651	39.85154
795.831	62.16332
796.01	56.09457
796.19	51.79646
796.369	55.48361
796.549	69.94918
796.728	53.29849
796.908	39.31285
797.087	40.16566
797.267	55.52938
797.446	40.4727
797.626	67.15988
797.805	63.87238
797.984	49.55384
798.164	74.43046
798.343	42.23731
798.522	60.56588
798.702	62.8555
798.881	38.17184
799.06	53.51258
799.239	26.03023
799.419	40.35676
799.598	96.78262
799.777	67.62773
799.956	81.98088
800.136	54.90935
800.315	45.44629
800.494	67.49247
800.673	77.8894
800.852	72.07445
801.031	86.48435
801.21	72.02835
801.389	49.33402
801.568	68.2583
801.747	101.40373
801.926	59.37449
802.105	99.46963
802.284	55.14399
802.463	96.97599
802.642	65.75471
802.821	66.59466
803	89.54607
803.179	80.09801
803.358	89.27951
803.537	46.19591
803.716	73.14872
803.895	48.19233
804.073	56.07517
804.252	49.60033
804.431	72.12497
804.61	64.37197
804.789	90.98118
804.967	52.19274
805.146	49.90984
805.325	110.65669
805.503	71.31598
805.682	36.10627
805.861	128.51939
806.039	93.86462
806.218	51.6025
806.397	73.54376
806.575	65.91053
806.754	69.2464
806.932	47.24098
807.111	96.0823
807.289	88.19856
807.468	69.58996
807.646	86.74149
807.825	66.47167
808.003	69.52344
808.182	90.46073
808.36	64.12158
808.539	48.44808
808.717	97.93973
808.895	42.13058
809.074	68.94175
809.252	54.50028
809.43	93.03324
809.609	99.3906
809.787	108.16561
809.965	59.11327
810.144	68.75965
810.322	60.87076
810.5	82.24089
810.678	63.85562
810.856	114.9633
811.035	97.6732
811.213	90.87196
811.391	87.5228
811.569	73.65519
811.747	145.41202
811.925	103.86598
812.103	53.89822
812.281	61.95478
812.459	116.58821
812.637	114.89797
812.816	92.88255
812.994	117.60353
813.171	95.67569
813.349	89.4425
813.527	105.53936
813.705	95.12135
813.883	123.77672
814.061	104.75722
814.239	122.39901
814.417	123.15907
814.595	91.48008
814.773	76.78305
814.95	76.86744
815.128	88.87181
815.306	75.59868
815.484	77.00172
815.662	54.11467
815.839	45.76843
816.017	58.83257
816.195	100.79757
816.372	65.26275
816.55	102.33555
816.728	110.8255
816.905	70.35028
817.083	102.15739
817.261	77.58246
817.438	148.98649
817.616	127.74092
817.793	56.07965
817.971	92.14138
818.148	83.28892
818.326	117.00639
818.503	79.38044
818.681	107.94037
818.858	60.7024
819.036	75.80991
819.213	74.80869
819.391	55.52395
819.568	50.17585
819.745	49.33147
819.923	82.05344
820.1	59.97951
820.277	52.70722
820.455	60.78133
820.632	60.06015
820.809	63.76289
820.986	38.79386
821.164	33.25699
821.341	27.52484
821.518	40.12388
821.695	29.98853
821.872	27.85054
822.05	24.41064
822.227	20.05528
822.404	21.63823
822.581	25.95689
822.758	21.87898
822.935	21.94631
823.112	25.26406
823.289	21.52537
823.466	25.51237
823.643	25.61573
823.82	30.21444
823.997	27.16011
824.174	31.59766
824.351	41.96788
824.528	40.06545
824.705	35.97263
824.882	38.86714
825.059	49.47713
825.236	36.6678
825.412	39.25554
825.589	44.2569
825.766	65.6605
825.943	40.98655
826.12	46.29464
826.296	31.50266
826.473	39.98878
826.65	39.36289
826.827	50.57975
827.003	32.21072
827.18	35.60297
827.357	40.8052
827.533	34.67561
827.71	20.68476
827.887	31.9446
828.063	38.00956
828.24	32.92015
828.416	43.44004
828.593	36.91856
828.769	53.53568
828.946	56.50868
829.122	56.09865
829.299	60.45303
829.475	30.68765
829.652	53.27123
829.828	86.98734
830.005	61.11996
830.181	74.74603
830.357	46.33702
830.534	77.55875
830.71	66.26283
830.886	82.09947
831.063	76.25681
831.239	100.04577
831.415	44.88143
831.592	108.70559
831.768	61.52084
831.944	49.94553
832.12	108.66431
832.296	98.22829
832.473	89.36002
832.649	57.4868
832.825	78.76138
833.001	47.98094
833.177	66.54213
833.353	58.96441
833.529	33.48443
833.705	50.12288
833.881	37.43859
834.058	34.95831
834.234	38.23957
834.41	38.86097
834.586	29.40365
834.761	35.20612
834.937	42.51548
835.113	43.4489
835.289	37.11313
835.465	46.23985
835.641	40.96608
835.817	43.58824
835.993	80.2792
836.169	44.953
836.344	64.00574
836.52	76.69891
836.696	79.43253
836.872	54.35617
837.048	152.76414
837.223	61.81611
837.399	132.48356
837.575	99.89224
837.75	98.02423
837.926	136.58247
838.102	209.39609
838.277	165.30253
838.453	225.63756
838.628	220.84537
838.804	75.65284
838.98	209.98541
839.155	100.97858
839.331	133.62433
839.506	90.98989
839.682	83.87626
839.857	108.65648
840.033	137.24809
840.208	59.11161
840.384	41.1172
840.559	65.35198
840.734	105.09405
840.91	146.97598
841.085	95.43388
841.26	98.24055
841.436	88.44688
841.611	79.22582
841.786	118.86707
841.962	173.0231
842.137	121.04273
842.312	71.92887
842.487	108.7933
842.663	91.74982
842.838	109.3899
843.013	315.47888
843.188	182.6651
843.363	138.55347
843.538	313.21602
843.714	339.55229
843.889	307.18293
844.064	312.93732
844.239	225.59782
844.414	449.70288
844.589	260.44655
844.764	388.30616
844.939	377.25368
845.114	425.11537
845.289	439.49039
845.464	510.3527
845.639	376.80446
845.814	195.54991
845.989	309.94346
846.163	229.93443
846.338	329.62066
846.513	447.42122
846.688	254.05541
846.863	297.45833
847.038	244.22314
847.212	285.84266
847.387	366.46354
847.562	283.67185
847.737	461.16105
847.911	184.29288
848.086	169.14699
848.261	408.30905
848.435	255.20767
848.61	356.3951
848.785	192.97077
848.959	413.81588
849.134	489.59299
849.308	643.6638
849.483	313.28598
849.658	535.10327
849.832	288.52295
850.007	225.76318
850.181	668.64859
850.356	301.89612
850.53	779.2122
850.705	366.20812
850.879	153.88499
851.053	309.69022
851.228	287.44993
851.402	505.63733
851.577	466.97771
851.751	585.92341
851.925	355.83815
852.099	154.44045
852.274	244.95142
852.448	319.78969
852.622	474.7095
852.797	349.41629
852.971	332.64392
853.145	413.84194
853.319	733.11574
853.493	635.77141
853.668	499.6773
853.842	793.88423
854.016	517.3251
854.19	696.80142
854.364	341.51053
854.538	340.73139
854.712	709.77001
854.886	391.82961
855.06	285.51522
855.234	88.49269
855.408	633.26371
855.582	408.91261
855.756	635.8473
855.93	572.45124
856.104	646.07464
856.278	561.68229
856.452	388.46956
856.626	407.14165
856.8	928.40998
856.973	414.14055
857.147	455.9329
857.321	474.3407
857.495	498.46991
857.669	349.48803
857.842	455.67714
858.016	596.19532
858.19	229.61697
858.364	781.48657
858.537	384.5527
858.711	519.22527
858.885	374.18815
859.058	264.60357
859.232	166.29631
859.405	164.61978
859.579	496.13166
859.753	535.46414
859.926	245.2203
860.1	176.1173
860.273	363.78917
860.447	471.22188
860.62	361.37557
860.794	600.13034
860.967	329.29206
861.141	491.89452
861.314	818.14131
861.487	482.33554
861.661	471.37719
861.834	559.87317
862.008	688.64671
862.181	443.80952
862.354	535.85285
862.528	496.87649
862.701	331.49923
862.874	181.23147
863.047	324.8517
863.221	277.31414
863.394	150.04713
863.567	424.76573
863.74	110.26934
863.913	528.44218
864.087	483.67619
864.26	455.39735
864.433	363.57412
864.606	589.42506
864.779	396.33802
864.952	173.27571
865.125	411.50158
865.298	313.72176
865.471	341.76989
865.644	745.06103
865.817	514.29238
865.99	503.86887
866.163	451.75132
866.336	234.50426
866.509	341.2843
866.682	520.80054
866.855	718.20162
867.028	192.1525
867.2	402.00363
867.373	139.56114
867.546	383.14933
867.719	708.61342
867.892	440.4975
868.064	273.62821
868.237	319.53393
868.41	388.71872
868.583	141.5425
868.755	248.34753
868.928	416.41055
869.101	824.87568
869.273	566.3473
869.446	543.28432
869.619	580.60941
869.791	372.36231
869.964	478.37556
870.136	867.89274
870.309	373.83013
870.481	408.2477
870.654	228.84631
870.826	333.82432
870.999	224.17496
871.171	421.17594
871.344	257.34477
871.516	309.41535
871.689	236.51161
871.861	340.65626
872.033	275.97513
872.206	263.56454
872.378	337.68049
872.55	338.74764
872.723	197.80519
872.895	326.53547
873.067	453.20472
873.24	368.86584
873.412	334.20487
873.584	363.11165
873.756	358.39141
873.928	463.53412
874.101	354.15677
874.273	422.24402
874.445	138.18368
874.617	230.8203
874.789	310.78509
874.961	318.47693
875.133	366.20088
875.305	396.02913
875.477	290.53655
875.649	187.26851
875.821	200.82204
875.993	613.24098
876.165	321.7775
876.337	375.73888
876.509	313.14921
876.681	395.32727
876.853	350.78902
877.025	367.85022
877.197	274.89854
877.369	156.51853
877.541	326.80037
877.712	107.86004
877.884	194.29354
878.056	364.32433
878.228	188.58791
878.4	396.95468
878.571	174.67182
878.743	126.44182
878.915	282.49069
879.086	123.80471
879.258	187.85308
879.43	173.41987
879.601	142.95789
879.773	142.09944
879.945	29.15717
880.116	57.71499
880.288	35.01847
880.459	38.83797
880.631	29.23936
880.802	35.55134
880.974	31.77247
881.145	23.75109
881.317	31.22771
881.488	24.71206
881.66	27.00776
881.831	26.49058
882.002	32.63814
882.174	26.55973
882.345	32.56615
882.517	20.16178
882.688	39.10482
882.859	32.61169
883.03	51.94012
883.202	47.36742
883.373	43.67933
883.544	45.13167
883.715	70.39926
883.887	62.19805
884.058	54.58227
884.229	79.69281
884.4	72.91229
884.571	89.16548
884.742	77.08165
884.914	83.78675
885.085	116.98214
885.256	162.66848
885.427	135.82207
885.598	170.68934
885.769	172.86394
885.94	170.7079
886.111	102.62889
886.282	192.59854
886.453	173.36075
886.624	120.37793
886.795	214.11965
886.966	182.73024
887.136	222.04372
887.307	166.74551
887.478	319.45155
887.649	292.24142
887.82	260.29887
887.991	240.80741
888.161	358.09965
888.332	338.02473
888.503	155.16027
888.674	373.81445
888.844	555.65768
889.015	334.94604
889.186	237.81774
889.356	498.32909
889.527	216.49758
889.698	661.48996
889.868	228.75171
890.039	428.11496
890.209	293.36673
890.38	400.04151
890.551	362.91692
890.721	407.51643
890.892	451.99806
891.062	423.25455
891.233	520.98326
891.403	449.00516
891.574	299.48141
891.744	269.92335
891.914	357.66776
892.085	389.52647
892.255	100.86176
892.425	458.94019
892.596	308.91662
892.766	398.20288
892.936	490.12748
893.107	383.58044
893.277	172.76118
893.447	183.11153
893.618	116.44618
893.788	194.67972
893.958	124.98338
894.128	100.92604
894.298	124.72854
894.468	156.53602
894.639	73.38335
894.809	39.53461
894.979	77.10803
895.149	92.55768
895.319	73.32442
895.489	107.0521
895.659	150.45116
895.829	91.17172
895.999	92.09452
896.169	78.40357
896.339	99.05246
896.509	202.19679
896.679	208.29815
896.849	230.8574
897.019	280.33154
897.189	246.60994
897.358	223.62406
897.528	361.09976
897.698	221.82042
897.868	331.29099
898.038	660.54892
898.208	634.02301
898.377	210.90469
898.547	991.93011
898.717	1444.21582
898.886	406.77765
899.056	656.87657
899.226	1495.53452
899.395	779.03179
899.565	1268.21775
899.735	880.7094
899.904	924.93605
900.074	987.97471
900.244	280.92803
900.413	1265.85945
900.583	392.81451
900.752	1291.72004
900.922	1029.5178
901.091	258.92354
901.261	1769.77145
901.43	561.36116
901.599	2428.27454
901.769	1448.90086
901.938	1064.8553
902.108	1638.24415
902.277	851.95623
902.446	415.18913
902.616	381.77238
902.785	577.02915
902.954	687.40656
903.124	512.43172
903.293	290.80069
903.462	137.14133
903.631	211.81092
903.801	151.04179
903.97	65.79616
904.139	112.06023
904.308	87.86493
904.477	73.93881
904.646	45.67569
904.816	63.15795
904.985	111.31777
905.154	152.4142
