Data from WindowProjectSample_Transmission__66__00066.txt Node

Date: Sat May 03 17:25:26 EDT 2025
User: jessi
Spectrometer: SR400872
Trigger mode: 0
Integration Time (sec): 5.000010E-1
Scans to average: 6
Electric dark correction enabled: true
Nonlinearity correction enabled: true
Boxcar width: 0
XAxis mode: Wavelengths
Number of Pixels in Spectrum: 3648
>>>>>Begin Spectral Data<<<<<
184.909	9528.22737
185.132	3141.89711
185.355	-3304.19936
185.578	4283.57869
185.801	-522.21578
186.024	9484.58349
186.247	824.621
186.47	687.79916
186.693	406.19771
186.916	110.15711
187.139	7107.38266
187.362	-2171.13088
187.585	-31142.86005
187.808	943.71282
188.031	45.7234
188.254	1318.24312
188.476	-1816.093
188.699	1686.18695
188.922	2869.77767
189.145	7305.26647
189.368	-330.4365
189.591	-609.99602
189.813	1868.85808
190.036	2954.14658
190.259	4081.00565
190.482	1163.84932
190.705	-4686.74686
190.927	-1650.8275
191.15	4783.84593
191.373	1508.84192
191.595	-879.72204
191.818	2737.36785
192.041	-375.95949
192.263	-4302.87775
192.486	-3389.09945
192.709	14795.91097
192.931	3015.10523
193.154	5846.90767
193.377	-49143.14271
193.599	-25635.48901
193.822	-2803.90861
194.044	-2494.05589
194.267	964.53661
194.489	-78.67958
194.712	2277.61982
194.934	16372.73697
195.157	2176.16976
195.379	3120.67531
195.602	1225.82721
195.824	1491.56534
196.047	-2978.49828
196.269	61335.90146
196.492	-2775.36991
196.714	8389.56314
196.936	1771.66407
197.159	2977.46768
197.381	-525.4486
197.604	-1237.32237
197.826	61141.75398
198.048	1563.69944
198.271	8765.08546
198.493	6791.44085
198.715	-9926.18103
198.938	-2638.18099
199.16	-6208.99121
199.382	2074.48421
199.604	839.54349
199.827	-2054.70056
200.049	908.58265
200.271	-9943.41073
200.493	5304.993
200.715	31472.66144
200.938	11615.22484
201.16	-31253.25883
201.382	-5105.00806
201.604	-1208.03992
201.826	2181.91675
202.048	-10397.20663
202.27	4369.6254
202.492	13157.30682
202.715	-956.11561
202.937	26297.16518
203.159	3505.89974
203.381	1509.48866
203.603	-1072.9012
203.825	-1033.00942
204.047	2584.00805
204.269	-1731.35752
204.491	-1153.40339
204.713	6801.44789
204.935	-3001.49147
205.156	1358.5499
205.378	7030.20947
205.6	-1329.6415
205.822	-51574.82932
206.044	-1494.99468
206.266	5453.10444
206.488	803.69463
206.71	-28039.8959
206.932	4015.81247
207.153	-7898.04067
207.375	-2554.00357
207.597	4644.07028
207.819	1944.89218
208.041	-51097.68141
208.262	1272.15857
208.484	-965.51203
208.706	-1040.63955
208.927	1705.2896
209.149	-2036.93721
209.371	-1404.15695
209.593	-1180.06256
209.814	-2090.73116
210.036	-909.43884
210.258	-2699.41983
210.479	2703.80563
210.701	2391.79329
210.922	4884.22984
211.144	38610.61715
211.366	-32721.58102
211.587	-1064.99009
211.809	-2286.41814
212.03	-1083.18809
212.252	-546.68867
212.473	821.34078
212.695	-897.31818
212.916	-1546.91509
213.138	3020.67546
213.359	-1556.77203
213.581	1218.9918
213.802	-1105.70674
214.024	3760.1574
214.245	-4625.2511
214.466	-100.26748
214.688	1477.12056
214.909	-682.98809
215.131	-4767.72776
215.352	-5364.03896
215.573	6359.80701
215.795	2033.1978
216.016	7914.32127
216.237	-464.63045
216.459	2332.24612
216.68	-2302.81713
216.901	1372.69662
217.122	3200.15093
217.344	3476.30883
217.565	-3169.72465
217.786	2334.17084
218.007	66795.08676
218.228	2074.60913
218.45	2888.6321
218.671	-1454.90153
218.892	1653.80057
219.113	3122.01274
219.334	961.58172
219.555	-4462.68512
219.776	1587.82008
219.997	5777.51085
220.219	603.92891
220.44	3857.45874
220.661	4590.50866
220.882	3035.29609
221.103	-694.03414
221.324	-2343.54551
221.545	-3960.48418
221.766	-1954.24894
221.987	2847.41504
222.208	-4929.87021
222.429	4404.65026
222.65	-610.86042
222.87	-664.16833
223.091	1853.59326
223.312	2557.99647
223.533	11233.51091
223.754	1388.03013
223.975	1178.36411
224.196	-1814.77471
224.417	1847.62814
224.637	-5275.44922
224.858	-792.99025
225.079	862.38043
225.3	1591.53438
225.521	2269.46034
225.741	612.52714
225.962	1201.0694
226.183	-5054.46798
226.404	685.67702
226.624	738.98428
226.845	558.45872
227.066	405.8089
227.286	222.62604
227.507	113.63305
227.728	94.18531
227.948	146.59891
228.169	51.90192
228.389	52.72173
228.61	27.70637
228.831	38.76914
229.051	3.29988
229.272	23.0621
229.492	34.04872
229.713	9.63803
229.933	23.2897
230.154	21.25309
230.374	33.43058
230.595	26.66583
230.815	18.59708
231.036	26.33174
231.256	-5.6
231.477	48.47073
231.697	23.76515
231.917	27.85993
232.138	38.67123
232.358	83.55908
232.579	73.55407
232.799	9.75633
233.019	66.51944
233.24	76.39201
233.46	27.62695
233.68	42.81236
233.901	34.62255
234.121	21.29597
234.341	8.67649
234.561	-1.94891
234.782	19.33144
235.002	51.05395
235.222	0.91495
235.442	42.58282
235.662	20.81432
235.883	44.59237
236.103	38.10255
236.323	29.05484
236.543	20.41421
236.763	29.49224
236.983	27.08976
237.203	31.8945
237.423	46.89362
237.643	62.54217
237.864	53.98262
238.084	15.1517
238.304	21.70104
238.524	35.3638
238.744	30.98332
238.964	47.31945
239.184	43.54045
239.404	49.05026
239.624	23.90443
239.843	42.79925
240.063	25.90728
240.283	17.20187
240.503	17.58923
240.723	18.46597
240.943	10.10144
241.163	14.75154
241.383	10.47426
241.603	5.61782
241.822	6.78147
242.042	4.76279
242.262	5.84004
242.482	6.71029
242.702	8.28066
242.921	2.06472
243.141	5.91271
243.361	4.6747
243.581	7.38988
243.8	7.00192
244.02	4.64129
244.24	7.70024
244.459	7.52844
244.679	14.44152
244.899	9.37261
245.118	10.9494
245.338	8.70959
245.558	11.43287
245.777	6.5132
245.997	7.54287
246.216	7.56155
246.436	4.6592
246.655	3.36079
246.875	2.24267
247.094	4.63615
247.314	1.75756
247.533	2.82002
247.753	3.40601
247.972	2.83528
248.192	0.83742
248.411	1.63908
248.631	3.18976
248.85	3.8202
249.07	2.98491
249.289	5.14197
249.508	3.81632
249.728	6.12082
249.947	6.39077
250.166	7.37211
250.386	3.80959
250.605	5.37613
250.824	7.90409
251.044	6.35683
251.263	20.07981
251.482	10.06694
251.701	9.91922
251.921	0.20864
252.14	2.80351
252.359	3.53814
252.578	8.18895
252.798	2.6873
253.017	7.26564
253.236	3.87707
253.455	3.87561
253.674	8.87998
253.893	4.43864
254.112	5.42992
254.331	9.54723
254.551	8.45942
254.77	4.18024
254.989	10.9567
255.208	9.47998
255.427	10.83644
255.646	10.84879
255.865	17.05657
256.084	7.4597
256.303	7.82552
256.522	11.03611
256.741	2.615
256.96	3.03402
257.179	7.42956
257.397	8.32017
257.616	3.77194
257.835	4.49471
258.054	11.62254
258.273	7.48084
258.492	8.73428
258.711	5.19538
258.93	2.5163
259.148	3.02466
259.367	3.51209
259.586	4.18054
259.805	2.12723
260.023	3.99532
260.242	3.15198
260.461	2.36327
260.68	1.23068
260.898	3.4492
261.117	1.3135
261.336	0.76038
261.554	3.05112
261.773	2.95207
261.992	0.59863
262.21	2.79546
262.429	3.60803
262.648	5.96546
262.866	6.87836
263.085	4.50098
263.303	4.12591
263.522	7.19616
263.74	7.68033
263.959	11.73534
264.178	6.47593
264.396	5.67168
264.615	4.1554
264.833	9.48348
265.051	7.8532
265.27	8.0266
265.488	8.9435
265.707	5.41986
265.925	8.96662
266.144	3.64316
266.362	4.85399
266.58	4.80673
266.799	4.10806
267.017	4.75094
267.235	4.42495
267.454	2.84932
267.672	1.48438
267.89	3.62167
268.109	3.87389
268.327	3.56141
268.545	0.95942
268.763	3.1299
268.982	1.30375
269.2	4.35694
269.418	2.30557
269.636	2.02391
269.854	3.75987
270.073	2.86271
270.291	1.36481
270.509	1.70765
270.727	3.40206
270.945	5.91369
271.163	5.6788
271.381	1.53763
271.599	2.52523
271.817	4.57592
272.036	1.64957
272.254	2.42722
272.472	2.16789
272.69	1.9097
272.908	2.1251
273.126	3.55072
273.344	4.40477
273.562	1.78867
273.779	2.23816
273.997	3.22739
274.215	3.49461
274.433	2.68364
274.651	3.67948
274.869	4.13041
275.087	2.25384
275.305	3.78622
275.523	1.70498
275.74	2.78633
275.958	4.72031
276.176	6.3833
276.394	2.15058
276.612	2.6703
276.829	2.47537
277.047	2.33777
277.265	2.48564
277.483	3.16846
277.7	3.68642
277.918	2.88149
278.136	4.9797
278.353	2.31467
278.571	1.42576
278.789	4.39092
279.006	0.94921
279.224	2.43454
279.442	4.45918
279.659	2.89769
279.877	1.99304
280.094	4.57682
280.312	0.79673
280.529	2.92689
280.747	0.78774
280.964	2.1871
281.182	5.0298
281.399	2.31575
281.617	3.17715
281.834	2.24232
282.052	2.05259
282.269	2.41049
282.487	2.1072
282.704	1.7324
282.921	1.99536
283.139	2.76626
283.356	3.50707
283.574	3.05753
283.791	1.71284
284.008	4.44611
284.226	2.20425
284.443	2.68156
284.66	3.47244
284.877	2.8645
285.095	2.00887
285.312	1.53884
285.529	0.86758
285.746	0.8108
285.964	1.72625
286.181	1.10026
286.398	1.6409
286.615	2.18609
286.832	2.13206
287.05	0.70133
287.267	1.61342
287.484	1.52516
287.701	2.38976
287.918	2.30498
288.135	2.44514
288.352	1.15876
288.569	1.25892
288.786	1.93761
289.003	1.65003
289.22	2.37694
289.437	1.44636
289.654	2.40965
289.871	2.64945
290.088	2.41403
290.305	1.97803
290.522	1.41663
290.739	1.68184
290.956	2.57499
291.173	3.24037
291.39	3.06754
291.607	1.97835
291.824	1.61063
292.04	0.95087
292.257	2.46985
292.474	2.80054
292.691	1.73254
292.908	0.90666
293.125	1.6506
293.341	0.84916
293.558	4.38179
293.775	1.63627
293.992	1.78594
294.208	0.89299
294.425	1.18759
294.642	1.63296
294.858	2.05406
295.075	0.56999
295.292	1.55348
295.508	2.07536
295.725	3.12233
295.942	1.49977
296.158	1.03077
296.375	1.83738
296.591	1.39168
296.808	1.4573
297.024	1.63361
297.241	1.78182
297.458	1.97307
297.674	0.26043
297.891	1.56016
298.107	1.28626
298.323	0.9271
298.54	2.42235
298.756	1.0894
298.973	0.61991
299.189	2.61109
299.406	1.21205
299.622	2.45142
299.838	2.55703
300.055	2.3258
300.271	0.76091
300.487	0.88748
300.704	1.20771
300.92	0.78202
301.136	3.43807
301.353	2.3862
301.569	1.86365
301.785	2.09991
302.001	2.4877
302.218	2.01757
302.434	2.17721
302.65	0.8398
302.866	1.45628
303.083	3.45666
303.299	3.40318
303.515	1.81611
303.731	2.26332
303.947	0.91885
304.163	1.38592
304.379	2.06185
304.595	2.14024
304.812	1.38403
305.028	1.39793
305.244	1.7209
305.46	2.35581
305.676	2.77553
305.892	3.04659
306.108	2.34867
306.324	1.74319
306.54	3.3514
306.756	2.48496
306.972	2.32143
307.187	1.94009
307.403	3.02645
307.619	1.31794
307.835	2.71117
308.051	3.06241
308.267	1.01547
308.483	2.99649
308.699	2.36151
308.914	2.19516
309.13	2.0055
309.346	0.9263
309.562	1.45256
309.778	1.07179
309.993	2.42416
310.209	2.1192
310.425	1.13187
310.641	2.04751
310.856	1.4079
311.072	1.38171
311.288	2.00431
311.503	2.41154
311.719	0.78638
311.935	0.90703
312.15	2.68346
312.366	2.40436
312.581	2.54027
312.797	2.23624
313.013	2.68411
313.228	1.90932
313.444	1.88299
313.659	1.59519
313.875	2.35765
314.09	1.97675
314.306	3.30065
314.521	2.6094
314.737	2.61972
314.952	2.1979
315.168	2.27093
315.383	2.60304
315.599	1.73527
315.814	1.93521
316.029	2.78909
316.245	1.4492
316.46	0.78689
316.675	2.93977
316.891	3.57499
317.106	4.1848
317.321	2.62831
317.537	2.67526
317.752	2.8596
317.967	2.65046
318.183	1.45718
318.398	1.9108
318.613	2.75854
318.828	3.46128
319.043	2.63166
319.259	1.8158
319.474	2.39084
319.689	2.93546
319.904	0.84705
320.119	3.05998
320.334	2.28484
320.549	2.1748
320.765	2.99624
320.98	2.41818
321.195	2.68622
321.41	2.175
321.625	2.64478
321.84	3.61346
322.055	3.31822
322.27	1.67314
322.485	1.12521
322.7	2.41885
322.915	2.99279
323.13	1.82043
323.345	3.6117
323.56	2.8985
323.775	2.9003
323.989	2.63017
324.204	2.29099
324.419	2.97258
324.634	1.35371
324.849	2.22693
325.064	4.31677
325.279	3.40164
325.493	2.75893
325.708	3.02684
325.923	1.67054
326.138	2.14735
326.352	3.59332
326.567	2.98349
326.782	1.97719
326.997	1.99096
327.211	2.72751
327.426	2.61236
327.641	2.23531
327.855	1.30013
328.07	2.9518
328.285	3.84822
328.499	2.27227
328.714	2.67798
328.928	2.76516
329.143	2.42085
329.358	3.34974
329.572	3.2292
329.787	3.76937
330.001	4.46042
330.216	1.05816
330.43	4.16614
330.645	3.59154
330.859	3.16168
331.074	1.66614
331.288	2.54521
331.503	3.90998
331.717	1.47025
331.931	2.50279
332.146	2.77147
332.36	4.0049
332.575	2.76774
332.789	2.51871
333.003	2.64993
333.218	3.17179
333.432	2.43028
333.646	3.15828
333.86	4.13411
334.075	3.85945
334.289	2.08464
334.503	1.63692
334.717	3.15623
334.932	2.82096
335.146	3.16842
335.36	2.0208
335.574	3.17761
335.788	2.77266
336.003	3.38808
336.217	3.47061
336.431	2.89365
336.645	2.36476
336.859	1.74667
337.073	2.51576
337.287	2.86715
337.501	1.64584
337.715	3.12292
337.929	2.96467
338.143	1.91996
338.357	2.44749
338.571	2.26975
338.785	3.35609
338.999	2.24459
339.213	2.51471
339.427	1.89619
339.641	3.67198
339.855	2.30055
340.069	2.144
340.283	3.37561
340.497	3.88205
340.711	3.23101
340.924	2.67869
341.138	2.04708
341.352	1.68104
341.566	2.72265
341.78	1.73539
341.993	2.36906
342.207	2.13253
342.421	2.96333
342.635	2.8806
342.848	2.40833
343.062	0.95586
343.276	2.26088
343.49	4.20455
343.703	2.16531
343.917	3.36908
344.131	3.53042
344.344	2.16246
344.558	2.47837
344.771	1.92136
344.985	3.62759
345.199	4.11715
345.412	3.06829
345.626	3.21904
345.839	1.70872
346.053	2.02316
346.266	2.05596
346.48	3.2372
346.693	3.12122
346.907	3.15286
347.12	2.0749
347.334	2.89355
347.547	2.99143
347.76	2.72746
347.974	3.61643
348.187	2.91285
348.401	2.744
348.614	2.09522
348.827	2.62653
349.041	3.17087
349.254	1.57405
349.467	2.56864
349.681	2.12765
349.894	2.25346
350.107	3.73663
350.32	4.25201
350.534	1.82165
350.747	2.62482
350.96	2.22034
351.173	2.22549
351.386	2.55061
351.6	2.38937
351.813	2.54432
352.026	2.78618
352.239	2.16916
352.452	2.3269
352.665	3.49715
352.878	2.49926
353.092	4.42203
353.305	3.26107
353.518	3.07685
353.731	1.9751
353.944	3.68901
354.157	2.44516
354.37	2.38768
354.583	1.87071
354.796	2.05461
355.009	3.5004
355.222	2.98252
355.435	2.88451
355.647	3.74349
355.86	2.36122
356.073	2.97262
356.286	2.59893
356.499	3.6667
356.712	3.44721
356.925	3.27394
357.138	3.66411
357.35	2.33563
357.563	2.75333
357.776	3.1432
357.989	3.16679
358.201	3.46223
358.414	3.15921
358.627	3.92118
358.84	2.92348
359.052	2.21942
359.265	2.46339
359.478	3.75162
359.69	1.37982
359.903	3.69545
360.116	3.78696
360.328	2.09712
360.541	3.68046
360.753	2.81851
360.966	2.91326
361.179	3.22924
361.391	3.19452
361.604	3.07578
361.816	3.31514
362.029	3.32889
362.241	3.21765
362.454	3.45594
362.666	2.8416
362.879	3.65828
363.091	3.05559
363.304	2.86335
363.516	3.04407
363.728	2.50958
363.941	3.43162
364.153	3.25916
364.366	1.9368
364.578	2.55573
364.79	3.36914
365.003	3.38457
365.215	2.92531
365.427	3.41764
365.639	3.76011
365.852	3.25662
366.064	4.1459
366.276	2.91546
366.488	3.32738
366.701	2.90631
366.913	2.90583
367.125	3.04296
367.337	2.65542
367.549	2.75279
367.762	2.89814
367.974	2.98676
368.186	2.89536
368.398	3.7534
368.61	3.4411
368.822	3.5493
369.034	2.62157
369.246	3.73285
369.458	4.71477
369.67	2.56136
369.882	4.1205
370.094	1.78783
370.306	4.05658
370.518	2.6572
370.73	2.73538
370.942	2.91124
371.154	3.1687
371.366	2.98828
371.578	3.59422
371.79	3.1072
372.002	3.94522
372.214	4.62719
372.425	3.19548
372.637	4.35084
372.849	3.58454
373.061	1.85589
373.273	3.58321
373.484	3.59698
373.696	3.68273
373.908	1.87051
374.12	3.79062
374.331	3.64706
374.543	2.62724
374.755	2.43977
374.967	3.0819
375.178	3.91882
375.39	3.06222
375.602	3.38864
375.813	2.29009
376.025	2.68824
376.236	3.43721
376.448	3.44509
376.66	3.28521
376.871	3.23203
377.083	3.92727
377.294	4.49757
377.506	3.10103
377.717	4.20278
377.929	3.4675
378.14	3.11805
378.352	3.75705
378.563	3.89545
378.775	4.24444
378.986	2.78596
379.197	3.47219
379.409	2.96534
379.62	3.88573
379.832	3.39748
380.043	3.3224
380.254	3.58921
380.466	2.61844
380.677	5.0016
380.888	4.59511
381.1	5.12465
381.311	5.08209
381.522	3.66228
381.733	5.15861
381.945	3.53912
382.156	3.30574
382.367	3.3364
382.578	5.35595
382.789	5.31242
383.001	3.00864
383.212	4.65751
383.423	4.63359
383.634	4.12894
383.845	4.00096
384.056	3.28
384.267	3.64493
384.478	3.62855
384.69	2.92363
384.901	3.95559
385.112	3.69089
385.323	4.69295
385.534	3.82378
385.745	3.93448
385.956	3.78825
386.167	3.20516
386.378	4.06893
386.588	3.23661
386.799	3.22371
387.01	2.72143
387.221	4.19827
387.432	3.76504
387.643	4.65733
387.854	3.51336
388.065	3.4079
388.275	3.5894
388.486	3.365
388.697	3.82341
388.908	3.47588
389.119	4.33923
389.329	4.53841
389.54	3.81998
389.751	3.92007
389.962	4.53306
390.172	3.68401
390.383	3.65874
390.594	3.37519
390.804	3.41485
391.015	3.47657
391.226	3.91048
391.436	4.19085
391.647	4.02818
391.858	4.17517
392.068	2.91768
392.279	3.31003
392.489	3.97273
392.7	4.33698
392.91	3.51235
393.121	3.56691
393.331	4.16556
393.542	4.45729
393.752	4.21251
393.963	4.18041
394.173	4.18622
394.384	4.29212
394.594	3.89218
394.804	3.34209
395.015	3.85239
395.225	4.19036
395.436	3.41788
395.646	4.15407
395.856	3.77224
396.067	3.04187
396.277	4.55004
396.487	4.15634
396.697	4.26664
396.908	4.36977
397.118	4.27031
397.328	4.03095
397.538	4.35349
397.749	3.56943
397.959	4.53205
398.169	4.34599
398.379	2.9523
398.589	4.12673
398.8	4.11718
399.01	3.97764
399.22	3.77937
399.43	5.10123
399.64	3.88702
399.85	4.33191
400.06	4.00204
400.27	3.58137
400.48	3.89922
400.69	4.53513
400.9	3.77121
401.11	3.25876
401.32	4.2785
401.53	3.70703
401.74	4.68341
401.95	4.10808
402.16	3.82759
402.37	4.31467
402.58	3.82505
402.79	4.24182
403	4.33735
403.209	3.92464
403.419	4.40162
403.629	3.61535
403.839	4.61771
404.049	4.59035
404.258	3.88849
404.468	3.76879
404.678	4.57996
404.888	4.7849
405.097	4.11714
405.307	4.00202
405.517	4.45047
405.727	4.49334
405.936	3.90564
406.146	4.35261
406.356	4.81081
406.565	3.99587
406.775	3.93579
406.984	3.87831
407.194	5.25347
407.404	4.22271
407.613	4.28718
407.823	4.59445
408.032	4.91317
408.242	4.61652
408.451	3.80254
408.661	4.17214
408.87	4.94369
409.08	3.69872
409.289	4.38315
409.499	4.38688
409.708	4.13524
409.918	3.05996
410.127	4.40934
410.336	5.09802
410.546	4.72246
410.755	3.97755
410.964	3.94627
411.174	3.6198
411.383	4.54424
411.592	4.31954
411.802	3.7625
412.011	4.68374
412.22	4.02151
412.429	4.80826
412.639	5.0836
412.848	4.81761
413.057	5.36851
413.266	4.67554
413.475	4.31734
413.685	4.62877
413.894	4.69095
414.103	4.77241
414.312	4.68229
414.521	4.12435
414.73	4.49669
414.939	5.39954
415.148	4.51512
415.357	4.54018
415.566	4.40368
415.776	4.27839
415.985	4.21921
416.194	4.93537
416.403	5.73463
416.611	4.17533
416.82	4.74452
417.029	5.15582
417.238	4.87179
417.447	4.99758
417.656	5.64858
417.865	5.48081
418.074	5.94436
418.283	6.50027
418.492	7.48618
418.7	7.32521
418.909	8.72835
419.118	7.23522
419.327	7.86698
419.536	7.71616
419.744	7.72166
419.953	9.18753
420.162	9.30718
420.371	8.38992
420.579	8.79862
420.788	9.8387
420.997	10.20353
421.205	10.02542
421.414	9.81204
421.623	10.20301
421.831	9.39172
422.04	9.99266
422.249	9.04883
422.457	9.50002
422.666	8.75109
422.874	9.77853
423.083	9.72082
423.291	9.66642
423.5	9.65474
423.708	9.88724
423.917	10.56807
424.125	9.75892
424.334	9.55543
424.542	11.54184
424.751	10.75958
424.959	10.40618
425.167	10.71877
425.376	10.3471
425.584	9.33808
425.793	9.35741
426.001	8.22087
426.209	8.66664
426.418	7.50744
426.626	6.94617
426.834	6.64478
427.042	6.57048
427.251	6.1315
427.459	6.98227
427.667	6.05945
427.875	5.01053
428.084	5.36473
428.292	6.08662
428.5	5.84824
428.708	4.686
428.916	4.90346
429.124	5.15707
429.333	5.23982
429.541	5.22723
429.749	5.57658
429.957	5.54006
430.165	6.72803
430.373	4.7103
430.581	5.1728
430.789	6.22138
430.997	5.38744
431.205	5.05992
431.413	5.76334
431.621	5.55635
431.829	6.17217
432.037	6.04684
432.245	6.04573
432.453	6.57339
432.661	6.49767
432.869	7.91928
433.076	6.63825
433.284	7.1292
433.492	7.94772
433.7	8.03339
433.908	7.2686
434.116	7.56413
434.323	7.39373
434.531	7.33398
434.739	7.17925
434.947	7.11703
435.154	7.14606
435.362	6.36654
435.57	6.08016
435.778	5.76938
435.985	6.10903
436.193	5.8838
436.401	6.83366
436.608	6.10043
436.816	5.72238
437.023	6.95563
437.231	7.11916
437.439	6.66971
437.646	6.95254
437.854	6.74696
438.061	7.03555
438.269	6.9309
438.476	7.19506
438.684	7.16133
438.891	7.46292
439.099	7.38564
439.306	7.12527
439.514	7.24716
439.721	8.82547
439.929	8.17565
440.136	9.07944
440.343	9.21048
440.551	8.92685
440.758	10.73292
440.965	9.33386
441.173	9.11101
441.38	8.65943
441.587	8.65668
441.795	8.42963
442.002	8.22436
442.209	8.10343
442.416	7.95767
442.624	7.80628
442.831	7.41692
443.038	6.79699
443.245	6.44506
443.452	6.52743
443.66	7.4149
443.867	6.79107
444.074	6.78457
444.281	7.0448
444.488	7.40158
444.695	7.86612
444.902	7.8854
445.109	9.2805
445.316	8.74241
445.523	9.19512
445.73	9.1785
445.937	10.15441
446.144	10.6767
446.351	11.18058
446.558	9.93904
446.765	11.82736
446.972	11.15983
447.179	10.53298
447.386	11.37587
447.593	9.69059
447.8	10.74042
448.007	9.25581
448.214	8.71612
448.42	8.24628
448.627	8.87304
448.834	7.83145
449.041	7.53738
449.248	7.18506
449.454	7.42547
449.661	7.69787
449.868	6.30943
450.075	6.13208
450.281	5.37079
450.488	5.53089
450.695	5.50866
450.901	5.69546
451.108	5.65992
451.315	6.58296
451.521	5.7872
451.728	6.93933
451.935	5.85354
452.141	6.26221
452.348	6.41
452.554	6.37175
452.761	6.33852
452.967	7.53846
453.174	6.78786
453.38	6.56041
453.587	5.77033
453.793	6.43867
454	6.60813
454.206	7.30214
454.413	6.36647
454.619	6.40491
454.825	5.83662
455.032	6.22223
455.238	6.32117
455.445	5.17812
455.651	5.90829
455.857	4.91672
456.064	5.72653
456.27	5.69289
456.476	5.51883
456.682	5.20252
456.889	5.97973
457.095	6.04824
457.301	6.94665
457.507	5.99739
457.714	6.18121
457.92	6.38864
458.126	6.22791
458.332	7.02145
458.538	7.2228
458.744	7.88166
458.951	8.24139
459.157	10.39126
459.363	9.5672
459.569	9.88685
459.775	10.65777
459.981	10.27041
460.187	10.89103
460.393	10.9665
460.599	11.06668
460.805	10.22944
461.011	9.19322
461.217	9.37839
461.423	8.45404
461.629	7.55761
461.835	7.25574
462.041	6.57354
462.247	7.17432
462.453	5.89377
462.658	5.9476
462.864	6.18951
463.07	5.96309
463.276	5.93465
463.482	5.86268
463.688	6.76197
463.893	5.53733
464.099	5.73232
464.305	6.77266
464.511	5.7416
464.716	6.10696
464.922	6.55111
465.128	5.42853
465.333	6.74221
465.539	6.33387
465.745	6.34109
465.95	5.96339
466.156	7.55433
466.362	6.67509
466.567	6.07236
466.773	5.81965
466.978	6.77096
467.184	5.65726
467.389	5.34119
467.595	6.30546
467.8	5.70617
468.006	6.79383
468.211	6.72661
468.417	5.4946
468.622	6.24718
468.828	6.41179
469.033	6.29117
469.239	7.5108
469.444	5.78608
469.649	6.55576
469.855	6.04569
470.06	6.07981
470.266	5.53992
470.471	6.29462
470.676	6.32373
470.881	5.2155
471.087	7.15385
471.292	7.15672
471.497	5.38209
471.703	6.098
471.908	5.97618
472.113	6.30138
472.318	6.56407
472.523	5.60883
472.729	6.3712
472.934	6.34908
473.139	5.96682
473.344	6.38459
473.549	6.79453
473.754	5.85652
473.959	7.36923
474.164	5.95503
474.369	5.98364
474.575	6.43153
474.78	6.24596
474.985	5.87565
475.19	5.27298
475.395	5.82524
475.6	6.18346
475.804	6.95363
476.009	6.26762
476.214	6.15876
476.419	5.99725
476.624	5.63123
476.829	6.17069
477.034	6.87541
477.239	6.39944
477.444	6.88528
477.648	7.19596
477.853	7.1471
478.058	6.65654
478.263	6.68058
478.468	6.39379
478.672	6.40843
478.877	7.82472
479.082	7.72264
479.287	7.12509
479.491	6.82618
479.696	6.39926
479.901	7.35811
480.105	7.53884
480.31	6.82128
480.515	7.45301
480.719	9.09282
480.924	7.65444
481.128	7.70912
481.333	8.80853
481.538	9.23226
481.742	9.35724
481.947	10.73325
482.151	11.73938
482.356	12.40461
482.56	14.71074
482.765	16.63827
482.969	19.72888
483.174	22.31948
483.378	26.03695
483.582	26.51483
483.787	28.70685
483.991	28.92183
484.196	29.2484
484.4	28.83063
484.604	28.78785
484.809	25.97271
485.013	24.92641
485.217	22.1238
485.422	19.64786
485.626	17.88055
485.83	16.82349
486.034	16.18535
486.239	16.76725
486.443	17.08977
486.647	17.57903
486.851	18.88105
487.055	20.7106
487.26	20.34901
487.464	21.31276
487.668	20.57932
487.872	21.40591
488.076	21.80492
488.28	20.54533
488.484	19.27865
488.688	18.72038
488.892	17.56099
489.096	16.4621
489.3	15.11901
489.504	14.13236
489.708	13.60584
489.912	13.18925
490.116	12.90054
490.32	12.54187
490.524	13.85907
490.728	14.8375
490.932	15.38771
491.136	16.48789
491.34	17.83546
491.544	18.42972
491.748	18.05507
491.951	17.94477
492.155	17.4687
492.359	17.02716
492.563	15.03442
492.767	14.31819
492.97	12.86042
493.174	11.27953
493.378	10.40585
493.582	9.05692
493.785	8.82622
493.989	8.64862
494.193	8.16691
494.396	7.48648
494.6	8.00195
494.804	7.40011
495.007	7.20209
495.211	7.34686
495.414	7.42844
495.618	8.041
495.822	8.77861
496.025	8.2817
496.229	9.01966
496.432	8.55263
496.636	8.85287
496.839	9.18617
497.043	9.95834
497.246	9.24856
497.45	8.90608
497.653	9.24986
497.856	8.89516
498.06	8.53369
498.263	8.44259
498.467	8.20622
498.67	8.89617
498.873	8.29175
499.077	7.72281
499.28	7.74161
499.483	7.76447
499.686	7.92857
499.89	7.46421
500.093	7.51234
500.296	6.51109
500.499	7.55071
500.703	6.70896
500.906	6.77818
501.109	7.43335
501.312	6.63132
501.515	6.46686
501.719	6.81132
501.922	7.03738
502.125	6.82135
502.328	6.47756
502.531	6.20513
502.734	6.76521
502.937	5.74073
503.14	6.65348
503.343	6.29826
503.546	6.50439
503.749	6.56161
503.952	7.02999
504.155	6.44436
504.358	7.05962
504.561	7.02203
504.764	6.28794
504.967	6.98387
505.17	6.61165
505.373	7.40676
505.576	6.57971
505.778	7.08165
505.981	6.16248
506.184	7.2882
506.387	5.92986
506.59	7.4826
506.793	7.22966
506.995	6.83649
507.198	5.95638
507.401	7.22894
507.604	7.23655
507.806	6.71975
508.009	7.09971
508.212	7.96744
508.414	7.32585
508.617	7.44766
508.82	7.78202
509.022	8.77061
509.225	8.10307
509.427	7.17277
509.63	8.41203
509.833	7.74068
510.035	7.49807
510.238	6.92346
510.44	8.39339
510.643	6.62917
510.845	8.53607
511.048	7.81176
511.25	7.23724
511.453	7.49498
511.655	7.78797
511.858	7.43124
512.06	8.13424
512.262	7.51859
512.465	8.1837
512.667	7.28815
512.869	6.75184
513.072	7.48738
513.274	7.42612
513.476	7.29447
513.679	7.29157
513.881	6.31963
514.083	7.56442
514.286	6.39318
514.488	6.30205
514.69	6.23273
514.892	6.08043
515.094	7.11213
515.297	6.47173
515.499	6.86024
515.701	6.34649
515.903	7.63055
516.105	7.49585
516.307	6.95115
516.509	5.95592
516.711	6.49962
516.913	7.0299
517.116	7.4647
517.318	7.62323
517.52	8.76025
517.722	9.17986
517.924	8.56734
518.126	9.84021
518.328	9.36873
518.529	10.24387
518.731	11.0492
518.933	9.45072
519.135	9.81489
519.337	10.29116
519.539	9.63174
519.741	7.97007
519.943	8.10178
520.145	7.76526
520.346	8.20232
520.548	7.24075
520.75	7.36767
520.952	6.90579
521.153	7.11737
521.355	7.27053
521.557	6.38176
521.759	6.87357
521.96	6.67443
522.162	6.23346
522.364	7.27555
522.565	6.33137
522.767	7.0856
522.969	7.20916
523.17	6.99882
523.372	6.89609
523.573	6.71289
523.775	6.82355
523.977	6.68838
524.178	8.18171
524.38	7.60681
524.581	8.80217
524.783	8.44613
524.984	9.65961
525.186	9.79914
525.387	10.42983
525.589	10.39181
525.79	10.48223
525.991	10.3965
526.193	11.15985
526.394	10.34461
526.596	11.46769
526.797	11.80667
526.998	11.5227
527.2	11.94095
527.401	14.3948
527.602	15.64244
527.803	18.41201
528.005	19.45951
528.206	21.17075
528.407	22.13824
528.608	22.12618
528.81	22.58759
529.011	21.73522
529.212	22.8209
529.413	21.02867
529.614	19.49292
529.815	18.40264
530.017	16.79441
530.218	14.73573
530.419	13.05859
530.62	12.37323
530.821	11.86273
531.022	10.37858
531.223	11.4525
531.424	11.02961
531.625	11.36936
531.826	11.15161
532.027	11.72164
532.228	13.30971
532.429	13.35139
532.63	13.84212
532.831	14.8987
533.032	14.86234
533.233	15.84455
533.433	15.38106
533.634	15.5369
533.835	14.78438
534.036	14.04076
534.237	13.25456
534.438	12.39988
534.638	10.84532
534.839	10.46637
535.04	10.18225
535.241	9.49238
535.441	10.94479
535.642	10.22984
535.843	9.57369
536.043	10.10889
536.244	10.27884
536.445	10.56939
536.645	11.56093
536.846	11.2417
537.047	11.48209
537.247	10.02307
537.448	9.82584
537.648	9.70808
537.849	8.94257
538.049	8.56431
538.25	8.29485
538.451	8.16117
538.651	6.9858
538.851	7.70626
539.052	8.2319
539.252	8.27503
539.453	7.87734
539.653	8.75722
539.854	9.14583
540.054	10.27702
540.254	12.01157
540.455	13.37031
540.655	13.36221
540.855	15.06036
541.056	16.62319
541.256	15.98619
541.456	17.39551
541.657	16.60133
541.857	17.51699
542.057	15.62416
542.257	14.94965
542.458	15.25866
542.658	14.28006
542.858	12.46192
543.058	12.85428
543.258	11.87731
543.458	10.13971
543.659	9.71785
543.859	10.48996
544.059	10.11149
544.259	9.28246
544.459	9.41179
544.659	8.3343
544.859	8.64581
545.059	7.95609
545.259	8.86983
545.459	8.41403
545.659	9.09534
545.859	8.66905
546.059	8.902
546.259	8.25226
546.459	8.17374
546.659	8.18283
546.859	9.1643
547.059	8.64633
547.258	8.62724
547.458	8.39482
547.658	7.29926
547.858	6.7584
548.058	7.15975
548.258	6.87356
548.457	6.35408
548.657	8.11
548.857	6.79709
549.057	7.13019
549.256	7.16172
549.456	6.5999
549.656	5.67607
549.855	7.85595
550.055	6.37955
550.255	7.66749
550.454	6.90166
550.654	7.16106
550.853	7.59883
551.053	7.21809
551.253	6.96179
551.452	6.9548
551.652	6.02587
551.851	5.93021
552.051	6.61768
552.25	6.46304
552.45	6.57183
552.649	6.6796
552.849	6.42423
553.048	6.71917
553.248	7.2838
553.447	6.32635
553.646	7.30225
553.846	8.01893
554.045	7.46969
554.244	6.01834
554.444	7.98526
554.643	6.19193
554.842	7.72123
555.042	8.17123
555.241	6.35676
555.44	6.13813
555.64	7.49632
555.839	7.91997
556.038	7.00271
556.237	6.30378
556.436	6.91003
556.636	7.05154
556.835	6.41685
557.034	7.91101
557.233	6.75656
557.432	5.68668
557.631	7.56719
557.83	6.63509
558.029	6.49559
558.228	6.3417
558.427	6.1655
558.626	6.95737
558.825	5.97796
559.024	6.57861
559.223	7.93707
559.422	6.51347
559.621	6.95435
559.82	5.00802
560.019	6.51484
560.218	6.71832
560.417	4.99092
560.616	6.41035
560.815	8.85845
561.014	5.69205
561.212	7.78841
561.411	6.62391
561.61	5.72926
561.809	6.49695
562.008	7.47498
562.206	6.48355
562.405	7.22011
562.604	6.42298
562.803	6.95626
563.001	6.46937
563.2	5.78903
563.399	7.13224
563.597	5.79904
563.796	6.49215
563.995	5.9249
564.193	6.9344
564.392	6.47921
564.59	7.93389
564.789	5.52338
564.988	6.31578
565.186	7.05898
565.385	6.61659
565.583	6.54502
565.782	6.69435
565.98	6.67198
566.179	6.67083
566.377	6.11869
566.575	6.49566
566.774	7.57669
566.972	7.43328
567.171	8.14464
567.369	7.62007
567.567	6.92973
567.766	7.02081
567.964	5.4775
568.162	6.99152
568.361	7.39229
568.559	6.60221
568.757	6.93107
568.956	6.76298
569.154	6.76137
569.352	7.05805
569.55	6.68579
569.748	6.72208
569.947	6.20158
570.145	6.20673
570.343	5.9986
570.541	7.38822
570.739	5.96903
570.937	6.63249
571.135	6.96803
571.333	7.86163
571.532	7.89821
571.73	6.8093
571.928	7.53421
572.126	7.04824
572.324	6.62719
572.522	7.62637
572.72	8.6708
572.918	6.89159
573.116	7.14034
573.313	6.71068
573.511	6.80944
573.709	6.45675
573.907	7.47819
574.105	6.57725
574.303	5.78822
574.501	5.78179
574.699	6.98606
574.896	7.04388
575.094	7.19541
575.292	5.83534
575.49	7.3076
575.688	6.41595
575.885	7.53208
576.083	8.31664
576.281	7.19893
576.478	6.15498
576.676	7.13779
576.874	5.56936
577.071	6.43026
577.269	8.32271
577.467	6.71668
577.664	6.50746
577.862	7.45714
578.059	5.98158
578.257	7.16974
578.455	6.2644
578.652	6.85811
578.85	5.1901
579.047	6.6628
579.245	6.40554
579.442	6.35437
579.64	6.44075
579.837	5.36853
580.034	8.44569
580.232	6.43381
580.429	5.43522
580.627	6.87894
580.824	7.65589
581.021	7.03263
581.219	6.04312
581.416	6.00542
581.613	7.57439
581.811	7.71791
582.008	6.0463
582.205	7.17496
582.402	6.6633
582.6	8.10448
582.797	6.47359
582.994	6.69474
583.191	6.84316
583.388	6.53318
583.586	7.17958
583.783	7.4385
583.98	6.08958
584.177	6.69257
584.374	4.30045
584.571	6.23466
584.768	6.31132
584.965	5.90947
585.162	6.90639
585.359	7.90761
585.556	6.47901
585.753	6.78017
585.95	5.33235
586.147	6.07907
586.344	6.93054
586.541	6.36604
586.738	5.5509
586.935	6.71166
587.132	5.83045
587.329	7.1875
587.526	6.57647
587.722	10.48095
587.919	5.18048
588.116	6.92705
588.313	7.75216
588.51	8.61407
588.706	6.25578
588.903	7.04
589.1	7.24639
589.297	8.80235
589.493	6.56903
589.69	7.13543
589.887	6.06784
590.083	5.76661
590.28	5.9354
590.477	7.20052
590.673	7.41309
590.87	7.44359
591.067	6.49162
591.263	6.98642
591.46	6.66061
591.656	6.13217
591.853	7.59426
592.049	5.7912
592.246	6.18055
592.442	7.668
592.639	7.36566
592.835	5.81103
593.032	7.13698
593.228	5.42678
593.425	5.09611
593.621	5.26396
593.817	6.74747
594.014	5.96078
594.21	6.6567
594.406	7.40034
594.603	6.98666
594.799	6.20431
594.995	4.68005
595.192	7.7408
595.388	6.51627
595.584	6.30788
595.78	5.33257
595.977	8.48237
596.173	8.02825
596.369	6.43982
596.565	5.9626
596.761	5.61953
596.957	7.80133
597.154	6.16895
597.35	6.44413
597.546	6.20863
597.742	7.43726
597.938	6.8722
598.134	6.07704
598.33	7.03221
598.526	7.80422
598.722	7.00249
598.918	8.23301
599.114	7.04513
599.31	5.82317
599.506	6.42211
599.702	6.01838
599.898	6.49778
600.094	7.00212
600.29	7.29651
600.485	7.48135
600.681	5.89246
600.877	7.95836
601.073	6.51464
601.269	8.34528
601.465	7.69364
601.66	5.82954
601.856	4.81912
602.052	7.9414
602.248	6.33001
602.443	4.91762
602.639	5.56744
602.835	6.16767
603.03	5.72411
603.226	7.48706
603.422	5.87534
603.617	6.48426
603.813	6.35569
604.009	6.3904
604.204	7.88273
604.4	5.72443
604.595	7.47393
604.791	5.92127
604.986	6.92054
605.182	6.20702
605.377	6.61301
605.573	6.30837
605.768	6.83034
605.964	7.60652
606.159	7.22731
606.355	7.52723
606.55	6.20409
606.746	7.78285
606.941	6.33932
607.136	8.7716
607.332	9.40419
607.527	5.47395
607.722	6.71574
607.918	6.54986
608.113	6.09575
608.308	7.28326
608.503	6.92064
608.699	7.04561
608.894	7.16992
609.089	5.98512
609.284	6.7566
609.479	6.31724
609.675	7.36175
609.87	6.45849
610.065	7.32515
610.26	7.57787
610.455	7.38991
610.65	6.79095
610.845	6.80447
611.04	7.73378
611.235	6.62821
611.43	6.20179
611.625	5.59396
611.82	8.0925
612.015	6.03321
612.21	8.08145
612.405	5.02726
612.6	8.30562
612.795	7.72831
612.99	7.20482
613.185	5.63044
613.38	5.76209
613.575	6.69655
613.77	9.45198
613.965	4.83614
614.159	5.62167
614.354	8.14645
614.549	7.79819
614.744	7.63385
614.938	5.6573
615.133	5.17347
615.328	8.51638
615.523	7.87505
615.717	9.66226
615.912	5.51101
616.107	6.57989
616.301	6.3884
616.496	6.03336
616.691	8.40214
616.885	7.48329
617.08	9.84435
617.274	7.56511
617.469	8.99378
617.664	7.27882
617.858	6.2369
618.053	7.23908
618.247	6.48305
618.442	4.23812
618.636	8.48977
618.831	5.95428
619.025	6.08775
619.219	9.3161
619.414	3.2796
619.608	6.56486
619.803	5.83535
619.997	9.02672
620.191	7.93385
620.386	7.10082
620.58	6.86228
620.774	4.7461
620.969	4.95848
621.163	6.69326
621.357	5.65438
621.551	6.42078
621.746	6.97055
621.94	6.19742
622.134	10.42314
622.328	9.00309
622.522	5.15295
622.716	7.80324
622.911	7.88485
623.105	7.96837
623.299	7.27895
623.493	10.78311
623.687	5.63595
623.881	6.27457
624.075	7.25521
624.269	8.52949
624.463	4.56562
624.657	4.93827
624.851	7.27791
625.045	7.95295
625.239	8.02858
625.433	6.48553
625.627	8.56541
625.821	6.20311
626.015	6.05815
626.209	6.90535
626.403	5.7522
626.596	7.35222
626.79	7.58977
626.984	5.63329
627.178	7.51541
627.372	7.40834
627.565	7.4781
627.759	5.24659
627.953	5.29527
628.147	7.56928
628.34	7.65408
628.534	9.23592
628.728	6.60586
628.921	7.55492
629.115	7.10332
629.309	7.87188
629.502	8.069
629.696	6.7609
629.89	6.79627
630.083	7.06784
630.277	7.48568
630.47	8.93878
630.664	6.38557
630.857	4.86136
631.051	7.93873
631.244	8.69785
631.438	7.84187
631.631	6.07228
631.825	8.82724
632.018	7.87897
632.212	9.24184
632.405	8.35418
632.598	6.11912
632.792	6.78992
632.985	4.43949
633.178	6.62903
633.372	7.09177
633.565	6.62906
633.758	9.02374
633.952	5.72826
634.145	5.89001
634.338	7.00357
634.531	6.26455
634.724	6.39749
634.918	6.7896
635.111	6.61611
635.304	6.5569
635.497	10.25176
635.69	7.39721
635.883	8.75102
636.077	5.67288
636.27	7.88708
636.463	7.28868
636.656	7.47847
636.849	6.56516
637.042	8.38413
637.235	9.02023
637.428	8.2859
637.621	8.17828
637.814	9.25853
638.007	9.62832
638.2	8.89893
638.393	9.96812
638.586	5.34463
638.778	6.84695
638.971	7.12716
639.164	9.71495
639.357	7.52464
639.55	9.49287
639.743	8.77317
639.935	7.73898
640.128	10.25004
640.321	8.3258
640.514	7.41629
640.707	10.73585
640.899	8.30109
641.092	4.63871
641.285	18.86316
641.477	4.40054
641.67	10.81622
641.863	9.3811
642.055	8.22073
642.248	7.4586
642.441	6.66025
642.633	8.29895
642.826	9.8872
643.018	9.7456
643.211	10.6103
643.403	10.16972
643.596	10.89338
643.788	10.49919
643.981	7.23124
644.173	9.29108
644.366	7.48792
644.558	4.51636
644.751	9.68259
644.943	5.3615
645.135	10.23871
645.328	10.28791
645.52	8.73178
645.712	9.70156
645.905	13.46006
646.097	6.03711
646.289	7.84758
646.482	11.31932
646.674	6.82018
646.866	9.85859
647.058	8.85262
647.251	6.06155
647.443	7.16523
647.635	7.85727
647.827	5.72472
648.019	6.89091
648.211	7.49853
648.404	7.55406
648.596	10.85071
648.788	8.66117
648.98	8.10275
649.172	8.62222
649.364	8.5897
649.556	5.01822
649.748	12.80393
649.94	6.31477
650.132	8.90286
650.324	6.36223
650.516	7.04151
650.708	9.61912
650.9	5.85343
651.092	5.38433
651.284	5.88848
651.476	6.23021
651.667	9.08842
651.859	9.70802
652.051	7.71392
652.243	7.8603
652.435	6.94069
652.627	9.18243
652.818	8.77183
653.01	5.36361
653.202	6.20417
653.394	7.39263
653.585	8.61862
653.777	15.92231
653.969	10.0245
654.16	9.95145
654.352	6.35024
654.544	7.50253
654.735	9.48402
654.927	8.62666
655.118	10.43393
655.31	9.11024
655.502	9.69758
655.693	7.0527
655.885	9.54289
656.076	10.59189
656.268	8.38665
656.459	11.08503
656.651	10.73577
656.842	7.57663
657.034	6.74426
657.225	9.66291
657.416	10.67179
657.608	10.69356
657.799	8.33801
657.99	10.56959
658.182	7.29155
658.373	7.24922
658.564	9.31457
658.756	8.12638
658.947	7.98083
659.138	6.57073
659.33	7.60335
659.521	6.81597
659.712	7.98031
659.903	7.7641
660.094	7.37991
660.286	5.78118
660.477	11.53706
660.668	9.53292
660.859	8.41529
661.05	5.91068
661.241	9.74257
661.432	8.88244
661.623	7.82516
661.814	7.5557
662.006	5.58401
662.197	8.83675
662.388	10.83586
662.579	9.29384
662.77	10.69015
662.96	13.72987
663.151	9.98956
663.342	5.18231
663.533	9.61426
663.724	8.60297
663.915	11.91707
664.106	8.36779
664.297	11.88507
664.488	9.89453
664.678	7.10532
664.869	10.16879
665.06	11.19146
665.251	9.48036
665.442	9.57623
665.632	6.29193
665.823	12.43598
666.014	2.96513
666.204	10.49761
666.395	11.41297
666.586	14.39581
666.776	10.83698
666.967	11.91258
667.158	8.67693
667.348	11.01654
667.539	7.10516
667.729	10.63801
667.92	7.30949
668.111	10.99692
668.301	10.06748
668.492	8.95926
668.682	9.23975
668.873	8.89131
669.063	6.72263
669.253	9.24775
669.444	10.73976
669.634	8.89523
669.825	13.23979
670.015	10.83974
670.206	7.28562
670.396	13.00194
670.586	9.10222
670.777	10.02349
670.967	4.57316
671.157	8.52865
671.347	7.27248
671.538	12.40773
671.728	10.12675
671.918	13.41101
672.108	11.37052
672.299	8.74657
672.489	9.91274
672.679	8.14222
672.869	10.32319
673.059	13.23587
673.249	10.35224
673.44	6.87944
673.63	8.77333
673.82	11.44324
674.01	7.29923
674.2	9.7509
674.39	15.48598
674.58	11.31478
674.77	9.13779
674.96	9.2243
675.15	18.12856
675.34	12.45144
675.53	10.28864
675.72	9.11695
675.91	6.15899
676.099	13.49611
676.289	14.4519
676.479	11.41465
676.669	8.30395
676.859	10.11822
677.049	7.72751
677.238	9.3843
677.428	13.58887
677.618	10.7909
677.808	12.54963
677.997	11.22449
678.187	7.01735
678.377	9.59887
678.567	8.65417
678.756	8.36806
678.946	9.05683
679.136	6.45108
679.325	7.66978
679.515	7.53863
679.704	7.12555
679.894	10.98883
680.084	10.20523
680.273	11.91423
680.463	7.74528
680.652	7.93298
680.842	9.15913
681.031	11.31657
681.221	7.83592
681.41	10.80449
681.6	9.13077
681.789	11.81553
681.978	12.60498
682.168	10.11119
682.357	9.80706
682.547	11.10299
682.736	10.43433
682.925	13.09594
683.115	12.33492
683.304	11.68175
683.493	10.85756
683.682	11.29928
683.872	11.30744
684.061	13.32317
684.25	11.87816
684.439	14.52278
684.629	11.78667
684.818	19.44381
685.007	10.1234
685.196	9.7405
685.385	14.155
685.574	11.23864
685.763	11.58259
685.952	11.3739
686.142	8.29183
686.331	13.96825
686.52	5.87974
686.709	14.57768
686.898	14.79035
687.087	12.29733
687.276	15.14033
687.465	13.62965
687.654	10.09271
687.842	15.20118
688.031	7.62417
688.22	14.1621
688.409	11.01056
688.598	10.90719
688.787	17.77527
688.976	11.79254
689.165	16.335
689.353	9.6734
689.542	12.13319
689.731	13.16691
689.92	16.92368
690.108	13.61581
690.297	10.19535
690.486	10.75725
690.675	13.59997
690.863	16.51955
691.052	15.61774
691.241	12.5867
691.429	11.94857
691.618	15.54103
691.806	8.3843
691.995	10.17961
692.184	11.90531
692.372	10.27704
692.561	12.50996
692.749	11.88945
692.938	19.34965
693.126	13.36417
693.315	11.39918
693.503	12.86571
693.692	13.2485
693.88	15.63249
694.068	17.97459
694.257	11.54264
694.445	13.28653
694.634	6.25358
694.822	14.39467
695.01	15.8938
695.199	17.06013
695.387	16.636
695.575	15.18053
695.763	12.55671
695.952	10.24875
696.14	7.67401
696.328	10.63322
696.516	12.73185
696.705	13.03064
696.893	12.87999
697.081	7.29552
697.269	14.2253
697.457	9.2344
697.645	8.86783
697.833	13.74429
698.021	9.43771
698.21	10.39315
698.398	10.6312
698.586	9.07152
698.774	8.29548
698.962	11.14493
699.15	9.07411
699.338	7.67178
699.526	12.77866
699.714	10.15304
699.901	9.95194
700.089	13.74694
700.277	9.65999
700.465	11.05347
700.653	13.97649
700.841	13.39401
701.029	9.34862
701.217	15.54051
701.404	12.80954
701.592	16.53333
701.78	18.12999
701.968	11.87875
702.155	12.26687
702.343	7.80726
702.531	16.37904
702.718	13.6082
702.906	11.43074
703.094	10.23178
703.281	16.39079
703.469	12.96783
703.657	16.22158
703.844	22.72814
704.032	18.07335
704.219	11.61268
704.407	14.1513
704.595	16.97905
704.782	12.77727
704.97	11.35022
705.157	11.24763
705.345	17.76666
705.532	22.47161
705.719	15.04669
705.907	16.75103
706.094	13.03408
706.282	19.12356
706.469	11.73301
706.656	14.43339
706.844	12.68956
707.031	17.5097
707.218	14.19208
707.406	19.17499
707.593	16.00192
707.78	15.54459
707.968	13.38334
708.155	10.6278
708.342	15.54481
708.529	15.25624
708.716	14.3258
708.904	19.65708
709.091	16.30842
709.278	9.40421
709.465	19.87483
709.652	19.56656
709.839	18.13469
710.026	15.48397
710.213	8.08749
710.4	15.14622
710.587	17.23394
710.774	18.73717
710.961	17.8376
711.148	14.44206
711.335	18.07598
711.522	13.44635
711.709	15.47255
711.896	21.7773
712.083	17.64815
712.27	11.17508
712.457	16.01144
712.644	9.3283
712.831	21.96036
713.017	14.78575
713.204	16.8387
713.391	12.00038
713.578	19.45334
713.765	20.38625
713.951	17.24914
714.138	26.96491
714.325	17.48643
714.512	15.41783
714.698	12.9172
714.885	21.34725
715.072	17.2756
715.258	16.49995
715.445	12.91151
715.631	20.98946
715.818	6.42559
716.005	13.19897
716.191	17.59897
716.378	13.80849
716.564	19.13184
716.751	12.57318
716.937	14.20725
717.124	20.0041
717.31	12.79966
717.497	22.55813
717.683	13.91236
717.869	23.80447
718.056	14.67343
718.242	18.16879
718.429	15.7008
718.615	11.78739
718.801	16.31021
718.988	19.59665
719.174	18.67615
719.36	15.98914
719.547	20.38321
719.733	18.83252
719.919	18.46363
720.105	19.7068
720.291	16.49726
720.478	17.48408
720.664	16.27256
720.85	14.39461
721.036	29.19243
721.222	23.03422
721.408	16.64743
721.595	24.7031
721.781	23.86957
721.967	21.38174
722.153	24.33944
722.339	19.453
722.525	18.8344
722.711	12.95707
722.897	11.28395
723.083	15.65693
723.269	22.43543
723.455	28.17506
723.641	31.42673
723.827	18.94188
724.012	19.0044
724.198	14.70391
724.384	24.26059
724.57	20.0787
724.756	10.24719
724.942	9.43566
725.127	21.15482
725.313	23.85679
725.499	23.97803
725.685	26.57198
725.87	19.01045
726.056	14.66757
726.242	23.62543
726.428	11.1034
726.613	21.71902
726.799	16.58325
726.985	13.99847
727.17	10.8705
727.356	25.65684
727.541	12.7324
727.727	16.35576
727.913	22.45359
728.098	15.41695
728.284	22.35627
728.469	12.67587
728.655	14.61619
728.84	21.3759
729.026	20.7787
729.211	22.12376
729.397	20.39494
729.582	21.21124
729.767	18.2386
729.953	20.38529
730.138	23.56596
730.323	8.07843
730.509	13.51802
730.694	24.9036
730.879	20.84841
731.065	19.65555
731.25	29.47263
731.435	21.23528
731.621	11.53482
731.806	15.27993
731.991	19.58951
732.176	11.04135
732.361	25.54374
732.547	20.69615
732.732	10.43283
732.917	29.52777
733.102	12.27004
733.287	14.60823
733.472	19.7123
733.657	19.2286
733.842	10.68821
734.027	16.51304
734.212	17.93897
734.397	15.06665
734.582	18.92043
734.767	22.5091
734.952	25.22053
735.137	6.79149
735.322	25.85367
735.507	19.77204
735.692	18.98753
735.877	30.72641
736.062	27.50295
736.247	21.13248
736.431	18.07352
736.616	24.59049
736.801	19.83307
736.986	18.49924
737.171	13.82996
737.355	10.91492
737.54	25.43184
737.725	19.49156
737.909	33.67788
738.094	16.17448
738.279	24.5483
738.463	16.88696
738.648	22.01513
738.833	20.82034
739.017	30.18862
739.202	18.24383
739.386	17.29519
739.571	14.63005
739.756	23.71353
739.94	19.66818
740.125	23.3238
740.309	16.29312
740.494	22.81902
740.678	19.15168
740.863	22.51759
741.047	21.01094
741.231	25.02693
741.416	16.00779
741.6	26.99811
741.785	14.66302
741.969	24.11608
742.153	25.30699
742.338	6.7155
742.522	18.63088
742.706	23.2995
742.89	11.25734
743.075	20.7913
743.259	27.69454
743.443	24.12696
743.627	27.1705
743.812	35.02445
743.996	5.27277
744.18	18.91132
744.364	16.38254
744.548	33.94081
744.732	17.52319
744.916	23.55275
745.1	23.35983
745.285	18.59569
745.469	22.31944
745.653	32.31258
745.837	12.88289
746.021	32.42868
746.205	28.51439
746.389	20.30061
746.573	17.93657
746.757	30.31421
746.94	18.89573
747.124	27.88749
747.308	13.06093
747.492	27.72246
747.676	16.11277
747.86	34.141
748.044	17.84213
748.227	9.85678
748.411	43.80587
748.595	22.25168
748.779	13.84753
748.963	22.74384
749.146	21.09461
749.33	17.17945
749.514	14.42687
749.697	27.26271
749.881	16.61478
750.065	14.0973
750.248	20.3226
750.432	35.54017
750.616	21.37241
750.799	12.06265
750.983	34.95822
751.166	37.59298
751.35	10.6566
751.533	27.95717
751.717	28.70413
751.9	30.62492
752.084	17.89255
752.267	12.99521
752.451	15.8047
752.634	22.7536
752.818	23.77174
753.001	26.40733
753.184	28.35109
753.368	22.797
753.551	2.36648
753.734	15.48115
753.918	36.21315
754.101	16.23941
754.284	25.91816
754.467	18.16259
754.651	17.05097
754.834	17.27037
755.017	28.06729
755.2	28.46415
755.384	14.66364
755.567	27.33708
755.75	28.32418
755.933	20.31126
756.116	21.37984
756.299	17.91022
756.482	15.06767
756.665	24.32833
756.848	22.46665
757.032	24.24523
757.215	10.80485
757.398	15.34257
757.581	15.5978
757.764	40.3996
757.947	20.92352
758.129	29.56359
758.312	3.47555
758.495	19.84634
758.678	18.53652
758.861	21.22083
759.044	34.55702
759.227	17.7254
759.41	14.91459
759.592	25.8293
759.775	18.90107
759.958	26.16371
760.141	12.81019
760.324	36.54222
760.506	32.3927
760.689	25.87158
760.872	37.68637
761.054	23.56201
761.237	18.76715
761.42	23.9656
761.602	27.74317
761.785	24.53297
761.968	28.05297
762.15	34.71041
762.333	20.76473
762.515	23.33108
762.698	17.3779
762.88	25.92513
763.063	23.41149
763.245	26.37347
763.428	16.35929
763.61	15.45063
763.793	13.76717
763.975	22.0167
764.158	18.10654
764.34	16.87867
764.522	14.96155
764.705	19.87212
764.887	29.43289
765.069	12.37692
765.252	25.12997
765.434	25.26191
765.616	21.19315
765.799	15.20047
765.981	26.17537
766.163	15.57539
766.345	28.89569
766.528	15.62
766.71	6.91195
766.892	21.19553
767.074	29.76883
767.256	20.2755
767.438	32.85337
767.62	25.62419
767.802	38.7158
767.985	26.60492
768.167	37.61738
768.349	17.71433
768.531	25.88244
768.713	23.33578
768.895	29.54096
769.077	24.22717
769.259	45.36101
769.441	62.1596
769.623	32.26835
769.804	33.78051
769.986	33.62049
770.168	42.48393
770.35	51.63576
770.532	40.88777
770.714	41.75078
770.896	41.88839
771.077	13.7817
771.259	44.49215
771.441	36.23518
771.623	45.44318
771.804	60.45166
771.986	14.41441
772.168	27.25866
772.35	40.91541
772.531	63.18036
772.713	34.83213
772.894	46.23799
773.076	33.91967
773.258	25.70235
773.439	50.19676
773.621	51.71617
773.802	21.14576
773.984	30.869
774.166	36.71962
774.347	52.14462
774.529	40.35469
774.71	10.49581
774.891	31.8298
775.073	28.86021
775.254	51.43434
775.436	27.30075
775.617	56.67892
775.799	28.15437
775.98	55.77551
776.161	54.29059
776.343	55.05503
776.524	35.89603
776.705	29.48328
776.886	17.36479
777.068	36.71386
777.249	70.36112
777.43	59.05028
777.611	25.09593
777.793	33.60603
777.974	53.65616
778.155	28.91695
778.336	26.78841
778.517	62.89516
778.698	26.87867
778.879	12.83625
779.061	2.94501
779.242	40.47094
779.423	38.9904
779.604	27.56301
779.785	32.20096
779.966	37.97839
780.147	46.10156
780.328	48.95068
780.509	67.29585
780.69	46.20483
780.871	30.43663
781.051	15.13617
781.232	38.09471
781.413	39.47647
781.594	30.21724
781.775	29.29088
781.956	27.71806
782.137	14.94419
782.317	25.54464
782.498	42.23395
782.679	40.30833
782.86	37.33609
783.04	26.63459
783.221	37.11645
783.402	60.28089
783.583	35.90542
783.763	43.85312
783.944	32.84594
784.124	18.65541
784.305	57.57054
784.486	43.76973
784.666	33.97788
784.847	14.05784
785.027	74.78604
785.208	27.25025
785.388	27.10902
785.569	27.46506
785.749	32.22766
785.93	27.24413
786.11	19.39327
786.291	37.24938
786.471	37.52795
786.652	42.60801
786.832	35.70495
787.012	39.39961
787.193	18.73416
787.373	34.39288
787.553	31.00901
787.734	37.65213
787.914	30.14569
788.094	41.95181
788.275	38.90241
788.455	32.64009
788.635	21.90042
788.815	37.56739
788.995	21.96503
789.176	16.49708
789.356	26.7413
789.536	30.03825
789.716	43.682
789.896	22.98497
790.076	29.18245
790.256	37.79919
790.436	9.48031
790.616	23.62191
790.796	37.41629
790.976	30.34086
791.156	25.52294
791.336	45.55707
791.516	39.93494
791.696	31.22465
791.876	18.5724
792.056	37.40376
792.236	48.43556
792.416	46.20827
792.596	41.71444
792.776	38.68573
792.956	40.21538
793.135	53.90128
793.315	21.4993
793.495	49.52523
793.675	43.31987
793.854	46.29278
794.034	47.43118
794.214	21.47676
794.394	46.13658
794.573	48.59934
794.753	37.39572
794.933	24.37703
795.112	36.94232
795.292	45.11736
795.472	60.97802
795.651	21.74296
795.831	35.99375
796.01	31.79946
796.19	30.11604
796.369	31.09979
796.549	41.71646
796.728	29.04293
796.908	22.11882
797.087	19.89585
797.267	33.66607
797.446	21.55456
797.626	40.5897
797.805	38.91914
797.984	23.94174
798.164	42.75459
798.343	21.02664
798.522	36.21414
798.702	34.81943
798.881	22.58978
799.06	31.43612
799.239	12.44681
799.419	21.29225
799.598	56.6219
799.777	40.56741
799.956	48.92821
800.136	32.9275
800.315	21.40689
800.494	39.28392
800.673	49.84454
800.852	41.819
801.031	49.53727
801.21	44.74028
801.389	26.65583
801.568	39.30075
801.747	59.9035
801.926	32.61666
802.105	54.24222
802.284	31.89167
802.463	54.99855
802.642	38.09426
802.821	36.93452
803	54.68983
803.179	46.38673
803.358	51.04014
803.537	27.88928
803.716	39.22038
803.895	27.07499
804.073	34.66257
804.252	25.37694
804.431	39.97485
804.61	34.55669
804.789	49.19663
804.967	27.37011
805.146	26.85301
805.325	64.2078
805.503	38.49642
805.682	20.4884
805.861	72.09646
806.039	52.22744
806.218	25.57261
806.397	37.91973
806.575	34.87014
806.754	41.41009
806.932	25.81378
807.111	58.35037
807.289	46.1579
807.468	36.72154
807.646	48.9335
807.825	41.7119
808.003	40.35184
808.182	46.79798
808.36	36.04555
808.539	23.27835
808.717	56.42694
808.895	26.79171
809.074	42.39068
809.252	29.81033
809.43	48.38632
809.609	53.98553
809.787	63.63053
809.965	31.56587
810.144	36.82559
810.322	31.99831
810.5	44.67058
810.678	32.24722
810.856	66.42122
811.035	53.22431
811.213	49.44612
811.391	52.80613
811.569	40.53244
811.747	83.70083
811.925	53.41031
812.103	31.75326
812.281	36.81308
812.459	66.7887
812.637	67.39851
812.816	52.6367
812.994	73.5269
813.171	54.58597
813.349	48.99349
813.527	59.87595
813.705	61.25175
813.883	73.41567
814.061	54.97816
814.239	66.06542
814.417	73.44218
814.595	50.22547
814.773	45.0968
814.95	40.33002
815.128	40.73005
815.306	38.42554
815.484	36.26981
815.662	30.21583
815.839	22.67869
816.017	33.18263
816.195	56.9184
816.372	34.89265
816.55	55.12276
816.728	65.92162
816.905	37.9744
817.083	63.99553
817.261	38.14063
817.438	82.44666
817.616	68.818
817.793	31.81809
817.971	50.77676
818.148	47.91373
818.326	60.17928
818.503	43.53067
818.681	63.63693
818.858	30.76868
819.036	41.14716
819.213	43.88082
819.391	31.41587
819.568	27.59882
819.745	25.71907
819.923	50.21917
820.1	30.25397
820.277	29.40835
820.455	32.52729
820.632	34.75779
820.809	35.86622
820.986	21.72725
821.164	18.04105
821.341	15.04831
821.518	23.29054
821.695	17.19689
821.872	16.16159
822.05	14.15955
822.227	10.44133
822.404	11.8746
822.581	14.23876
822.758	11.70891
822.935	12.01132
823.112	14.12009
823.289	11.57913
823.466	13.99046
823.643	12.87834
823.82	16.4773
823.997	14.04648
824.174	17.77094
824.351	22.74112
824.528	22.02719
824.705	19.26839
824.882	20.216
825.059	27.0247
825.236	18.88614
825.412	18.88243
825.589	25.30577
825.766	33.97431
825.943	20.91092
826.12	24.18991
826.296	16.11805
826.473	21.89797
826.65	22.48956
826.827	29.04805
827.003	18.39258
827.18	21.22877
827.357	24.02515
827.533	19.72906
827.71	10.32281
827.887	17.31522
828.063	20.66623
828.24	18.08723
828.416	25.23676
828.593	20.50385
828.769	29.64492
828.946	32.56862
829.122	33.24466
829.299	32.77062
829.475	12.97073
829.652	30.88557
829.828	51.55153
830.005	29.60201
830.181	42.27285
830.357	28.30513
830.534	47.59575
830.71	34.34071
830.886	43.7252
831.063	43.46769
831.239	54.44882
831.415	24.31129
831.592	56.43024
831.768	35.07275
831.944	27.3386
832.12	59.43144
832.296	56.75623
832.473	44.4735
832.649	31.7259
832.825	43.99995
833.001	24.25745
833.177	39.00569
833.353	35.35449
833.529	18.3062
833.705	28.60471
833.881	20.85445
834.058	19.06679
834.234	20.65261
834.41	22.27416
834.586	16.95577
834.761	19.70588
834.937	22.32768
835.113	24.69616
835.289	20.53889
835.465	25.83724
835.641	21.96764
835.817	25.19173
835.993	47.44903
836.169	19.78617
836.344	33.3097
836.52	38.02521
836.696	45.4293
836.872	25.42696
837.048	92.96921
837.223	28.98095
837.399	70.96529
837.575	51.55723
837.75	48.73045
837.926	72.02437
838.102	117.84745
838.277	89.70795
838.453	120.03482
838.628	112.62555
838.804	34.47066
838.98	111.04085
839.155	60.98451
839.331	70.40428
839.506	51.98941
839.682	49.77443
839.857	60.93754
840.033	75.34301
840.208	30.96396
840.384	18.02683
840.559	35.16082
840.734	54.90227
840.91	77.74757
841.085	47.71151
841.26	55.08985
841.436	49.85651
841.611	40.45812
841.786	62.84873
841.962	93.742
842.137	56.10487
842.312	32.3104
842.487	47.14022
842.663	45.29939
842.838	46.49571
843.013	191.66166
843.188	88.2159
843.363	76.9642
843.538	161.55325
843.714	169.27349
843.889	160.23438
844.064	163.7259
844.239	127.06255
844.414	173.50165
844.589	111.68956
844.764	214.8362
844.939	186.80067
845.114	208.3698
845.289	225.82793
845.464	248.65124
845.639	177.69394
845.814	96.20215
845.989	130.94498
846.163	131.08291
846.338	159.91586
846.513	218.2826
846.688	159.32994
846.863	175.69254
847.038	142.26766
847.212	146.59099
847.387	150.31359
847.562	143.7561
847.737	209.05422
847.911	84.60559
848.086	108.90353
848.261	265.68779
848.435	130.17554
848.61	181.73516
848.785	104.74994
848.959	208.68325
849.134	236.86678
849.308	352.34891
849.483	173.99538
849.658	230.82383
849.832	135.96781
850.007	109.8293
850.181	329.76034
850.356	119.01958
850.53	300.12567
850.705	93.68501
850.879	71.2886
851.053	154.90692
851.228	135.93924
851.402	255.25621
851.577	211.82723
851.751	266.64151
851.925	151.12229
852.099	64.92837
852.274	133.0799
852.448	143.69815
852.622	219.44066
852.797	151.66821
852.971	168.17898
853.145	233.92891
853.319	310.39038
853.493	262.84489
853.668	164.26915
853.842	292.52073
854.016	201.49977
854.19	315.16054
854.364	160.23367
854.538	186.62582
854.712	252.67938
854.886	153.08529
855.06	135.51582
855.234	57.8452
855.408	294.10681
855.582	204.4939
855.756	282.65346
855.93	275.39799
856.104	195.10158
856.278	268.35381
856.452	133.93474
856.626	178.97362
856.8	369.25871
856.973	197.67845
857.147	243.51684
857.321	229.79633
857.495	246.44981
857.669	194.85257
857.842	162.30396
858.016	255.07817
858.19	126.8164
858.364	377.59627
858.537	160.98396
858.711	201.16081
858.885	162.31103
859.058	117.50707
859.232	78.59025
859.405	68.79808
859.579	237.76234
859.753	233.93182
859.926	120.98156
860.1	109.77683
860.273	180.90887
860.447	271.33578
860.62	157.05572
860.794	298.55636
860.967	208.5588
861.141	223.01417
861.314	359.61914
861.487	189.80541
861.661	261.75022
861.834	306.68294
862.008	251.41389
862.181	208.28693
862.354	196.50567
862.528	230.47618
862.701	145.67978
862.874	103.00064
863.047	175.93687
863.221	145.4553
863.394	69.17338
863.567	232.55858
863.74	45.27575
863.913	228.6717
864.087	227.08981
864.26	227.56847
864.433	188.15642
864.606	322.58347
864.779	178.60966
864.952	76.44695
865.125	201.53415
865.298	198.56924
865.471	175.67619
865.644	301.96198
865.817	239.91085
865.99	286.50522
866.163	270.94557
866.336	152.90283
866.509	161.28495
866.682	188.03151
866.855	288.65315
867.028	93.79828
867.2	204.40686
867.373	52.06486
867.546	163.15187
867.719	367.39299
867.892	221.48499
868.064	118.90625
868.237	182.96021
868.41	191.11932
868.583	83.36063
868.755	117.49552
868.928	162.97833
869.101	342.06199
869.273	290.98137
869.446	204.50248
869.619	265.86586
869.791	159.98882
869.964	254.54057
870.136	272.36683
870.309	156.89252
870.481	156.11753
870.654	93.46551
870.826	190.2145
870.999	133.77341
871.171	218.93812
871.344	114.76082
871.516	165.36986
871.689	115.58085
871.861	182.39362
872.033	126.48535
872.206	152.70625
872.378	219.32767
872.55	160.5158
872.723	89.68878
872.895	141.61759
873.067	241.80014
873.24	228.42005
873.412	131.01925
873.584	146.3784
873.756	148.80232
873.928	204.49023
874.101	164.54437
874.273	221.19493
874.445	71.33349
874.617	106.31478
874.789	170.87044
874.961	125.88387
875.133	188.7422
875.305	170.24852
875.477	117.17251
875.649	79.80821
875.821	110.36208
875.993	269.27449
876.165	130.80294
876.337	168.47189
876.509	187.79366
876.681	172.50441
876.853	155.42707
877.025	170.04104
877.197	113.39272
877.369	95.65567
877.541	178.49124
877.712	41.13399
877.884	85.04581
878.056	174.08471
878.228	92.5669
878.4	178.02579
878.571	84.95225
878.743	61.60132
878.915	132.59929
879.086	76.8828
879.258	93.25482
879.43	89.0889
879.601	76.05844
879.773	75.21915
879.945	17.04768
880.116	28.15328
880.288	18.29304
880.459	19.61911
880.631	15.62952
880.802	18.59937
880.974	17.13516
881.145	12.31392
881.317	17.31001
881.488	12.93248
881.66	13.91304
881.831	12.99953
882.002	18.34289
882.174	13.60455
882.345	17.2257
882.517	8.28185
882.688	21.49157
882.859	15.62505
883.03	29.82293
883.202	28.01186
883.373	22.07079
883.544	22.01196
883.715	39.18342
883.887	32.82514
884.058	27.20997
884.229	39.21959
884.4	38.94854
884.571	47.39814
884.742	37.77336
884.914	41.35783
885.085	62.07661
885.256	90.814
885.427	67.17213
885.598	86.28441
885.769	78.61636
885.94	78.1781
886.111	47.03448
886.282	101.94332
886.453	81.60008
886.624	59.08552
886.795	104.57067
886.966	86.38085
887.136	118.56817
887.307	79.61447
887.478	167.66969
887.649	130.50564
887.82	155.41788
887.991	115.33991
888.161	156.68568
888.332	158.62725
888.503	86.37313
888.674	218.54796
888.844	252.50071
889.015	191.41204
889.186	107.12608
889.356	239.06821
889.527	85.98379
889.698	314.25299
889.868	114.10789
890.039	183.05304
890.209	145.98518
890.38	234.45062
890.551	196.19737
890.721	255.5373
890.892	209.51264
891.062	182.09308
891.233	201.81765
891.403	173.28867
891.574	100.79296
891.744	150.34783
891.914	152.44569
892.085	186.75848
892.255	46.83939
892.425	230.08294
892.596	160.12015
892.766	177.17281
892.936	238.5848
893.107	188.36975
893.277	89.58673
893.447	68.29324
893.618	42.87869
893.788	109.94308
893.958	62.03217
894.128	49.99603
894.298	62.77106
894.468	79.39386
894.639	38.56046
894.809	18.72689
894.979	35.00077
895.149	47.29648
895.319	36.87413
895.489	58.69606
895.659	72.92038
895.829	47.67634
895.999	50.31358
896.169	40.20912
896.339	51.09475
896.509	101.21003
896.679	110.83148
896.849	117.80939
897.019	165.06048
897.189	149.79561
897.358	128.5153
897.528	182.56292
897.698	75.85153
897.868	205.15787
898.038	360.726
898.208	273.08681
898.377	96.72595
898.547	368.26948
898.717	564.91576
898.886	222.88436
899.056	338.45006
899.226	411.10479
899.395	429.15199
899.565	562.93455
899.735	336.42205
899.904	463.73008
900.074	513.93732
900.244	208.794
900.413	683.87146
900.583	181.05239
900.752	334.18466
900.922	466.30822
901.091	45.87464
901.261	705.35426
901.43	345.58135
901.599	399.70133
901.769	808.24236
901.938	483.78799
902.108	387.7656
902.277	448.8636
902.446	150.3056
902.616	179.43019
902.785	183.33138
902.954	339.88695
903.124	194.89499
903.293	130.69587
903.462	70.05346
903.631	103.47079
903.801	75.5473
903.97	31.13423
904.139	61.5957
904.308	45.17718
904.477	38.66768
904.646	19.19763
904.816	33.76727
904.985	48.95535
905.154	82.16816
