Data from WindowProjectSample_Transmission__78__00078.txt Node

Date: Sat May 03 18:01:41 EDT 2025
User: jessi
Spectrometer: SR400872
Trigger mode: 0
Integration Time (sec): 5.000010E-1
Scans to average: 6
Electric dark correction enabled: true
Nonlinearity correction enabled: true
Boxcar width: 0
XAxis mode: Wavelengths
Number of Pixels in Spectrum: 3648
>>>>>Begin Spectral Data<<<<<
184.909	3327.24965
185.132	3979.83556
185.355	-4119.46847
185.578	4256.8962
185.801	-276.56153
186.024	-4636.3374
186.247	1591.35139
186.47	503.30268
186.693	-37.42861
186.916	3860.84099
187.139	3175.84856
187.362	-2094.82541
187.585	5805.06861
187.808	24641.8622
188.031	-19.86637
188.254	-4584.72277
188.476	753.1085
188.699	3527.46168
188.922	-209.17976
189.145	-7168.49361
189.368	-360.51933
189.591	-740.82027
189.813	-3096.23282
190.036	902.03289
190.259	-8248.28397
190.482	1394.98226
190.705	3896.38841
190.927	-1879.2257
191.15	-6586.78316
191.373	5905.14154
191.595	-1159.67039
191.818	2037.67525
192.041	-331.75037
192.263	1971.59255
192.486	-2579.30608
192.709	-22743.17177
192.931	1782.51353
193.154	-3799.43434
193.377	-2274.71927
193.599	4898.35987
193.822	1692.84424
194.044	5689.84114
194.267	853.67368
194.489	-501.5773
194.712	2642.29
194.934	8450.80471
195.157	-26099.26133
195.379	1981.2431
195.602	1579.61026
195.824	1450.57394
196.047	37688.03297
196.269	3114.63067
196.492	-1712.89606
196.714	-1235.82576
196.936	1766.48144
197.159	-12475.18302
197.381	-428.01906
197.604	-3259.33281
197.826	-16336.89456
198.048	10593.24106
198.271	-8294.06042
198.493	4603.31839
198.715	3530.47028
198.938	-642.885
199.16	-17662.75446
199.382	1201.27752
199.604	-1759.70526
199.827	-3620.16683
200.049	2451.31713
200.271	-6912.06781
200.493	-44666.14861
200.715	3493.65642
200.938	-2948.45855
201.16	-2579.55906
201.382	-1717.36481
201.604	-3430.43453
201.826	3424.88826
202.048	3577.1121
202.27	-1091.92784
202.492	-3248.40914
202.715	-1256.18406
202.937	-16751.40957
203.159	2479.9609
203.381	2245.15425
203.603	-2927.82143
203.825	-996.57251
204.047	53468.76717
204.269	-1314.93277
204.491	-1113.87288
204.713	67873.46535
204.935	-3121.85071
205.156	-888.03979
205.378	-4620.36219
205.6	-1251.83184
205.822	2298.06705
206.044	-439.50097
206.266	6377.94554
206.488	869.94661
206.71	3379.48459
206.932	1587.0423
207.153	-1538.81944
207.375	-2698.21396
207.597	3762.85545
207.819	30140.1393
208.041	4053.33088
208.262	-1638.1715
208.484	-1032.23289
208.706	-1411.15841
208.927	2935.35202
209.149	4877.68891
209.371	-5257.33637
209.593	366.73745
209.814	-25733.14508
210.036	2712.66783
210.258	-821.21272
210.479	3870.60547
210.701	-3491.18263
210.922	-10563.64768
211.144	-862.21506
211.366	5001.64072
211.587	-2152.36146
211.809	-4640.82968
212.03	-893.82706
212.252	-631.36103
212.473	3513.75665
212.695	-701.06459
212.916	-825.64892
213.138	559.52432
213.359	-1412.28741
213.581	12460.39452
213.802	-2212.27667
214.024	-2292.75988
214.245	-6201.51569
214.466	-195.61622
214.688	-3043.50348
214.909	-20955.9415
215.131	-4727.22925
215.352	-2094.31637
215.573	11541.0458
215.795	1649.63965
216.016	6349.21114
216.237	-523.25057
216.459	6253.60117
216.68	-3487.01973
216.901	-2874.84141
217.122	-1949.90959
217.344	-6754.67144
217.565	-2872.29896
217.786	2277.10518
218.007	1752.41427
218.228	-572.28366
218.45	-4345.7975
218.671	1476.986
218.892	3477.50586
219.113	1539.95753
219.334	320.25223
219.555	-6581.05495
219.776	11904.88426
219.997	4077.20346
220.219	1959.21267
220.44	1122.43319
220.661	983.89217
220.882	-2624.86192
221.103	-1010.05537
221.324	2532.40983
221.545	2936.72275
221.766	-3424.25378
221.987	-542.93511
222.208	-10754.3826
222.429	179868.99318
222.65	-401.94994
222.87	-10158.15698
223.091	2463.1402
223.312	-1276.93348
223.533	2474.02349
223.754	2020.79736
223.975	2793.90037
224.196	-5561.56919
224.417	-2584.77946
224.637	7812.26344
224.858	1389.87811
225.079	1218.5569
225.3	981.98225
225.521	4810.94787
225.741	960.38057
225.962	1086.03555
226.183	-470.15784
226.404	1427.5615
226.624	1140.98415
226.845	1582.53242
227.066	851.89062
227.286	586.44213
227.507	196.72134
227.728	193.14546
227.948	287.32643
228.169	93.41825
228.389	88.36428
228.61	46.67462
228.831	63.06537
229.051	8.63798
229.272	40.57086
229.492	48.34332
229.713	14.79868
229.933	37.89664
230.154	32.86749
230.374	53.1639
230.595	43.4683
230.815	26.26899
231.036	39.93316
231.256	-9.87468
231.477	75.58738
231.697	49.87374
231.917	46.69326
232.138	62.62083
232.358	125.97725
232.579	122.48437
232.799	15.95714
233.019	108.82212
233.24	140.66261
233.46	43.814
233.68	78.90558
233.901	54.00839
234.121	31.60917
234.341	11.58555
234.561	-4.77361
234.782	24.93095
235.002	82.83635
235.222	2.99843
235.442	68.40366
235.662	32.77937
235.883	74.75469
236.103	63.5888
236.323	46.88071
236.543	35.05362
236.763	47.14385
236.983	52.02221
237.203	52.13014
237.423	72.59735
237.643	103.0445
237.864	87.28652
238.084	19.97169
238.304	35.19202
238.524	61.83704
238.744	46.90879
238.964	76.24799
239.184	70.34631
239.404	73.86432
239.624	37.74754
239.843	66.47197
240.063	36.93569
240.283	24.41158
240.503	28.93016
240.723	27.2315
240.943	15.09749
241.163	20.49607
241.383	16.16705
241.603	7.10584
241.822	9.54956
242.042	6.68752
242.262	8.58296
242.482	9.97994
242.702	11.07119
242.921	4.36819
243.141	7.81386
243.361	6.23511
243.581	10.11696
243.8	8.09901
244.02	5.44857
244.24	10.88039
244.459	10.11272
244.679	20.24098
244.899	13.08504
245.118	15.14142
245.338	13.98912
245.558	16.25377
245.777	9.70456
245.997	10.80235
246.216	10.9458
246.436	5.92111
246.655	4.48577
246.875	3.672
247.094	6.45525
247.314	2.23273
247.533	3.69681
247.753	4.72218
247.972	3.87541
248.192	1.64714
248.411	2.48287
248.631	4.1519
248.85	5.17344
249.07	3.98981
249.289	7.1534
249.508	5.37466
249.728	8.4417
249.947	8.92571
250.166	9.33345
250.386	5.6395
250.605	7.5523
250.824	12.40332
251.044	9.07906
251.263	27.30184
251.482	15.38434
251.701	13.9499
251.921	-0.61525
252.14	4.51035
252.359	4.43327
252.578	11.77629
252.798	3.72604
253.017	9.691
253.236	5.74166
253.455	6.26719
253.674	12.70565
253.893	6.19685
254.112	9.42942
254.331	13.47121
254.551	10.88607
254.77	5.08048
254.989	15.72138
255.208	14.26158
255.427	17.58754
255.646	14.90492
255.865	23.69336
256.084	9.0388
256.303	12.49284
256.522	16.85393
256.741	4.11469
256.96	3.85803
257.179	11.48055
257.397	11.97755
257.616	7.05822
257.835	6.89491
258.054	16.8153
258.273	10.01681
258.492	11.70759
258.711	7.61044
258.93	3.53816
259.148	4.52833
259.367	4.63567
259.586	5.83703
259.805	2.6838
260.023	5.18713
260.242	4.19083
260.461	3.04103
260.68	1.55323
260.898	4.63093
261.117	1.81924
261.336	1.27226
261.554	3.95193
261.773	3.64936
261.992	0.89528
262.21	3.71782
262.429	4.78633
262.648	8.09765
262.866	9.17529
263.085	6.08401
263.303	5.72644
263.522	10.43613
263.74	10.25564
263.959	16.27284
264.178	8.53119
264.396	7.81748
264.615	5.3813
264.833	13.46467
265.051	11.20133
265.27	10.9611
265.488	12.13329
265.707	7.97374
265.925	12.5486
266.144	5.2393
266.362	7.32131
266.58	6.94447
266.799	5.61569
267.017	6.42801
267.235	6.14392
267.454	3.71081
267.672	2.14362
267.89	5.18416
268.109	5.23194
268.327	4.6127
268.545	1.65585
268.763	4.83782
268.982	2.31788
269.2	5.94795
269.418	3.63355
269.636	2.85951
269.854	4.83799
270.073	3.9162
270.291	2.09113
270.509	2.43298
270.727	5.18926
270.945	7.97721
271.163	8.00964
271.381	2.03181
271.599	3.16487
271.817	5.91925
272.036	2.42551
272.254	3.4093
272.472	2.93581
272.69	2.71591
272.908	2.67363
273.126	4.5764
273.344	6.01292
273.562	2.15516
273.779	3.21043
273.997	3.80839
274.215	4.9493
274.433	3.55865
274.651	4.97874
274.869	5.25393
275.087	3.38069
275.305	5.12066
275.523	2.43446
275.74	3.66403
275.958	6.2581
276.176	8.95083
276.394	3.13914
276.612	3.62545
276.829	3.89699
277.047	3.00292
277.265	3.49625
277.483	4.10973
277.7	5.1373
277.918	4.52622
278.136	6.76668
278.353	3.15381
278.571	1.94943
278.789	5.9528
279.006	1.44676
279.224	3.20291
279.442	6.01117
279.659	4.02725
279.877	2.614
280.094	6.22043
280.312	0.94888
280.529	3.76117
280.747	1.12929
280.964	2.86651
281.182	6.80759
281.399	3.22942
281.617	4.31317
281.834	3.13719
282.052	2.65502
282.269	3.52646
282.487	2.74154
282.704	2.19434
282.921	2.7716
283.139	3.63689
283.356	5.08932
283.574	4.10252
283.791	2.10262
284.008	5.90666
284.226	3.29729
284.443	3.80401
284.66	4.55434
284.877	3.62867
285.095	2.33879
285.312	1.84239
285.529	1.12151
285.746	0.97301
285.964	2.30481
286.181	1.40771
286.398	2.25477
286.615	3.08396
286.832	2.87024
287.05	1.03887
287.267	1.86415
287.484	2.3303
287.701	3.14045
287.918	2.77236
288.135	3.17754
288.352	1.67647
288.569	1.84388
288.786	2.56188
289.003	2.23728
289.22	3.36351
289.437	2.03901
289.654	3.0793
289.871	3.529
290.088	3.30197
290.305	2.60102
290.522	1.84388
290.739	2.40228
290.956	3.51998
291.173	4.13897
291.39	3.94828
291.607	2.78027
291.824	2.00511
292.04	1.22804
292.257	3.16663
292.474	3.54577
292.691	2.48343
292.908	1.0025
293.125	2.16006
293.341	1.02776
293.558	5.86859
293.775	2.37766
293.992	2.37503
294.208	1.16506
294.425	1.65635
294.642	2.0646
294.858	3.04673
295.075	0.96212
295.292	2.22801
295.508	3.05112
295.725	4.44427
295.942	2.77619
296.158	2.34869
296.375	3.2933
296.591	2.51088
296.808	3.19525
297.024	3.72135
297.241	3.9147
297.458	4.13949
297.674	2.16155
297.891	3.78762
298.107	4.19818
298.323	3.10441
298.54	5.36173
298.756	3.78482
298.973	2.96031
299.189	5.84808
299.406	4.17928
299.622	5.64112
299.838	5.80896
300.055	5.48594
300.271	3.95544
300.487	3.94349
300.704	4.67068
300.92	4.29499
301.136	8.01965
301.353	6.00636
301.569	5.33341
301.785	5.64749
302.001	6.49458
302.218	6.1124
302.434	6.53185
302.65	4.66427
302.866	5.63069
303.083	8.52611
303.299	8.71128
303.515	6.54745
303.731	7.17728
303.947	5.52667
304.163	6.3113
304.379	6.7281
304.595	7.23798
304.812	6.19402
305.028	6.17404
305.244	6.37835
305.46	7.28598
305.676	7.72635
305.892	8.77319
306.108	7.89962
306.324	6.80885
306.54	9.34997
306.756	7.677
306.972	7.50109
307.187	7.46836
307.403	8.25837
307.619	6.6715
307.835	8.37213
308.051	8.96605
308.267	6.42483
308.483	9.33582
308.699	8.19953
308.914	8.28376
309.13	8.03704
309.346	7.25374
309.562	7.46938
309.778	7.16711
309.993	8.73345
310.209	8.92135
310.425	7.18153
310.641	8.76211
310.856	8.17777
311.072	7.83842
311.288	8.66252
311.503	9.32339
311.719	7.26479
311.935	7.3717
312.15	9.70008
312.366	9.41442
312.581	9.50787
312.797	9.22353
313.013	9.57405
313.228	8.37904
313.444	8.23746
313.659	7.87004
313.875	9.13463
314.09	8.52364
314.306	9.57859
314.521	9.37735
314.737	9.17882
314.952	8.87783
315.168	8.87861
315.383	9.31712
315.599	7.87123
315.814	8.49969
316.029	9.15402
316.245	7.95996
316.46	6.58936
316.675	9.84029
316.891	10.40281
317.106	11.71268
317.321	8.89173
317.537	9.44502
317.752	9.58699
317.967	9.78841
318.183	7.84728
318.398	8.19049
318.613	9.55605
318.828	10.34345
319.043	9.31875
319.259	8.5639
319.474	8.80322
319.689	9.97034
319.904	7.17087
320.119	10.4804
320.334	8.83762
320.549	8.93186
320.765	9.87386
320.98	9.39251
321.195	9.02094
321.41	9.07805
321.625	9.55165
321.84	10.39824
322.055	10.35569
322.27	8.3638
322.485	7.50571
322.7	9.38059
322.915	9.90511
323.13	8.95302
323.345	11.18552
323.56	10.25873
323.775	10.27074
323.989	10.03241
324.204	9.31607
324.419	10.54561
324.634	8.19241
324.849	9.76406
325.064	12.18053
325.279	10.97628
325.493	10.07903
325.708	10.49557
325.923	8.82911
326.138	9.74921
326.352	11.01862
326.567	10.52393
326.782	8.87435
326.997	9.29776
327.211	10.32396
327.426	9.77051
327.641	9.66911
327.855	8.35043
328.07	10.70897
328.285	11.75641
328.499	9.22686
328.714	10.11539
328.928	9.79734
329.143	9.92747
329.358	11.06878
329.572	10.46326
329.787	11.49185
330.001	12.404
330.216	7.62542
330.43	12.22844
330.645	10.71767
330.859	10.42935
331.074	8.68943
331.288	9.71498
331.503	12.04638
331.717	8.99934
331.931	9.78692
332.146	10.39315
332.36	12.29539
332.575	10.47984
332.789	10.10886
333.003	10.72969
333.218	10.78967
333.432	10.01635
333.646	11.14637
333.86	12.39328
334.075	12.32079
334.289	10.07106
334.503	8.90566
334.717	11.60525
334.932	10.71122
335.146	11.03619
335.36	9.14505
335.574	10.68105
335.788	9.92748
336.003	10.61933
336.217	10.62766
336.431	9.47054
336.645	8.73645
336.859	8.58259
337.073	9.95905
337.287	10.8001
337.501	9.65182
337.715	11.75443
337.929	11.73044
338.143	10.27453
338.357	10.99981
338.571	10.75864
338.785	12.01345
338.999	10.58761
339.213	10.55373
339.427	9.84378
339.641	11.8651
339.855	10
340.069	9.60239
340.283	11.50132
340.497	12.05529
340.711	11.77722
340.924	11.10083
341.138	9.98024
341.352	9.68135
341.566	10.88606
341.78	9.87823
341.993	10.42619
342.207	10.23175
342.421	11.60529
342.635	11.05785
342.848	10.7804
343.062	8.53564
343.276	10.60693
343.49	12.79099
343.703	10.61082
343.917	12.06531
344.131	12.62719
344.344	10.32941
344.558	10.87879
344.771	9.73551
344.985	12.31747
345.199	13.27399
345.412	11.51814
345.626	11.96876
345.839	9.87169
346.053	10.42474
346.266	10.66208
346.48	11.8157
346.693	11.65388
346.907	11.82116
347.12	10.24249
347.334	11.05029
347.547	11.84587
347.76	11.22175
347.974	12.35848
348.187	11.50041
348.401	11.48944
348.614	10.16175
348.827	11.3785
349.041	11.61686
349.254	10.07743
349.467	11.16713
349.681	10.78526
349.894	10.66166
350.107	12.77177
350.32	13.51959
350.534	10.35168
350.747	11.26944
350.96	10.77217
351.173	10.9541
351.386	11.32129
351.6	10.74472
351.813	11.12149
352.026	11.41911
352.239	10.96024
352.452	10.93885
352.665	12.78871
352.878	11.13822
353.092	13.77478
353.305	12.1189
353.518	11.88271
353.731	10.61718
353.944	12.90605
354.157	11.34287
354.37	11.67403
354.583	10.47644
354.796	11.02585
355.009	12.6402
355.222	12.22978
355.435	12.04081
355.647	13.34893
355.86	11.4451
356.073	12.26963
356.286	11.48685
356.499	13.19902
356.712	13.0961
356.925	12.89473
357.138	13.24063
357.35	11.82803
357.563	11.80417
357.776	12.64322
357.989	12.46897
358.201	12.97033
358.414	12.70237
358.627	13.48171
358.84	12.17408
359.052	11.42042
359.265	11.83643
359.478	13.33053
359.69	10.31549
359.903	13.58456
360.116	13.70742
360.328	11.62593
360.541	13.49975
360.753	12.57945
360.966	12.77173
361.179	12.99961
361.391	12.55752
361.604	12.40565
361.816	12.64024
362.029	12.80322
362.241	12.32384
362.454	12.98075
362.666	12.21455
362.879	13.60303
363.091	12.46358
363.304	12.59536
363.516	12.48591
363.728	12.03057
363.941	13.33279
364.153	13.41254
364.366	11.58409
364.578	12.43132
364.79	13.48195
365.003	13.56845
365.215	12.78139
365.427	13.85006
365.639	13.83961
365.852	13.5478
366.064	14.34453
366.276	13.15519
366.488	13.46004
366.701	13.25325
366.913	12.67358
367.125	13.21691
367.337	12.83881
367.549	13.24403
367.762	13.03937
367.974	13.47115
368.186	13.33141
368.398	14.13841
368.61	13.61548
368.822	14.04253
369.034	13.15062
369.246	14.27715
369.458	15.78565
369.67	13.05277
369.882	14.60067
370.094	11.99471
370.306	14.31049
370.518	13.43169
370.73	13.2611
370.942	13.47724
371.154	13.67403
371.366	13.91836
371.578	14.3353
371.79	14.0763
372.002	14.95451
372.214	15.8247
372.425	13.78579
372.637	15.30824
372.849	14.15451
373.061	12.17759
373.273	14.33406
373.484	14.67694
373.696	14.64293
373.908	12.30082
374.12	14.53576
374.331	14.70269
374.543	13.6135
374.755	13.22264
374.967	14.31401
375.178	15.53309
375.39	14.01242
375.602	14.49819
375.813	13.07544
376.025	13.74588
376.236	14.82992
376.448	14.88389
376.66	14.68149
376.871	14.74562
377.083	15.17537
377.294	16.31779
377.506	14.34552
377.717	15.74957
377.929	14.8176
378.14	14.46537
378.352	15.16607
378.563	15.46606
378.775	15.63848
378.986	13.94404
379.197	15.01119
379.409	14.13737
379.62	15.31304
379.832	15.3468
380.043	14.73424
380.254	15.36515
380.466	13.95501
380.677	17.3231
380.888	16.56087
381.1	17.54701
381.311	17.52896
381.522	15.67948
381.733	17.16404
381.945	15.43574
382.156	14.86523
382.367	15.1145
382.578	17.44572
382.789	17.82866
383.001	14.94022
383.212	16.89538
383.423	16.92902
383.634	16.30131
383.845	16.41805
384.056	15.50432
384.267	15.70691
384.478	15.78543
384.69	14.73434
384.901	16.32963
385.112	15.91424
385.323	17.40238
385.534	16.10796
385.745	16.62413
385.956	16.01212
386.167	15.14309
386.378	16.1499
386.588	15.69982
386.799	15.32326
387.01	15.28295
387.221	16.66165
387.432	16.3466
387.643	17.20489
387.854	15.88714
388.065	15.62752
388.275	15.90069
388.486	15.43186
388.697	16.39697
388.908	15.77414
389.119	17.04321
389.329	17.1611
389.54	16.14879
389.751	16.51965
389.962	17.15941
390.172	16.23493
390.383	16.41293
390.594	15.8055
390.804	16.02921
391.015	16.32593
391.226	16.58503
391.436	16.8174
391.647	16.52516
391.858	16.77597
392.068	15.27449
392.279	15.91823
392.489	17.1754
392.7	17.1643
392.91	16.2243
393.121	16.11106
393.331	16.91777
393.542	17.63672
393.752	17.49459
393.963	17.30864
394.173	17.15826
394.384	17.26794
394.594	16.84545
394.804	15.92205
395.015	16.47944
395.225	17.24687
395.436	16.09125
395.646	17.21451
395.856	16.38441
396.067	15.65927
396.277	17.42942
396.487	17.1174
396.697	17.35659
396.908	17.53396
397.118	17.40764
397.328	17.10546
397.538	17.57606
397.749	16.47182
397.959	17.58529
398.169	17.24417
398.379	15.85957
398.589	17.01818
398.8	17.53263
399.01	17.38844
399.22	16.87222
399.43	18.64765
399.64	17.22966
399.85	17.2141
400.06	17.10858
400.27	16.63734
400.48	17.09392
400.69	17.82948
400.9	16.6532
401.11	16.36817
401.32	17.60419
401.53	16.63379
401.74	18.11318
401.95	17.27551
402.16	17.39444
402.37	17.6009
402.58	16.98588
402.79	17.60676
403	17.80435
403.209	17.01156
403.419	17.9751
403.629	16.84273
403.839	18.22231
404.049	18.11162
404.258	17.11941
404.468	17.16274
404.678	18.0665
404.888	18.48766
405.097	17.71893
405.307	17.65656
405.517	17.82609
405.727	17.9243
405.936	17.30287
406.146	17.80628
406.356	18.43592
406.565	17.47129
406.775	17.17183
406.984	17.02885
407.194	19.02733
407.404	17.54361
407.613	17.81435
407.823	18.04806
408.032	18.63084
408.242	18.20761
408.451	17.37615
408.661	17.56606
408.87	19.01696
409.08	16.9153
409.289	18.12994
409.499	18.19406
409.708	17.74551
409.918	16.42765
410.127	18.36655
410.336	19.0845
410.546	18.37231
410.755	17.40898
410.964	17.58159
411.174	17.03202
411.383	18.25302
411.592	17.63517
411.802	17.30516
412.011	18.20443
412.22	17.82289
412.429	18.68401
412.639	19.03261
412.848	18.53174
413.057	19.40691
413.266	18.57591
413.475	18.16894
413.685	18.56547
413.894	18.59237
414.103	18.536
414.312	18.41383
414.521	17.85827
414.73	18.35057
414.939	19.54114
415.148	18.5428
415.357	18.38564
415.566	18.30365
415.776	18.26674
415.985	18.00198
416.194	18.80743
416.403	19.82228
416.611	17.55934
416.82	18.23247
417.029	18.67565
417.238	18.14674
417.447	18.21029
417.656	18.57046
417.865	18.60737
418.074	19.34792
418.283	20.63108
418.492	22.29887
418.7	21.82615
418.909	24.54238
419.118	22.95926
419.327	23.77138
419.536	23.8842
419.744	24.48369
419.953	26.45289
420.162	26.7502
420.371	26.62265
420.579	28.04211
420.788	28.78479
420.997	29.09967
421.205	29.71972
421.414	29.26258
421.623	29.57537
421.831	29.00428
422.04	29.5083
422.249	27.67946
422.457	28.10427
422.666	26.67863
422.874	27.85784
423.083	28.19921
423.291	28.40889
423.5	28.79799
423.708	29.26507
423.917	30.28274
424.125	29.43577
424.334	29.41332
424.542	31.35161
424.751	30.52947
424.959	29.55802
425.167	29.49117
425.376	29.14244
425.584	26.78563
425.793	26.16821
426.001	24.63673
426.209	24.23093
426.418	22.36463
426.626	21.08923
426.834	20.32482
427.042	19.60858
427.251	19.1228
427.459	19.79858
427.667	19.14825
427.875	18.40989
428.084	18.70547
428.292	20.05987
428.5	19.65849
428.708	18.49413
428.916	18.77363
429.124	19.3823
429.333	19.04718
429.541	19.38509
429.749	19.5809
429.957	19.39387
430.165	21.02592
430.373	18.30924
430.581	19.40794
430.789	20.13352
430.997	19.33242
431.205	18.74767
431.413	19.70804
431.621	19.2741
431.829	19.97685
432.037	19.52299
432.245	19.59155
432.453	19.70189
432.661	19.90917
432.869	21.55982
433.076	20.64065
433.284	21.29194
433.492	22.4413
433.7	22.20509
433.908	21.6463
434.116	21.96615
434.323	20.95036
434.531	21.07843
434.739	20.67254
434.947	20.03188
435.154	20.33102
435.362	19.59238
435.57	19.50064
435.778	19.11405
435.985	19.86286
436.193	19.27559
436.401	20.77515
436.608	19.79603
436.816	19.55828
437.023	20.63845
437.231	21.02145
437.439	20.06079
437.646	20.29855
437.854	20.19701
438.061	20.47273
438.269	20.51184
438.476	20.8369
438.684	21.21375
438.891	22.0149
439.099	21.79886
439.306	22.18727
439.514	22.21365
439.721	24.86702
439.929	24.34951
440.136	26.06424
440.343	26.41573
440.551	26.18341
440.758	27.87047
440.965	26.10186
441.173	25.75691
441.38	25.5841
441.587	24.55256
441.795	24.08304
442.002	23.18135
442.209	22.51726
442.416	21.7862
442.624	21.34573
442.831	20.81778
443.038	20.16082
443.245	19.71635
443.452	20.00248
443.66	20.50397
443.867	20.34741
444.074	20.40335
444.281	21.21032
444.488	21.91225
444.695	22.92701
444.902	23.46048
445.109	25.84076
445.316	26.00601
445.523	27.22719
445.73	27.96058
445.937	29.10216
446.144	30.17493
446.351	30.97879
446.558	29.02401
446.765	32.10028
446.972	30.47135
447.179	29.98092
447.386	30.31532
447.593	27.31525
447.8	28.53736
448.007	25.81926
448.214	24.37454
448.42	23.51174
448.627	23.5624
448.834	22.32957
449.041	21.66615
449.248	20.86596
449.454	20.85696
449.661	21.19029
449.868	20.04631
450.075	19.79821
450.281	19.39791
450.488	19.75453
450.695	19.61392
450.901	20.05962
451.108	19.98195
451.315	21.0346
451.521	20.15932
451.728	21.23201
451.935	20.0564
452.141	20.13899
452.348	20.3689
452.554	20.31237
452.761	20.10527
452.967	21.39509
453.174	20.54853
453.38	20.56801
453.587	19.35093
453.793	20.35099
454	20.38622
454.206	21.43962
454.413	20.87548
454.619	20.85242
454.825	20.16093
455.032	20.7698
455.238	20.83524
455.445	19.67406
455.651	20.65433
455.857	19.53736
456.064	20.28995
456.27	20.51635
456.476	20.12377
456.682	19.62274
456.889	20.68539
457.095	20.78791
457.301	21.81679
457.507	20.76211
457.714	20.75743
457.92	20.56119
458.126	20.06686
458.332	20.80941
458.538	21.39409
458.744	23.31144
458.951	24.50307
459.157	27.72605
459.363	27.82277
459.569	28.43016
459.775	28.96918
459.981	29.52429
460.187	30.01388
460.393	29.68717
460.599	29.0493
460.805	27.30896
461.011	25.13094
461.217	24.13858
461.423	21.89703
461.629	20.95034
461.835	21.02679
462.041	20.59298
462.247	21.54123
462.453	20.48131
462.658	20.42527
462.864	21.13446
463.07	20.87583
463.276	20.89794
463.482	20.92119
463.688	22.04369
463.893	20.3025
464.099	20.81737
464.305	22.00435
464.511	20.5613
464.716	20.9075
464.922	21.67745
465.128	20.29504
465.333	21.77962
465.539	21.35421
465.745	21.01235
465.95	21.09063
466.156	22.8072
466.362	21.60949
466.567	21.15887
466.773	20.90567
466.978	22.06027
467.184	20.50615
467.389	20.07472
467.595	21.33412
467.8	20.78225
468.006	21.81594
468.211	21.84662
468.417	20.2253
468.622	21.19099
468.828	21.30351
469.033	21.05988
469.239	22.95648
469.444	20.83551
469.649	21.50194
469.855	21.24704
470.06	21.31937
470.266	20.56145
470.471	22.02741
470.676	21.40761
470.881	19.79776
471.087	22.16008
471.292	22.09022
471.497	20.466
471.703	21.02114
471.908	21.0098
472.113	21.53006
472.318	22.04059
472.523	20.67116
472.729	21.65924
472.934	21.45946
473.139	21.49355
473.344	21.64224
473.549	22.09143
473.754	21.12395
473.959	22.71023
474.164	20.95111
474.369	21.29497
474.575	21.79528
474.78	21.51716
474.985	21.08466
475.19	20.19123
475.395	21.1441
475.6	21.2212
475.804	22.42128
476.009	21.8556
476.214	21.49507
476.419	21.38649
476.624	20.652
476.829	21.25853
477.034	21.88882
477.239	21.11946
477.444	21.64238
477.648	21.97541
477.853	21.99659
478.058	21.19729
478.263	21.19709
478.468	21.0854
478.672	21.07038
478.877	22.54449
479.082	22.6167
479.287	21.75111
479.491	21.49452
479.696	21.05824
479.901	22.03166
480.105	22.18618
480.31	21.05726
480.515	21.98123
480.719	23.24976
480.924	22.45734
481.128	22.84802
481.333	24.60837
481.538	25.3762
481.742	26.91873
481.947	29.24296
482.151	31.96034
482.356	34.73174
482.56	40.73174
482.765	46.41904
482.969	54.6666
483.174	61.04504
483.378	69.18916
483.582	72.09929
483.787	75.37786
483.991	76.69051
484.196	76.70135
484.4	74.60985
484.604	73.05329
484.809	66.22566
485.013	60.92252
485.217	54.31344
485.422	48.57441
485.626	44.16706
485.83	42.50298
486.034	41.9648
486.239	43.61185
486.443	45.65924
486.647	47.28537
486.851	50.34326
487.055	53.83204
487.26	54.4156
487.464	56.8549
487.668	56.02797
487.872	57.06797
488.076	56.29182
488.28	53.84286
488.484	49.91756
488.688	47.88371
488.892	44.947
489.096	41.32271
489.3	38.0209
489.504	35.52715
489.708	33.65137
489.912	33.30291
490.116	33.06377
490.32	33.67508
490.524	37.07695
490.728	39.43587
490.932	42.14855
491.136	45.30064
491.34	47.20144
491.544	48.24323
491.748	47.97519
491.951	47.60446
492.155	46.25293
492.359	44.01865
492.563	39.79967
492.767	36.80556
492.97	32.40606
493.174	29.03035
493.378	26.60438
493.582	24.01792
493.785	22.85863
493.989	22.43197
494.193	21.47088
494.396	20.49405
494.6	20.74927
494.804	20.27684
495.007	20.14947
495.211	20.8309
495.414	21.02887
495.618	22.1318
495.822	23.11989
496.025	23.12323
496.229	23.89568
496.432	23.9317
496.636	24.24634
496.839	24.75481
497.043	25.70717
497.246	25.08637
497.45	24.61547
497.653	25.00263
497.856	24.21873
498.06	23.33002
498.263	22.65803
498.467	22.5267
498.67	22.77141
498.873	22.3678
499.077	21.80695
499.28	21.74674
499.483	22.05607
499.686	22.07531
499.89	21.79184
500.093	22.29637
500.296	21.22917
500.499	22.92535
500.703	21.8123
500.906	22.13011
501.109	22.78314
501.312	21.83896
501.515	21.91696
501.719	22.39679
501.922	22.60789
502.125	22.0004
502.328	21.86738
502.531	21.53112
502.734	22.28501
502.937	21.19637
503.14	22.30219
503.343	21.86015
503.546	22.10115
503.749	21.82771
503.952	22.40106
504.155	21.76713
504.358	22.49871
504.561	22.18558
504.764	21.22886
504.967	22.28984
505.17	21.96282
505.373	22.92358
505.576	21.83901
505.778	22.45532
505.981	21.57386
506.184	22.71815
506.387	21.04257
506.59	23.1294
506.793	22.74382
506.995	22.30732
507.198	20.78175
507.401	22.39581
507.604	22.14681
507.806	21.61755
508.009	21.82028
508.212	22.51601
508.414	21.8714
508.617	21.75522
508.82	22.08425
509.022	22.9466
509.225	22.24641
509.427	21.23777
509.63	22.80362
509.833	21.76536
510.035	21.77201
510.238	21.25916
510.44	22.57964
510.643	21.11216
510.845	23.07195
511.048	22.36907
511.25	21.70978
511.453	22.11627
511.655	22.33173
511.858	22.0555
512.06	22.86663
512.262	22.29532
512.465	22.7762
512.667	21.87941
512.869	21.63387
513.072	22.39768
513.274	22.5523
513.476	22.6492
513.679	22.62368
513.881	21.50631
514.083	23.21593
514.286	21.8796
514.488	21.93806
514.69	21.6559
514.892	21.42576
515.094	22.92603
515.297	21.84287
515.499	22.53148
515.701	21.74399
515.903	23.53488
516.105	23.47731
516.307	22.78914
516.509	21.29257
516.711	21.74458
516.913	22.38925
517.116	22.40608
517.318	22.37422
517.52	23.7756
517.722	24.38973
517.924	24.51361
518.126	26.24321
518.328	26.21355
518.529	27.15569
518.731	27.88315
518.933	25.90257
519.135	26.07396
519.337	26.26954
519.539	24.90297
519.741	22.84875
519.943	22.31553
520.145	21.8129
520.346	22.78434
520.548	21.99739
520.75	22.37482
520.952	22.05942
521.153	22.73736
521.355	22.65619
521.557	21.8495
521.759	22.38054
521.96	22.38993
522.162	21.60711
522.364	23.12395
522.565	22.07886
522.767	22.91093
522.969	23.17325
523.17	22.85362
523.372	22.58528
523.573	22.25736
523.775	22.55615
523.977	21.86308
524.178	23.5491
524.38	22.36255
524.581	23.54931
524.783	24.03037
524.984	26.11526
525.186	26.85449
525.387	28.12085
525.589	28.53348
525.79	28.64505
525.991	28.91083
526.193	29.99115
526.394	29.33815
526.596	30.60199
526.797	31.63341
526.998	31.65806
527.2	33.99
527.401	38.92621
527.602	42.97925
527.803	48.98201
528.005	52.711
528.206	55.93408
528.407	58.75413
528.608	59.35889
528.81	59.60583
529.011	57.83219
529.212	58.13369
529.413	53.93077
529.614	49.46331
529.815	45.56151
530.017	41.13222
530.218	36.18969
530.419	33.08044
530.62	31.44546
530.821	30.10902
531.022	27.95853
531.223	29.09097
531.424	28.65881
531.625	29.39719
531.826	29.4411
532.027	31.28046
532.228	34.49547
532.429	35.98237
532.63	37.4851
532.831	39.71583
533.032	39.81505
533.233	41.31266
533.433	40.53998
533.634	40.61112
533.835	38.50613
534.036	37.1654
534.237	34.40978
534.438	31.95912
534.638	28.52303
534.839	27.27922
535.04	26.33326
535.241	25.4571
535.441	27.14206
535.642	26.91996
535.843	26.94652
536.043	27.89581
536.244	28.23539
536.445	29.11704
536.645	30.07958
536.846	29.63122
537.047	29.38352
537.247	27.4077
537.448	26.43881
537.648	25.47282
537.849	23.51771
538.049	22.61358
538.25	22.72339
538.451	22.62164
538.651	21.9504
538.851	22.87698
539.052	23.66797
539.252	23.24185
539.453	22.82527
539.653	23.88541
539.854	25.13902
540.054	28.05156
540.254	32.21315
540.455	35.69163
540.655	37.44993
540.855	41.29042
541.056	43.43788
541.256	43.31678
541.456	44.79851
541.657	44.22384
541.857	44.21299
542.057	41.73217
542.257	39.63072
542.458	38.59239
542.658	35.92944
542.858	32.58084
543.058	31.58095
543.258	29.90807
543.458	27.46475
543.659	26.70878
543.859	27.01124
544.059	26.15612
544.259	24.49313
544.459	24.0717
544.659	22.78245
544.859	22.9926
545.059	22.21638
545.259	23.02327
545.459	22.56822
545.659	23.82034
545.859	23.37875
546.059	23.71136
546.259	23.37748
546.459	23.51015
546.659	23.20469
546.859	23.73789
547.059	23.28704
547.258	22.9781
547.458	22.95346
547.658	21.84566
547.858	21.79126
548.058	22.82033
548.258	22.2908
548.457	21.84707
548.657	24.17061
548.857	22.32544
549.057	23.29068
549.256	23.28111
549.456	22.69692
549.656	21.59968
549.855	24.01294
550.055	22.495
550.255	24.34518
550.454	22.85238
550.654	23.11639
550.853	23.69693
551.053	23.55856
551.253	23.09364
551.452	23.52135
551.652	22.44554
551.851	22.10684
552.051	22.7322
552.25	22.58722
552.45	22.33742
552.649	22.75207
552.849	22.28029
553.048	22.36883
553.248	23.3056
553.447	21.86529
553.646	23.19176
553.846	23.8319
554.045	23.05089
554.244	21.63972
554.444	24.02378
554.643	21.8729
554.842	23.76154
555.042	24.51433
555.241	22.40525
555.44	22.16365
555.64	23.46481
555.839	24.31528
556.038	23.38309
556.237	22.3782
556.436	23.14037
556.636	23.17516
556.835	22.32505
557.034	24.16806
557.233	22.78249
557.432	21.5998
557.631	23.79384
557.83	22.73719
558.029	22.26182
558.228	21.82644
558.427	22.10778
558.626	23.01856
558.825	21.81324
559.024	22.80202
559.223	24.40552
559.422	22.58726
559.621	23.053
559.82	20.92473
560.019	23.08522
560.218	22.87302
560.417	20.86602
560.616	22.08512
560.815	25.56661
561.014	21.49368
561.212	24.44802
561.411	22.82813
561.61	21.78619
561.809	22.40076
562.008	23.71717
562.206	22.4802
562.405	23.37441
562.604	22.27418
562.803	22.98364
563.001	22.34642
563.2	21.70018
563.399	23.29824
563.597	21.81406
563.796	22.79835
563.995	21.87932
564.193	23.44753
564.392	22.74345
564.59	24.77554
564.789	21.31826
564.988	22.06938
565.186	23.09336
565.385	22.61298
565.583	22.53495
565.782	22.77299
565.98	22.60329
566.179	22.14405
566.377	21.80305
566.575	22.0605
566.774	23.44827
566.972	22.95205
567.171	23.94014
567.369	23.46485
567.567	22.59565
567.766	22.89086
567.964	20.90673
568.162	22.69294
568.361	23.43898
568.559	22.57841
568.757	23.34228
568.956	22.51101
569.154	22.6171
569.352	23.23669
569.55	22.43201
569.748	22.88559
569.947	22.03657
570.145	21.97799
570.343	21.97777
570.541	23.56109
570.739	21.78588
570.937	22.69434
571.135	23.31463
571.333	23.96497
571.532	24.17919
571.73	23.0907
571.928	23.53425
572.126	22.78917
572.324	22.13846
572.522	23.65031
572.72	24.99493
572.918	22.79489
573.116	22.9168
573.313	22.3736
573.511	22.61099
573.709	22.18532
573.907	23.28797
574.105	22.54876
574.303	21.48251
574.501	21.46598
574.699	22.72254
574.896	23.19934
575.094	23.05391
575.292	21.37783
575.49	23.35343
575.688	22.33357
575.885	23.29339
576.083	24.19635
576.281	22.79088
576.478	21.81596
576.676	23.09858
576.874	21.14363
577.071	22.32141
577.269	24.90515
577.467	22.60526
577.664	22.28545
577.862	23.72448
578.059	21.71565
578.257	23.53477
578.455	21.88924
578.652	22.67889
578.85	20.66647
579.047	22.63954
579.245	22.03723
579.442	22.47112
579.64	22.51693
579.837	21.05996
580.034	25.14691
580.232	22.30974
580.429	20.91335
580.627	23.07104
580.824	23.90713
581.021	23.11344
581.219	21.98247
581.416	21.68633
581.613	23.88239
581.811	23.87056
582.008	21.44223
582.205	23.14673
582.402	22.65113
582.6	24.3878
582.797	22.56053
582.994	22.6237
583.191	23.41627
583.388	22.34885
583.586	23.37702
583.783	23.71231
583.98	21.81805
584.177	22.78945
584.374	19.77541
584.571	22.20817
584.768	22.3503
584.965	21.81515
585.162	23.23782
585.359	24.18017
585.556	22.52814
585.753	22.55732
585.95	21.09383
586.147	21.68527
586.344	23.24944
586.541	21.81875
586.738	21.19264
586.935	22.34171
587.132	21.64271
587.329	23.62225
587.526	22.4827
587.722	27.7989
587.919	21.31046
588.116	22.857
588.313	23.97942
588.51	24.80456
588.706	22.22467
588.903	23.23761
589.1	23.55252
589.297	25.25036
589.493	22.70097
589.69	22.6245
589.887	21.91719
590.083	21.80568
590.28	21.91346
590.477	22.94623
590.673	23.37927
590.87	23.81083
591.067	22.20481
591.263	22.9748
591.46	22.90341
591.656	21.91031
591.853	23.49766
592.049	21.72726
592.246	22.18191
592.442	24.09307
592.639	24.04298
592.835	21.63859
593.032	22.85805
593.228	21.33768
593.425	21.42891
593.621	20.89224
593.817	23.14457
594.014	21.96422
594.21	22.27242
594.406	23.3562
594.603	22.94955
594.799	22.03587
594.995	20.38046
595.192	23.66973
595.388	22.15163
595.584	22.37505
595.78	21.15495
595.977	24.90127
596.173	24.68293
596.369	22.46318
596.565	21.24256
596.761	21.16429
596.957	23.74699
597.154	21.80435
597.35	22.08919
597.546	21.96988
597.742	23.17728
597.938	22.18595
598.134	21.29251
598.33	22.19889
598.526	23.56878
598.722	22.33757
598.918	24.36711
599.114	22.71255
599.31	21.35831
599.506	22.60718
599.702	21.54202
599.898	22.68092
600.094	23.29867
600.29	23.41296
600.485	23.37668
600.681	22.16324
600.877	24.56278
601.073	22.40063
601.269	24.64522
601.465	24.20653
601.66	21.76612
601.856	20.57055
602.052	24.36575
602.248	22.2842
602.443	20.87309
602.639	21.32243
602.835	21.9819
603.03	21.48448
603.226	23.56089
603.422	21.8735
603.617	22.22795
603.813	22.28405
604.009	22.18486
604.204	23.70544
604.4	21.07743
604.595	23.02158
604.791	21.19941
604.986	22.49741
605.182	21.57022
605.377	22.26733
605.573	21.61747
605.768	22.16106
605.964	22.76148
606.159	22.59457
606.355	23.4703
606.55	21.52333
606.746	24.19612
606.941	22.25109
607.136	25.15672
607.332	25.77698
607.527	20.93194
607.722	22.91099
607.918	22.41027
608.113	22.03346
608.308	23.76374
608.503	23.1843
608.699	23.41266
608.894	23.47349
609.089	21.70545
609.284	22.76133
609.479	22.21345
609.675	23.17272
609.87	22.14684
610.065	23.3144
610.26	23.33902
610.455	23.29514
610.65	21.93317
610.845	22.33885
611.04	23.54176
611.235	22.34271
611.43	21.8026
611.625	20.92161
611.82	24.36197
612.015	21.72075
612.21	24.08043
612.405	20.99618
612.6	24.62151
612.795	23.91477
612.99	23.16361
613.185	21.51427
613.38	21.64679
613.575	22.51722
613.77	26.01831
613.965	20.67189
614.159	21.24672
614.354	24.66347
614.549	24.04141
614.744	24.03138
614.938	20.87331
615.133	20.46808
615.328	24.73774
615.523	24.05234
615.717	26.76542
615.912	21.33912
616.107	22.84749
616.301	22.11936
616.496	21.97824
616.691	24.84229
616.885	23.9838
617.08	26.93268
617.274	24.00901
617.469	25.28846
617.664	23.37783
617.858	22.15863
618.053	23.44698
618.247	22.77975
618.442	19.64167
618.636	24.85532
618.831	21.89619
619.025	22.10944
619.219	26.37075
619.414	18.61786
619.608	22.34469
619.803	22.47957
619.997	25.98678
620.191	24.57438
620.386	23.16998
620.58	22.33337
620.774	20.78524
620.969	20.52393
621.163	22.99981
621.357	21.49268
621.551	21.81565
621.746	22.75436
621.94	21.9393
622.134	27.44185
622.328	25.869
622.522	20.2876
622.716	24.14916
622.911	24.59265
623.105	24.00257
623.299	23.45183
623.493	26.8127
623.687	21.57353
623.881	22.43964
624.075	22.96925
624.269	24.81272
624.463	20.04105
624.657	20.59972
624.851	23.91477
625.045	24.0637
625.239	24.44676
625.433	22.89108
625.627	24.87888
625.821	22.35368
626.015	21.65772
626.209	23.421
626.403	21.16257
626.596	23.82878
626.79	23.87688
626.984	21.6107
627.178	23.52548
627.372	23.62632
627.565	24.00676
627.759	20.94971
627.953	21.34824
628.147	23.67787
628.34	23.61889
628.534	26.14689
628.728	22.81694
628.921	24.06751
629.115	23.97361
629.309	23.97331
629.502	24.58318
629.696	23.4486
629.89	22.79443
630.083	23.67734
630.277	23.44589
630.47	25.45813
630.664	22.80297
630.857	20.49288
631.051	23.98561
631.244	24.8867
631.438	24.91041
631.631	21.77248
631.825	25.57196
632.018	24.1776
632.212	26.75264
632.405	25.08221
632.598	22.21504
632.792	23.32793
632.985	19.82771
633.178	23.22395
633.372	23.02521
633.565	22.83881
633.758	25.74578
633.952	21.75125
634.145	21.68933
634.338	23.57356
634.531	22.34048
634.724	22.66401
634.918	23.50245
635.111	22.65704
635.304	22.30935
635.497	26.94313
635.69	23.52231
635.883	25.05895
636.077	21.76949
636.27	24.0093
636.463	23.26133
636.656	23.7007
636.849	22.99824
637.042	24.61268
637.235	25.77958
637.428	24.82415
637.621	24.76625
637.814	25.22318
638.007	25.38507
638.2	25.32688
638.393	26.05883
638.586	20.94851
638.778	22.4061
638.971	23.02576
639.164	25.95148
639.357	23.00691
639.55	26.36848
639.743	24.68262
639.935	24.39184
640.128	26.33876
640.321	24.96354
640.514	23.78655
640.707	27.4659
640.899	24.35886
641.092	19.8819
641.285	36.37458
641.477	19.93976
641.67	28.3425
641.863	26.01854
642.055	24.02006
642.248	22.20875
642.441	22.21558
642.633	24.61584
642.826	26.27842
643.018	25.60972
643.211	27.78729
643.403	26.96926
643.596	28.03649
643.788	28.28281
643.981	23.45245
644.173	25.501
644.366	23.62425
644.558	20.29075
644.751	25.55226
644.943	20.94686
645.135	26.48031
645.328	26.58046
645.52	24.22863
645.712	26.44522
645.905	29.61769
646.097	21.0144
646.289	23.62032
646.482	28.09324
646.674	22.5654
646.866	26.73107
647.058	25.021
647.251	21.75141
647.443	22.60921
647.635	23.68628
647.827	20.84161
648.019	23.29448
648.211	23.16274
648.404	23.36951
648.596	27.29296
648.788	23.92723
648.98	24.19882
649.172	24.29844
649.364	24.35278
649.556	20.40338
649.748	30.08119
649.94	22.36833
650.132	24.76132
650.324	21.77077
650.516	22.78842
650.708	26.77231
650.9	20.99146
651.092	20.03017
651.284	21.80157
651.476	21.63859
651.667	25.67847
651.859	26.33868
652.051	23.46588
652.243	23.82262
652.435	23.7575
652.627	25.95891
652.818	24.6584
653.01	21.22883
653.202	21.92217
653.394	22.56074
653.585	25.29629
653.777	33.17489
653.969	26.21723
654.16	25.9624
654.352	21.73534
654.544	22.63579
654.735	25.51353
654.927	24.67774
655.118	27.9052
655.31	24.78254
655.502	27.00193
655.693	24.18861
655.885	25.34184
656.076	26.10842
656.268	24.52789
656.459	28.06045
656.651	27.2532
656.842	23.58349
657.034	22.64035
657.225	26.80547
657.416	27.37366
657.608	27.88168
657.799	24.30293
657.99	27.96728
658.182	24.34325
658.373	23.61148
658.564	27.01623
658.756	25.34296
658.947	25.17015
659.138	22.90895
659.33	23.72449
659.521	23.04623
659.712	24.40783
659.903	23.855
660.094	22.91199
660.286	21.66734
660.477	28.55515
660.668	25.68397
660.859	24.07907
661.05	20.90946
661.241	25.82543
661.432	25.75631
661.623	23.10876
661.814	23.5044
662.006	20.79338
662.197	24.54599
662.388	27.72351
662.579	24.94443
662.77	27.22001
662.96	30.55826
663.151	25.59472
663.342	20.65754
663.533	25.91741
663.724	25.08783
663.915	28.475
664.106	24.58563
664.297	28.18474
664.488	26.8892
664.678	22.1705
664.869	26.34975
665.06	27.16205
665.251	25.30183
665.442	25.87803
665.632	21.87278
665.823	28.47414
666.014	17.20214
666.204	26.22667
666.395	28.37685
666.586	31.76153
666.776	26.52668
666.967	28.50516
667.158	25.45176
667.348	28.02123
667.539	22.29028
667.729	27.33891
667.92	23.93903
668.111	27.5988
668.301	26.71531
668.492	25.54478
668.682	25.84747
668.873	25.30121
669.063	22.74099
669.253	26.06714
669.444	26.67734
669.634	24.46981
669.825	30.17497
670.015	27.8169
670.206	22.56166
670.396	29.57048
670.586	24.97279
670.777	26.13413
670.967	19.56433
671.157	23.60472
671.347	22.93106
671.538	28.4589
671.728	27.25063
671.918	30.57427
672.108	27.28748
672.299	23.87616
672.489	26.31511
672.679	23.65919
672.869	26.83752
673.059	30.80004
673.249	26.74685
673.44	21.88944
673.63	24.386
673.82	28.06965
674.01	23.32049
674.2	26.20169
674.39	33.2664
674.58	28.32443
674.77	25.70907
674.96	24.33506
675.15	36.53064
675.34	28.5818
675.53	25.81824
675.72	26.04596
675.91	21.20387
676.099	31.58802
676.289	31.52033
676.479	28.90224
676.669	24.38484
676.859	26.40845
677.049	23.22648
677.238	26.3114
677.428	32.0403
677.618	27.59337
677.808	29.42322
677.997	28.38108
678.187	23.2879
678.377	25.61135
678.567	24.98679
678.756	24.51336
678.946	25.23373
679.136	22.69131
679.325	24.02464
679.515	23.45019
679.704	23.12927
679.894	27.77449
680.084	26.75081
680.273	28.28739
680.463	23.99311
680.652	23.47406
680.842	26.15438
681.031	27.81576
681.221	24.11507
681.41	27.64574
681.6	25.49418
681.789	27.72937
681.978	29.97168
682.168	26.99984
682.357	26.33068
682.547	27.79959
682.736	26.0613
682.925	28.85305
683.115	28.86901
683.304	28.2992
683.493	27.30948
683.682	26.83533
683.872	27.57633
684.061	29.93037
684.25	27.90211
684.439	31.80772
684.629	29.18554
684.818	37.4186
685.007	26.1558
685.196	25.63213
685.385	31.5187
685.574	27.27688
685.763	27.63065
685.952	28.0671
686.142	23.52917
686.331	31.31023
686.52	21.25219
686.709	31.27529
686.898	30.94115
687.087	29.7871
687.276	32.16246
687.465	30.7589
687.654	26.77041
687.842	31.88851
688.031	24.80326
688.22	31.09759
688.409	28.15607
688.598	27.41748
688.787	36.03262
688.976	27.52295
689.165	34.18399
689.353	26.44117
689.542	29.86506
689.731	29.77943
689.92	34.14945
690.108	30.29571
690.297	26.56426
690.486	27.54873
690.675	31.41044
690.863	33.58721
691.052	32.30638
691.241	28.96487
691.429	28.49865
691.618	34.06589
691.806	23.71386
691.995	25.66108
692.184	27.10771
692.372	25.77059
692.561	29.54936
692.749	27.82452
692.938	37.42516
693.126	30.73408
693.315	28.49243
693.503	30.92378
693.692	30.00516
693.88	32.15174
694.068	36.491
694.257	28.33412
694.445	30.01682
694.634	20.26104
694.822	32.90966
695.01	33.25418
695.199	33.42425
695.387	34.33317
695.575	32.74193
695.763	28.22878
695.952	26.35767
696.14	24.75689
696.328	28.40224
696.516	28.82581
696.705	29.47698
696.893	29.49335
697.081	22.66515
697.269	31.19208
697.457	25.52882
697.645	24.95896
697.833	31.3521
698.021	26.39363
698.21	27.3353
698.398	28.41833
698.586	25.80343
698.774	24.60523
698.962	27.92452
699.15	26.06547
699.338	23.91799
699.526	30.01741
699.714	26.76217
699.901	26.743
700.089	31.28507
700.277	26.55384
700.465	28.29731
700.653	30.44414
700.841	29.62454
701.029	26.15972
701.217	33.30567
701.404	29.28224
701.592	34.57859
701.78	36.21628
701.968	28.55116
702.155	27.95609
702.343	23.88901
702.531	33.65348
702.718	29.82981
702.906	28.09808
703.094	26.58292
703.281	33.96221
703.469	29.81836
703.657	34.06882
703.844	40.30347
704.032	36.45568
704.219	26.82108
704.407	30.75465
704.595	35.07849
704.782	30.04835
704.97	27.51412
705.157	28.62711
705.345	35.15156
705.532	40.72894
705.719	30.72086
705.907	35.69953
706.094	29.55586
706.282	36.39771
706.469	28.79578
706.656	30.15627
706.844	27.99965
707.031	34.09084
707.218	31.08691
707.406	35.86857
707.593	34.56258
707.78	34.25615
707.968	29.27667
708.155	27.49904
708.342	32.67919
708.529	31.24473
708.716	31.49592
708.904	38.08158
709.091	34.15384
709.278	24.75123
709.465	40.78362
709.652	38.85901
709.839	37.63832
710.026	32.75892
710.213	24.4954
710.4	33.9074
710.587	35.56731
710.774	36.01359
710.961	36.73454
711.148	31.82245
711.335	36.98466
711.522	29.42697
711.709	33.7687
711.896	41.76895
712.083	35.35739
712.27	27.87727
712.457	33.17986
712.644	26.20716
712.831	41.2757
713.017	32.76133
713.204	34.87944
713.391	29.32395
713.578	36.68534
713.765	37.67054
713.951	34.69064
714.138	46.85437
714.325	35.43434
714.512	32.86833
714.698	29.69244
714.885	40.05121
715.072	33.95479
715.258	33.23497
715.445	29.4619
715.631	39.26412
715.818	22.74815
716.005	30.04511
716.191	36.49865
716.378	31.68602
716.564	38.24516
716.751	29.00195
716.937	30.98942
717.124	37.53742
717.31	29.29685
717.497	39.31673
717.683	30.49716
717.869	43.52649
718.056	31.79219
718.242	36.12086
718.429	32.12165
718.615	27.10694
718.801	34.24194
718.988	38.42898
719.174	35.12506
719.36	32.52994
719.547	38.74848
719.733	34.52973
719.919	36.762
720.105	36.62516
720.291	32.47848
720.478	34.38404
720.664	34.03109
720.85	32.08306
721.036	47.99182
721.222	43.07232
721.408	34.4417
721.595	45.14441
721.781	42.00012
721.967	38.73661
722.153	43.7682
722.339	37.0622
722.525	36.28612
722.711	28.62331
722.897	28.59358
723.083	32.66901
723.269	41.18036
723.455	48.4474
723.641	49.77472
723.827	36.06174
724.012	37.312
724.198	32.11162
724.384	42.3383
724.57	36.61806
724.756	28.30787
724.942	23.64379
725.127	39.83607
725.313	43.16285
725.499	43.17849
725.685	45.95008
725.87	37.47226
726.056	30.48941
726.242	45.35428
726.428	27.23119
726.613	40.24664
726.799	33.86883
726.985	29.43919
727.17	27.33536
727.356	44.58058
727.541	30.16657
727.727	34.53168
727.913	39.25016
728.098	31.13835
728.284	39.62779
728.469	27.78358
728.655	31.71008
728.84	39.96035
729.026	39.61963
729.211	39.388
729.397	39.60071
729.582	39.49417
729.767	36.60186
729.953	37.21392
730.138	41.26866
730.323	24.78812
730.509	29.53509
730.694	46.71709
730.879	39.51243
731.065	36.8917
731.25	49.49853
731.435	39.89299
731.621	28.30884
731.806	32.84975
731.991	37.77703
732.176	29.03889
732.361	45.42971
732.547	38.77915
732.732	27.62715
732.917	49.76433
733.102	29.00294
733.287	31.06056
733.472	36.73433
733.657	37.142
733.842	27.71449
734.027	33.79307
734.212	35.05621
734.397	30.81742
734.582	36.17901
734.767	40.59957
734.952	43.22923
735.137	21.60546
735.322	43.80638
735.507	37.41777
735.692	36.40249
735.877	49.53834
736.062	47.98567
736.247	38.92385
736.431	34.84312
736.616	42.67936
736.801	38.2754
736.986	36.81382
737.171	32.15131
737.355	28.39694
737.54	44.61317
737.725	36.26488
737.909	53.48437
738.094	32.39603
738.279	43.76027
738.463	35.93609
738.648	39.69029
738.833	39.97667
739.017	50.24422
739.202	33.78398
739.386	36.19959
739.571	30.03965
739.756	41.14078
739.94	37.53285
740.125	40.65716
740.309	30.58678
740.494	41.77014
740.678	36.73713
740.863	40.96512
741.047	38.24144
741.231	46.87483
741.416	32.95582
741.6	47.39434
741.785	29.66304
741.969	44.13254
742.153	45.16803
742.338	23.7201
742.522	37.92241
742.706	41.63398
742.89	28.38141
743.075	39.67703
743.259	48.49011
743.443	42.84493
743.627	45.93152
743.812	55.7069
743.996	20.62471
744.18	37.35096
744.364	33.66862
744.548	53.50957
744.732	35.70278
744.916	43.40619
745.1	42.87941
745.285	35.93513
745.469	43.35369
745.653	50.5363
745.837	27.51074
746.021	55.20098
746.205	49.13874
746.389	38.04759
746.573	38.13415
746.757	50.80796
746.94	37.99104
747.124	49.24005
747.308	30.44853
747.492	47.07309
747.676	32.61518
747.86	57.53568
748.044	34.1955
748.227	24.74662
748.411	65.13711
748.595	39.2529
748.779	29.90968
748.963	41.65644
749.146	40.24313
749.33	33.68544
749.514	30.81155
749.697	46.03723
749.881	32.08246
750.065	29.88866
750.248	39.86634
750.432	58.3762
750.616	39.02806
750.799	26.92048
750.983	53.84635
751.166	59.7551
751.35	24.01006
751.533	47.1584
751.717	47.84948
751.9	49.92036
752.084	34.58918
752.267	30.25681
752.451	33.78836
752.634	39.99618
752.818	43.16997
753.001	46.91172
753.184	45.8539
753.368	43.84515
753.551	15.30336
753.734	33.92498
753.918	54.91409
754.101	31.27385
754.284	44.1876
754.467	36.3566
754.651	34.8072
754.834	31.38054
755.017	47.79583
755.2	47.72907
755.384	32.03049
755.567	46.84679
755.75	47.92571
755.933	37.40796
756.116	41.91542
756.299	34.51255
756.482	30.56539
756.665	42.23811
756.848	38.56443
757.032	40.56355
757.215	31.6853
757.398	32.6396
757.581	32.3454
757.764	62.54422
757.947	37.8019
758.129	47.07301
758.312	16.5405
758.495	39.19558
758.678	40.59371
758.861	38.18496
759.044	53.4466
759.227	32.09212
759.41	34.9083
759.592	47.00363
759.775	36.94025
759.958	48.20493
760.141	28.96118
760.324	57.51022
760.506	53.57962
760.689	46.06251
760.872	60.63368
761.054	44.51163
761.237	37.43404
761.42	41.86779
761.602	48.52417
761.785	42.76924
761.968	49.35825
762.15	53.60183
762.333	37.66137
762.515	42.43454
762.698	35.31785
762.88	48.05736
763.063	41.61895
763.245	45.12363
763.428	32.08123
763.61	33.88063
763.793	30.69034
763.975	42.54563
764.158	36.68658
764.34	36.47176
764.522	33.11216
764.705	39.04019
764.887	49.4947
765.069	28.4014
765.252	44.48571
765.434	44.81038
765.616	39.14287
765.799	35.36881
765.981	44.57497
766.163	34.63192
766.345	49.00251
766.528	32.78674
766.71	21.96357
766.892	40.84443
767.074	50.02519
767.256	39.9234
767.438	55.61597
767.62	41.76676
767.802	59.7694
767.985	45.45285
768.167	56.29397
768.349	34.69792
768.531	45.4803
768.713	41.23421
768.895	47.13786
769.077	42.8435
769.259	68.66377
769.441	91.52852
769.623	52.61422
769.804	56.84315
769.986	53.43311
770.168	67.798
770.35	75.21694
770.532	61.03964
770.714	60.68052
770.896	64.80296
771.077	33.03004
771.259	68.46356
771.441	54.2773
771.623	73.84153
771.804	87.25924
771.986	30.70922
772.168	45.09218
772.35	70.23939
772.531	81.77372
772.713	59.21474
772.894	70.72549
773.076	54.69025
773.258	45.48696
773.439	78.55815
773.621	81.4796
773.802	39.12379
773.984	49.28449
774.166	61.64085
774.347	80.30045
774.529	71.36962
774.71	26.26895
774.891	55.25769
775.073	49.84415
775.254	74.37376
775.436	44.03021
775.617	83.75017
775.799	44.66493
775.98	79.60284
776.161	84.46294
776.343	83.78662
776.524	54.52377
776.705	50.26574
776.886	30.7218
777.068	54.52242
777.249	97.60736
777.43	92.59639
777.611	37.99894
777.793	55.11059
777.974	80.90665
778.155	47.33213
778.336	41.20873
778.517	88.87205
778.698	46.76564
778.879	31.46385
779.061	14.90094
779.242	61.8758
779.423	63.46586
779.604	49.13385
779.785	51.74027
779.966	59.38934
780.147	70.75538
780.328	76.48617
780.509	100.69692
780.69	67.48533
780.871	43.1942
781.051	35.72415
781.232	60.91067
781.413	57.00297
781.594	50.50401
781.775	51.04072
781.956	46.23577
782.137	25.22949
782.317	43.56462
782.498	58.96869
782.679	57.21563
782.86	58.12751
783.04	45.8958
783.221	60.29447
783.402	89.92271
783.583	56.62841
783.763	65.87312
783.944	48.24623
784.124	33.56974
784.305	84.24116
784.486	60.6575
784.666	54.45399
784.847	29.40431
785.027	101.84268
785.208	45.35903
785.388	49.31987
785.569	46.10623
785.749	53.09934
785.93	50.56363
786.11	33.7561
786.291	64.7501
786.471	57.14968
786.652	71.41024
786.832	52.74356
787.012	61.6171
787.193	36.5844
787.373	58.91815
787.553	48.13603
787.734	60.42631
787.914	53.1592
788.094	66.45913
788.275	62.97334
788.455	49.42815
788.635	38.3829
788.815	58.51078
788.995	40.2171
789.176	33.79348
789.356	42.75471
789.536	53.61015
789.716	61.00559
789.896	43.17836
790.076	46.22435
790.256	58.90549
790.436	22.72118
790.616	39.89584
790.796	60.54101
790.976	46.92301
791.156	41.97658
791.336	66.80367
791.516	60.57164
791.696	49.71784
791.876	35.48296
792.056	55.71678
792.236	68.03405
792.416	66.86602
792.596	63.45149
792.776	64.28097
792.956	60.50025
793.135	79.8107
793.315	35.56909
793.495	74.90924
793.675	64.65896
793.854	64.74884
794.034	71.09189
794.214	39.61037
794.394	66.87874
794.573	77.85796
794.753	56.55104
794.933	39.79471
795.112	57.10387
795.292	69.20646
795.472	85.12541
795.651	37.78374
795.831	53.46256
796.01	52.84517
796.19	51.88142
796.369	56.08139
796.549	62.88961
796.728	54.92934
796.908	38.10952
797.087	37.65001
797.267	51.26079
797.446	37.06968
797.626	66.43402
797.805	62.81605
797.984	47.09077
798.164	64.20972
798.343	41.80948
798.522	60.70051
798.702	58.31783
798.881	32.51795
799.06	51.53389
799.239	25.53999
799.419	41.23496
799.598	78.27637
799.777	62.33907
799.956	74.11789
800.136	48.19986
800.315	41.18058
800.494	61.22053
800.673	72.35455
800.852	63.03947
801.031	71.84681
801.21	63.77314
801.389	49.61192
801.568	56.66766
801.747	86.2443
801.926	52.52819
802.105	78.43036
802.284	47.76766
802.463	83.57974
802.642	57.27477
802.821	59.93572
803	75.54252
803.179	66.85545
803.358	77.0091
803.537	44.42592
803.716	57.27146
803.895	43.57088
804.073	53.56988
804.252	44.75731
804.431	59.08258
804.61	49.5559
804.789	75.68699
804.967	46.59535
805.146	49.33492
805.325	92.89397
805.503	65.06895
805.682	33.25997
805.861	101.31363
806.039	72.76187
806.218	48.21462
806.397	56.19171
806.575	57.5299
806.754	59.4158
806.932	43.25415
807.111	79.36747
807.289	69.4553
807.468	55.50981
807.646	70.54098
807.825	68.26018
808.003	59.47006
808.182	73.00805
808.36	57.26074
808.539	41.60945
808.717	79.62525
808.895	40.41526
809.074	63.11104
809.252	53.31274
809.43	70.26507
809.609	78.55615
809.787	90.19155
809.965	52.67563
810.144	59.65451
810.322	55.08555
810.5	64.11798
810.678	52.88065
810.856	98.51845
811.035	76.71852
811.213	75.40625
811.391	81.48331
811.569	62.80194
811.747	120.39909
811.925	79.1499
812.103	48.22667
812.281	56.30264
812.459	97.26866
812.637	97.88605
812.816	85.44108
812.994	102.29967
813.171	79.18982
813.349	68.52263
813.527	84.37285
813.705	86.06189
813.883	104.49913
814.061	78.1789
814.239	94.12595
814.417	102.89512
814.595	71.76622
814.773	68.1764
814.95	60.42773
815.128	76.3408
815.306	63.12153
815.484	61.74324
815.662	45.34001
815.839	38.99615
816.017	50.35585
816.195	83.74548
816.372	59.87537
816.55	77.55419
816.728	92.88149
816.905	61.89458
817.083	90.81016
817.261	66.61364
817.438	111.25253
817.616	98.0282
817.793	51.35615
817.971	83.932
818.148	76.1374
818.326	88.73167
818.503	71.43644
818.681	91.4764
818.858	55.73038
819.036	62.43592
819.213	63.2571
819.391	51.12315
819.568	48.55265
819.745	43.775
819.923	74.02106
820.1	52.14415
820.277	46.15018
820.455	54.78201
820.632	56.70283
820.809	59.63777
820.986	41.75046
821.164	36.70969
821.341	35.7776
821.518	44.24908
821.695	38.41811
821.872	36.59948
822.05	33.32759
822.227	30.3722
822.404	30.97619
822.581	32.33097
822.758	31.1533
822.935	30.29404
823.112	32.75654
823.289	30.42833
823.466	32.78025
823.643	30.99016
823.82	34.34068
823.997	32.26482
824.174	35.74735
824.351	41.03629
824.528	40.13392
824.705	37.21921
824.882	40.99768
825.059	49.61623
825.236	36.97737
825.412	39.26641
825.589	46.94193
825.766	59.93047
825.943	38.45567
826.12	45.12241
826.296	34.94512
826.473	43.48873
826.65	43.98622
826.827	50.24116
827.003	37.75233
827.18	40.11646
827.357	43.56953
827.533	39.18821
827.71	27.35387
827.887	35.86092
828.063	40.80362
828.24	36.79431
828.416	42.79044
828.593	36.37447
828.769	49.50631
828.946	52.98812
829.122	55.17816
829.299	54.22431
829.475	31.30681
829.652	51.07301
829.828	77.12831
830.005	48.75301
830.181	67.36445
830.357	51.61536
830.534	76.63227
830.71	57.48585
830.886	70.0408
831.063	69.38505
831.239	80.35308
831.415	40.94543
831.592	86.19955
831.768	53.15747
831.944	46.96069
832.12	83.36113
832.296	77.41902
832.473	69.58601
832.649	48.17881
832.825	67.64657
833.001	42.19063
833.177	60.41887
833.353	55.04419
833.529	35.79365
833.705	49.51858
833.881	38.31673
834.058	37.32726
834.234	40.80728
834.41	40.57637
834.586	35.4088
834.761	38.57541
834.937	40.70689
835.113	41.47093
835.289	38.28252
835.465	44.90601
835.641	39.50752
835.817	43.03456
835.993	74.58401
836.169	40.88271
836.344	56.05606
836.52	62.28205
836.696	57.13376
836.872	48.37966
837.048	114.86833
837.223	48.6486
837.399	103.54502
837.575	80.66103
837.75	81.70666
837.926	105.40553
838.102	157.28868
838.277	120.12607
838.453	170.04514
838.628	162.93203
838.804	58.48992
838.98	162.8074
839.155	78.14874
839.331	107.38092
839.506	69.2692
839.682	69.87522
839.857	90.97845
840.033	107.28815
840.208	56.42799
840.384	31.6198
840.559	61.22431
840.734	82.37937
840.91	114.67376
841.085	71.87048
841.26	69.9666
841.436	60.40886
841.611	63.76619
841.786	100.7071
841.962	132.95754
842.137	91.94163
842.312	46.82313
842.487	69.84608
842.663	60.33094
842.838	85.65573
843.013	270.50531
843.188	142.98956
843.363	126.50286
843.538	231.86452
843.714	231.87822
843.889	243.76506
844.064	186.16306
844.239	167.76903
844.414	249.47219
844.589	162.07865
844.764	267.03343
844.939	292.48975
845.114	273.26558
845.289	321.38306
845.464	356.51969
845.639	268.84079
845.814	174.39
845.989	188.79681
846.163	193.75316
846.338	278.70933
846.513	324.84434
846.688	208.39129
846.863	223.8801
847.038	165.30636
847.212	206.91467
847.387	235.95435
847.562	226.4332
847.737	312.74112
847.911	125.49728
848.086	155.60116
848.261	324.62905
848.435	182.59928
848.61	285.30047
848.785	165.64519
848.959	316.09899
849.134	302.02623
849.308	637.59165
849.483	235.15697
849.658	362.64162
849.832	202.72063
850.007	126.86693
850.181	497.6055
850.356	222.1079
850.53	429.45813
850.705	142.15151
850.879	96.37232
851.053	175.62566
851.228	226.09012
851.402	321.19263
851.577	289.20567
851.751	405.07911
851.925	195.37512
852.099	89.48653
852.274	174.00094
852.448	214.85154
852.622	295.59947
852.797	225.71231
852.971	248.67022
853.145	277.6128
853.319	477.22317
853.493	462.27892
853.668	255.20041
853.842	512.12933
854.016	378.31272
854.19	476.33602
854.364	259.40042
854.538	299.35083
854.712	317.57933
854.886	217.49106
855.06	240.98835
855.234	73.16495
855.408	387.10828
855.582	354.19144
855.756	512.3353
855.93	389.73876
856.104	310.48839
856.278	320.17078
856.452	220.41649
856.626	265.63129
856.8	464.76791
856.973	356.0251
857.147	343.53504
857.321	316.65765
857.495	352.13974
857.669	278.56111
857.842	284.54115
858.016	421.05659
858.19	177.77891
858.364	528.83992
858.537	247.27662
858.711	335.93971
858.885	225.40558
859.058	183.95984
859.232	141.00977
859.405	119.87637
859.579	327.60641
859.753	361.8941
859.926	188.14122
860.1	152.45902
860.273	286.43193
860.447	408.31137
860.62	231.4082
860.794	498.68109
860.967	257.14179
861.141	299.10082
861.314	476.01984
861.487	295.70574
861.661	362.05559
861.834	542.86693
862.008	338.50968
862.181	327.50276
862.354	276.09446
862.528	433.68603
862.701	256.01373
862.874	130.89029
863.047	199.48729
863.221	183.19277
863.394	108.89619
863.567	311.17615
863.74	112.98921
863.913	339.90536
864.087	305.71383
864.26	359.45983
864.433	247.92789
864.606	503.99667
864.779	309.51672
864.952	113.68069
865.125	260.08112
865.298	300.70964
865.471	299.2836
865.644	449.17132
865.817	364.58751
865.99	396.35996
866.163	410.94884
866.336	188.32003
866.509	312.96626
866.682	257.339
866.855	443.18141
867.028	141.79069
867.2	247.42652
867.373	82.39734
867.546	271.20645
867.719	506.86104
867.892	340.94035
868.064	173.14438
868.237	253.6198
868.41	263.86287
868.583	137.42882
868.755	172.53076
868.928	219.54325
869.101	550.029
869.273	409.70239
869.446	284.10858
869.619	406.19544
869.791	332.48987
869.964	418.83685
870.136	429.10674
870.309	228.92318
870.481	289.4942
870.654	110.13933
870.826	251.69828
870.999	206.97417
871.171	376.8976
871.344	176.38876
871.516	206.96478
871.689	158.20365
871.861	268.7662
872.033	162.91668
872.206	234.43643
872.378	280.17053
872.55	247.21901
872.723	159.4375
872.895	215.44709
873.067	349.68249
873.24	297.07861
873.412	202.30794
873.584	238.68741
873.756	229.45885
873.928	261.46116
874.101	245.42294
874.273	284.68341
874.445	103.43464
874.617	135.97293
874.789	204.52021
874.961	213.68343
875.133	276.57176
875.305	246.00191
875.477	156.07496
875.649	111.92753
875.821	161.00915
875.993	355.90012
876.165	206.11275
876.337	257.89748
876.509	232.07388
876.681	241.92454
876.853	240.26848
877.025	267.15946
877.197	167.00946
877.369	154.57555
877.541	278.95744
877.712	78.10274
877.884	144.91273
878.056	245.09337
878.228	144.07665
878.4	268.98995
878.571	138.66107
878.743	90.19053
878.915	191.61841
879.086	115.3273
879.258	136.94932
879.43	120.16543
879.601	110.47751
879.773	114.7514
879.945	34.10116
880.116	50.18465
880.288	34.94285
880.459	37.16331
880.631	35.12664
880.802	38.70819
880.974	37.52936
881.145	29.42154
881.317	38.34294
881.488	31.68786
881.66	34.23472
881.831	31.29107
882.002	37.27526
882.174	32.05518
882.345	35.95245
882.517	25.02912
882.688	39.7071
882.859	31.99883
883.03	48.57668
883.202	46.97431
883.373	41.46189
883.544	39.721
883.715	60.76442
883.887	52.59249
884.058	44.36858
884.229	65.03778
884.4	63.39375
884.571	72.74749
884.742	60.52492
884.914	62.46185
885.085	98.43891
885.256	135.5378
885.427	108.78409
885.598	133.84859
885.769	125.23955
885.94	126.56777
886.111	81.14854
886.282	150.67851
886.453	124.42829
886.624	99.78316
886.795	157.74969
886.966	132.45843
887.136	166.97446
887.307	125.82685
887.478	208.8873
887.649	198.61558
887.82	199.18599
887.991	159.56624
888.161	248.11085
888.332	219.8829
888.503	116.78989
888.674	304.36113
888.844	337.96638
889.015	352.82381
889.186	156.78652
889.356	317.3814
889.527	148.00793
889.698	546.37694
889.868	210.30664
890.039	309.25783
890.209	209.37282
890.38	275.51311
890.551	273.90499
890.721	372.03322
890.892	340.31157
891.062	321.80203
891.233	347.0975
891.403	248.40089
891.574	189.41535
891.744	214.07271
891.914	243.56464
892.085	363.02487
892.255	76.65243
892.425	327.99885
892.596	216.36154
892.766	277.45734
892.936	389.40672
893.107	255.49506
893.277	145.22851
893.447	125.59497
893.618	79.54249
893.788	172.72725
893.958	89.20305
894.128	81.15948
894.298	96.26264
894.468	116.47871
894.639	48.21887
894.809	45.90598
894.979	63.19785
895.149	76.81632
895.319	57.6779
895.489	80.07197
895.659	103.97948
895.829	67.24417
895.999	75.3062
896.169	65.20669
896.339	76.21676
896.509	147.59025
896.679	162.84554
896.849	185.18775
897.019	256.64607
897.189	224.78611
897.358	158.81773
897.528	305.43292
897.698	136.42353
897.868	284.17747
898.038	560.09948
898.208	479.69054
898.377	144.84875
898.547	802.13282
898.717	830.39549
898.886	353.301
899.056	575.46541
899.226	888.83167
899.395	712.57217
899.565	706.46952
899.735	421.92912
899.904	635.08589
900.074	864.82576
900.244	277.25379
900.413	1666.70852
900.583	252.69297
900.752	3505.21534
900.922	606.4628
901.091	117.36538
901.261	717.53404
901.43	570.73879
901.599	683.6429
901.769	1435.81074
901.938	688.46444
902.108	639.4071
902.277	715.45098
902.446	255.42439
902.616	292.8692
902.785	435.97517
902.954	566.55807
903.124	294.59262
903.293	202.63526
903.462	102.01734
903.631	157.71098
903.801	104.88225
903.97	56.79641
904.139	94.86097
904.308	72.53414
904.477	68.81932
904.646	38.4777
904.816	58.10451
904.985	80.76798
905.154	116.93238
