Data from WindowProjectSample_Transmission__79__00079__013218757004672643.txt Node

Date: Mon May 05 18:50:41 EDT 2025
User: jessi
Spectrometer: SR400872
Trigger mode: 0
Integration Time (sec): 5.000010E-1
Scans to average: 20
Electric dark correction enabled: true
Nonlinearity correction enabled: true
Boxcar width: 0
XAxis mode: Wavelengths
Number of Pixels in Spectrum: 3648
>>>>>Begin Spectral Data<<<<<
184.909	21360.81437
185.132	-5183.89377
185.355	-3108.13649
185.578	-18748.60692
185.801	1569.64872
186.024	10558.71365
186.247	-2064.15631
186.47	1232.17198
186.693	315.5458
186.916	376.26901
187.139	-3867.36468
187.362	3801.31229
187.585	4096.08864
187.808	3537.26857
188.031	94.38327
188.254	-51634.65934
188.476	-777.24777
188.699	6471.00806
188.922	673.33293
189.145	-15792.50361
189.368	-647.87981
189.591	-1469.78846
189.813	3020.1274
190.036	-52602.93331
190.259	-944.29591
190.482	-4873.06131
190.705	7259.46726
190.927	-2500.52084
191.15	13366.88306
191.373	3522.65192
191.595	-9336.48012
191.818	-4141.58319
192.041	-7355.75309
192.263	-3519.51332
192.486	-893.68711
192.709	-3954.63853
192.931	8105.41004
193.154	-29117.12863
193.377	-2965.27661
193.599	-2853.98187
193.822	-9739.83615
194.044	-1949.57011
194.267	1226.52421
194.489	355.09958
194.712	-44667.00623
194.934	-32839.88581
195.157	1216.6769
195.379	1427.51408
195.602	-7179.36162
195.824	-1392.21463
196.047	-8538.58177
196.269	2788.71255
196.492	-6718.09087
196.714	29107.58872
196.936	-8659.56024
197.159	-1223.82293
197.381	1156.59809
197.604	482.86696
197.826	12288.86291
198.048	-11189.22828
198.271	-3061.94015
198.493	7873.13182
198.715	2414.08474
198.938	-535.42276
199.16	7058.38923
199.382	-103863.02441
199.604	2789.69294
199.827	-1089.11154
200.049	-2947.26268
200.271	14257.40933
200.493	1278.56057
200.715	-38682.8822
200.938	-6355.96687
201.16	-4306.66764
201.382	22054.37376
201.604	2390.65449
201.826	2409.0359
202.048	-2051.44465
202.27	-1998.97961
202.492	-38088.52116
202.715	3018.10371
202.937	-4533.55087
203.159	-6216.03208
203.381	1590.62495
203.603	6880.69131
203.825	6735.24792
204.047	2373.92713
204.269	-2847.11889
204.491	2239.33574
204.713	6132.07973
204.935	-499344.70628
205.156	1185.92153
205.378	-2984.05227
205.6	1684.9425
205.822	154697.03611
206.044	-1145.01657
206.266	1553.01781
206.488	4803.61997
206.71	-5251.14633
206.932	1101.48535
207.153	12354.57523
207.375	-7287.4759
207.597	-38542.28079
207.819	-2981.55451
208.041	2508.49295
208.262	508.29887
208.484	777.38719
208.706	-887.19257
208.927	-774.11213
209.149	568.69798
209.371	-3090.21322
209.593	-408.8145
209.814	-810.13676
210.036	648.51493
210.258	-640.56082
210.479	2030.64942
210.701	1605.77369
210.922	3675.17944
211.144	-4114.93068
211.366	2153.36144
211.587	8765.1881
211.809	-8501.06895
212.03	2341.54774
212.252	477.73386
212.473	2246.2744
212.695	-6883.01076
212.916	2894.13012
213.138	-752.09006
213.359	3835.87053
213.581	5300.26761
213.802	-748.5155
214.024	1127.10226
214.245	2280.76456
214.466	2409.9115
214.688	-3288.15424
214.909	-1215.58321
215.131	-1830.72668
215.352	-3165.09587
215.573	15567.82608
215.795	5133.32813
216.016	5775.38647
216.237	930.18403
216.459	3769.25679
216.68	1897.00763
216.901	5018.96791
217.122	-3217.36161
217.344	-11637.62857
217.565	3428.7829
217.786	9010.70329
218.007	15546.16108
218.228	-873.9718
218.45	6159.67123
218.671	847.03452
218.892	39907.4534
219.113	1506.50875
219.334	-367.51532
219.555	9532.78132
219.776	3272.12262
219.997	23188.21459
220.219	2880.5312
220.44	-11994.50342
220.661	486.50289
220.882	1560.93733
221.103	-1197.46882
221.324	2324.13486
221.545	2352.43892
221.766	-9227.17065
221.987	950.51905
222.208	1531.36954
222.429	4333.38748
222.65	316.26966
222.87	20311.56309
223.091	749.67878
223.312	568.08194
223.533	1418.81698
223.754	1572.00051
223.975	1392.17872
224.196	2134.54926
224.417	1404.66198
224.637	661.17986
224.858	74.74494
225.079	1190.71075
225.3	715.93671
225.521	3827.19124
225.741	483.01496
225.962	501.19003
226.183	136.04043
226.404	694.01396
226.624	432.08999
226.845	683.51754
227.066	405.70218
227.286	261.58857
227.507	136.9041
227.728	119.43469
227.948	244.15118
228.169	76.21482
228.389	88.00509
228.61	46.03263
228.831	65.5489
229.051	3.23888
229.272	39.92223
229.492	56.84116
229.713	14.59823
229.933	37.41303
230.154	33.33919
230.374	55.8507
230.595	39.94785
230.815	23.87918
231.036	38.47983
231.256	-9.70503
231.477	68.53693
231.697	40.71307
231.917	40.66145
232.138	60.02397
232.358	109.9293
232.579	105.39761
232.799	22.31534
233.019	101.82301
233.24	117.84947
233.46	41.46552
233.68	65.88515
233.901	40.71102
234.121	29.29827
234.341	13.9529
234.561	-4.19494
234.782	23.48752
235.002	68.64583
235.222	-5.37663
235.442	68.66861
235.662	32.77052
235.883	65.29848
236.103	54.81691
236.323	38.7325
236.543	27.01917
236.763	42.53361
236.983	46.00234
237.203	44.45286
237.423	61.212
237.643	87.30901
237.864	75.16769
238.084	17.61687
238.304	26.41768
238.524	47.81632
238.744	40.11424
238.964	77.50819
239.184	63.29961
239.404	66.90084
239.624	36.86503
239.843	59.37604
240.063	35.94434
240.283	22.78366
240.503	24.11422
240.723	25.79879
240.943	15.04596
241.163	20.63972
241.383	14.34298
241.603	7.58587
241.822	10.28113
242.042	5.90698
242.262	8.91582
242.482	9.93903
242.702	10.98377
242.921	3.1294
243.141	7.22581
243.361	6.72655
243.581	9.77075
243.8	7.31825
244.02	5.31171
244.24	9.86458
244.459	9.70362
244.679	18.05355
244.899	12.11301
245.118	13.49673
245.338	12.21513
245.558	13.99728
245.777	8.74154
245.997	11.52179
246.216	10.72158
246.436	6.56684
246.655	4.58015
246.875	3.28946
247.094	6.31502
247.314	2.25053
247.533	3.80931
247.753	4.26042
247.972	3.46194
248.192	1.24212
248.411	1.81981
248.631	3.60786
248.85	4.56555
249.07	3.96504
249.289	6.0342
249.508	5.04576
249.728	7.20221
249.947	6.90213
250.166	8.9845
250.386	4.45611
250.605	6.7594
250.824	11.39077
251.044	7.96454
251.263	29.38174
251.482	15.33192
251.701	12.05308
251.921	-0.35274
252.14	3.33271
252.359	4.31697
252.578	10.4005
252.798	3.76312
253.017	9.04927
253.236	4.28296
253.455	5.59394
253.674	10.45492
253.893	5.29542
254.112	7.9941
254.331	11.79269
254.551	8.65325
254.77	3.88091
254.989	14.75013
255.208	9.94957
255.427	15.38301
255.646	12.0261
255.865	22.39922
256.084	9.24019
256.303	11.15353
256.522	14.58072
256.741	3.38449
256.96	2.62873
257.179	8.57088
257.397	11.48818
257.616	6.20764
257.835	5.86351
258.054	15.35505
258.273	10.86252
258.492	11.35889
258.711	6.91974
258.93	2.93422
259.148	4.66845
259.367	4.77669
259.586	5.80198
259.805	2.4813
260.023	5.39858
260.242	3.99031
260.461	2.89907
260.68	1.36844
260.898	4.5739
261.117	1.37294
261.336	0.80149
261.554	3.6477
261.773	3.53568
261.992	0.99421
262.21	3.31007
262.429	3.466
262.648	7.42696
262.866	8.14463
263.085	5.64974
263.303	5.10988
263.522	8.90599
263.74	9.19912
263.959	16.1756
264.178	7.49652
264.396	6.71057
264.615	4.75811
264.833	10.88834
265.051	8.6448
265.27	11.2194
265.488	11.42356
265.707	6.33614
265.925	11.53887
266.144	4.89669
266.362	5.65465
266.58	5.59406
266.799	5.18368
267.017	6.36457
267.235	5.57737
267.454	3.23124
267.672	1.84855
267.89	4.5574
268.109	4.39178
268.327	4.38376
268.545	0.96201
268.763	4.26626
268.982	1.63837
269.2	4.35786
269.418	3.06896
269.636	2.02896
269.854	4.8281
270.073	3.17989
270.291	1.95075
270.509	2.0076
270.727	4.65616
270.945	7.36972
271.163	7.31114
271.381	1.52217
271.599	3.2474
271.817	5.54899
272.036	1.80844
272.254	3.22252
272.472	2.42231
272.69	2.59768
272.908	2.32111
273.126	4.63646
273.344	5.42296
273.562	1.74805
273.779	2.7743
273.997	3.86296
274.215	4.27309
274.433	2.94752
274.651	4.75135
274.869	5.04403
275.087	2.86328
275.305	3.96784
275.523	2.68764
275.74	2.97222
275.958	5.68737
276.176	8.37397
276.394	2.64774
276.612	3.28026
276.829	3.31813
277.047	2.71869
277.265	3.12148
277.483	3.51414
277.7	4.59371
277.918	3.4954
278.136	6.41174
278.353	3.00694
278.571	1.8073
278.789	4.41755
279.006	1.0546
279.224	2.99479
279.442	5.58274
279.659	3.60996
279.877	2.51376
280.094	6.07038
280.312	1.31085
280.529	3.50982
280.747	1.20482
280.964	2.64759
281.182	6.12527
281.399	2.87687
281.617	3.99363
281.834	2.64344
282.052	2.0593
282.269	3.30317
282.487	2.67748
282.704	2.02402
282.921	2.40895
283.139	3.48207
283.356	4.00913
283.574	4.05994
283.791	1.70094
284.008	5.86636
284.226	3.04706
284.443	3.33953
284.66	4.33186
284.877	3.63957
285.095	2.22354
285.312	1.69322
285.529	0.91684
285.746	0.83849
285.964	2.09262
286.181	1.433
286.398	1.95153
286.615	2.72862
286.832	2.74726
287.05	0.55178
287.267	1.87693
287.484	1.89318
287.701	2.69538
287.918	2.59468
288.135	2.78953
288.352	1.29023
288.569	1.57278
288.786	2.39759
289.003	2.15363
289.22	3.159
289.437	1.55791
289.654	2.97872
289.871	3.22595
290.088	3.03993
290.305	2.22804
290.522	1.85572
290.739	2.01916
290.956	3.23349
291.173	3.67101
291.39	3.4936
291.607	2.52378
291.824	1.85093
292.04	1.279
292.257	2.89087
292.474	3.32811
292.691	2.11901
292.908	0.86823
293.125	1.73518
293.341	1.18222
293.558	5.00504
293.775	1.98214
293.992	1.96424
294.208	0.84304
294.425	1.50061
294.642	2.06172
294.858	3.2475
295.075	0.74203
295.292	2.18411
295.508	2.58721
295.725	4.34923
295.942	1.95041
296.158	1.55011
296.375	2.4522
296.591	1.94775
296.808	2.29508
297.024	2.66535
297.241	2.86447
297.458	3.1006
297.674	0.92409
297.891	2.64454
298.107	2.38838
298.323	1.92991
298.54	4.11273
298.756	2.45245
298.973	1.67439
299.189	4.42413
299.406	2.59719
299.622	4.16781
299.838	4.15289
300.055	4.07708
300.271	2.32572
300.487	2.62062
300.704	3.15464
300.92	2.48101
301.136	6.21526
301.353	4.54501
301.569	3.78709
301.785	4.19064
302.001	4.62582
302.218	4.21179
302.434	4.59852
302.65	2.97453
302.866	3.61859
303.083	6.40834
303.299	6.35764
303.515	4.4767
303.731	4.85702
303.947	3.26617
304.163	3.97611
304.379	4.69848
304.595	4.99048
304.812	3.87855
305.028	4.07597
305.244	4.45033
305.46	5.1185
305.676	5.3759
305.892	5.97339
306.108	5.29791
306.324	4.48602
306.54	6.44163
306.756	5.3753
306.972	5.23542
307.187	4.86845
307.403	6.06962
307.619	4.42361
307.835	6.04646
308.051	6.42135
308.267	4.15206
308.483	6.25752
308.699	5.62942
308.914	5.29376
309.13	5.1889
309.346	4.13024
309.562	4.40333
309.778	4.18241
309.993	5.82673
310.209	5.76007
310.425	4.54461
310.641	5.58489
310.856	4.84408
311.072	4.70151
311.288	5.49866
311.503	5.97081
311.719	4.16065
311.935	4.24957
312.15	6.23183
312.366	5.86291
312.581	6.06403
312.797	5.73917
313.013	6.38344
313.228	5.0736
313.444	5.35654
313.659	5.04191
313.875	6.09265
314.09	5.48551
314.306	6.98267
314.521	6.34206
314.737	6.49661
314.952	5.6671
315.168	5.69761
315.383	6.22952
315.599	5.38414
315.814	5.68919
316.029	6.49551
316.245	5.01917
316.46	4.1516
316.675	6.81597
316.891	7.41865
317.106	8.72769
317.321	6.13652
317.537	6.62757
317.752	6.75254
317.967	6.91643
318.183	5.05221
318.398	5.62983
318.613	6.78835
318.828	7.48001
319.043	6.69387
319.259	5.89861
319.474	6.293
319.689	7.25763
319.904	4.52425
320.119	7.13593
320.334	6.19477
320.549	6.04815
320.765	7.17947
320.98	6.60694
321.195	6.58564
321.41	6.39403
321.625	6.96801
321.84	7.82331
322.055	8.00222
322.27	5.75069
322.485	5.29829
322.7	6.9359
322.915	7.23631
323.13	6.22294
323.345	8.12691
323.56	7.84792
323.775	7.27879
323.989	7.17921
324.204	6.96118
324.419	8.001
324.634	5.78406
324.849	6.74823
325.064	9.9737
325.279	7.81908
325.493	7.30292
325.708	7.68525
325.923	6.18457
326.138	6.78946
326.352	8.36832
326.567	8.05232
326.782	6.58084
326.997	6.65376
327.211	7.60658
327.426	7.1651
327.641	6.83386
327.855	5.80537
328.07	7.51069
328.285	8.9685
328.499	6.79198
328.714	7.2926
328.928	7.5934
329.143	7.20887
329.358	8.07854
329.572	8.21196
329.787	8.5962
330.001	9.64038
330.216	6.1308
330.43	9.51681
330.645	8.66715
330.859	8.311
331.074	6.53494
331.288	7.49622
331.503	8.90578
331.717	6.51647
331.931	7.69984
332.146	7.99584
332.36	9.49507
332.575	7.9984
332.789	7.83886
333.003	8.18866
333.218	8.27591
333.432	7.47811
333.646	8.89669
333.86	9.66836
334.075	9.40286
334.289	7.51584
334.503	6.60237
334.717	8.29777
334.932	7.84424
335.146	8.40029
335.36	7.09574
335.574	8.46546
335.788	7.9558
336.003	8.77636
336.217	8.70941
336.431	8.60438
336.645	7.67945
336.859	7.41688
337.073	8.43547
337.287	8.8676
337.501	7.40366
337.715	9.20029
337.929	9.28233
338.143	7.76142
338.357	8.47713
338.571	8.31046
338.785	9.34515
338.999	8.37528
339.213	8.10835
339.427	7.71434
339.641	9.95238
339.855	8.35754
340.069	7.91129
340.283	9.72691
340.497	10.44429
340.711	9.48996
340.924	9.05125
341.138	8.18177
341.352	7.78373
341.566	9.17167
341.78	7.83153
341.993	8.75278
342.207	8.3505
342.421	9.28337
342.635	8.90983
342.848	8.97395
343.062	7.15444
343.276	8.69005
343.49	10.76982
343.703	8.7251
343.917	10.19252
344.131	10.48557
344.344	8.78068
344.558	9.24639
344.771	8.41899
344.985	10.93229
345.199	10.91363
345.412	10.12249
345.626	10.09347
345.839	8.30609
346.053	8.53939
346.266	8.92143
346.48	10.16368
346.693	10.21003
346.907	9.91471
347.12	8.79649
347.334	9.91616
347.547	9.87495
347.76	9.52227
347.974	10.7152
348.187	9.93223
348.401	9.61201
348.614	8.91795
348.827	9.41626
349.041	10.1213
349.254	8.5157
349.467	9.44599
349.681	9.22565
349.894	9.30602
350.107	11.1743
350.32	11.86144
350.534	9.2233
350.747	9.6435
350.96	9.53847
351.173	9.52848
351.386	9.96597
351.6	9.67745
351.813	9.63645
352.026	9.98393
352.239	9.43019
352.452	9.98091
352.665	11.34066
352.878	10.15964
353.092	12.1283
353.305	11.0285
353.518	10.66498
353.731	9.61795
353.944	11.49644
354.157	10.37027
354.37	10.3028
354.583	9.62021
354.796	9.69144
355.009	11.44821
355.222	11.21001
355.435	10.72305
355.647	11.83785
355.86	10.49378
356.073	11.13261
356.286	10.55149
356.499	11.84697
356.712	11.68386
356.925	11.68934
357.138	11.71636
357.35	10.61667
357.563	10.99491
357.776	11.47581
357.989	11.24672
358.201	11.79828
358.414	11.60627
358.627	12.42798
358.84	11.09744
359.052	10.34609
359.265	10.83056
359.478	12.21709
359.69	9.53509
359.903	12.40911
360.116	12.59883
360.328	10.6838
360.541	12.43617
360.753	11.55095
360.966	11.70575
361.179	11.8868
361.391	11.68599
361.604	11.67183
361.816	11.73302
362.029	11.71718
362.241	11.34046
362.454	11.58926
362.666	11.14826
362.879	12.22299
363.091	11.5175
363.304	11.30101
363.516	11.51679
363.728	11.02963
363.941	11.98161
364.153	11.90871
364.366	10.45854
364.578	11.21473
364.79	12.05328
365.003	12.019
365.215	11.31968
365.427	12.3266
365.639	12.57609
365.852	12.02779
366.064	13.4526
366.276	11.89219
366.488	12.12982
366.701	11.99167
366.913	11.79051
367.125	11.86069
367.337	11.30224
367.549	11.64405
367.762	11.93756
367.974	11.97267
368.186	11.71283
368.398	12.64957
368.61	12.34466
368.822	12.47527
369.034	11.66595
369.246	12.80395
369.458	14.41535
369.67	11.64793
369.882	13.4152
370.094	10.96775
370.306	13.46125
370.518	12.25168
370.73	11.99514
370.942	12.01031
371.154	12.52436
371.366	12.24688
371.578	12.71313
371.79	12.27372
372.002	13.13738
372.214	14.15858
372.425	12.22752
372.637	13.64951
372.849	12.67756
373.061	11.00626
373.273	12.75588
373.484	12.73439
373.696	12.98519
373.908	11.02275
374.12	13.25541
374.331	13.00316
374.543	12.00075
374.755	12.07632
374.967	12.75434
375.178	13.38413
375.39	12.38195
375.602	12.92086
375.813	11.62767
376.025	12.30802
376.236	13.04614
376.448	13.29001
376.66	12.77271
376.871	12.92418
377.083	13.81094
377.294	14.40393
377.506	12.75179
377.717	14.06641
377.929	13.1255
378.14	12.73398
378.352	13.37708
378.563	13.43008
378.775	13.84373
378.986	12.17867
379.197	12.95849
379.409	12.50051
379.62	13.42102
379.832	13.45824
380.043	12.86611
380.254	13.41384
380.466	12.35914
380.677	15.4291
380.888	14.36347
381.1	15.10586
381.311	15.09504
381.522	13.48559
381.733	15.2171
381.945	13.31586
382.156	13.19779
382.367	12.93399
382.578	15.25929
382.789	15.53366
383.001	13.00024
383.212	14.41272
383.423	14.66872
383.634	14.28742
383.845	14.1695
384.056	13.3827
384.267	13.79317
384.478	13.8024
384.69	13.00737
384.901	13.93134
385.112	13.76659
385.323	14.96613
385.534	13.92369
385.745	13.98776
385.956	13.92223
386.167	13.21606
386.378	14.06851
386.588	13.3524
386.799	13.24216
387.01	12.9356
387.221	14.43369
387.432	13.87042
387.643	15.03454
387.854	13.79141
388.065	13.65517
388.275	13.87934
388.486	13.38903
388.697	13.84069
388.908	13.42862
389.119	14.70254
389.329	14.79349
389.54	13.9633
389.751	14.16572
389.962	14.93466
390.172	14.14137
390.383	14.06791
390.594	13.77385
390.804	13.81418
391.015	13.88144
391.226	14.43196
391.436	14.85026
391.647	14.60084
391.858	14.61129
392.068	13.26652
392.279	13.50321
392.489	14.51055
392.7	14.87622
392.91	13.87016
393.121	13.68531
393.331	14.61374
393.542	15.08273
393.752	14.95358
393.963	14.72414
394.173	14.75424
394.384	14.67924
394.594	14.54575
394.804	13.65258
395.015	14.52462
395.225	14.68629
395.436	13.76316
395.646	14.552
395.856	14.13016
396.067	13.20348
396.277	14.90353
396.487	14.59048
396.697	14.55839
396.908	14.82063
397.118	14.7392
397.328	14.51922
397.538	15.12154
397.749	13.97694
397.959	15.0647
398.169	14.83466
398.379	13.60986
398.589	14.86151
398.8	14.85974
399.01	14.65666
399.22	14.32673
399.43	15.96368
399.64	14.67002
399.85	14.78247
400.06	14.61434
400.27	14.03767
400.48	14.51438
400.69	15.46395
400.9	14.2074
401.11	13.8642
401.32	15.06278
401.53	14.2136
401.74	15.60303
401.95	14.937
402.16	14.38239
402.37	14.97253
402.58	14.56182
402.79	15.03584
403	15.54713
403.209	14.43389
403.419	15.72447
403.629	14.42152
403.839	15.57607
404.049	15.53872
404.258	14.79495
404.468	14.58442
404.678	15.19655
404.888	15.78033
405.097	14.6881
405.307	14.81022
405.517	15.30929
405.727	15.09569
405.936	14.51468
406.146	14.93737
406.356	15.72119
406.565	14.82064
406.775	14.53185
406.984	14.33925
407.194	15.88366
407.404	14.62297
407.613	15.24127
407.823	15.36416
408.032	15.67355
408.242	15.37915
408.451	14.51127
408.661	14.75874
408.87	16.19676
409.08	14.58113
409.289	15.40872
409.499	15.3451
409.708	15.19958
409.918	13.95618
410.127	15.48549
410.336	16.18645
410.546	15.54337
410.755	14.89093
410.964	14.92805
411.174	14.39893
411.383	15.28835
411.592	15.27945
411.802	14.47644
412.011	15.58051
412.22	14.94658
412.429	16.12883
412.639	16.03197
412.848	15.6671
413.057	16.07712
413.266	15.95497
413.475	15.20257
413.685	15.5585
413.894	15.8693
414.103	15.94868
414.312	15.80045
414.521	15.29061
414.73	15.46326
414.939	16.8236
415.148	15.80964
415.357	15.81325
415.566	15.50093
415.776	15.55086
415.985	15.52335
416.194	16.17655
416.403	17.07554
416.611	15.04553
416.82	15.66543
417.029	16.09452
417.238	15.71012
417.447	15.67694
417.656	15.94402
417.865	15.6684
418.074	16.07451
418.283	16.01235
418.492	16.72271
418.7	16.43646
418.909	17.78246
419.118	16.85628
419.327	17.32477
419.536	17.26633
419.744	17.65993
419.953	19.10874
420.162	19.47436
420.371	19.22471
420.579	20.36399
420.788	21.04137
420.997	21.12114
421.205	21.79317
421.414	21.36372
421.623	21.46323
421.831	21.02424
422.04	21.46629
422.249	20.23319
422.457	20.55694
422.666	19.45681
422.874	20.30621
423.083	20.58323
423.291	20.70967
423.5	20.83802
423.708	21.43209
423.917	21.89599
424.125	21.49634
424.334	21.46839
424.542	23.05577
424.751	22.49108
424.959	21.92825
425.167	21.59742
425.376	21.45448
425.584	19.57514
425.793	19.2634
426.001	18.1201
426.209	17.76798
426.418	16.54197
426.626	15.90578
426.834	15.8613
427.042	16.20744
427.251	15.86028
427.459	16.86175
427.667	16.23433
427.875	15.59945
428.084	15.97558
428.292	17.08723
428.5	16.71543
428.708	15.75198
428.916	15.93318
429.124	16.60026
429.333	16.33651
429.541	16.41685
429.749	16.61263
429.957	16.73889
430.165	18.16031
430.373	15.83092
430.581	16.70363
430.789	17.47681
430.997	16.62121
431.205	16.37749
431.413	17.00432
431.621	16.75221
431.829	17.25574
432.037	16.87431
432.245	17.32813
432.453	17.27894
432.661	17.06887
432.869	18.19993
433.076	16.72183
433.284	17.14606
433.492	17.45339
433.7	17.56257
433.908	16.80011
434.116	17.14537
434.323	17.00845
434.531	16.8232
434.739	17.13877
434.947	17.27613
435.154	17.23513
435.362	16.791
435.57	16.7818
435.778	16.49354
435.985	17.18746
436.193	16.73731
436.401	17.72135
436.608	17.09254
436.816	16.84782
437.023	17.93625
437.231	18.09573
437.439	17.33221
437.646	17.53647
437.854	17.47911
438.061	17.76028
438.269	17.28355
438.476	17.76495
438.684	17.45642
438.891	17.3406
439.099	17.08777
439.306	17.03856
439.514	17.01284
439.721	18.26533
439.929	18.25083
440.136	19.28712
440.343	19.37903
440.551	19.34836
440.758	20.85554
440.965	19.34562
441.173	19.07539
441.38	18.86628
441.587	18.26439
441.795	17.97202
442.002	17.37958
442.209	17.26479
442.416	17.38315
442.624	17.39215
442.831	17.17533
443.038	16.92899
443.245	16.7708
443.452	17.28653
443.66	17.62806
443.867	17.23343
444.074	17.25536
444.281	17.36826
444.488	17.57208
444.695	17.7941
444.902	17.57467
445.109	19.0374
445.316	19.16051
445.523	20.05649
445.73	20.54265
445.937	21.60381
446.144	22.22944
446.351	22.7973
446.558	21.6025
446.765	23.75187
446.972	22.59983
447.179	22.1752
447.386	22.45823
447.593	20.41774
447.8	21.29096
448.007	19.34698
448.214	18.25188
448.42	17.67304
448.627	17.6238
448.834	17.13785
449.041	17.05167
449.248	16.96509
449.454	17.53716
449.661	17.9599
449.868	17.05832
450.075	17.08009
450.281	16.31817
450.488	16.88121
450.695	16.92245
450.901	17.15056
451.108	17.12851
451.315	18.16373
451.521	17.69738
451.728	18.30418
451.935	17.26981
452.141	17.61772
452.348	17.58253
452.554	17.6172
452.761	17.40031
452.967	18.4957
453.174	17.62843
453.38	17.83365
453.587	16.91454
453.793	17.5703
454	17.98118
454.206	18.66068
454.413	18.02788
454.619	17.91821
454.825	17.21189
455.032	18.07825
455.238	18.06951
455.445	17.05987
455.651	17.74491
455.857	16.75875
456.064	17.44002
456.27	17.5437
456.476	17.52965
456.682	17.02953
456.889	18.0411
457.095	18.15226
457.301	19.28897
457.507	17.976
457.714	18.00113
457.92	18.11677
458.126	17.90452
458.332	18.16844
458.538	18.00143
458.744	18.31692
458.951	18.37004
459.157	20.80412
459.363	20.53428
459.569	21.16635
459.775	21.71169
459.981	21.87646
460.187	22.3046
460.393	21.99342
460.599	21.83876
460.805	20.61052
461.011	19.1696
461.217	18.38159
461.423	17.99445
461.629	17.35605
461.835	17.72764
462.041	17.32612
462.247	18.3857
462.453	17.57399
462.658	17.60227
462.864	18.04306
463.07	17.90843
463.276	17.93936
463.482	18.0672
463.688	18.78021
463.893	17.7003
464.099	18.08518
464.305	18.8443
464.511	17.81089
464.716	17.99218
464.922	18.59933
465.128	17.66795
465.333	18.93894
465.539	18.46853
465.745	18.17863
465.95	18.25532
466.156	19.66683
466.362	18.8855
466.567	18.2665
466.773	18.04669
466.978	19.09622
467.184	17.69638
467.389	17.21788
467.595	18.32976
467.8	17.80537
468.006	18.95773
468.211	18.72567
468.417	17.63691
468.622	18.3831
468.828	18.54865
469.033	18.34136
469.239	19.69157
469.444	18.06088
469.649	18.93114
469.855	18.17321
470.06	18.28647
470.266	17.87484
470.471	18.62731
470.676	18.46483
470.881	17.36897
471.087	18.83275
471.292	19.73816
471.497	17.73579
471.703	18.22447
471.908	18.0991
472.113	18.5359
472.318	19.0027
472.523	17.90988
472.729	18.63651
472.934	18.7287
473.139	18.23483
473.344	18.51245
473.549	19.01736
473.754	18.08316
473.959	19.7885
474.164	18.01193
474.369	18.28255
474.575	18.88506
474.78	18.3896
474.985	18.09714
475.19	17.48668
475.395	18.18958
475.6	18.57367
475.804	19.42867
476.009	18.52976
476.214	18.6905
476.419	18.38653
476.624	17.86045
476.829	18.21907
477.034	19.02604
477.239	18.30709
477.444	18.9056
477.648	18.94377
477.853	18.76798
478.058	18.46857
478.263	18.14392
478.468	17.95138
478.672	18.12192
478.877	19.09058
479.082	19.33217
479.287	18.75779
479.491	18.44706
479.696	18.21347
479.901	19.00204
480.105	19.14893
480.31	18.36622
480.515	18.826
480.719	19.96793
480.924	18.72201
481.128	18.38934
481.333	19.17783
481.538	19.19869
481.742	19.99285
481.947	21.79175
482.151	23.68535
482.356	25.85382
482.56	29.95295
482.765	33.82663
482.969	39.6803
483.174	44.65994
483.378	50.79991
483.582	53.16037
483.787	56.13295
483.991	57.22582
484.196	57.348
484.4	56.17938
484.604	55.5623
484.809	50.8845
485.013	47.20267
485.217	42.78443
485.422	38.31758
485.626	34.81259
485.83	32.86436
486.034	32.1449
486.239	32.81155
486.443	34.01916
486.647	35.31047
486.851	37.30675
487.055	39.68634
487.26	40.53846
487.464	42.23645
487.668	41.94649
487.872	42.7735
488.076	42.37043
488.28	40.76345
488.484	38.18091
488.688	36.64115
488.892	34.55449
489.096	31.94666
489.3	29.45327
489.504	27.58764
489.708	26.1071
489.912	25.54948
490.116	25.29045
490.32	25.3211
490.524	27.51215
490.728	29.24561
490.932	31.3455
491.136	33.29429
491.34	35.05228
491.544	35.6777
491.748	35.71194
491.951	35.6261
492.155	34.56882
492.359	33.34556
492.563	30.67495
492.767	28.48969
492.97	25.57546
493.174	22.85692
493.378	20.88602
493.582	18.84818
493.785	17.96485
493.989	18.16928
494.193	18.25601
494.396	18.33873
494.6	18.85489
494.804	18.65541
495.007	18.3683
495.211	18.73309
495.414	18.77047
495.618	19.25761
495.822	19.77004
496.025	19.16878
496.229	19.57994
496.432	19.01085
496.636	19.23004
496.839	19.01881
497.043	19.80826
497.246	19.20793
497.45	18.89215
497.653	19.0486
497.856	18.90183
498.06	18.48001
498.263	18.68755
498.467	18.58301
498.67	19.14966
498.873	18.96712
499.077	18.7146
499.28	18.61843
499.483	18.86047
499.686	19.14587
499.89	18.82474
500.093	19.16934
500.296	18.33658
500.499	19.72254
500.703	18.80186
500.906	19.07458
501.109	19.75397
501.312	19.00273
501.515	18.96875
501.719	19.11887
501.922	19.56341
502.125	19.16898
502.328	19.06884
502.531	18.65562
502.734	19.13
502.937	18.50139
503.14	19.29529
503.343	18.88516
503.546	19.02374
503.749	18.81128
503.952	19.69768
504.155	18.90524
504.358	19.45062
504.561	19.2215
504.764	18.5664
504.967	19.13039
505.17	18.99394
505.373	19.70156
505.576	19.07866
505.778	19.38078
505.981	18.63388
506.184	19.6834
506.387	18.39049
506.59	20.19626
506.793	19.77997
506.995	19.54954
507.198	18.34762
507.401	19.69429
507.604	19.60922
507.806	18.92549
508.009	19.08649
508.212	19.83217
508.414	19.17468
508.617	19.19969
508.82	19.18619
509.022	20.06602
509.225	19.31922
509.427	18.6168
509.63	19.9255
509.833	19.17189
510.035	18.9568
510.238	18.40572
510.44	19.78649
510.643	18.23748
510.845	20.15689
511.048	19.44845
511.25	18.92725
511.453	19.22543
511.655	19.41987
511.858	19.0751
512.06	19.69612
512.262	19.41869
512.465	19.77608
512.667	18.98167
512.869	18.63081
513.072	19.36965
513.274	19.45743
513.476	19.26528
513.679	19.50952
513.881	18.50573
514.083	19.88873
514.286	18.78511
514.488	18.70473
514.69	18.66778
514.892	18.45041
515.094	19.52943
515.297	18.92302
515.499	19.30388
515.701	18.90929
515.903	20.40849
516.105	20.25702
516.307	19.90686
516.509	18.66673
516.711	19.0689
516.913	19.71606
517.116	19.81414
517.318	19.46901
517.52	20.36669
517.722	20.09397
517.924	19.28449
518.126	20.09933
518.328	19.70668
518.529	20.56998
518.731	21.26421
518.933	19.69804
519.135	19.87235
519.337	20.37769
519.539	19.35628
519.741	18.2405
519.943	18.73242
520.145	18.77372
520.346	19.30777
520.548	18.84875
520.75	19.20427
520.952	19.00435
521.153	19.31055
521.355	19.33539
521.557	18.60457
521.759	19.30242
521.96	19.29518
522.162	18.77657
522.364	19.91285
522.565	19.05948
522.767	19.74484
522.969	19.92253
523.17	19.99404
523.372	19.63178
523.573	19.39552
523.775	19.51958
523.977	19.31726
524.178	20.68553
524.38	19.73569
524.581	20.21796
524.783	19.85409
524.984	20.31757
525.186	20.09523
525.387	21.08473
525.589	21.20591
525.79	21.44655
525.991	21.74786
526.193	22.43082
526.394	21.96021
526.596	22.95136
526.797	23.61032
526.998	23.60754
527.2	25.12951
527.401	28.49864
527.602	31.01219
527.803	35.50287
528.005	38.55293
528.206	41.27723
528.407	43.55759
528.608	43.94715
528.81	44.35913
529.011	43.59874
529.212	43.85219
529.413	41.25439
529.614	38.50951
529.815	35.46608
530.017	32.31749
530.218	28.68645
530.419	25.9504
530.62	24.64685
530.821	23.21067
531.022	21.6643
531.223	22.31675
531.424	21.9156
531.625	22.27304
531.826	22.20564
532.027	23.41864
532.228	25.42215
532.429	26.44806
532.63	27.74331
532.831	29.34963
533.032	29.92598
533.233	30.93036
533.433	30.50684
533.634	30.70033
533.835	29.43447
534.036	28.11712
534.237	26.62438
534.438	24.93825
534.638	22.59608
534.839	21.31494
535.04	20.43456
535.241	19.68676
535.441	20.54844
535.642	20.38857
535.843	20.42277
536.043	20.8744
536.244	21.43429
536.445	21.93988
536.645	22.67213
536.846	22.27063
537.047	22.45746
537.247	21.17356
537.448	20.38794
537.648	19.65919
537.849	19.08981
538.049	18.98182
538.25	19.21777
538.451	19.3999
538.651	18.79289
538.851	19.65498
539.052	20.25104
539.252	20.06173
539.453	19.95811
539.653	20.39327
539.854	20.27255
540.054	20.86735
540.254	23.6804
540.455	26.19115
540.655	27.63273
540.855	30.39463
541.056	32.34589
541.256	32.68227
541.456	33.87652
541.657	33.72273
541.857	33.85297
542.057	32.16266
542.257	30.78174
542.458	30.11053
542.658	28.53461
542.858	25.8071
543.058	24.78147
543.258	23.56274
543.458	21.54621
543.659	20.84763
543.859	20.88096
544.059	20.28257
544.259	19.44981
544.459	19.96512
544.659	19.34837
544.859	19.76583
545.059	19.4461
545.259	20.15309
545.459	19.99113
545.659	20.51889
545.859	20.00108
546.059	20.39981
546.259	19.79631
546.459	19.35223
546.659	19.49201
546.859	20.33459
547.059	19.98962
547.258	20.01876
547.458	19.90637
547.658	19.12468
547.858	18.75819
548.058	19.37824
548.258	19.04438
548.457	18.78225
548.657	20.68423
548.857	19.27256
549.057	19.91585
549.256	19.71932
549.456	19.36902
549.656	18.69428
549.855	20.92159
550.055	19.66715
550.255	20.84695
550.454	20.22817
550.654	20.44707
550.853	21.07542
551.053	20.65575
551.253	20.3438
551.452	20.4986
551.652	19.58846
551.851	19.40965
552.051	20.07947
552.25	20.02831
552.45	19.89255
552.649	20.00365
552.849	19.71404
553.048	20.16555
553.248	20.44651
553.447	19.2058
553.646	20.3058
553.846	21.2749
554.045	20.42928
554.244	18.72508
554.444	20.56342
554.643	19.1715
554.842	20.72457
555.042	21.15042
555.241	19.50491
555.44	19.22497
555.64	20.28346
555.839	21.01384
556.038	20.34364
556.237	19.59747
556.436	20.27478
556.636	20.27763
556.835	19.56982
557.034	21.06098
557.233	20.13875
557.432	19.06633
557.631	20.79114
557.83	19.90126
558.029	19.84849
558.228	19.54907
558.427	19.49409
558.626	20.27594
558.825	19.35952
559.024	19.98316
559.223	21.33101
559.422	19.95505
559.621	20.40372
559.82	18.63103
560.019	20.25036
560.218	19.76851
560.417	18.79798
560.616	19.97221
560.815	22.53231
561.014	19.2654
561.212	21.38163
561.411	20.38503
561.61	19.43735
561.809	19.99797
562.008	21.39743
562.206	19.90758
562.405	20.54916
562.604	19.96174
562.803	20.16765
563.001	19.86564
563.2	19.35973
563.399	20.46345
563.597	19.61219
563.796	20.20119
563.995	19.61334
564.193	20.87655
564.392	20.26249
564.59	21.9105
564.789	19.27885
564.988	20.19417
565.186	20.82574
565.385	20.68293
565.583	20.55903
565.782	20.64495
565.98	20.45193
566.179	20.27297
566.377	19.99203
566.575	20.00267
566.774	21.19741
566.972	20.74032
567.171	21.47973
567.369	20.94327
567.567	20.16915
567.766	20.18456
567.964	18.66338
568.162	20.43852
568.361	21.00526
568.559	19.89795
568.757	20.41682
568.956	20.27355
569.154	20.55068
569.352	20.82566
569.55	20.32687
569.748	20.55208
569.947	19.96375
570.145	19.79552
570.343	19.99255
570.541	21.66523
570.739	19.91033
570.937	20.67557
571.135	21.03275
571.333	22.29463
571.532	22.08278
571.73	20.9516
571.928	21.45352
572.126	21.0077
572.324	20.26372
572.522	21.23928
572.72	22.3077
572.918	20.38002
573.116	20.63942
573.313	20.17099
573.511	20.31512
573.709	19.91467
573.907	21.05457
574.105	20.23156
574.303	19.55918
574.501	19.55802
574.699	21.11517
574.896	20.74298
575.094	21.18667
575.292	19.64419
575.49	21.07803
575.688	20.26698
575.885	21.30716
576.083	21.91671
576.281	20.84774
576.478	19.84851
576.676	20.53116
576.874	19.219
577.071	20.11645
577.269	21.78817
577.467	20.28661
577.664	20.1375
577.862	21.12188
578.059	19.60968
578.257	21.04835
578.455	20.09447
578.652	20.42283
578.85	18.86989
579.047	20.57748
579.245	20.16149
579.442	20.27925
579.64	20.32174
579.837	19.37346
580.034	22.6745
580.232	20.23941
580.429	19.51916
580.627	21.06517
580.824	21.53762
581.021	21.19823
581.219	20.18467
581.416	19.99943
581.613	21.84464
581.811	21.64575
582.008	19.97624
582.205	21.3148
582.402	20.8197
582.6	21.84333
582.797	20.62051
582.994	21.0138
583.191	21.26095
583.388	20.57979
583.586	21.20868
583.783	21.59292
583.98	19.9868
584.177	20.67035
584.374	18.65493
584.571	20.33809
584.768	20.47164
584.965	20.52714
585.162	21.30269
585.359	22.25415
585.556	20.58995
585.753	20.95012
585.95	19.73247
586.147	20.00507
586.344	21.09314
586.541	20.64912
586.738	19.60721
586.935	20.76788
587.132	20.33293
587.329	21.93303
587.526	20.95305
587.722	25.12785
587.919	19.94592
588.116	21.47585
588.313	22.1782
588.51	22.82988
588.706	20.54972
588.903	21.50581
589.1	21.84179
589.297	23.45394
589.493	21.01392
589.69	21.34038
589.887	20.39817
590.083	19.99472
590.28	20.17155
590.477	21.61386
590.673	21.21664
590.87	21.7286
591.067	20.20881
591.263	21.03076
591.46	21.04248
591.656	20.25939
591.853	21.96056
592.049	20.01089
592.246	20.35761
592.442	21.65132
592.639	22.08236
592.835	20.25612
593.032	21.35997
593.228	19.70618
593.425	19.89538
593.621	19.99437
593.817	21.33111
594.014	20.41723
594.21	21.21001
594.406	22.05404
594.603	21.31957
594.799	20.37798
594.995	19.30573
595.192	22.05854
595.388	20.786
595.584	20.96265
595.78	20.37058
595.977	23.91494
596.173	22.78673
596.369	21.28714
596.565	20.81831
596.761	20.26021
596.957	22.33202
597.154	20.62992
597.35	20.55621
597.546	20.43922
597.742	21.17608
597.938	20.84802
598.134	19.90647
598.33	20.58554
598.526	21.43697
598.722	20.39929
598.918	21.8912
599.114	20.93386
599.31	19.38965
599.506	20.52572
599.702	19.96875
599.898	21.01287
600.094	21.48445
600.29	21.73841
600.485	21.78709
600.681	20.2212
600.877	22.77183
601.073	21.17539
601.269	23.07675
601.465	22.56905
601.66	20.35166
601.856	19.55588
602.052	23.23825
602.248	21.30294
602.443	19.97866
602.639	20.67266
602.835	20.90818
603.03	20.77568
603.226	22.39221
603.422	20.85592
603.617	21.45124
603.813	21.27563
604.009	21.201
604.204	22.50726
604.4	20.34276
604.595	22.1699
604.791	20.38649
604.986	21.37738
605.182	20.19857
605.377	20.53729
605.573	20.39632
605.768	20.37964
605.964	20.87012
606.159	20.81302
606.355	21.25752
606.55	19.9719
606.746	21.47919
606.941	20.50503
607.136	22.47456
607.332	23.61247
607.527	19.92932
607.722	21.2936
607.918	21.14334
608.113	20.79826
608.308	22.53229
608.503	22.31242
608.699	22.38398
608.894	22.46009
609.089	21.28682
609.284	22.16524
609.479	21.40645
609.675	22.16452
609.87	21.18406
610.065	21.99596
610.26	21.93003
610.455	21.778
610.65	20.78158
610.845	21.42926
611.04	21.66287
611.235	20.84406
611.43	20.73279
611.625	20.1339
611.82	22.6123
612.015	20.37355
612.21	22.5632
612.405	19.8541
612.6	22.74764
612.795	22.76235
612.99	21.9778
613.185	20.36911
613.38	20.63055
613.575	21.35843
613.77	24.32929
613.965	19.80617
614.159	20.75034
614.354	22.62496
614.549	22.37949
614.744	22.13656
614.938	20.2307
615.133	19.95824
615.328	22.73083
615.523	22.50325
615.717	24.50381
615.912	20.77895
616.107	21.55444
616.301	21.13599
616.496	20.62414
616.691	23.06881
616.885	22.09445
617.08	24.8167
617.274	22.47414
617.469	23.7432
617.664	22.0894
617.858	20.93565
618.053	21.77363
618.247	21.07702
618.442	19.09708
618.636	23.15381
618.831	20.39526
619.025	20.65638
619.219	24.53763
619.414	18.03081
619.608	20.95832
619.803	20.77338
619.997	23.92905
620.191	22.4519
620.386	21.99196
620.58	20.98454
620.774	19.40118
620.969	19.71552
621.163	21.40364
621.357	20.18173
621.551	20.91186
621.746	21.40219
621.94	20.85866
622.134	25.57226
622.328	24.01623
622.522	19.68122
622.716	22.63995
622.911	22.74441
623.105	22.45335
623.299	22.44898
623.493	24.98488
623.687	20.57931
623.881	20.90891
624.075	22.23564
624.269	23.35805
624.463	19.54778
624.657	20.0374
624.851	22.50111
625.045	22.78744
625.239	23.01942
625.433	21.40903
625.627	23.96
625.821	21.63539
626.015	21.3016
626.209	22.17987
626.403	20.25667
626.596	22.55461
626.79	22.86309
626.984	20.593
627.178	22.43358
627.372	22.44026
627.565	22.32199
627.759	20.13165
627.953	20.18215
628.147	21.76765
628.34	22.27795
628.534	24.12301
628.728	20.9704
628.921	22.40353
629.115	22.20096
629.309	22.70127
629.502	22.76805
629.696	21.56318
629.89	21.37934
630.083	21.95384
630.277	21.84457
630.47	23.43859
630.664	21.23907
630.857	19.69663
631.051	22.71611
631.244	23.02483
631.438	22.64529
631.631	20.84506
631.825	23.40523
632.018	22.17603
632.212	23.85588
632.405	23.37017
632.598	20.72808
632.792	22.37613
632.985	19.10778
633.178	21.81415
633.372	21.84851
633.565	21.89239
633.758	23.54299
633.952	20.98704
634.145	20.80604
634.338	21.35529
634.531	21.08294
634.724	20.53894
634.918	21.76317
635.111	21.35205
635.304	21.27637
635.497	24.8556
635.69	21.8917
635.883	23.16797
636.077	20.59177
636.27	22.26739
636.463	22.18138
636.656	21.87457
636.849	21.36711
637.042	22.55938
637.235	24.20077
637.428	22.80175
637.621	22.37876
637.814	23.72384
638.007	23.72257
638.2	23.67756
638.393	24.23814
638.586	20.18102
638.778	21.32646
638.971	21.68882
639.164	24.17876
639.357	22.19181
639.55	24.28114
639.743	22.89694
639.935	22.71549
640.128	25.4422
640.321	23.44537
640.514	22.24414
640.707	25.21283
640.899	22.87652
641.092	19.76702
641.285	37.53704
641.477	19.24871
641.67	25.98596
641.863	24.07799
642.055	22.59923
642.248	22.21784
642.441	21.63122
642.633	23.18984
642.826	23.73537
643.018	23.94727
643.211	25.44905
643.403	25.37896
643.596	26.09496
643.788	25.87894
643.981	21.8978
644.173	23.87306
644.366	21.85423
644.558	19.74278
644.751	24.26057
644.943	20.40491
645.135	24.9766
645.328	25.04763
645.52	23.38364
645.712	24.37379
645.905	27.34352
646.097	20.81874
646.289	22.6467
646.482	26.51901
646.674	21.84293
646.866	24.49545
647.058	23.29795
647.251	20.95473
647.443	21.86341
647.635	22.39312
647.827	20.64186
648.019	21.12364
648.211	22.43434
648.404	22.63672
648.596	25.62925
648.788	23.15711
648.98	23.33271
649.172	23.82003
649.364	23.42671
649.556	20.24087
649.748	27.628
649.94	20.9893
650.132	24.33408
650.324	21.67011
650.516	22.29775
650.708	24.96639
650.9	20.82354
651.092	20.51956
651.284	21.03173
651.476	21.29744
651.667	24.34747
651.859	25.34982
652.051	22.72978
652.243	23.46247
652.435	22.19907
652.627	23.86462
652.818	24.04854
653.01	20.2608
653.202	21.48387
653.394	22.18025
653.585	23.74484
653.777	30.61017
653.969	25.14864
654.16	25.50333
654.352	21.09013
654.544	22.86401
654.735	24.79247
654.927	23.41961
655.118	25.90946
655.31	24.13977
655.502	25.23222
655.693	23.12082
655.885	24.02081
656.076	25.54131
656.268	23.51039
656.459	26.13156
656.651	25.68281
656.842	22.63129
657.034	22.1255
657.225	25.34067
657.416	26.26533
657.608	25.95924
657.799	23.89868
657.99	26.26125
658.182	23.34042
658.373	23.23453
658.564	26.60578
658.756	24.96267
658.947	24.59339
659.138	22.81092
659.33	23.19412
659.521	22.82457
659.712	23.74342
659.903	23.18535
660.094	22.63771
660.286	20.88752
660.477	26.42718
660.668	24.48228
660.859	23.07875
661.05	20.97651
661.241	24.4987
661.432	23.808
661.623	22.82182
661.814	22.52146
662.006	21.02895
662.197	23.05538
662.388	25.7373
662.579	23.75937
662.77	25.88117
662.96	28.87312
663.151	24.868
663.342	20.64684
663.533	24.69118
663.724	23.8321
663.915	27.60121
664.106	23.69335
664.297	27.53559
664.488	25.10446
664.678	22.20828
664.869	25.76088
665.06	25.35202
665.251	24.36949
665.442	25.03957
665.632	22.08358
665.823	27.70836
666.014	18.26823
666.204	25.2873
666.395	26.70937
666.586	28.98067
666.776	25.6395
666.967	28.19642
667.158	24.14308
667.348	26.94576
667.539	22.31951
667.729	26.18578
667.92	22.91339
668.111	26.72362
668.301	25.93908
668.492	24.36842
668.682	25.11886
668.873	24.55815
669.063	22.41389
669.253	25.48846
669.444	27.58602
669.634	24.23601
669.825	28.80908
670.015	26.85884
670.206	22.87523
670.396	28.28913
670.586	23.94958
670.777	25.62083
670.967	20.47235
671.157	24.21768
671.347	23.11039
671.538	27.79891
671.728	25.81082
671.918	29.09384
672.108	26.23874
672.299	24.31283
672.489	25.08775
672.679	23.28733
672.869	25.53826
673.059	30.03701
673.249	25.55132
673.44	22.30048
673.63	24.07014
673.82	26.90129
674.01	22.6488
674.2	25.70855
674.39	30.78472
674.58	26.99491
674.77	25.49732
674.96	24.40865
675.15	34.3743
675.34	27.42598
675.53	24.99991
675.72	24.29101
675.91	21.42365
676.099	30.26724
676.289	30.72782
676.479	27.79002
676.669	24.13422
676.859	26.37891
677.049	23.37933
677.238	25.20828
677.428	29.62499
677.618	26.32267
677.808	30.16999
677.997	26.87317
678.187	23.8289
678.377	26.09307
678.567	24.38426
678.756	25.02068
678.946	26.18983
679.136	23.29757
679.325	25.00507
679.515	24.14481
679.704	23.92235
679.894	28.28884
680.084	26.58842
680.273	28.81133
680.463	24.35388
680.652	23.87014
680.842	25.64824
681.031	28.07926
681.221	24.20758
681.41	27.18883
681.6	25.44587
681.789	27.02453
681.978	28.52681
682.168	26.40628
682.357	25.96208
682.547	26.76659
682.736	26.3789
682.925	28.59425
683.115	28.68993
683.304	27.38745
683.493	26.11456
683.682	27.08065
683.872	27.08225
684.061	28.88996
684.25	27.78576
684.439	31.54414
684.629	28.73808
684.818	34.98935
685.007	26.23796
685.196	25.88314
685.385	31.02632
685.574	27.4806
685.763	27.83561
685.952	27.79764
686.142	23.79751
686.331	30.16648
686.52	23.28746
686.709	32.38163
686.898	31.80997
687.087	28.76859
687.276	32.09078
687.465	30.41784
687.654	27.09189
687.842	31.11137
688.031	25.1048
688.22	31.38446
688.409	27.93829
688.598	28.05511
688.787	34.21374
688.976	27.75225
689.165	33.03144
689.353	26.81197
689.542	28.58538
689.731	30.86531
689.92	33.47049
690.108	29.71265
690.297	26.96521
690.486	27.99127
690.675	29.84013
690.863	32.07441
691.052	31.59273
691.241	28.60698
691.429	29.03378
691.618	31.78454
691.806	24.89628
691.995	27.04071
692.184	27.96114
692.372	27.31304
692.561	28.62473
692.749	28.87996
692.938	37.99388
693.126	29.75373
693.315	27.667
693.503	31.22997
693.692	31.66027
693.88	31.3814
694.068	34.9899
694.257	29.04498
694.445	31.13591
694.634	23.32805
694.822	31.1757
695.01	31.96867
695.199	34.7309
695.387	32.87755
695.575	32.46338
695.763	28.5255
695.952	27.96596
696.14	24.94853
696.328	27.61786
696.516	28.88707
696.705	30.49238
696.893	29.73586
697.081	24.90197
697.269	32.07351
697.457	26.95706
697.645	26.30118
697.833	32.14709
698.021	27.94964
698.21	28.546
698.398	29.42768
698.586	26.7461
698.774	25.51567
698.962	29.14707
699.15	26.4335
699.338	24.84655
699.526	29.98175
699.714	26.73185
699.901	26.44292
700.089	30.06094
700.277	26.05455
700.465	27.60356
700.653	29.93264
700.841	29.2502
701.029	25.77213
701.217	32.68783
701.404	28.47428
701.592	33.34783
701.78	35.13771
701.968	28.5258
702.155	27.89442
702.343	25.31974
702.531	33.82611
702.718	30.5077
702.906	27.54102
703.094	28.04211
703.281	33.70032
703.469	29.62488
703.657	33.23717
703.844	40.32478
704.032	36.45651
704.219	29.20244
704.407	31.76034
704.595	35.08466
704.782	31.64633
704.97	30.33812
705.157	30.69916
705.345	38.0856
705.532	44.10511
705.719	34.95935
705.907	38.79264
706.094	35.3705
706.282	42.29871
706.469	35.03815
706.656	36.77069
706.844	35.20853
707.031	40.66419
707.218	39.00295
707.406	42.5644
707.593	40.84196
707.78	40.04658
707.968	38.56064
708.155	35.77549
708.342	41.02784
708.529	40.6705
708.716	39.7844
708.904	44.79131
709.091	40.92488
709.278	34.62442
709.465	46.42421
709.652	43.12526
709.839	42.593
710.026	38.08604
710.213	31.97351
710.4	38.00689
710.587	39.64179
710.774	40.05056
710.961	40.99908
711.148	37.55464
711.335	40.68555
711.522	37.25936
711.709	39.70643
711.896	45.46473
712.083	41.44811
712.27	34.90621
712.457	38.54907
712.644	33.04446
712.831	45.1019
713.017	38.78826
713.204	39.84236
713.391	34.83532
713.578	40.25414
713.765	41.98815
713.951	38.28648
714.138	47.3894
714.325	37.19347
714.512	35.03952
714.698	32.129
714.885	40.43702
715.072	34.8465
715.258	34.56623
715.445	31.87861
715.631	38.15303
715.818	24.87356
716.005	31.0607
716.191	35.47143
716.378	32.01684
716.564	36.27085
716.751	29.3556
716.937	31.59369
717.124	36.55592
717.31	29.31041
717.497	40.4311
717.683	29.73125
717.869	41.79338
718.056	31.02417
718.242	34.75625
718.429	31.79262
718.615	29.06839
718.801	33.2586
718.988	37.39881
719.174	35.6119
719.36	31.56327
719.547	37.81726
719.733	34.28048
719.919	35.18678
720.105	35.66209
720.291	33.2961
720.478	33.79652
720.664	32.81459
720.85	31.7525
721.036	46.11592
721.222	40.73688
721.408	33.82598
721.595	41.68166
721.781	40.59902
721.967	38.30046
722.153	41.73635
722.339	36.33569
722.525	35.63502
722.711	29.41036
722.897	28.64043
723.083	32.14311
723.269	37.88426
723.455	47.45297
723.641	52.74379
723.827	34.53156
724.012	36.04462
724.198	34.66249
724.384	41.39383
724.57	36.92728
724.756	28.11403
724.942	26.81516
725.127	39.88926
725.313	41.21127
725.499	40.23387
725.685	43.75918
725.87	37.03227
726.056	31.37884
726.242	42.14178
726.428	27.75621
726.613	38.8644
726.799	33.28939
726.985	30.14374
727.17	28.25037
727.356	44.82728
727.541	30.70052
727.727	34.41505
727.913	38.76256
728.098	33.44269
728.284	38.41043
728.469	30.26058
728.655	31.86667
728.84	40.01399
729.026	39.46396
729.211	38.51794
729.397	37.36042
729.582	39.46003
729.767	36.09055
729.953	37.34515
730.138	41.94002
730.323	26.37126
730.509	31.25737
730.694	44.07023
730.879	38.72384
731.065	35.90368
731.25	47.55455
731.435	39.29128
731.621	29.37336
731.806	33.25572
731.991	36.50802
732.176	29.18248
732.361	43.86545
732.547	37.23966
732.732	29.50085
732.917	47.40856
733.102	30.62467
733.287	32.81904
733.472	35.42517
733.657	36.02383
733.842	29.37183
734.027	32.84282
734.212	34.56785
734.397	32.52024
734.582	35.86156
734.767	40.65687
734.952	43.29312
735.137	24.55915
735.322	42.63171
735.507	38.74967
735.692	36.11125
735.877	46.87702
736.062	44.97113
736.247	38.70704
736.431	35.33705
736.616	42.55759
736.801	38.03957
736.986	35.18602
737.171	31.35801
737.355	30.40147
737.54	43.25259
737.725	37.23766
737.909	51.02826
738.094	34.28656
738.279	40.8804
738.463	34.96222
738.648	39.98556
738.833	38.67906
739.017	48.65205
739.202	34.74924
739.386	34.99151
739.571	31.40306
739.756	40.99817
739.94	35.89606
740.125	39.94388
740.309	33.03271
740.494	41.48654
740.678	37.97291
740.863	39.56554
741.047	37.49633
741.231	44.39968
741.416	33.77133
741.6	45.86439
741.785	33.1722
741.969	42.33695
742.153	44.84641
742.338	27.50295
742.522	37.87125
742.706	42.06956
742.89	30.89465
743.075	37.35446
743.259	44.65138
743.443	43.33935
743.627	44.94562
743.812	50.80411
743.996	28.90751
744.18	36.49216
744.364	35.59246
744.548	52.27162
744.732	35.72895
744.916	42.64016
745.1	41.42433
745.285	35.94154
745.469	41.31271
745.653	46.72876
745.837	31.62072
746.021	52.34057
746.205	45.35319
746.389	38.93747
746.573	37.9659
746.757	47.22454
746.94	36.83349
747.124	45.80684
747.308	31.68736
747.492	45.0992
747.676	33.43516
747.86	54.6624
748.044	35.25197
748.227	30.03329
748.411	61.43081
748.595	39.35132
748.779	34.05122
748.963	41.17822
749.146	38.3423
749.33	33.07332
749.514	32.70787
749.697	45.48442
749.881	35.14504
750.065	32.99039
750.248	39.63898
750.432	54.04843
750.616	39.03596
750.799	32.26203
750.983	54.98252
751.166	53.53288
751.35	30.25259
751.533	42.68051
751.717	49.87354
751.9	47.89192
752.084	36.5636
752.267	33.60393
752.451	35.88673
752.634	39.82396
752.818	43.82585
753.001	44.65033
753.184	47.25461
753.368	42.77745
753.551	20.99744
753.734	33.7592
753.918	54.95654
754.101	34.51439
754.284	43.08159
754.467	36.40722
754.651	35.31314
754.834	33.28345
755.017	46.28462
755.2	46.95734
755.384	33.29445
755.567	44.58731
755.75	44.48146
755.933	37.56738
756.116	44.82831
756.299	36.5924
756.482	34.09806
756.665	41.76311
756.848	37.88591
757.032	41.00928
757.215	30.4803
757.398	34.46169
757.581	34.42306
757.764	59.01777
757.947	38.73834
758.129	46.06906
758.312	23.10128
758.495	37.68944
758.678	39.04228
758.861	36.98165
759.044	51.58535
759.227	34.4894
759.41	34.23983
759.592	45.2483
759.775	37.95123
759.958	45.58725
760.141	31.8778
760.324	57.41894
760.506	50.54084
760.689	46.59387
760.872	55.71464
761.054	42.57232
761.237	38.66003
761.42	41.82157
761.602	45.83429
761.785	43.51487
761.968	49.16783
762.15	53.09829
762.333	39.19532
762.515	43.87871
762.698	38.27772
762.88	47.37988
763.063	43.6343
763.245	48.55808
763.428	35.85994
763.61	37.74482
763.793	33.18392
763.975	43.34414
764.158	38.56959
764.34	37.01314
764.522	34.48498
764.705	38.85912
764.887	49.70193
765.069	30.53416
765.252	43.81448
765.434	43.59287
765.616	40.99889
765.799	35.5025
765.981	44.51408
766.163	36.05726
766.345	49.43295
766.528	36.5371
766.71	28.5005
766.892	42.50971
767.074	49.45902
767.256	37.5881
767.438	53.12969
767.62	41.60013
767.802	57.09075
767.985	45.17524
768.167	52.99768
768.349	36.66263
768.531	44.67535
768.713	43.74512
768.895	46.79069
769.077	42.70283
769.259	61.26062
769.441	78.05643
769.623	47.26575
769.804	54.81551
769.986	51.25274
770.168	59.80036
770.35	70.36996
770.532	55.97617
770.714	59.98983
770.896	58.3383
771.077	34.3649
771.259	62.49588
771.441	54.00603
771.623	65.28145
771.804	75.82152
771.986	36.51496
772.168	46.80836
772.35	61.328
772.531	79.10164
772.713	52.73541
772.894	67.76321
773.076	53.82036
773.258	47.83715
773.439	67.76284
773.621	72.58636
773.802	42.35943
773.984	47.47072
774.166	56.63361
774.347	72.41299
774.529	63.82769
774.71	33.04841
774.891	50.98177
775.073	48.02134
775.254	68.38143
775.436	45.84988
775.617	80.49164
775.799	49.2867
775.98	67.92297
776.161	74.40663
776.343	77.26367
776.524	53.05121
776.705	52.10855
776.886	33.25405
777.068	55.0122
777.249	105.59106
777.43	76.54488
777.611	41.22196
777.793	48.79378
777.974	75.50681
778.155	47.11703
778.336	40.0203
778.517	84.60587
778.698	44.61885
778.879	34.95846
779.061	26.7688
779.242	59.70008
779.423	60.77533
779.604	48.99361
779.785	51.71235
779.966	56.21068
780.147	68.02742
780.328	66.89366
780.509	87.87312
780.69	66.33924
780.871	47.42932
781.051	39.43371
781.232	55.4564
781.413	55.49484
781.594	51.49177
781.775	49.84579
781.956	46.53836
782.137	32.16189
782.317	49.34146
782.498	55.00466
782.679	55.68224
782.86	58.88334
783.04	47.73939
783.221	57.39215
783.402	76.59166
783.583	53.19658
783.763	65.62664
783.944	48.25257
784.124	39.44827
784.305	77.68134
784.486	62.44028
784.666	53.2281
784.847	37.07717
785.027	98.37887
785.208	49.18656
785.388	46.50704
785.569	48.09208
785.749	51.59176
785.93	50.31263
786.11	38.125
786.291	61.58181
786.471	55.82779
786.652	66.28197
786.832	52.78597
787.012	57.14921
787.193	42.53494
787.373	56.79175
787.553	51.07183
787.734	58.63899
787.914	50.23844
788.094	67.27778
788.275	59.35055
788.455	50.7824
788.635	40.84793
788.815	57.37262
788.995	43.96636
789.176	36.64962
789.356	46.14946
789.536	51.18254
789.716	60.428
789.896	46.42461
790.076	47.85748
790.256	58.61853
790.436	30.53625
790.616	42.36284
790.796	57.34745
790.976	48.39374
791.156	44.80315
791.336	61.53779
791.516	57.95825
791.696	50.69062
791.876	39.8456
792.056	55.42388
792.236	65.56525
792.416	63.84264
792.596	59.77972
792.776	59.58392
792.956	64.08298
793.135	76.7136
793.315	42.93152
793.495	68.75534
793.675	63.28445
793.854	64.63926
794.034	66.94677
794.214	42.6533
794.394	65.3054
794.573	71.22996
794.753	56.90958
794.933	44.95339
795.112	57.75624
795.292	68.3199
795.472	76.18988
795.651	40.10902
795.831	52.48154
796.01	51.47586
796.19	52.07265
796.369	54.8035
796.549	59.99971
796.728	51.80943
796.908	39.19845
797.087	40.76385
797.267	51.05826
797.446	41.21307
797.626	59.4631
797.805	59.76378
797.984	46.45077
798.164	65.6088
798.343	43.98854
798.522	57.25367
798.702	56.80938
798.881	41.29501
799.06	51.03932
799.239	33.63729
799.419	44.81879
799.598	77.31019
799.777	59.46055
799.956	70.04897
800.136	49.62876
800.315	43.93874
800.494	60.12955
800.673	69.58093
800.852	63.57079
801.031	70.44178
801.21	61.72787
801.389	50.1304
801.568	55.91542
801.747	82.86984
801.926	56.11904
802.105	74.79201
802.284	51.26635
802.463	76.3377
802.642	59.09174
802.821	57.08204
803	74.16719
803.179	66.85325
803.358	68.68043
803.537	47.04566
803.716	55.22887
803.895	54.19978
804.073	53.24333
804.252	47.72899
804.431	62.3526
804.61	51.90018
804.789	67.95751
804.967	48.12948
805.146	52.98895
805.325	85.57315
805.503	60.33539
805.682	41.15187
805.861	102.37164
806.039	75.18432
806.218	51.49353
806.397	57.47704
806.575	54.36798
806.754	58.88485
806.932	43.85153
807.111	68.40861
807.289	67.54432
807.468	56.89874
807.646	70.00946
807.825	64.65478
808.003	58.86482
808.182	68.89679
808.36	57.71819
808.539	45.25173
808.717	77.28475
808.895	46.98128
809.074	60.76199
809.252	55.87267
809.43	63.66812
809.609	72.19234
809.787	80.21251
809.965	55.9754
810.144	56.60985
810.322	57.22978
810.5	62.75432
810.678	52.95817
810.856	88.40689
811.035	71.80644
811.213	66.85835
811.391	78.85316
811.569	62.51986
811.747	107.62335
811.925	75.54918
812.103	47.02811
812.281	58.12168
812.459	83.43059
812.637	84.35369
812.816	69.04195
812.994	91.31085
813.171	79.77055
813.349	64.03538
813.527	71.72777
813.705	80.39277
813.883	100.31769
814.061	72.18893
814.239	85.29441
814.417	92.55443
814.595	66.23206
814.773	65.70352
814.95	62.48691
815.128	66.05513
815.306	61.88171
815.484	58.26056
815.662	47.47852
815.839	46.50325
816.017	53.11598
816.195	77.39055
816.372	54.8849
816.55	70.83478
816.728	82.17974
816.905	58.13695
817.083	86.49606
817.261	58.1578
817.438	106.19133
817.616	84.54852
817.793	53.33627
817.971	73.95516
818.148	73.28998
818.326	77.89109
818.503	64.86527
818.681	87.24377
818.858	55.81657
819.036	59.50536
819.213	63.36951
819.391	53.16085
819.568	53.07222
819.745	48.25178
819.923	71.48284
820.1	57.10406
820.277	48.91941
820.455	56.10535
820.632	59.28481
820.809	61.53282
820.986	46.78695
821.164	42.46439
821.341	41.47372
821.518	52.18331
821.695	43.84099
821.872	42.44168
822.05	39.7318
822.227	36.50827
822.404	37.17542
822.581	39.18496
822.758	36.63352
822.935	36.12499
823.112	37.97491
823.289	34.89919
823.466	37.48818
823.643	36.0595
823.82	39.57148
823.997	37.30201
824.174	39.36176
824.351	46.66887
824.528	44.6881
824.705	43.31708
824.882	45.89284
825.059	53.98384
825.236	44.6952
825.412	46.70792
825.589	51.61444
825.766	63.42616
825.943	47.87692
826.12	51.82174
826.296	44.95771
826.473	50.32586
826.65	50.11317
826.827	55.35902
827.003	44.3902
827.18	46.85919
827.357	49.43777
827.533	45.39437
827.71	35.05526
827.887	42.07589
828.063	44.80875
828.24	40.69112
828.416	46.36983
828.593	41.77983
828.769	50.99366
828.946	51.61443
829.122	53.98413
829.299	51.85994
829.475	40.42726
829.652	51.84652
829.828	73.93694
830.005	54.22079
830.181	68.60785
830.357	57.18687
830.534	69.17057
830.71	57.85118
830.886	68.62539
831.063	69.60704
831.239	79.74661
831.415	48.90772
831.592	82.22042
831.768	58.83344
831.944	53.34343
832.12	85.33081
832.296	81.76496
832.473	70.99531
832.649	54.26926
832.825	72.91791
833.001	49.98703
833.177	66.31721
833.353	60.77873
833.529	43.89036
833.705	57.48075
833.881	44.87705
834.058	44.15904
834.234	46.51786
834.41	46.19118
834.586	39.50774
834.761	43.51684
834.937	46.10789
835.113	46.83421
835.289	42.66947
835.465	47.20974
835.641	43.28829
835.817	46.54835
835.993	66.43115
836.169	46.69128
836.344	59.27869
836.52	64.25441
836.696	59.07262
836.872	53.60049
837.048	111.54104
837.223	56.20815
837.399	88.89342
837.575	74.72788
837.75	70.20832
837.926	89.97077
838.102	127.86477
838.277	108.17572
838.453	138.71909
838.628	138.45821
838.804	68.8019
838.98	122.02605
839.155	76.12566
839.331	92.35597
839.506	71.9607
839.682	73.57223
839.857	92.71719
840.033	101.31413
840.208	59.36674
840.384	38.5743
840.559	60.75939
840.734	81.83954
840.91	99.34963
841.085	68.1056
841.26	68.97174
841.436	62.41727
841.611	62.07499
841.786	80.78487
841.962	108.4213
842.137	75.2192
842.312	58.21058
842.487	68.53865
842.663	61.2122
842.838	70.00509
843.013	180.0609
843.188	94.22009
843.363	107.85113
843.538	153.80726
843.714	154.69607
843.889	155.56466
844.064	163.57581
844.239	140.59307
844.414	157.6387
844.589	110.52105
844.764	193.01298
844.939	184.21595
845.114	197.00479
845.289	188.40369
845.464	250.7246
845.639	175.19647
845.814	108.06877
845.989	111.24668
846.163	141.27455
846.338	140.15422
846.513	185.48599
846.688	130.53087
846.863	131.69056
847.038	122.64185
847.212	138.01288
847.387	139.98259
847.562	143.06922
847.737	175.14903
847.911	82.63554
848.086	91.73368
848.261	295.75844
848.435	128.55129
848.61	187.44493
848.785	106.06262
848.959	183.36436
849.134	243.4268
849.308	253.51508
849.483	144.58098
849.658	214.04216
849.832	128.85425
850.007	115.7073
850.181	274.28999
850.356	119.86858
850.53	258.25915
850.705	103.43486
850.879	69.3776
851.053	140.1696
851.228	124.92308
851.402	154.95737
851.577	194.92742
851.751	214.34548
851.925	150.55771
852.099	85.51101
852.274	109.91682
852.448	138.85906
852.622	176.95848
852.797	141.71167
852.971	132.87101
853.145	144.14777
853.319	381.64097
853.493	210.65139
853.668	123.69793
853.842	251.14242
854.016	205.24028
854.19	236.41556
854.364	152.87155
854.538	160.12097
854.712	209.64431
854.886	139.15635
855.06	130.08147
855.234	67.39994
855.408	224.03905
855.582	192.18935
855.756	196.23669
855.93	250.17134
856.104	174.70469
856.278	196.13425
856.452	150.91661
856.626	191.99617
856.8	287.93879
856.973	176.7854
857.147	167.62191
857.321	168.59944
857.495	211.05811
857.669	150.16343
857.842	133.28252
858.016	204.94626
858.19	125.24666
858.364	323.54908
858.537	132.99697
858.711	154.80501
858.885	137.62601
859.058	125.39051
859.232	77.91337
859.405	92.86186
859.579	199.44099
859.753	168.92439
859.926	118.46275
860.1	95.25054
860.273	151.16577
860.447	238.51713
860.62	132.8957
860.794	272.83567
860.967	168.46934
861.141	209.24136
861.314	287.80908
861.487	187.6005
861.661	236.51524
861.834	229.87556
862.008	198.63197
862.181	151.67376
862.354	166.31026
862.528	176.40191
862.701	127.91556
862.874	93.32318
863.047	139.59128
863.221	140.64087
863.394	84.43936
863.567	233.44876
863.74	71.07303
863.913	197.41103
864.087	171.62587
864.26	202.04134
864.433	154.71937
864.606	262.40555
864.779	158.84568
864.952	85.88319
865.125	125.06546
865.298	148.53349
865.471	163.14688
865.644	284.86674
865.817	239.17597
865.99	198.14643
866.163	226.50414
866.336	133.10801
866.509	149.7943
866.682	141.14525
866.855	217.03558
867.028	108.26319
867.2	191.03588
867.373	80.80182
867.546	170.14685
867.719	289.79311
867.892	196.76493
868.064	120.61569
868.237	180.22059
868.41	156.81508
868.583	104.84924
868.755	108.30531
868.928	160.80933
869.101	298.70167
869.273	219.57531
869.446	197.03104
869.619	221.03431
869.791	147.56578
869.964	219.80042
870.136	202.8875
870.309	171.07964
870.481	172.47315
870.654	98.82268
870.826	169.98427
870.999	142.46312
871.171	205.91839
871.344	135.35691
871.516	160.32292
871.689	121.4931
871.861	169.3569
872.033	125.18237
872.206	144.01513
872.378	214.89974
872.55	146.27091
872.723	98.93445
872.895	147.35503
873.067	220.75056
873.24	236.34847
873.412	132.96279
873.584	144.66284
873.756	136.26185
873.928	185.65947
874.101	180.95941
874.273	192.47238
874.445	81.6122
874.617	108.79887
874.789	171.92886
874.961	144.65603
875.133	187.55979
875.305	160.49411
875.477	114.83809
875.649	99.74463
875.821	120.81107
875.993	252.88841
876.165	111.6973
876.337	180.4462
876.509	138.68359
876.681	172.1863
876.853	173.75138
877.025	173.88883
877.197	118.74951
877.369	121.63903
877.541	209.37967
877.712	79.47352
877.884	112.9125
878.056	199.17591
878.228	115.48882
878.4	185.04517
878.571	116.32335
878.743	91.88348
878.915	170.7134
879.086	110.51889
879.258	131.14734
879.43	121.43923
879.601	112.20627
879.773	114.21558
879.945	46.84982
880.116	62.45376
880.288	48.64335
880.459	51.44051
880.631	45.994
880.802	50.29428
880.974	48.81804
881.145	41.11266
881.317	48.14905
881.488	41.72324
881.66	44.67925
881.831	42.44006
882.002	48.17162
882.174	42.29088
882.345	47.91032
882.517	37.81461
882.688	51.23033
882.859	47.79764
883.03	61.57668
883.202	58.66719
883.373	57.21082
883.544	56.15571
883.715	79.23771
883.887	69.83845
884.058	65.64458
884.229	83.34314
884.4	83.92648
884.571	91.77529
884.742	86.01383
884.914	92.02523
885.085	113.52482
885.256	136.23719
885.427	118.34663
885.598	134.06402
885.769	140.95873
885.94	139.63968
886.111	102.50048
886.282	156.64269
886.453	131.28551
886.624	102.34796
886.795	147.73542
886.966	130.71352
887.136	160.76959
887.307	122.48667
887.478	188.55804
887.649	172.86867
887.82	178.37844
887.991	144.63966
888.161	191.19977
888.332	186.86804
888.503	106.57638
888.674	238.96554
888.844	247.48874
889.015	202.10637
889.186	111.36255
889.356	236.47737
889.527	114.04894
889.698	380.20664
889.868	147.80802
890.039	176.39699
890.209	161.03607
890.38	209.02362
890.551	176.24777
890.721	245.72408
890.892	208.91058
891.062	148.04542
891.233	182.85922
891.403	151.48419
891.574	120.86424
891.744	154.87138
891.914	195.2592
892.085	167.70586
892.255	77.58076
892.425	240.72438
892.596	197.28745
892.766	183.65954
892.936	251.46774
893.107	210.64114
893.277	133.30504
893.447	105.46413
893.618	85.22162
893.788	145.04698
893.958	84.59049
894.128	91.36195
894.298	96.94535
894.468	124.72127
894.639	69.32143
894.809	59.41787
894.979	75.27877
895.149	84.11913
895.319	72.59651
895.489	89.93615
895.659	107.6779
895.829	82.036
895.999	84.13881
896.169	68.27179
896.339	79.94626
896.509	141.51332
896.679	161.71753
896.849	153.7503
897.019	205.71613
897.189	163.36315
897.358	151.18233
897.528	212.54118
897.698	98.57294
897.868	192.06162
898.038	302.08182
898.208	292.52445
898.377	124.29662
898.547	296.33387
898.717	465.47849
898.886	203.62485
899.056	296.83259
899.226	427.94262
899.395	282.56674
899.565	331.98226
899.735	233.93328
899.904	364.37267
900.074	306.6661
900.244	162.80903
900.413	530.59996
900.583	152.80631
900.752	233.22445
900.922	349.70799
901.091	60.40986
901.261	298.78251
901.43	281.68472
901.599	289.17769
901.769	595.69873
901.938	328.73242
902.108	324.08599
902.277	396.34923
902.446	123.61273
902.616	142.72895
902.785	201.70693
902.954	315.14758
903.124	219.24959
903.293	178.82812
903.462	115.16713
903.631	140.56679
903.801	109.59509
903.97	72.66541
904.139	105.49997
904.308	82.24522
904.477	71.85599
904.646	55.839
904.816	70.49605
904.985	91.2477
905.154	126.49126
