Data from WindowProjectSample3_Transmission__10__00010.txt Node

Date: Sun May 04 09:49:45 EDT 2025
User: jessi
Spectrometer: SR400872
Trigger mode: 0
Integration Time (sec): 5.000070E-1
Scans to average: 10
Electric dark correction enabled: true
Nonlinearity correction enabled: true
Boxcar width: 0
XAxis mode: Wavelengths
Number of Pixels in Spectrum: 3648
>>>>>Begin Spectral Data<<<<<
184.909	-5683.06068
185.132	10714.42889
185.355	-8225.47975
185.578	-55122.06478
185.801	4188.92866
186.024	-134640.30573
186.247	-758.74976
186.47	1357.84055
186.693	1028.86659
186.916	-510.96565
187.139	-2481761.41039
187.362	-2627.35681
187.585	8603.16992
187.808	1928.3938
188.031	-55.06394
188.254	4992.43688
188.476	-1530.79405
188.699	2541.69826
188.922	509.08935
189.145	-5888.40069
189.368	-4703.49396
189.591	1617.04934
189.813	-142458.24302
190.036	8830.44288
190.259	1561.07172
190.482	5515.6627
190.705	16069.73063
190.927	18758.9242
191.15	-4090.39855
191.373	2047.25997
191.595	1541.45834
191.818	17380.93559
192.041	986.42589
192.263	-7890.74773
192.486	-1574.1064
192.709	2787.71291
192.931	-3400.87682
193.154	13417.63453
193.377	2490.25741
193.599	28946.10034
193.822	2204.48507
194.044	2058.1929
194.267	1139.46575
194.489	-132.76574
194.712	3750.37271
194.934	34403.17212
195.157	-582.47004
195.379	11172.00713
195.602	2093.2347
195.824	4728.9756
196.047	6148.12854
196.269	14040.79765
196.492	-11821.68962
196.714	3935.52965
196.936	6937.52921
197.159	11067.93833
197.381	4547.19049
197.604	1765566.88593
197.826	2054.32211
198.048	2161.00201
198.271	9101.96264
198.493	2152.95408
198.715	2688.3017
198.938	8852.05452
199.16	3582.80609
199.382	10131.14592
199.604	9306.55373
199.827	1824.91597
200.049	3175.9203
200.271	20733.6948
200.493	1788.19842
200.715	7608.62965
200.938	7982.01295
201.16	-3618.52297
201.382	31881.64363
201.604	3927.87757
201.826	8333.55281
202.048	4097.40596
202.27	1958.02428
202.492	5984.94378
202.715	19262.20842
202.937	3930.6622
203.159	1477.44929
203.381	2073.87671
203.603	2845.32602
203.825	-1559.72994
204.047	-23316.62206
204.269	3682.94429
204.491	7426.63091
204.713	-1668311.68666
204.935	2262.52735
205.156	3835.56011
205.378	1649.56339
205.6	36935.74844
205.822	4808.37697
206.044	3623.11969
206.266	6058.71895
206.488	1578.4514
206.71	9561.43581
206.932	1393.99414
207.153	28716.99451
207.375	16417.65541
207.597	12535.54386
207.819	38985.31966
208.041	-46124.50821
208.262	1073.65304
208.484	13072.10411
208.706	3915.70266
208.927	2347.89515
209.149	916.66208
209.371	3619.62126
209.593	847.15712
209.814	10103.59284
210.036	-427244.18081
210.258	1705.18122
210.479	1999.67637
210.701	3592.93907
210.922	-5474.15331
211.144	-3144.55244
211.366	5067.05646
211.587	2431.34636
211.809	5746.91534
212.03	-63715.48398
212.252	471.11832
212.473	909.45774
212.695	744.69737
212.916	1382.57222
213.138	663.8516
213.359	5075.0522
213.581	2812.90188
213.802	894.13672
214.024	7248.8223
214.245	-13840.44462
214.466	496.56178
214.688	3808.71084
214.909	10107.75388
215.131	4425.73868
215.352	2339.49531
215.573	11820.37672
215.795	2109.91076
216.016	1940.30031
216.237	-720998.41585
216.459	1926.65888
216.68	5997.22354
216.901	3182.97089
217.122	862.61813
217.344	3102.10935
217.565	7276.48566
217.786	3725.23695
218.007	929.52231
218.228	2209.24226
218.45	-15849.54965
218.671	45519.72573
218.892	19801.784
219.113	1706.38106
219.334	6651.75831
219.555	-8642.05566
219.776	1829.42831
219.997	4138.64237
220.219	1136.99905
220.44	1583.98083
220.661	1671.23466
220.882	5640.70504
221.103	1529.00348
221.324	8074.65218
221.545	3243.01913
221.766	3072.49498
221.987	1571.14916
222.208	967.85912
222.429	2288.88947
222.65	150.4669
222.87	849.98179
223.091	1599.49774
223.312	1046.39426
223.533	2076.24056
223.754	1610.43306
223.975	1762.4627
224.196	1046.47521
224.417	5024.97782
224.637	688.6547
224.858	76.60054
225.079	1147.95817
225.3	617.57286
225.521	2268.67272
225.741	622.98473
225.962	618.22617
226.183	153.17947
226.404	1022.96636
226.624	591.67667
226.845	606.68921
227.066	453.12241
227.286	317.78108
227.507	187.4466
227.728	144.84323
227.948	275.64854
228.169	96.99763
228.389	103.60841
228.61	57.71873
228.831	82.85274
229.051	9.22329
229.272	50.60818
229.492	72.72467
229.713	21.74455
229.933	52.31852
230.154	44.87601
230.374	74.7947
230.595	58.77469
230.815	33.00857
231.036	58.63605
231.256	-7.6583
231.477	101.22155
231.697	54.06765
231.917	61.77921
232.138	87.26318
232.358	160.28516
232.579	155.20357
232.799	28.87315
233.019	130.24059
233.24	163.18564
233.46	55.73084
233.68	90.21512
233.901	64.05334
234.121	45.433
234.341	16.02976
234.561	-2.203
234.782	31.49472
235.002	95.62826
235.222	-2.7294
235.442	90.71846
235.662	45.06814
235.883	87.62198
236.103	80.61563
236.323	56.85418
236.543	47.72847
236.763	62.02218
236.983	61.34013
237.203	64.52519
237.423	87.86279
237.643	130.20611
237.864	113.92061
238.084	34.56755
238.304	36.48229
238.524	68.96875
238.744	60.97298
238.964	101.65732
239.184	88.27286
239.404	93.38388
239.624	45.29464
239.843	83.04209
240.063	49.64218
240.283	33.58967
240.503	36.92236
240.723	34.65181
240.943	19.85507
241.163	28.12755
241.383	21.30083
241.603	10.51301
241.822	12.66239
242.042	8.59477
242.262	12.00321
242.482	13.20036
242.702	14.97366
242.921	5.21355
243.141	11.14601
243.361	9.67375
243.581	14.60503
243.8	11.55647
244.02	8.12374
244.24	14.74057
244.459	14.90366
244.679	27.89895
244.899	19.08272
245.118	20.5333
245.338	18.64564
245.558	21.70209
245.777	11.64859
245.997	14.97295
246.216	14.63953
246.436	8.09315
246.655	6.18489
246.875	4.26663
247.094	8.44436
247.314	3.45016
247.533	5.47776
247.753	6.35336
247.972	5.27691
248.192	1.9756
248.411	3.15237
248.631	5.92887
248.85	7.18682
249.07	5.93314
249.289	9.5862
249.508	7.63707
249.728	11.44896
249.947	11.42763
250.166	13.55124
250.386	7.18749
250.605	10.33054
250.824	17.96135
251.044	12.56863
251.263	36.4264
251.482	19.8293
251.701	17.09717
251.921	0.35093
252.14	6.09396
252.359	6.25008
252.578	14.72853
252.798	6.05388
253.017	13.80912
253.236	7.00019
253.455	9.06996
253.674	17.96193
253.893	9.20545
254.112	11.98531
254.331	19.11205
254.551	14.88894
254.77	8.11761
254.989	20.97006
255.208	16.37432
255.427	22.95118
255.646	20.5332
255.865	30.96836
256.084	13.35254
256.303	15.8694
256.522	19.5196
256.741	3.40706
256.96	5.04496
257.179	12.85477
257.397	16.418
257.616	9.11326
257.835	10.75821
258.054	22.25856
258.273	14.6874
258.492	15.98787
258.711	9.62784
258.93	4.67785
259.148	6.4064
259.367	6.14502
259.586	7.97067
259.805	3.64944
260.023	7.25931
260.242	5.49835
260.461	4.01598
260.68	2.17763
260.898	6.23772
261.117	2.214
261.336	1.13341
261.554	5.82124
261.773	5.77018
261.992	1.14683
262.21	5.75576
262.429	6.88427
262.648	10.63094
262.866	12.42913
263.085	8.32929
263.303	7.49669
263.522	13.18418
263.74	13.42614
263.959	22.86142
264.178	11.52438
264.396	10.34584
264.615	7.97574
264.833	16.73764
265.051	14.71457
265.27	15.71427
265.488	16.23593
265.707	10.28025
265.925	15.96836
266.144	7.50002
266.362	8.65216
266.58	8.78186
266.799	7.4226
267.017	8.8762
267.235	7.75743
267.454	5.07333
267.672	2.80713
267.89	7.14481
268.109	6.91127
268.327	6.66734
268.545	1.28239
268.763	5.71027
268.982	2.69691
269.2	7.38707
269.418	4.33306
269.636	4.02956
269.854	6.97782
270.073	5.19951
270.291	2.88862
270.509	3.21546
270.727	6.67023
270.945	10.67298
271.163	10.5436
271.381	2.83466
271.599	4.42828
271.817	8.08964
272.036	2.60686
272.254	4.57967
272.472	3.99487
272.69	3.67765
272.908	3.813
273.126	6.5571
273.344	7.84922
273.562	3.17456
273.779	3.99585
273.997	5.99711
274.215	6.61793
274.433	4.7689
274.651	7.18872
274.869	7.14868
275.087	4.66785
275.305	6.51569
275.523	3.81864
275.74	4.86805
275.958	8.20254
276.176	12.28583
276.394	3.70641
276.612	4.96564
276.829	4.85809
277.047	4.44661
277.265	4.84224
277.483	5.92826
277.7	6.23252
277.918	5.48908
278.136	9.89748
278.353	4.8041
278.571	2.83955
278.789	7.26693
279.006	1.80864
279.224	4.24196
279.442	7.18696
279.659	5.07679
279.877	3.69328
280.094	8.56907
280.312	1.87617
280.529	5.42233
280.747	1.76778
280.964	4.11893
281.182	8.76462
281.399	4.5581
281.617	5.37027
281.834	3.78711
282.052	3.11743
282.269	4.63275
282.487	3.83487
282.704	3.31827
282.921	3.43636
283.139	5.34142
283.356	6.26805
283.574	5.44713
283.791	2.83366
284.008	7.90989
284.226	4.63221
284.443	5.1188
284.66	6.36491
284.877	4.91655
285.095	3.14148
285.312	2.51312
285.529	1.6843
285.746	1.2965
285.964	3.29648
286.181	2.11985
286.398	2.88553
286.615	4.19903
286.832	3.84073
287.05	1.07881
287.267	3.02321
287.484	3.10556
287.701	4.22106
287.918	4.07204
288.135	4.24344
288.352	1.87262
288.569	2.41221
288.786	3.75672
289.003	2.7787
289.22	4.4007
289.437	2.38188
289.654	4.37948
289.871	4.58128
290.088	4.12171
290.305	3.39323
290.522	2.72215
290.739	3.22332
290.956	4.81422
291.173	5.64889
291.39	5.2208
291.607	3.73962
291.824	2.93291
292.04	1.84359
292.257	4.30819
292.474	4.89926
292.691	3.33817
292.908	1.70505
293.125	2.65925
293.341	1.99281
293.558	7.42306
293.775	3.0491
293.992	3.30139
294.208	1.52453
294.425	2.18014
294.642	2.87556
294.858	4.13107
295.075	1.26623
295.292	3.08595
295.508	3.70796
295.725	5.49002
295.942	2.77647
296.158	2.03231
296.375	3.13748
296.591	2.42433
296.808	2.59909
297.024	3.14898
297.241	3.44894
297.458	3.69199
297.674	0.56212
297.891	3.0671
298.107	2.62924
298.323	1.76441
298.54	4.6474
298.756	2.49293
298.973	1.2414
299.189	4.94299
299.406	2.46822
299.622	4.74606
299.838	4.76648
300.055	4.28917
300.271	1.48771
300.487	2.06849
300.704	2.42602
300.92	1.74425
301.136	6.40617
301.353	5.02943
301.569	3.60667
301.785	3.89391
302.001	4.62376
302.218	4.27423
302.434	4.4514
302.65	1.90317
302.866	2.97622
303.083	6.70292
303.299	6.87621
303.515	3.71076
303.731	4.29236
303.947	1.99418
304.163	2.97224
304.379	4.10463
304.595	4.6009
304.812	2.78421
305.028	2.82781
305.244	3.34631
305.46	4.72905
305.676	5.13265
305.892	5.96624
306.108	4.72436
306.324	3.59669
306.54	6.80546
306.756	4.85997
306.972	4.67
307.187	3.61916
307.403	5.89594
307.619	3.19876
307.835	5.50863
308.051	5.82981
308.267	2.48031
308.483	5.7864
308.699	4.80275
308.914	4.30131
309.13	4.22277
309.346	2.35803
309.562	2.85617
309.778	2.34361
309.993	4.93045
310.209	4.10256
310.425	2.65093
310.641	3.83175
310.856	2.87078
311.072	2.79428
311.288	4.07646
311.503	4.58879
311.719	2.09962
311.935	2.08473
312.15	4.88901
312.366	4.43618
312.581	5.03273
312.797	4.30436
313.013	5.57945
313.228	3.57057
313.444	3.96618
313.659	3.16668
313.875	4.98466
314.09	4.04797
314.306	5.78662
314.521	5.39408
314.737	5.25816
314.952	4.66811
315.168	4.58686
315.383	4.96147
315.599	3.92375
315.814	4.2798
316.029	5.34574
316.245	3.04106
316.46	2.06978
316.675	6.06303
316.891	7.0186
317.106	8.61055
317.321	4.92597
317.537	5.5605
317.752	5.59265
317.967	5.7512
318.183	3.54411
318.398	4.05276
318.613	6.01841
318.828	6.64423
319.043	5.76125
319.259	4.36634
319.474	5.05115
319.689	6.425
319.904	2.28508
320.119	5.96432
320.334	4.7246
320.549	4.32623
320.765	6.24508
320.98	5.04496
321.195	5.26634
321.41	4.78581
321.625	5.77261
321.84	7.23007
322.055	7.04356
322.27	3.9399
322.485	3.49491
322.7	5.32589
322.915	5.96687
323.13	4.1382
323.345	6.95285
323.56	5.89194
323.775	5.89742
323.989	5.44752
324.204	5.37067
324.419	6.28182
324.634	3.41228
324.849	4.81139
325.064	8.21019
325.279	6.39874
325.493	5.62095
325.708	6.183
325.923	4.06561
326.138	4.48865
326.352	7.18577
326.567	6.22289
326.782	4.42662
326.997	4.17543
327.211	6.08795
327.426	5.5455
327.641	4.98629
327.855	3.10575
328.07	6.11277
328.285	7.68963
328.499	4.63743
328.714	5.5477
328.928	5.96796
329.143	5.20786
329.358	6.79275
329.572	6.87828
329.787	7.23564
330.001	8.97616
330.216	3.35173
330.43	7.99411
330.645	7.31622
330.859	6.55947
331.074	4.03771
331.288	5.64536
331.503	7.82199
331.717	3.78337
331.931	5.24144
332.146	5.91299
332.36	8.20585
332.575	5.84971
332.789	5.61803
333.003	5.65761
333.218	6.29126
333.432	4.75435
333.646	6.69538
333.86	7.87762
334.075	7.96438
334.289	4.833
334.503	3.75707
334.717	6.79978
334.932	6.07952
335.146	7.11481
335.36	4.8954
335.574	7.16274
335.788	6.61861
336.003	7.28631
336.217	7.21435
336.431	6.37186
336.645	4.87377
336.859	4.25236
337.073	5.50438
337.287	5.86248
337.501	4.1591
337.715	6.56296
337.929	6.43379
338.143	4.10008
338.357	5.5235
338.571	5.04959
338.785	6.99824
338.999	5.26748
339.213	5.27847
339.427	4.46075
339.641	7.54184
339.855	5.3405
340.069	4.92536
340.283	7.32121
340.497	7.73054
340.711	6.75667
340.924	5.97428
341.138	4.90551
341.352	4.2622
341.566	5.9785
341.78	4.17985
341.993	5.25549
342.207	5.02614
342.421	6.48846
342.635	5.78445
342.848	5.60373
343.062	2.99775
343.276	5.42473
343.49	8.61999
343.703	5.11264
343.917	7.32023
344.131	7.5534
344.344	5.00283
344.558	5.60419
344.771	4.63155
344.985	7.68511
345.199	8.58269
345.412	6.76713
345.626	6.97105
345.839	4.18194
346.053	4.67841
346.266	5.19983
346.48	7.05254
346.693	6.7556
346.907	6.77469
347.12	4.95235
347.334	6.52911
347.547	6.83713
347.76	6.19456
347.974	7.64764
348.187	6.70077
348.401	5.85497
348.614	5.10703
348.827	6.18867
349.041	6.92902
349.254	3.89338
349.467	5.9821
349.681	5.03181
349.894	5.2978
350.107	7.76494
350.32	8.94946
350.534	4.54479
350.747	6.32444
350.96	5.40509
351.173	5.66738
351.386	5.8671
351.6	5.78536
351.813	5.938
352.026	6.27755
352.239	4.86925
352.452	5.94971
352.665	7.85379
352.878	5.85034
353.092	9.08314
353.305	7.34405
353.518	6.70914
353.731	5.13874
353.944	7.46088
354.157	6.07096
354.37	5.95748
354.583	4.99365
354.796	5.00144
355.009	7.94341
355.222	6.70888
355.435	6.44915
355.647	7.97769
355.86	5.69838
356.073	6.72244
356.286	6.12299
356.499	7.78832
356.712	7.58715
356.925	7.43923
357.138	8.05006
357.35	5.79707
357.563	6.3205
357.776	7.0561
357.989	7.00228
358.201	7.53543
358.414	7.38726
358.627	8.44444
358.84	6.75836
359.052	5.6531
359.265	5.86181
359.478	8.00384
359.69	4.00124
359.903	8.01795
360.116	7.97112
360.328	5.23263
360.541	7.91469
360.753	6.52785
360.966	6.72502
361.179	7.01801
361.391	6.94718
361.604	6.42328
361.816	6.92713
362.029	6.94687
362.241	6.3493
362.454	7.18333
362.666	6.32075
362.879	8.10327
363.091	6.92214
363.304	6.65928
363.516	6.76101
363.728	5.87642
363.941	7.77833
364.153	7.32075
364.366	4.93455
364.578	5.8761
364.79	7.62499
365.003	7.45956
365.215	6.63713
365.427	7.73642
365.639	8.30509
365.852	7.49509
366.064	8.93409
366.276	7.0471
366.488	7.66637
366.701	7.00163
366.913	6.78915
367.125	7.17429
367.337	6.55261
367.549	6.59609
367.762	7.10643
367.974	7.13702
368.186	7.21235
368.398	8.34821
368.61	7.78634
368.822	8.00036
369.034	6.75874
369.246	8.29981
369.458	10.25478
369.67	6.19855
369.882	9.35331
370.094	4.89432
370.306	8.82174
370.518	6.93445
370.73	6.79079
370.942	6.81355
371.154	7.31373
371.366	7.12883
371.578	8.19437
371.79	7.27696
372.002	8.76458
372.214	9.88452
372.425	7.41018
372.637	9.37384
372.849	8.29731
373.061	5.33922
373.273	8.03656
373.484	8.10702
373.696	8.50831
373.908	5.09662
374.12	8.60033
374.331	8.41611
374.543	6.66852
374.755	6.46332
374.967	7.5323
375.178	8.88789
375.39	7.35272
375.602	7.68268
375.813	6.17841
376.025	6.85407
376.236	8.0024
376.448	8.37952
376.66	7.59014
376.871	7.67471
377.083	8.71486
377.294	9.7661
377.506	7.63428
377.717	9.725
377.929	8.21986
378.14	7.60657
378.352	8.72954
378.563	8.9642
378.775	9.68217
378.986	7.25932
379.197	8.44705
379.409	7.51433
379.62	8.63811
379.832	8.29571
380.043	7.92041
380.254	8.48409
380.466	7.07321
380.677	11.22251
380.888	10.4612
381.1	11.04628
381.311	10.53498
381.522	8.84562
381.733	11.44845
381.945	8.18739
382.156	8.04419
382.367	8.11247
382.578	11.58598
382.789	11.70596
383.001	7.75286
383.212	10.6379
383.423	10.53944
383.634	9.79127
383.845	9.63542
384.056	8.41856
384.267	8.89821
384.478	8.8186
384.69	7.42062
384.901	9.30463
385.112	9.00204
385.323	10.79863
385.534	9.03006
385.745	9.27219
385.956	9.34687
386.167	8.22524
386.378	9.36251
386.588	8.33975
386.799	8.06792
387.01	7.66113
387.221	9.95796
387.432	9.12134
387.643	10.97039
387.854	8.66098
388.065	8.87343
388.275	9.12176
388.486	8.68854
388.697	9.24639
388.908	8.71616
389.119	10.42425
389.329	10.87948
389.54	9.25688
389.751	9.68215
389.962	10.80162
390.172	9.39754
390.383	9.03061
390.594	8.48234
390.804	8.62254
391.015	8.99836
391.226	9.60857
391.436	10.17854
391.647	9.90281
391.858	10.11189
392.068	7.99208
392.279	8.7374
392.489	10.06637
392.7	10.48412
392.91	8.84046
393.121	8.73815
393.331	10.20749
393.542	11.02073
393.752	10.75006
393.963	10.00747
394.173	10.15685
394.384	10.61038
394.594	9.98282
394.804	8.79338
395.015	10.05026
395.225	10.72645
395.436	8.87153
395.646	10.23216
395.856	9.5005
396.067	8.42826
396.277	11.0534
396.487	10.41488
396.697	10.33482
396.908	10.80865
397.118	10.6424
397.328	10.00999
397.538	10.78872
397.749	9.38063
397.959	11.11642
398.169	10.4983
398.379	8.57765
398.589	10.4168
398.8	10.48183
399.01	10.44973
399.22	9.91936
399.43	12.22579
399.64	10.0607
399.85	10.45045
400.06	10.42662
400.27	9.20918
400.48	10.29497
400.69	11.43932
400.9	9.84868
401.11	9.11943
401.32	11.05724
401.53	9.76536
401.74	11.97487
401.95	10.85275
402.16	10.01359
402.37	10.79179
402.58	9.99447
402.79	10.92469
403	10.94158
403.209	9.74386
403.419	11.65507
403.629	9.94583
403.839	11.63789
404.049	11.49305
404.258	10.26993
404.468	9.97504
404.678	11.41474
404.888	11.83749
405.097	10.4921
405.307	10.53548
405.517	11.39619
405.727	11.35249
405.936	10.36963
406.146	10.97901
406.356	12.10033
406.565	10.6351
406.775	10.31842
406.984	10.50765
407.194	12.84374
407.404	10.9418
407.613	11.33165
407.823	11.6198
408.032	12.21985
408.242	11.82685
408.451	10.39622
408.661	10.86668
408.87	12.68897
409.08	10.44559
409.289	11.30757
409.499	11.28187
409.708	11.01461
409.918	9.02384
410.127	11.40038
410.336	12.67402
410.546	12.05356
410.755	10.66
410.964	10.85542
411.174	10.3273
411.383	11.68008
411.592	11.41071
411.802	10.43738
412.011	11.79385
412.22	11.1894
412.429	12.72713
412.639	12.53729
412.848	12.01491
413.057	13.06174
413.266	12.29137
413.475	11.15275
413.685	12.01864
413.894	12.40825
414.103	12.41698
414.312	11.98553
414.521	11.09812
414.73	11.67171
414.939	13.13972
415.148	12.05855
415.357	11.89622
415.566	11.38201
415.776	11.06886
415.985	11.32762
416.194	12.63047
416.403	13.58441
416.611	10.60053
416.82	11.36021
417.029	12.16816
417.238	11.29641
417.447	11.36176
417.656	11.61705
417.865	11.48789
418.074	12.04249
418.283	12.06679
418.492	12.98361
418.7	12.87059
418.909	13.81648
419.118	12.4085
419.327	12.77873
419.536	12.4854
419.744	12.13858
419.953	13.40661
420.162	13.31104
420.371	12.47092
420.579	13.1495
420.788	14.05016
420.997	14.36114
421.205	14.4165
421.414	14.16246
421.623	14.34237
421.831	13.58864
422.04	14.41411
422.249	13.17116
422.457	13.55973
422.666	12.74677
422.874	13.8708
423.083	13.96071
423.291	14.08847
423.5	13.97284
423.708	14.40709
423.917	15.11141
424.125	14.33093
424.334	14.25642
424.542	16.14187
424.751	15.28323
424.959	14.72523
425.167	14.8735
425.376	14.50883
425.584	13.40946
425.793	13.87478
426.001	12.81028
426.209	14.07333
426.418	12.88565
426.626	12.91133
426.834	12.69921
427.042	13.2233
427.251	12.84392
427.459	14.03834
427.667	13.66679
427.875	12.05173
428.084	12.66897
428.292	14.23124
428.5	13.7225
428.708	12.29801
428.916	12.36105
429.124	13.2594
429.333	13.01632
429.541	13.15225
429.749	13.26507
429.957	13.14425
430.165	15.27772
430.373	11.91919
430.581	13.23315
430.789	14.44283
430.997	13.00717
431.205	12.76416
431.413	13.54378
431.621	12.98471
431.829	13.87516
432.037	13.14196
432.245	13.77798
432.453	13.70572
432.661	13.20225
432.869	14.96697
433.076	12.71935
433.284	13.17974
433.492	14.23312
433.7	14.66699
433.908	13.3765
434.116	13.66079
434.323	13.78368
434.531	13.62239
434.739	14.26823
434.947	14.44125
435.154	14.41647
435.362	13.92349
435.57	13.45361
435.778	13.2376
435.985	14.08911
436.193	13.34592
436.401	14.79265
436.608	13.84118
436.816	13.34883
437.023	15.11809
437.231	15.50771
437.439	13.89308
437.646	14.4646
437.854	14.21318
438.061	14.409
438.269	13.65751
438.476	14.43834
438.684	14.02859
438.891	13.8029
439.099	13.66381
439.306	12.96543
439.514	13.25254
439.721	14.62124
439.929	13.58432
440.136	14.4208
440.343	14.30776
440.551	13.98411
440.758	15.74162
440.965	14.83403
441.173	14.38154
441.38	14.02803
441.587	14.70444
441.795	13.95372
442.002	14.48606
442.209	14.30684
442.416	14.77227
442.624	14.92164
442.831	14.88877
443.038	13.98889
443.245	13.56439
443.452	14.04315
443.66	14.81726
443.867	13.82605
444.074	13.68001
444.281	13.52175
444.488	13.95949
444.695	14.33506
444.902	13.96214
445.109	14.80802
445.316	13.91468
445.523	14.02127
445.73	13.8387
445.937	14.79344
446.144	15.34894
446.351	15.68682
446.558	14.40087
446.765	16.39534
446.972	15.87226
447.179	15.09841
447.386	15.75251
447.593	14.27542
447.8	15.43131
448.007	14.54804
448.214	14.72961
448.42	14.08212
448.627	15.53612
448.834	14.60321
449.041	14.30797
449.248	14.34137
449.454	15.06998
449.661	16.14102
449.868	14.19282
450.075	14.08327
450.281	12.99926
450.488	13.68435
450.695	13.70961
450.901	13.8482
451.108	14.02431
451.315	15.42634
451.521	14.31575
451.728	15.32127
451.935	13.86531
452.141	14.3091
452.348	14.30862
452.554	14.50772
452.761	14.43218
452.967	15.77837
453.174	14.76383
453.38	14.84581
453.587	13.48718
453.793	14.63499
454	15.00159
454.206	16.209
454.413	15.44038
454.619	14.87356
454.825	13.97485
455.032	15.08003
455.238	15.29075
455.445	13.60395
455.651	14.69949
455.857	13.03655
456.064	14.48125
456.27	14.2636
456.476	14.04082
456.682	13.43627
456.889	14.96303
457.095	14.97725
457.301	16.48272
457.507	14.63387
457.714	14.74849
457.92	14.57897
458.126	14.03674
458.332	14.56509
458.538	14.30087
458.744	14.47059
458.951	14.35182
459.157	16.12936
459.363	14.81788
459.569	14.80697
459.775	15.46079
459.981	14.81292
460.187	15.31926
460.393	15.58077
460.599	16.02741
460.805	15.10682
461.011	15.13058
461.217	16.1478
461.423	16.08273
461.629	15.11104
461.835	15.58539
462.041	14.96338
462.247	16.5028
462.453	14.74559
462.658	14.82722
462.864	15.73189
463.07	15.24778
463.276	15.00287
463.482	15.05411
463.688	16.25976
463.893	14.25469
464.099	14.86901
464.305	16.43054
464.511	14.58398
464.716	15.01294
464.922	15.77512
465.128	14.40942
465.333	16.47959
465.539	15.67133
465.745	15.22875
465.95	15.06958
466.156	17.61514
466.362	16.21009
466.567	15.18915
466.773	14.56445
466.978	16.46863
467.184	14.43641
467.389	13.50812
467.595	15.5664
467.8	14.53458
468.006	16.32761
468.211	16.35344
468.417	14.36367
468.622	15.45029
468.828	15.49886
469.033	15.47129
469.239	17.71531
469.444	14.85225
469.649	16.09083
469.855	15.37277
470.06	15.29877
470.266	14.49583
470.471	15.89096
470.676	15.68941
470.881	13.85869
471.087	16.76285
471.292	17.03006
471.497	14.17275
471.703	15.36041
471.908	14.76879
472.113	15.54552
472.318	16.13847
472.523	14.55456
472.729	15.69115
472.934	15.69817
473.139	15.31373
473.344	15.80588
473.549	16.6592
473.754	14.53656
473.959	17.39022
474.164	14.94121
474.369	15.26075
474.575	16.24166
474.78	15.59236
474.985	15.13201
475.19	14.08848
475.395	14.92572
475.6	15.1524
475.804	16.60864
476.009	15.69502
476.214	15.40764
476.419	15.07739
476.624	14.16016
476.829	14.6732
477.034	16.07617
477.239	14.94971
477.444	15.68447
477.648	16.00207
477.853	16.09148
478.058	15.31593
478.263	15.05346
478.468	14.69935
478.672	14.85612
478.877	16.87643
479.082	17.18334
479.287	15.89771
479.491	15.69532
479.696	14.90347
479.901	16.28626
480.105	16.33876
480.31	15.0895
480.515	15.69562
480.719	17.80694
480.924	15.33025
481.128	14.78574
481.333	15.79642
481.538	15.94
481.742	15.39103
481.947	16.00873
482.151	16.73674
482.356	17.95954
482.56	21.18374
482.765	23.74785
482.969	28.23782
483.174	31.53109
483.378	35.85563
483.582	36.70558
483.787	38.70063
483.991	39.08924
484.196	38.97474
484.4	38.11307
484.604	37.17034
484.809	33.66812
485.013	31.02708
485.217	27.49513
485.422	24.58542
485.626	22.56349
485.83	21.79151
486.034	21.43623
486.239	22.55998
486.443	23.4132
486.647	24.25371
486.851	26.02404
487.055	27.7896
487.26	27.88788
487.464	28.99088
487.668	28.44201
487.872	28.71918
488.076	28.92549
488.28	27.18955
488.484	25.21713
488.688	24.29968
488.892	22.92702
489.096	21.19514
489.3	19.56892
489.504	18.22215
489.708	17.69057
489.912	17.38146
490.116	17.23679
490.32	17.35852
490.524	19.29768
490.728	20.57347
490.932	22.03814
491.136	23.09992
491.34	24.40134
491.544	24.78531
491.748	24.39351
491.951	24.23238
492.155	23.3926
492.359	22.46685
492.563	20.1281
492.767	18.58564
492.97	16.76264
493.174	16.08645
493.378	16.35744
493.582	15.98667
493.785	16.41877
493.989	16.64269
494.193	16.32139
494.396	15.96445
494.6	16.77944
494.804	16.02263
495.007	15.63525
495.211	15.68859
495.414	15.90261
495.618	16.41616
495.822	16.91455
496.025	15.9494
496.229	16.75867
496.432	15.61621
496.636	16.08085
496.839	15.96118
497.043	17.30513
497.246	16.26862
497.45	15.9313
497.653	16.14452
497.856	16.32845
498.06	15.47975
498.263	15.86979
498.467	15.84893
498.67	16.99089
498.873	16.59325
499.077	15.99913
499.28	15.92964
499.483	16.47908
499.686	16.9975
499.89	16.19615
500.093	16.7249
500.296	15.73045
500.499	17.53264
500.703	16.00972
500.906	16.51882
501.109	17.5505
501.312	16.12292
501.515	16.00428
501.719	16.52691
501.922	17.1159
502.125	16.27766
502.328	16.13563
502.531	15.13379
502.734	16.37041
502.937	14.68493
503.14	16.2267
503.343	15.46099
503.546	15.99178
503.749	15.4635
503.952	16.67396
504.155	15.56085
504.358	16.82203
504.561	16.30914
504.764	15.31677
504.967	16.70438
505.17	16.13768
505.373	17.77836
505.576	16.29515
505.778	16.8778
505.981	15.52654
506.184	17.41213
506.387	14.95603
506.59	17.76595
506.793	17.22071
506.995	16.5621
507.198	14.72413
507.401	16.70104
507.604	16.47867
507.806	15.36017
508.009	15.63187
508.212	16.69946
508.414	15.79615
508.617	15.80385
508.82	16.30132
509.022	17.49715
509.225	16.45545
509.427	15.16865
509.63	17.54114
509.833	16.17691
510.035	16.03411
510.238	15.22823
510.44	17.26153
510.643	14.77387
510.845	17.98205
511.048	16.55132
511.25	15.9168
511.453	16.38438
511.655	16.70127
511.858	16.03153
512.06	17.09971
512.262	16.40325
512.465	17.15639
512.667	16.01216
512.869	15.30501
513.072	16.71872
513.274	16.94145
513.476	16.89122
513.679	16.97713
513.881	15.62283
514.083	17.53907
514.286	15.7281
514.488	15.76494
514.69	15.46862
514.892	15.17864
515.094	17.01311
515.297	15.70373
515.499	16.48179
515.701	15.42862
515.903	17.73612
516.105	17.71234
516.307	16.88163
516.509	14.82823
516.711	15.32655
516.913	16.15668
517.116	16.2266
517.318	15.9393
517.52	17.11269
517.722	16.70722
517.924	15.3704
518.126	16.73345
518.328	15.96761
518.529	16.80128
518.731	17.93679
518.933	15.94885
519.135	16.4778
519.337	17.52048
519.539	16.91983
519.741	15.20243
519.943	16.24102
520.145	16.06342
520.346	17.07585
520.548	16.18997
520.75	16.91377
520.952	16.10737
521.153	16.94879
521.355	16.7924
521.557	15.59743
521.759	16.36733
521.96	16.45084
522.162	15.40475
522.364	17.18332
522.565	15.7976
522.767	16.92833
522.969	17.26585
523.17	16.90893
523.372	16.56029
523.573	15.99489
523.775	16.44204
523.977	15.4664
524.178	17.58885
524.38	15.83741
524.581	16.97545
524.783	16.00587
524.984	16.85194
525.186	16.29566
525.387	16.75507
525.589	16.50132
525.79	16.13846
525.991	15.94375
526.193	16.697
526.394	15.56782
526.596	16.76259
526.797	16.83164
526.998	16.12961
527.2	16.86541
527.401	19.8875
527.602	21.62772
527.803	25.32537
528.005	26.86643
528.206	28.54274
528.407	29.7897
528.608	29.59813
528.81	29.8312
529.011	28.70811
529.212	29.33236
529.413	26.94274
529.614	24.71269
529.815	22.84165
530.017	20.70434
530.218	18.3761
530.419	16.66102
530.62	16.9586
530.821	17.09243
531.022	15.98416
531.223	17.17281
531.424	17.15285
531.625	16.98576
531.826	16.72563
532.027	16.77829
532.228	18.17287
532.429	18.51958
532.63	19.14555
532.831	20.43712
533.032	20.30737
533.233	21.34264
533.433	20.64298
533.634	20.7251
533.835	19.42324
534.036	18.45694
534.237	17.45876
534.438	16.719
534.638	16.1439
534.839	16.56052
535.04	17.16953
535.241	16.34615
535.441	18.03064
535.642	16.8572
535.843	15.8309
536.043	15.88392
536.244	16.04064
536.445	16.26552
536.645	17.1515
536.846	16.82301
537.047	17.50946
537.247	16.18752
537.448	16.4153
537.648	16.91408
537.849	16.53679
538.049	16.71842
538.25	17.34229
538.451	17.16414
538.651	16.05003
538.851	17.05573
539.052	17.83216
539.252	17.58575
539.453	16.51954
539.653	16.7847
539.854	16.34009
540.054	16.64181
540.254	17.06304
540.455	18.65345
540.655	18.95505
540.855	20.95981
541.056	22.31025
541.256	21.90402
541.456	23.07972
541.657	22.34806
541.857	22.72398
542.057	20.59655
542.257	19.59078
542.458	19.60198
542.658	18.2796
542.858	16.30533
543.058	17.84234
543.258	17.34058
543.458	15.91948
543.659	15.96509
543.859	17.46615
544.059	17.43794
544.259	16.50879
544.459	17.39445
544.659	16.53933
544.859	16.99322
545.059	16.42366
545.259	17.5257
545.459	16.93697
545.659	17.42444
545.859	16.66115
546.059	16.60849
546.259	16.09161
546.459	15.40552
546.659	15.79517
546.859	17.30931
547.059	16.95904
547.258	17.20069
547.458	17.1107
547.658	16.06702
547.858	15.84293
548.058	16.95764
548.258	16.49785
548.457	15.98776
548.657	19.33175
548.857	16.64901
549.057	17.47518
549.256	17.31075
549.456	16.46292
549.656	14.55878
549.855	18.5561
550.055	16.08754
550.255	18.30345
550.454	16.93725
550.654	17.3875
550.853	17.91785
551.053	17.62268
551.253	16.77182
551.452	16.8419
551.652	15.58314
551.851	15.32412
552.051	16.30106
552.25	16.04725
552.45	15.82163
552.649	16.49041
552.849	15.88795
553.048	16.57794
553.248	17.44856
553.447	15.52263
553.646	17.56374
553.846	18.44107
554.045	17.74729
554.244	15.30149
554.444	18.94154
554.643	15.72451
554.842	18.3078
555.042	19.00474
555.241	15.80426
555.44	15.66302
555.64	17.37481
555.839	18.96532
556.038	17.26564
556.237	15.83258
556.436	16.67579
556.636	17.1753
556.835	16.01754
557.034	18.57921
557.233	16.77651
557.432	15.06877
557.631	17.9198
557.83	16.69266
558.029	16.06854
558.228	15.86987
558.427	15.53081
558.626	16.8853
558.825	15.77973
559.024	16.65575
559.223	18.76354
559.422	16.40657
559.621	17.06243
559.82	13.62522
560.019	16.5304
560.218	16.23223
560.417	13.75226
560.616	15.79166
560.815	20.30506
561.014	14.93643
561.212	18.48673
561.411	16.81388
561.61	14.75972
561.809	15.98898
562.008	18.26198
562.206	16.34675
562.405	17.24696
562.604	16.31184
562.803	17.02883
563.001	16.10112
563.2	15.05284
563.399	17.16954
563.597	15.30355
563.796	16.45357
563.995	15.38939
564.193	17.42249
564.392	16.20154
564.59	19.12224
564.789	14.51396
564.988	16.03617
565.186	16.48419
565.385	16.35523
565.583	16.03555
565.782	16.44072
565.98	16.46734
566.179	16.5267
566.377	15.58274
566.575	15.87097
566.774	18.13874
566.972	17.69843
567.171	19.09473
567.369	18.23508
567.567	16.78745
567.766	16.85343
567.964	14.24001
568.162	17.17582
568.361	17.95603
568.559	16.3997
568.757	16.96351
568.956	16.59887
569.154	16.56835
569.352	17.30291
569.55	16.66056
569.748	16.80019
569.947	16.00597
570.145	15.50816
570.343	15.70911
570.541	17.77626
570.739	15.2584
570.937	16.7283
571.135	17.08195
571.333	18.60966
571.532	18.50235
571.73	16.8887
571.928	17.67022
572.126	17.01574
572.324	16.12723
572.522	18.26609
572.72	19.95753
572.918	16.76732
573.116	17.09686
573.313	16.61961
573.511	17.06683
573.709	15.94528
573.907	17.90349
574.105	16.34293
574.303	14.89382
574.501	15.06992
574.699	17.41744
574.896	17.25366
575.094	17.21161
575.292	15.20638
575.49	17.99798
575.688	16.49084
575.885	18.38956
576.083	19.27168
576.281	17.16035
576.478	15.97109
576.676	17.68452
576.874	15.14318
577.071	16.40485
577.269	20.00681
577.467	17.01692
577.664	16.49557
577.862	17.88799
578.059	15.39688
578.257	17.98719
578.455	16.34114
578.652	17.03768
578.85	14.0986
579.047	16.59994
579.245	16.90542
579.442	16.48807
579.64	16.46223
579.837	14.45915
580.034	20.43599
580.232	16.06338
580.429	15.26808
580.627	17.35332
580.824	18.44264
581.021	17.76223
581.219	16.0652
581.416	15.30275
581.613	18.56053
581.811	18.67459
582.008	15.43925
582.205	17.92169
582.402	16.68769
582.6	18.59912
582.797	16.69128
582.994	17.28857
583.191	17.68333
583.388	16.62237
583.586	18.01229
583.783	18.04878
583.98	15.839
584.177	16.83464
584.374	12.88273
584.571	16.51083
584.768	16.51161
584.965	16.17768
585.162	17.29715
585.359	19.05049
585.556	16.88773
585.753	17.11668
585.95	14.82493
586.147	15.33613
586.344	17.50632
586.541	16.63071
586.738	15.09838
586.935	16.38627
587.132	15.50472
587.329	18.27647
587.526	16.75525
587.722	23.53078
587.919	14.71174
588.116	17.48839
588.313	18.51497
588.51	19.97705
588.706	16.39284
588.903	17.69744
589.1	18.14597
589.297	20.6441
589.493	16.74608
589.69	17.41201
589.887	16.18327
590.083	15.34793
590.28	15.80969
590.477	18.39052
590.673	18.11655
590.87	18.83003
591.067	16.30217
591.263	17.44592
591.46	17.08158
591.656	16.2968
591.853	18.32443
592.049	15.57824
592.246	16.30437
592.442	18.80003
592.639	18.34538
592.835	15.4818
593.032	17.99349
593.228	14.92393
593.425	15.10215
593.621	14.51295
593.817	17.37778
594.014	15.83005
594.21	17.18562
594.406	18.1229
594.603	17.87351
594.799	16.19814
594.995	13.604
595.192	18.90441
595.388	16.58161
595.584	16.85785
595.78	15.04698
595.977	20.01001
596.173	19.28453
596.369	16.5775
596.565	15.57801
596.761	15.43561
596.957	18.62812
597.154	16.19323
597.35	16.51352
597.546	16.03871
597.742	17.84922
597.938	17.62276
598.134	15.90743
598.33	17.08736
598.526	19.41305
598.722	17.40309
598.918	19.7977
599.114	17.3623
599.31	15.562
599.506	16.93006
599.702	15.16749
599.898	16.94499
600.094	17.86801
600.29	18.03123
600.485	18.5018
600.681	15.79022
600.877	19.91629
601.073	17.14732
601.269	19.63263
601.465	18.79492
601.66	15.63916
601.856	13.92665
602.052	19.55135
602.248	16.51554
602.443	14.09582
602.639	15.135
602.835	15.5582
603.03	15.67762
603.226	18.52864
603.422	15.86642
603.617	16.76784
603.813	16.38084
604.009	16.2535
604.204	18.40785
604.4	14.84709
604.595	18.45452
604.791	15.57521
604.986	17.31846
605.182	15.91423
605.377	16.61792
605.573	16.39111
605.768	16.75525
605.964	18.31722
606.159	18.15143
606.355	18.91932
606.55	16.29778
606.746	18.92709
606.941	16.92711
607.136	20.49423
607.332	21.77487
607.527	14.8546
607.722	17.14969
607.918	16.71484
608.113	15.8732
608.308	18.19557
608.503	17.95244
608.699	17.52893
608.894	17.68533
609.089	16.02266
609.284	17.40642
609.479	16.6755
609.675	18.28889
609.87	16.481
610.065	18.4199
610.26	18.58874
610.455	18.28787
610.65	16.82484
610.845	17.10379
611.04	18.97388
611.235	17.06346
611.43	16.63148
611.625	15.06984
611.82	19.91736
612.015	15.67271
612.21	19.9889
612.405	14.8417
612.6	20.6634
612.795	19.23149
612.99	18.44637
613.185	15.11001
613.38	15.86811
613.575	17.56835
613.77	22.39421
613.965	14.20419
614.159	16.12911
614.354	19.44664
614.549	19.00141
614.744	18.9648
614.938	15.41739
615.133	14.49084
615.328	19.51356
615.523	19.29092
615.717	22.93748
615.912	15.9274
616.107	17.51087
616.301	16.78524
616.496	16.18207
616.691	20.31166
616.885	18.86952
617.08	23.59388
617.274	19.31116
617.469	21.01713
617.664	18.57398
617.858	16.44844
618.053	18.47253
618.247	17.36676
618.442	13.12903
618.636	20.47055
618.831	16.45266
619.025	16.86463
619.219	22.8008
619.414	11.63108
619.608	17.05763
619.803	16.33202
619.997	22.36478
620.191	19.8798
620.386	18.17115
620.58	17.79257
620.774	14.16537
620.969	14.36592
621.163	18.06296
621.357	15.7783
621.551	16.59426
621.746	17.28674
621.94	17.05504
622.134	24.62821
622.328	21.83132
622.522	14.46229
622.716	19.61415
622.911	20.11928
623.105	19.28031
623.299	18.69453
623.493	24.05068
623.687	15.87639
623.881	16.88822
624.075	18.59888
624.269	20.72131
624.463	14.03827
624.657	14.17677
624.851	18.81507
625.045	19.63784
625.239	19.73095
625.433	17.02163
625.627	20.48712
625.821	16.53869
626.015	16.47796
626.209	18.33417
626.403	15.50478
626.596	18.73735
626.79	19.05228
626.984	15.26788
627.178	18.83977
627.372	18.61018
627.565	19.50992
627.759	14.3791
627.953	15.91055
628.147	18.39574
628.34	19.68046
628.534	22.48901
628.728	17.59389
628.921	19.85117
629.115	19.17385
629.309	19.73804
629.502	19.85142
629.696	17.82032
629.89	17.6544
630.083	18.24056
630.277	18.97362
630.47	21.94379
630.664	17.48931
630.857	14.59211
631.051	19.61857
631.244	20.48122
631.438	20.01034
631.631	15.58906
631.825	21.24891
632.018	19.38024
632.212	22.71244
632.405	20.98868
632.598	16.76237
632.792	18.57448
632.985	12.7766
633.178	17.40819
633.372	17.64598
633.565	17.75061
633.758	21.28818
633.952	15.98386
634.145	15.72874
634.338	18.51212
634.531	16.73253
634.724	16.59807
634.918	17.96318
635.111	17.61323
635.304	17.12482
635.497	23.75164
635.69	18.93715
635.883	21.39834
636.077	15.88337
636.27	19.77138
636.463	18.13646
636.656	18.88427
636.849	17.22118
637.042	19.47074
637.235	21.59268
637.428	20.45063
637.621	19.6761
637.814	22.39749
638.007	22.12893
638.2	22.33098
638.393	23.69817
638.586	15.15385
638.778	16.89989
638.971	19.32921
639.164	22.52961
639.357	19.25635
639.55	22.84849
639.743	21.11413
639.935	20.00282
640.128	23.74063
640.321	20.55259
640.514	19.27852
640.707	24.62518
640.899	20.96006
641.092	14.17293
641.285	39.65251
641.477	12.92679
641.67	25.19446
641.863	22.48127
642.055	19.80461
642.248	19.28282
642.441	17.54186
642.633	20.38782
642.826	22.36501
643.018	22.7767
643.211	24.99457
643.403	23.98141
643.596	25.33693
643.788	25.00496
643.981	18.89039
644.173	22.53358
644.366	18.50704
644.558	15.05728
644.751	22.06341
644.943	15.24067
645.135	23.69266
645.328	24.86405
645.52	21.22865
645.712	22.77149
645.905	28.87177
646.097	16.6158
646.289	20.31742
646.482	26.25309
646.674	17.94959
646.866	23.37505
647.058	21.13341
647.251	16.31917
647.443	18.46919
647.635	19.68235
647.827	15.93159
648.019	16.96248
648.211	19.98202
648.404	19.72912
648.596	24.62803
648.788	20.35566
648.98	20.94592
649.172	20.79446
649.364	21.14523
649.556	14.6754
649.748	28.25061
649.94	16.9386
650.132	21.20321
650.324	16.95306
650.516	18.02994
650.708	23.44029
650.9	15.86989
651.092	18.93385
651.284	15.90096
651.476	17.35557
651.667	22.06125
651.859	24.11554
652.051	20.15277
652.243	20.64371
652.435	19.03347
652.627	21.75772
652.818	21.87696
653.01	15.3882
653.202	17.03239
653.394	18.85038
653.585	22.14597
653.777	34.1027
653.969	24.19494
654.16	24.15759
654.352	17.11233
654.544	19.84629
654.735	23.56262
654.927	21.27886
655.118	24.78116
655.31	22.64924
655.502	24.43107
655.693	18.99638
655.885	22.46583
656.076	24.88487
656.268	21.43343
656.459	24.88816
656.651	25.07415
656.842	19.25509
657.034	18.29577
657.225	23.11538
657.416	24.81477
657.608	24.74943
657.799	20.54315
657.99	23.96522
658.182	18.6572
658.373	18.81502
658.564	23.00458
658.756	21.44273
658.947	20.01159
659.138	17.91041
659.33	19.15777
659.521	18.8289
659.712	20.07624
659.903	19.53606
660.094	19.31541
660.286	15.81202
660.477	26.50203
660.668	22.37879
660.859	20.83208
661.05	16.17784
661.241	22.98447
661.432	23.05781
661.623	20.01098
661.814	18.86445
662.006	16.45737
662.197	21.71547
662.388	25.60168
662.579	22.02356
662.77	26.27803
662.96	30.83832
663.151	24.42478
663.342	15.47075
663.533	22.70482
663.724	21.10114
663.915	27.3834
664.106	21.15303
664.297	28.27992
664.488	24.16314
664.678	19.39755
664.869	24.4855
665.06	26.06639
665.251	22.96261
665.442	23.09521
665.632	17.76739
665.823	28.83153
666.014	11.2991
666.204	24.29962
666.395	27.40586
666.586	32.41576
666.776	24.98698
666.967	28.48645
667.158	22.68252
667.348	27.58386
667.539	18.70972
667.729	24.84018
667.92	19.27542
668.111	26.22552
668.301	23.62885
668.492	20.37095
668.682	22.75335
668.873	21.43849
669.063	18.49409
669.253	22.99317
669.444	26.13659
669.634	22.02948
669.825	29.70629
670.015	26.78169
670.206	19.07453
670.396	30.00808
670.586	22.56624
670.777	24.35011
670.967	14.4727
671.157	21.54785
671.347	20.47301
671.538	28.85744
671.728	23.54577
671.918	30.56462
672.108	26.94019
672.299	22.31249
672.489	24.40531
672.679	19.90441
672.869	25.45639
673.059	30.72552
673.249	25.1651
673.44	18.25744
673.63	21.92638
673.82	26.86329
674.01	19.93904
674.2	24.83657
674.39	35.4501
674.58	26.12556
674.77	23.92363
674.96	23.10087
675.15	39.69394
675.34	28.1857
675.53	22.9937
675.72	21.63981
675.91	18.0891
676.099	31.0105
676.289	31.99791
676.479	27.93807
676.669	21.47305
676.859	25.76928
677.049	19.9175
677.238	23.5171
677.428	30.25401
677.618	24.82145
677.808	28.78838
677.997	25.21617
678.187	19.46105
678.377	22.40475
678.567	21.72244
678.756	21.2265
678.946	22.72852
679.136	17.1169
679.325	19.95503
679.515	19.80841
679.704	18.87125
679.894	25.35507
680.084	24.13343
680.273	27.50739
680.463	20.14595
680.652	20.36393
680.842	23.09986
681.031	27.57645
681.221	19.55011
681.41	26.60098
681.6	22.68126
681.789	26.32015
681.978	29.8586
682.168	24.94279
682.357	24.90493
682.547	27.34244
682.736	25.35814
682.925	29.79436
683.115	29.24433
683.304	28.7835
683.493	26.46463
683.682	26.50289
683.872	25.68202
684.061	29.79856
684.25	26.82336
684.439	32.82813
684.629	27.80275
684.818	40.63895
685.007	25.20502
685.196	24.69614
685.385	32.24413
685.574	27.11786
685.763	27.93892
685.952	26.06263
686.142	19.33951
686.331	32.77062
686.52	17.51075
686.709	32.70527
686.898	32.5953
687.087	28.92151
687.276	32.66327
687.465	30.20081
687.654	24.99225
687.842	31.87735
688.031	21.19366
688.22	31.89984
688.409	27.02736
688.598	27.56045
688.787	38.49723
688.976	27.25167
689.165	35.3096
689.353	25.02667
689.542	28.84848
689.731	29.51424
689.92	36.55564
690.108	32.48359
690.297	25.97971
690.486	27.40875
690.675	30.93058
690.863	36.12518
691.052	35.2748
691.241	29.22261
691.429	28.50654
691.618	34.70082
691.806	21.38053
691.995	26.57278
692.184	27.94904
692.372	25.09595
692.561	29.58614
692.749	27.72337
692.938	41.35029
693.126	30.81742
693.315	25.52056
693.503	31.26822
693.692	31.52444
693.88	34.13406
694.068	39.80199
694.257	27.98507
694.445	29.90516
694.634	17.79765
694.822	33.39747
695.01	35.1467
695.199	35.4168
695.387	36.24366
695.575	34.81762
695.763	28.55942
695.952	25.27122
696.14	20.56136
696.328	25.97818
696.516	28.43027
696.705	30.28317
696.893	29.86817
697.081	18.79138
697.269	30.77269
697.457	22.06352
697.645	21.67641
697.833	29.94176
698.021	22.97312
698.21	24.64267
698.398	26.42469
698.586	21.49359
698.774	21.20391
698.962	25.12186
699.15	22.76242
699.338	20.35391
699.526	29.71281
699.714	24.34313
699.901	25.72415
700.089	32.62675
700.277	24.10352
700.465	27.81471
700.653	32.57825
700.841	30.50822
701.029	23.86739
701.217	35.8949
701.404	28.9157
701.592	36.89007
701.78	38.67678
701.968	26.43435
702.155	28.55401
702.343	21.83749
702.531	37.45935
702.718	30.91094
702.906	27.886
703.094	26.61305
703.281	36.86441
703.469	30.13193
703.657	36.59098
703.844	48.17159
704.032	40.78689
704.219	27.38245
704.407	32.97857
704.595	37.0076
704.782	30.59795
704.97	28.12289
705.157	27.98588
705.345	40.48515
705.532	47.76212
705.719	32.27049
705.907	38.8502
706.094	31.97335
706.282	42.68167
706.469	28.56147
706.656	31.46164
706.844	29.35913
707.031	37.18972
707.218	32.34478
707.406	40.82202
707.593	36.16035
707.78	35.66536
707.968	31.46585
708.155	27.30761
708.342	34.60577
708.529	34.77662
708.716	32.01121
708.904	42.43399
709.091	36.23907
709.278	25.55959
709.465	45.14608
709.652	44.21424
709.839	41.61574
710.026	34.2425
710.213	21.96369
710.4	36.84691
710.587	37.87003
710.774	39.98462
710.961	40.60618
711.148	32.457
711.335	40.69496
711.522	32.28905
711.709	34.21143
711.896	47.25941
712.083	39.40637
712.27	27.54219
712.457	34.52945
712.644	24.91571
712.831	47.05269
713.017	36.04132
713.204	38.98908
713.391	30.06033
713.578	41.46835
713.765	43.7534
713.951	37.52379
714.138	56.33641
714.325	39.31684
714.512	34.92376
714.698	29.8466
714.885	45.32359
715.072	36.45592
715.258	35.73103
715.445	31.02177
715.631	44.52265
715.818	19.48765
716.005	31.79623
716.191	37.99727
716.378	34.53211
716.564	41.61024
716.751	29.12695
716.937	32.35274
717.124	44.82433
717.31	30.91071
717.497	47.29958
717.683	31.02636
717.869	54.17365
718.056	33.43524
718.242	39.51573
718.429	35.15018
718.615	29.71821
718.801	37.26385
718.988	43.47666
719.174	40.55455
719.36	36.41706
719.547	47.76093
719.733	39.73307
719.919	41.33199
720.105	42.43796
720.291	36.9702
720.478	39.69812
720.664	36.84739
720.85	35.97269
721.036	60.86016
721.222	49.89077
721.408	38.93368
721.595	56.1204
721.781	51.55967
721.967	47.63727
722.153	53.31678
722.339	44.33069
722.525	41.93153
722.711	32.02744
722.897	27.64653
723.083	34.77637
723.269	48.36773
723.455	59.74372
723.641	64.33657
723.827	41.75004
724.012	43.7163
724.198	37.48514
724.384	51.38139
724.57	44.61573
724.756	28.67936
724.942	24.63137
725.127	47.21222
725.313	52.05184
725.499	52.34115
725.685	55.1883
725.87	45.68089
726.056	32.62534
726.242	53.43686
726.428	28.26989
726.613	49.78563
726.799	37.84485
726.985	31.44824
727.17	26.51293
727.356	55.03988
727.541	32.0763
727.727	39.69841
727.913	47.98202
728.098	35.44161
728.284	47.87215
728.469	30.60132
728.655	35.23727
728.84	46.48284
729.026	47.54827
729.211	47.55444
729.397	44.06928
729.582	47.1847
729.767	40.19044
729.953	43.06874
730.138	50.19143
730.323	24.48576
730.509	32.26872
730.694	55.44023
730.879	45.41743
731.065	40.61767
731.25	60.16283
731.435	47.88802
731.621	27.61501
731.806	35.29458
731.991	43.08455
732.176	29.89334
732.361	52.38974
732.547	43.27999
732.732	28.48424
732.917	61.23394
733.102	31.15901
733.287	35.19476
733.472	40.93178
733.657	43.56281
733.842	29.20818
734.027	38.21305
734.212	42.3787
734.397	35.44827
734.582	44.63117
734.767	51.62537
734.952	57.94356
735.137	20.36371
735.322	58.18491
735.507	48.17362
735.692	46.14311
735.877	66.58852
736.062	59.74865
736.247	48.61464
736.431	42.62523
736.616	53.95151
736.801	47.28183
736.986	43.81799
737.171	36.05349
737.355	30.29697
737.54	55.52717
737.725	43.98713
737.909	69.95138
738.094	37.31909
738.279	53.27629
738.463	39.73283
738.648	49.71619
738.833	49.10177
739.017	62.60276
739.202	39.87491
739.386	43.58939
739.571	34.84999
739.756	50.32552
739.94	45.20829
740.125	54.21325
740.309	37.79587
740.494	53.66054
740.678	46.90307
740.863	48.86569
741.047	46.71769
741.231	57.9225
741.416	36.35216
741.6	62.13073
741.785	37.13882
741.969	52.45018
742.153	58.70735
742.338	25.43835
742.522	45.00188
742.706	53.9518
742.89	31.65396
743.075	48.43025
743.259	63.80903
743.443	54.21184
743.627	59.53029
743.812	73.0991
743.996	26.214
744.18	43.11172
744.364	41.47132
744.548	75.21981
744.732	44.53815
744.916	57.00638
745.1	52.94234
745.285	42.65778
745.469	52.71878
745.653	67.12631
745.837	31.98872
746.021	74.94558
746.205	62.83986
746.389	47.98684
746.573	43.13464
746.757	64.3608
746.94	42.43644
747.124	60.0706
747.308	34.72906
747.492	61.3987
747.676	40.53625
747.86	75.11265
748.044	41.19352
748.227	28.91625
748.411	90.17113
748.595	48.60128
748.779	34.66683
748.963	55.12892
749.146	50.97668
749.33	37.91103
749.514	35.40082
749.697	61.90883
749.881	40.30212
750.065	37.64657
750.248	50.23024
750.432	78.1365
750.616	47.29859
750.799	34.93914
750.983	72.48863
751.166	81.70586
751.35	31.7226
751.533	56.90455
751.717	65.29536
751.9	67.1096
752.084	43.72628
752.267	36.68109
752.451	42.42802
752.634	50.10526
752.818	56.17686
753.001	59.21032
753.184	61.7464
753.368	54.34162
753.551	13.56638
753.734	41.20234
753.918	71.84847
754.101	39.33924
754.284	58.40691
754.467	43.28306
754.651	41.61691
754.834	38.11471
755.017	60.71111
755.2	63.56363
755.384	38.02168
755.567	59.73271
755.75	61.43068
755.933	47.04295
756.116	51.61998
756.299	40.78253
756.482	40.88415
756.665	53.68078
756.848	47.76296
757.032	54.72736
757.215	32.22804
757.398	40.28518
757.581	37.11554
757.764	85.54694
757.947	49.81503
758.129	65.30016
758.312	17.42861
758.495	46.319
758.678	49.77439
758.861	46.69254
759.044	73.38023
759.227	39.03318
759.41	40.02011
759.592	57.64305
759.775	46.23733
759.958	63.54172
760.141	36.20626
760.324	80.37571
760.506	70.33953
760.689	64.13895
760.872	80.59174
761.054	58.36456
761.237	46.17493
761.42	54.74109
761.602	63.89072
761.785	55.88622
761.968	63.63661
762.15	73.75371
762.333	46.24652
762.515	56.15466
762.698	43.54747
762.88	56.83228
763.063	50.31627
763.245	55.8612
763.428	36.27771
763.61	41.55115
763.793	33.06134
763.975	50.24165
764.158	44.0401
764.34	41.4616
764.522	37.37025
764.705	48.03974
764.887	66.7714
765.069	32.81386
765.252	58.2714
765.434	60.60592
765.616	50.97317
765.799	45.45026
765.981	61.50941
766.163	42.91704
766.345	64.05909
766.528	44.7734
766.71	24.93663
766.892	53.88368
767.074	69.86793
767.256	49.86914
767.438	76.34306
767.62	58.23093
767.802	82.92714
767.985	62.7236
768.167	82.9053
768.349	46.30577
768.531	63.75668
768.713	58.20239
768.895	65.45568
769.077	61.07358
769.259	93.24444
769.441	127.95556
769.623	66.02807
769.804	77.98191
769.986	73.1527
770.168	92.13108
770.35	110.18372
770.532	80.32989
770.714	89.43061
770.896	90.12332
771.077	41.68366
771.259	93.40864
771.441	72.58881
771.623	101.99693
771.804	116.80205
771.986	41.15905
772.168	58.33552
772.35	98.34684
772.531	126.27986
772.713	68.13808
772.894	103.79433
773.076	73.96943
773.258	64.23398
773.439	101.34604
773.621	113.13293
773.802	50.86973
773.984	62.50475
774.166	78.1728
774.347	107.26516
774.529	100.01082
774.71	32.26615
774.891	71.60548
775.073	62.61548
775.254	104.33667
775.436	63.45725
775.617	118.1158
775.799	64.40691
775.98	108.27408
776.161	112.89402
776.343	116.79978
776.524	73.71874
776.705	65.72032
776.886	37.63658
777.068	84.46469
777.249	138.75176
777.43	124.76658
777.611	52.8695
777.793	69.04501
777.974	117.29807
778.155	65.24379
778.336	57.86077
778.517	126.0747
778.698	60.25926
778.879	37.97234
779.061	21.29451
779.242	87.32651
779.423	88.70901
779.604	61.98683
779.785	75.74498
779.966	78.91852
780.147	104.22536
780.328	106.65196
780.509	145.19582
780.69	91.30616
780.871	60.78281
781.051	47.51781
781.232	82.78081
781.413	77.61585
781.594	73.31213
781.775	63.89845
781.956	59.35808
782.137	33.69445
782.317	60.44741
782.498	83.85423
782.679	75.0358
782.86	79.90414
783.04	60.60334
783.221	86.46326
783.402	123.51336
783.583	78.53613
783.763	92.5999
783.944	67.34856
784.124	44.85326
784.305	116.02226
784.486	83.5055
784.666	76.16463
784.847	45.18616
785.027	140.80451
785.208	63.207
785.388	64.02372
785.569	65.03278
785.749	71.79408
785.93	66.58439
786.11	39.87707
786.291	89.21542
786.471	78.48964
786.652	96.47221
786.832	72.45036
787.012	84.09983
787.193	47.34162
787.373	80.50436
787.553	67.68652
787.734	81.01965
787.914	69.62018
788.094	87.98099
788.275	87.26541
788.455	68.06635
788.635	49.16024
788.815	78.84971
788.995	55.19322
789.176	44.05902
789.356	60.87637
789.536	69.00212
789.716	90.49359
789.896	59.14
790.076	62.35122
790.256	79.65282
790.436	29.61267
790.616	58.746
790.796	83.99828
790.976	69.53041
791.156	57.42515
791.336	95.19454
791.516	87.60381
791.696	72.50724
791.876	43.80097
792.056	82.42212
792.236	93.90874
792.416	93.81238
792.596	83.8375
792.776	88.79946
792.956	88.91626
793.135	110.37927
793.315	50.93113
793.495	105.85824
793.675	91.34595
793.854	96.76289
794.034	100.12721
794.214	49.1842
794.394	93.58273
794.573	105.39155
794.753	76.65636
794.933	58.43591
795.112	79.94456
795.292	97.00352
795.472	120.77632
795.651	48.29487
795.831	72.61141
796.01	69.382
796.19	70.10507
796.369	75.20956
796.549	87.20893
796.728	72.07219
796.908	49.81574
797.087	52.62401
797.267	65.03704
797.446	51.49546
797.626	90.45112
797.805	91.49151
797.984	59.82486
798.164	93.96881
798.343	52.7934
798.522	84.58955
798.702	79.51805
798.881	49.18048
799.06	72.68429
799.239	35.77766
799.419	56.77491
799.598	113.86859
799.777	88.76754
799.956	107.488
800.136	66.6418
800.315	61.63742
800.494	87.89525
800.673	103.53974
800.852	91.02702
801.031	102.24994
801.21	91.44257
801.389	69.87751
801.568	75.31177
801.747	122.56661
801.926	80.00138
802.105	119.1178
802.284	65.02245
802.463	118.13069
802.642	86.42692
802.821	79.94665
803	110.29449
803.179	101.21086
803.358	107.60452
803.537	65.25771
803.716	76.42451
803.895	61.39165
804.073	74.34785
804.252	61.74886
804.431	87.06899
804.61	72.00741
804.789	101.35888
804.967	65.33696
805.146	63.41753
805.325	124.33347
805.503	88.96842
805.682	47.2895
805.861	144.84012
806.039	109.69915
806.218	68.37779
806.397	80.41174
806.575	74.99343
806.754	89.29801
806.932	55.90821
807.111	116.97207
807.289	100.9762
807.468	77.50725
807.646	105.67432
807.825	95.79127
808.003	89.81727
808.182	105.12557
808.36	86.71466
808.539	64.87209
808.717	114.77187
808.895	62.99415
809.074	84.6618
809.252	78.41165
809.43	95.02731
809.609	107.00859
809.787	133.07261
809.965	76.37019
810.144	76.0224
810.322	79.10143
810.5	92.6014
810.678	74.72878
810.856	140.81953
811.035	107.71573
811.213	95.50629
811.391	114.7709
811.569	85.11232
811.747	158.86238
811.925	113.85903
812.103	60.6245
812.281	77.29208
812.459	133.98146
812.637	133.4168
812.816	101.92715
812.994	131.41022
813.171	114.0822
813.349	96.16479
813.527	112.41384
813.705	118.2163
813.883	156.08059
814.061	113.41758
814.239	135.94869
814.417	148.06666
814.595	94.33897
814.773	94.88363
814.95	91.56484
815.128	94.49335
815.306	83.62449
815.484	76.57297
815.662	62.88957
815.839	57.38615
816.017	70.88207
816.195	114.15361
816.372	74.30849
816.55	105.22577
816.728	132.01382
816.905	85.25671
817.083	134.40424
817.261	87.74538
817.438	150.86143
817.616	139.81085
817.793	66.72703
817.971	112.34208
818.148	103.47787
818.326	122.61117
818.503	92.69308
818.681	123.01702
818.858	74.19823
819.036	80.85491
819.213	91.99218
819.391	64.69952
819.568	63.0831
819.745	59.79039
819.923	105.28633
820.1	68.85698
820.277	62.12192
820.455	73.29197
820.632	77.90707
820.809	74.10549
820.986	51.72527
821.164	43.75825
821.341	39.22435
821.518	50.55353
821.695	39.08083
821.872	38.03812
822.05	32.95609
822.227	27.96746
822.404	29.80858
822.581	34.83391
822.758	30.0464
822.935	30.62606
823.112	34.92637
823.289	30.42722
823.466	37.14355
823.643	34.86789
823.82	42.05805
823.997	39.86288
824.174	46.82116
824.351	59.41559
824.528	57.64142
824.705	53.10724
824.882	57.7779
825.059	71.89427
825.236	51.83425
825.412	52.91167
825.589	63.54032
825.766	82.76789
825.943	55.21531
826.12	62.34993
826.296	45.40884
826.473	52.22818
826.65	51.8654
826.827	60.9722
827.003	42.82462
827.18	46.76428
827.357	54.25194
827.533	47.7929
827.71	30.97082
827.887	43.65194
828.063	50.99159
828.24	43.95944
828.416	60.5094
828.593	51.89739
828.769	72.71385
828.946	82.52985
829.122	85.46864
829.299	79.33463
829.475	50.3164
829.652	76.66767
829.828	121.43326
830.005	76.91099
830.181	107.81212
830.357	77.18579
830.534	110.20952
830.71	80.72292
830.886	101.28227
831.063	101.97734
831.239	119.69049
831.415	57.31472
831.592	120.11481
831.768	79.49794
831.944	71.97187
832.12	116.19914
832.296	110.55949
832.473	95.8174
832.649	69.66045
832.825	91.16819
833.001	53.56823
833.177	81.1732
833.353	71.38544
833.529	42.64412
833.705	61.48171
833.881	48.43072
834.058	47.47287
834.234	50.24009
834.41	49.93893
834.586	42.74875
834.761	52.74369
834.937	56.80401
835.113	60.73661
835.289	52.94297
835.465	65.79553
835.641	59.74223
835.817	68.81074
835.993	116.79332
836.169	58.87306
836.344	87.95976
836.52	102.16855
836.696	90.19078
836.872	68.94074
837.048	180.59492
837.223	80.71558
837.399	151.11651
837.575	114.65464
837.75	112.81923
837.926	142.00342
838.102	222.25281
838.277	171.88689
838.453	211.56173
838.628	201.53947
838.804	98.82916
838.98	214.86213
839.155	97.25673
839.331	129.47164
839.506	96.07813
839.682	102.314
839.857	122.982
840.033	140.65499
840.208	80.78036
840.384	40.05354
840.559	85.62748
840.734	116.00367
840.91	160.94897
841.085	105.14131
841.26	104.02062
841.436	95.74078
841.611	94.85065
841.786	148.84946
841.962	173.34874
842.137	116.89593
842.312	73.40993
842.487	97.67106
842.663	87.98038
842.838	107.51776
843.013	283.96405
843.188	148.09801
843.363	125.57493
843.538	266.95951
843.714	267.10308
843.889	263.87583
844.064	268.34347
844.239	228.51949
844.414	272.51934
844.589	187.50157
844.764	306.5047
844.939	293.06132
845.114	381.12219
845.289	340.22139
845.464	363.47464
845.639	288.08129
845.814	180.95681
845.989	189.37121
846.163	194.82485
846.338	233.16296
846.513	333.40753
846.688	224.15378
846.863	221.13426
847.038	191.83127
847.212	220.02956
847.387	232.82891
847.562	227.00211
847.737	253.15346
847.911	106.15452
848.086	136.12159
848.261	440.07933
848.435	208.2396
848.61	323.47551
848.785	142.99553
848.959	269.76385
849.134	377.76437
849.308	492.43321
849.483	219.84197
849.658	333.9128
849.832	211.07371
850.007	164.06167
850.181	414.55805
850.356	175.46536
850.53	374.07343
850.705	148.53611
850.879	87.9572
851.053	253.43613
851.228	194.58548
851.402	289.98069
851.577	332.93338
851.751	319.24675
851.925	235.20036
852.099	110.73236
852.274	164.70284
852.448	233.71656
852.622	286.45658
852.797	220.89083
852.971	211.72756
853.145	262.76251
853.319	477.15101
853.493	343.34285
853.668	206.78857
853.842	382.15446
854.016	315.63097
854.19	411.185
854.364	256.3005
854.538	252.81861
854.712	358.07882
854.886	252.21221
855.06	197.55377
855.234	94.04825
855.408	379.5306
855.582	327.86724
855.756	311.36386
855.93	400.40079
856.104	267.74883
856.278	338.59269
856.452	245.56736
856.626	298.09671
856.8	459.89073
856.973	289.62693
857.147	259.67287
857.321	281.96759
857.495	343.78925
857.669	245.75102
857.842	216.56362
858.016	361.33429
858.19	164.50794
858.364	586.09587
858.537	218.02535
858.711	237.74054
858.885	196.81594
859.058	179.00828
859.232	110.60921
859.405	137.34765
859.579	327.96904
859.753	281.65953
859.926	177.79852
860.1	125.50898
860.273	236.47977
860.447	412.03387
860.62	220.93836
860.794	435.82148
860.967	256.16462
861.141	352.62899
861.314	476.15282
861.487	288.38341
861.661	350.09352
861.834	414.67333
862.008	313.78826
862.181	254.53659
862.354	262.91798
862.528	284.81971
862.701	179.97674
862.874	143.41175
863.047	211.91753
863.221	214.72069
863.394	101.32992
863.567	344.34122
863.74	88.38175
863.913	339.49178
864.087	273.97481
864.26	308.91504
864.433	216.9565
864.606	467.41049
864.779	254.2375
864.952	110.55395
865.125	196.0463
865.298	235.32803
865.471	241.13855
865.644	417.92193
865.817	341.59751
865.99	305.43762
866.163	389.14208
866.336	205.74266
866.509	238.49031
866.682	192.41266
866.855	339.34464
867.028	151.56026
867.2	288.01758
867.373	94.42343
867.546	257.9579
867.719	424.72767
867.892	253.66313
868.064	173.16455
868.237	261.71588
868.41	271.38005
868.583	135.05041
868.755	139.17715
868.928	213.31043
869.101	452.38848
869.273	308.58266
869.446	281.53585
869.619	358.70521
869.791	215.17232
869.964	338.43883
870.136	308.17478
870.309	261.93217
870.481	255.20084
870.654	123.61511
870.826	251.39415
870.999	213.73384
871.171	297.63618
871.344	188.66795
871.516	226.88515
871.689	161.84661
871.861	255.53883
872.033	173.58049
872.206	223.04938
872.378	309.63058
872.55	226.85669
872.723	131.18625
872.895	192.39355
873.067	343.69992
873.24	309.41428
873.412	191.5773
873.584	220.20188
873.756	198.87734
873.928	258.66623
874.101	256.80058
874.273	258.28877
874.445	100.89782
874.617	144.74073
874.789	238.40958
874.961	220.04381
875.133	277.28447
875.305	234.21341
875.477	145.12582
875.649	130.27526
875.821	157.47441
875.993	354.86007
876.165	157.2931
876.337	245.37187
876.509	225.10041
876.681	246.06881
876.853	255.85852
877.025	252.70834
877.197	170.44962
877.369	142.41758
877.541	285.01122
877.712	87.03784
877.884	141.66992
878.056	248.60339
878.228	140.10929
878.4	259.7463
878.571	144.2023
878.743	100.08703
878.915	207.49663
879.086	142.65067
879.258	172.97537
879.43	140.82935
879.601	122.62249
879.773	131.72603
879.945	39.35809
880.116	58.99666
880.288	40.65849
880.459	43.38547
880.631	35.20363
880.802	40.42499
880.974	40.02017
881.145	30.91879
881.317	38.32186
881.488	31.97623
881.66	35.03685
881.831	32.15187
882.002	41.91058
882.174	34.03969
882.345	42.99866
882.517	27.95685
882.688	54.49138
882.859	44.9561
883.03	71.59406
883.202	70.94443
883.373	64.046
883.544	66.03101
883.715	101.51349
883.887	88.14079
884.058	75.05749
884.229	100.21764
884.4	103.04454
884.571	122.03316
884.742	95.50255
884.914	106.7867
885.085	139.5322
885.256	184.64918
885.427	156.48514
885.598	169.48449
885.769	172.74791
885.94	177.32181
886.111	125.65447
886.282	212.83064
886.453	148.51122
886.624	120.25648
886.795	204.62323
886.966	164.41912
887.136	214.285
887.307	144.66523
887.478	270.24939
887.649	230.123
887.82	232.77655
887.991	201.06039
888.161	269.04557
888.332	223.66712
888.503	126.2733
888.674	312.70159
888.844	339.48645
889.015	269.52034
889.186	133.9935
889.356	329.87335
889.527	124.55855
889.698	484.97009
889.868	174.48897
890.039	247.87802
890.209	199.07937
890.38	257.90213
890.551	220.24597
890.721	326.34902
890.892	279.04005
891.062	202.51768
891.233	250.31632
891.403	179.28271
891.574	152.99858
891.744	208.38032
891.914	223.79087
892.085	193.99329
892.255	81.19449
892.425	300.84925
892.596	235.50417
892.766	244.06513
892.936	286.56018
893.107	256.73792
893.277	145.90147
893.447	124.17576
893.618	88.3818
893.788	164.16471
893.958	90.16869
894.128	86.11163
894.298	101.69242
894.468	131.85488
894.639	69.75169
894.809	49.89475
894.979	75.21424
895.149	94.07617
895.319	74.22134
895.489	95.37403
895.659	131.78847
895.829	93.67511
895.999	97.8738
896.169	80.81441
896.339	103.57121
896.509	200.02125
896.679	221.62908
896.849	223.81049
897.019	297.24188
897.189	205.36873
897.358	190.69642
897.528	282.04479
897.698	112.29481
897.868	248.92157
898.038	413.18405
898.208	391.40429
898.377	126.95921
898.547	348.1669
898.717	496.29345
898.886	238.98308
899.056	421.15419
899.226	475.01732
899.395	324.09915
899.565	457.54861
899.735	319.77121
899.904	503.14938
900.074	401.42372
900.244	180.65534
900.413	622.14472
900.583	144.38975
900.752	284.68388
900.922	419.84556
901.091	52.43336
901.261	330.51572
901.43	354.29579
901.599	350.14556
901.769	699.17764
901.938	468.33974
902.108	378.75993
902.277	474.56066
902.446	134.45367
902.616	165.2589
902.785	210.87924
902.954	369.74535
903.124	225.47649
903.293	170.49934
903.462	105.77016
903.631	148.59938
903.801	112.53692
903.97	62.37731
904.139	103.7335
904.308	80.04258
904.477	69.17068
904.646	47.93743
904.816	69.41967
904.985	102.63206
905.154	164.23378
