Data from WindowProjectSample_Transmission__77__00077__06564337719600875.txt Node

Date: Mon May 05 18:48:12 EDT 2025
User: jessi
Spectrometer: SR400872
Trigger mode: 0
Integration Time (sec): 5.000010E-1
Scans to average: 20
Electric dark correction enabled: true
Nonlinearity correction enabled: true
Boxcar width: 0
XAxis mode: Wavelengths
Number of Pixels in Spectrum: 3648
>>>>>Begin Spectral Data<<<<<
184.909	21478.50802
185.132	-5242.00771
185.355	-3150.68135
185.578	-18707.16081
185.801	2331.28555
186.024	10524.11476
186.247	-2145.37843
186.47	942.1556
186.693	265.5718
186.916	345.4182
187.139	-3793.73782
187.362	3738.21354
187.585	4142.10586
187.808	3553.86925
188.031	-40.06568
188.254	-56236.47925
188.476	-702.88782
188.699	6326.03587
188.922	578.39047
189.145	-15820.77177
189.368	-621.46136
189.591	-1474.7646
189.813	3310.56173
190.036	-50112.20174
190.259	-835.37966
190.482	-4234.49624
190.705	7395.63033
190.927	-2649.59567
191.15	13591.28758
191.373	3367.28853
191.595	-9088.2737
191.818	-4068.53792
192.041	-5883.40805
192.263	-3501.66094
192.486	-866.41582
192.709	-3945.1487
192.931	8098.46933
193.154	-29625.61711
193.377	-2905.5512
193.599	-2705.27793
193.822	-9650.54492
194.044	-1964.79201
194.267	1308.69687
194.489	300.6781
194.712	-43972.77027
194.934	-32703.67055
195.157	1123.49825
195.379	1352.27791
195.602	-7262.38849
195.824	-1421.37504
196.047	-8489.28516
196.269	2760.21362
196.492	-6510.90829
196.714	29816.72436
196.936	-9120.63496
197.159	-1189.38176
197.381	1128.60773
197.604	491.86462
197.826	12025.30321
198.048	-11223.2692
198.271	-2922.9765
198.493	8044.09826
198.715	2422.90288
198.938	-513.14654
199.16	6710.23251
199.382	-105869.9092
199.604	2710.21825
199.827	-1059.11908
200.049	-3033.85268
200.271	14820.4915
200.493	1217.98164
200.715	-38149.52447
200.938	-6266.0026
201.16	-4337.28383
201.382	21574.71957
201.604	2319.03294
201.826	2346.42635
202.048	-2032.82458
202.27	-1987.84037
202.492	-37147.7395
202.715	2959.12837
202.937	-4852.28383
203.159	-6340.14075
203.381	1511.00965
203.603	6959.14428
203.825	6565.60897
204.047	2304.89651
204.269	-2928.74529
204.491	2337.12768
204.713	5963.82109
204.935	-527537.9768
205.156	1185.44866
205.378	-2892.82746
205.6	1740.63423
205.822	156137.64188
206.044	-1023.64782
206.266	1571.41979
206.488	4781.21529
206.71	-5319.35215
206.932	1106.53027
207.153	12384.8287
207.375	-6905.971
207.597	-38070.12811
207.819	-2850.36662
208.041	2569.34419
208.262	486.16898
208.484	721.3927
208.706	-837.77312
208.927	-759.8848
209.149	548.37206
209.371	-3002.54735
209.593	-282.43801
209.814	-854.31471
210.036	541.1469
210.258	-686.4485
210.479	1850.24729
210.701	1804.36411
210.922	3161.99026
211.144	-4111.56287
211.366	2218.70316
211.587	8128.86001
211.809	-8538.93922
212.03	2422.52074
212.252	421.99305
212.473	2191.27774
212.695	-6836.2184
212.916	2853.32985
213.138	-771.76843
213.359	3713.09228
213.581	5414.32759
213.802	-846.57268
214.024	1125.8675
214.245	2182.137
214.466	2764.12326
214.688	-3239.12377
214.909	-1249.66056
215.131	-1757.47534
215.352	-3238.03762
215.573	15311.83806
215.795	5200.36458
216.016	5575.639
216.237	875.86959
216.459	3657.14272
216.68	1864.03692
216.901	5206.3656
217.122	-3217.62129
217.344	-11860.27739
217.565	3522.38338
217.786	9162.49903
218.007	16183.02317
218.228	-834.63151
218.45	6193.7151
218.671	760.77471
218.892	38068.64811
219.113	1636.29007
219.334	-460.07767
219.555	10248.152
219.776	3163.60765
219.997	21941.13155
220.219	3066.97027
220.44	-11383.28049
220.661	447.29224
220.882	1590.341
221.103	-1197.05684
221.324	2407.69751
221.545	2387.70342
221.766	-9560.42088
221.987	929.65028
222.208	1697.47685
222.429	4423.53612
222.65	208.45021
222.87	20024.06645
223.091	752.41927
223.312	616.29634
223.533	1447.57245
223.754	1520.63549
223.975	1383.25024
224.196	2065.39254
224.417	1403.89392
224.637	570.88546
224.858	-27.85872
225.079	1073.6536
225.3	691.68543
225.521	3834.7189
225.741	471.81818
225.962	535.79206
226.183	133.16498
226.404	708.11238
226.624	443.84976
226.845	679.03203
227.066	416.24421
227.286	257.81862
227.507	130.27662
227.728	118.70878
227.948	242.61172
228.169	75.85876
228.389	85.48747
228.61	49.84848
228.831	64.09416
229.051	1.41088
229.272	40.76771
229.492	58.53557
229.713	13.57297
229.933	39.01917
230.154	34.14728
230.374	54.86788
230.595	39.60518
230.815	24.26515
231.036	38.67023
231.256	-10.76337
231.477	69.75372
231.697	38.66383
231.917	39.99236
232.138	58.78307
232.358	109.98791
232.579	104.06669
232.799	14.74623
233.019	105.58378
233.24	114.00089
233.46	37.26746
233.68	61.6947
233.901	43.47808
234.121	28.9112
234.341	10.31525
234.561	-4.18693
234.782	22.40486
235.002	69.43589
235.222	-5.14468
235.442	64.29485
235.662	35.81552
235.883	61.68709
236.103	51.52423
236.323	34.65244
236.543	28.75072
236.763	42.4579
236.983	44.99464
237.203	43.39941
237.423	64.1166
237.643	91.36571
237.864	74.65755
238.084	19.16574
238.304	26.18898
238.524	40.47715
238.744	38.05324
238.964	76.32462
239.184	64.79517
239.404	67.13828
239.624	36.58048
239.843	59.88223
240.063	37.21931
240.283	22.97115
240.503	25.9671
240.723	25.15809
240.943	13.87621
241.163	19.61333
241.383	14.62294
241.603	8.23697
241.822	9.61709
242.042	6.25555
242.262	8.32796
242.482	9.90323
242.702	10.45855
242.921	2.93096
243.141	6.89733
243.361	6.51526
243.581	9.54294
243.8	7.69645
244.02	5.31662
244.24	9.53269
244.459	9.65971
244.679	18.14299
244.899	11.7489
245.118	13.24715
245.338	12.19633
245.558	14.19785
245.777	8.98415
245.997	10.39686
246.216	10.9416
246.436	6.1325
246.655	4.94769
246.875	2.95594
247.094	6.36101
247.314	2.07909
247.533	3.60447
247.753	4.57822
247.972	3.42985
248.192	1.21835
248.411	1.80193
248.631	3.7788
248.85	4.7109
249.07	3.93352
249.289	6.06199
249.508	4.991
249.728	7.20316
249.947	7.03703
250.166	9.0615
250.386	4.80108
250.605	7.00108
250.824	11.19886
251.044	8.07834
251.263	29.53892
251.482	15.01004
251.701	11.85876
251.921	0.02882
252.14	3.07369
252.359	4.14885
252.578	10.41444
252.798	3.54966
253.017	9.03675
253.236	4.33849
253.455	5.82599
253.674	10.51486
253.893	5.31782
254.112	7.93296
254.331	12.07575
254.551	8.80089
254.77	3.40888
254.989	13.02481
255.208	10.04766
255.427	15.40273
255.646	11.97356
255.865	21.6266
256.084	9.11176
256.303	11.07404
256.522	14.31423
256.741	2.97518
256.96	3.114
257.179	8.21105
257.397	10.98665
257.616	6.02625
257.835	6.15293
258.054	15.62599
258.273	11.03447
258.492	11.2588
258.711	6.96022
258.93	3.15127
259.148	4.9769
259.367	4.66281
259.586	5.64841
259.805	2.6149
260.023	5.30543
260.242	4.05103
260.461	2.72584
260.68	1.38555
260.898	4.53427
261.117	1.36948
261.336	0.91367
261.554	3.5052
261.773	3.50027
261.992	0.80654
262.21	3.37826
262.429	3.46232
262.648	7.3597
262.866	8.63847
263.085	5.78818
263.303	5.01105
263.522	9.17662
263.74	9.02755
263.959	16.0561
264.178	7.27009
264.396	6.87403
264.615	4.87625
264.833	10.89806
265.051	9.55947
265.27	11.16618
265.488	11.42223
265.707	6.42852
265.925	11.21332
266.144	5.04886
266.362	5.69007
266.58	5.72888
266.799	5.07106
267.017	6.23186
267.235	5.38564
267.454	3.52129
267.672	1.70139
267.89	4.26504
268.109	4.53972
268.327	4.36709
268.545	0.86811
268.763	4.26992
268.982	1.45654
269.2	4.32787
269.418	3.11997
269.636	1.94267
269.854	4.81354
270.073	3.39265
270.291	2.07529
270.509	1.88214
270.727	4.37217
270.945	7.36072
271.163	7.3814
271.381	1.32988
271.599	3.52318
271.817	5.45135
272.036	1.79245
272.254	3.3448
272.472	2.43128
272.69	2.48869
272.908	2.51187
273.126	4.60016
273.344	5.33702
273.562	1.9445
273.779	2.7276
273.997	3.95939
274.215	4.31022
274.433	2.86622
274.651	4.68511
274.869	4.92428
275.087	2.83358
275.305	4.10544
275.523	2.59542
275.74	2.97899
275.958	5.50211
276.176	8.40547
276.394	2.78611
276.612	3.35591
276.829	3.46695
277.047	2.82414
277.265	2.9351
277.483	3.56081
277.7	4.29975
277.918	3.46393
278.136	6.39969
278.353	3.10016
278.571	1.87157
278.789	4.46989
279.006	0.80435
279.224	2.97393
279.442	5.27137
279.659	3.51884
279.877	2.59311
280.094	6.04633
280.312	1.25432
280.529	3.4697
280.747	0.86397
280.964	2.79732
281.182	6.09344
281.399	2.87122
281.617	3.84175
281.834	2.42779
282.052	2.00424
282.269	3.27881
282.487	2.47445
282.704	2.12921
282.921	2.22242
283.139	3.43046
283.356	4.04607
283.574	4.09206
283.791	1.93829
284.008	5.74331
284.226	3.02122
284.443	3.34917
284.66	4.45155
284.877	3.6018
285.095	2.16949
285.312	1.72559
285.529	1.00333
285.746	0.82892
285.964	2.06774
286.181	1.37629
286.398	1.93669
286.615	2.72052
286.832	2.69785
287.05	0.50298
287.267	1.88407
287.484	1.90492
287.701	2.66724
287.918	2.73329
288.135	2.75899
288.352	1.2678
288.569	1.43119
288.786	2.53748
289.003	2.10351
289.22	3.29051
289.437	1.79148
289.654	3.00799
289.871	3.14113
290.088	2.92152
290.305	2.30927
290.522	1.80044
290.739	2.05386
290.956	3.21565
291.173	3.76101
291.39	3.58301
291.607	2.4627
291.824	1.71196
292.04	1.2195
292.257	3.01612
292.474	3.29778
292.691	1.96141
292.908	1.02522
293.125	1.66944
293.341	1.29471
293.558	5.07553
293.775	1.96205
293.992	2.07028
294.208	0.89236
294.425	1.33404
294.642	1.86541
294.858	2.92631
295.075	0.62267
295.292	2.03643
295.508	2.45399
295.725	4.22662
295.942	1.8723
296.158	1.4633
296.375	2.21471
296.591	1.68491
296.808	1.85929
297.024	2.10581
297.241	2.48818
297.458	2.58455
297.674	0.40418
297.891	2.05468
298.107	1.72803
298.323	1.2873
298.54	3.44703
298.756	1.53839
298.973	0.91152
299.189	3.49832
299.406	1.62688
299.622	3.17831
299.838	3.22362
300.055	3.08615
300.271	1.1002
300.487	1.49893
300.704	1.75683
300.92	1.19942
301.136	4.80769
301.353	3.03399
301.569	2.27754
301.785	2.76862
302.001	3.20005
302.218	2.6915
302.434	2.90145
302.65	1.36374
302.866	2.10875
303.083	4.73124
303.299	4.54563
303.515	2.57711
303.731	2.98619
303.947	1.36131
304.163	2.06198
304.379	2.79216
304.595	3.02372
304.812	1.99969
305.028	1.89342
305.244	2.40243
305.46	3.32083
305.676	3.56052
305.892	3.91083
306.108	3.27909
306.324	2.38209
306.54	4.51356
306.756	3.37476
306.972	3.14782
307.187	2.56326
307.403	4.13491
307.619	2.33124
307.835	3.9361
308.051	4.20617
308.267	1.83177
308.483	3.88558
308.699	3.37798
308.914	2.80454
309.13	2.72412
309.346	1.6145
309.562	1.94945
309.778	1.65308
309.993	3.29204
310.209	2.96228
310.425	1.83654
310.641	2.69866
310.856	1.99397
311.072	1.91827
311.288	2.66042
311.503	3.03736
311.719	1.31774
311.935	1.29039
312.15	3.38377
312.366	2.91392
312.581	3.3223
312.797	2.91596
313.013	3.62063
313.228	2.22537
313.444	2.60243
313.659	2.27213
313.875	3.528
314.09	2.78585
314.306	4.254
314.521	3.64592
314.737	3.69202
314.952	2.95035
315.168	2.96481
315.383	3.3496
315.599	2.60476
315.814	2.6241
316.029	3.57737
316.245	1.94936
316.46	1.41551
316.675	4.05818
316.891	4.67991
317.106	5.8262
317.321	3.32492
317.537	3.67352
317.752	3.81524
317.967	3.96674
318.183	2.10686
318.398	2.7187
318.613	3.81944
318.828	4.43225
319.043	3.80988
319.259	2.77244
319.474	3.286
319.689	4.20353
319.904	1.52546
320.119	3.95637
320.334	3.39224
320.549	2.89407
320.765	4.07823
320.98	3.39386
321.195	3.66473
321.41	3.06663
321.625	3.85818
321.84	4.87192
322.055	4.82988
322.27	2.48728
322.485	2.1539
322.7	3.47187
322.915	3.96406
323.13	2.51559
323.345	4.8292
323.56	3.90597
323.775	3.86993
323.989	3.55738
324.204	3.47766
324.419	4.24399
324.634	2.20488
324.849	3.16827
325.064	6.44989
325.279	4.20751
325.493	3.67113
325.708	4.06871
325.923	2.48554
326.138	2.91018
326.352	4.81958
326.567	4.19226
326.782	2.91147
326.997	2.73589
327.211	3.8848
327.426	3.64084
327.641	3.09473
327.855	1.9013
328.07	3.84528
328.285	4.99835
328.499	2.82253
328.714	3.60344
328.928	3.84234
329.143	3.24799
329.358	4.45994
329.572	4.2319
329.787	4.5947
330.001	5.86493
330.216	2.36151
330.43	5.28201
330.645	4.83456
330.859	4.39079
331.074	2.80949
331.288	3.67157
331.503	4.89532
331.717	2.58283
331.931	3.6099
332.146	3.82439
332.36	5.32339
332.575	3.8285
332.789	3.73653
333.003	3.84974
333.218	3.96989
333.432	3.12556
333.646	4.56026
333.86	5.18083
334.075	5.13671
334.289	3.21036
334.503	2.65606
334.717	4.02574
334.932	3.89131
335.146	4.55043
335.36	3.1278
335.574	4.18541
335.788	4.06518
336.003	4.48308
336.217	4.16495
336.431	4.14659
336.645	3.19794
336.859	2.654
337.073	3.49859
337.287	4.07848
337.501	2.78302
337.715	4.24199
337.929	4.55397
338.143	2.76655
338.357	3.64887
338.571	3.23602
338.785	4.51839
338.999	3.31296
339.213	3.25381
339.427	2.57549
339.641	5.12983
339.855	3.52529
340.069	3.13615
340.283	4.75453
340.497	5.40608
340.711	4.35666
340.924	3.92943
341.138	3.01822
341.352	2.84965
341.566	3.99405
341.78	2.6048
341.993	3.45004
342.207	3.17911
342.421	4.20151
342.635	3.6825
342.848	3.54323
343.062	2.02708
343.276	3.41929
343.49	5.62254
343.703	3.30092
343.917	4.87719
344.131	4.974
344.344	3.36035
344.558	3.75233
344.771	2.95473
344.985	5.35406
345.199	5.48435
345.412	4.37822
345.626	4.51499
345.839	2.6486
346.053	3.07857
346.266	3.23648
346.48	4.44329
346.693	4.33296
346.907	4.28428
347.12	3.22464
347.334	4.18518
347.547	4.34499
347.76	3.78189
347.974	5.02366
348.187	4.24133
348.401	3.76265
348.614	3.31755
348.827	3.80121
349.041	4.52166
349.254	2.6125
349.467	3.79449
349.681	3.09777
349.894	3.55323
350.107	5.13309
350.32	5.77701
350.534	2.87808
350.747	3.82289
350.96	3.33399
351.173	3.67281
351.386	3.87852
351.6	3.63763
351.813	3.75239
352.026	3.89078
352.239	3.21554
352.452	3.83964
352.665	5.12341
352.878	4.23206
353.092	5.90492
353.305	4.9328
353.518	4.32332
353.731	3.47074
353.944	5.23797
354.157	4.06701
354.37	3.85842
354.583	3.40451
354.796	3.14154
355.009	5.07437
355.222	4.60364
355.435	4.41808
355.647	5.19571
355.86	3.85371
356.073	4.4722
356.286	3.93831
356.499	5.21335
356.712	5.01284
356.925	5.01396
357.138	5.15598
357.35	3.86834
357.563	4.23729
357.776	4.63871
357.989	4.47297
358.201	4.9618
358.414	4.81733
358.627	5.68509
358.84	4.5088
359.052	3.65929
359.265	4.04271
359.478	5.48479
359.69	2.71429
359.903	5.29915
360.116	5.51519
360.328	3.71096
360.541	5.3703
360.753	4.34194
360.966	4.66081
361.179	4.84569
361.391	4.66988
361.604	4.5989
361.816	4.71087
362.029	4.62547
362.241	4.325
362.454	4.70266
362.666	4.15532
362.879	5.25475
363.091	4.55962
363.304	4.42581
363.516	4.65311
363.728	4.08322
363.941	5.07339
364.153	4.91347
364.366	3.44188
364.578	4.18965
364.79	5.15785
365.003	4.96874
365.215	4.4058
365.427	5.38354
365.639	5.67371
365.852	5.08886
366.064	6.57698
366.276	4.85574
366.488	5.2349
366.701	4.94129
366.913	4.83629
367.125	4.98975
367.337	4.33952
367.549	4.61584
367.762	5.1096
367.974	5.0596
368.186	4.73013
368.398	5.70973
368.61	5.53646
368.822	5.60888
369.034	4.8617
369.246	5.83388
369.458	7.44213
369.67	4.60253
369.882	6.59279
370.094	3.99122
370.306	6.58618
370.518	5.14405
370.73	5.0178
370.942	5.05508
371.154	5.39075
371.366	5.31488
371.578	5.84162
371.79	5.31438
372.002	6.39801
372.214	7.1645
372.425	5.37673
372.637	6.75225
372.849	5.869
373.061	4.20444
373.273	5.93625
373.484	5.83391
373.696	6.43776
373.908	4.19141
374.12	6.54598
374.331	6.12625
374.543	5.21069
374.755	5.23708
374.967	5.97204
375.178	6.63601
375.39	5.62717
375.602	6.1037
375.813	4.91928
376.025	5.52659
376.236	6.25487
376.448	6.51373
376.66	6.04841
376.871	6.11605
377.083	7.24145
377.294	7.67763
377.506	6.07476
377.717	7.49504
377.929	6.56996
378.14	6.24757
378.352	6.75218
378.563	6.85183
378.775	7.48531
378.986	5.85849
379.197	6.45511
379.409	5.93426
379.62	7.08829
379.832	6.93862
380.043	6.52531
380.254	6.92499
380.466	5.99006
380.677	8.95042
380.888	8.12807
381.1	8.61934
381.311	8.853
381.522	7.15205
381.733	8.94512
381.945	6.86983
382.156	6.87938
382.367	6.81227
382.578	9.1052
382.789	9.30429
383.001	6.70363
383.212	8.17853
383.423	8.52765
383.634	8.28385
383.845	8.11461
384.056	7.27317
384.267	7.63129
384.478	7.71216
384.69	6.93333
384.901	7.99894
385.112	7.84704
385.323	8.9882
385.534	8.07645
385.745	8.14421
385.956	7.99838
386.167	7.40449
386.378	8.23475
386.588	7.57981
386.799	7.41256
387.01	7.17207
387.221	8.66482
387.432	8.1228
387.643	9.29358
387.854	8.07413
388.065	7.89039
388.275	8.22216
388.486	7.73905
388.697	8.34302
388.908	8.04076
389.119	9.2308
389.329	9.34464
389.54	8.65457
389.751	8.83201
389.962	9.57797
390.172	8.72724
390.383	8.72934
390.594	8.46459
390.804	8.60408
391.015	8.58731
391.226	9.18435
391.436	9.42824
391.647	9.40209
391.858	9.49097
392.068	8.18934
392.279	8.60167
392.489	9.41281
392.7	9.84655
392.91	8.92253
393.121	8.87086
393.331	9.83739
393.542	10.28531
393.752	10.18104
393.963	9.99065
394.173	9.91078
394.384	9.98279
394.594	9.82097
394.804	8.98393
395.015	9.8304
395.225	10.11179
395.436	9.1516
395.646	9.9751
395.856	9.53374
396.067	8.79935
396.277	10.40836
396.487	10.06681
396.697	10.23008
396.908	10.3623
397.118	10.43472
397.328	10.1738
397.538	10.85143
397.749	9.69488
397.959	10.70116
398.169	10.6772
398.379	9.48895
398.589	10.72193
398.8	10.60598
399.01	10.57138
399.22	10.22357
399.43	11.75438
399.64	10.64117
399.85	10.91782
400.06	10.72742
400.27	10.05412
400.48	10.61367
400.69	11.37227
400.9	10.36021
401.11	9.94868
401.32	11.24615
401.53	10.34703
401.74	11.97499
401.95	11.2928
402.16	10.71765
402.37	11.32387
402.58	10.77644
402.79	11.543
403	12.0754
403.209	10.93732
403.419	12.13537
403.629	10.92029
403.839	12.18509
404.049	12.2173
404.258	11.52948
404.468	11.09949
404.678	11.89978
404.888	12.44793
405.097	11.46188
405.307	11.51378
405.517	12.24475
405.727	11.97382
405.936	11.524
406.146	11.92937
406.356	12.62433
406.565	11.81289
406.775	11.44757
406.984	11.36381
407.194	12.96823
407.404	11.76216
407.613	12.1806
407.823	12.36266
408.032	12.6385
408.242	12.5828
408.451	11.79541
408.661	12.05366
408.87	13.31804
409.08	11.7772
409.289	12.54361
409.499	12.65588
409.708	12.49561
409.918	11.20122
410.127	12.68628
410.336	13.49545
410.546	13.00251
410.755	12.25674
410.964	12.46549
411.174	11.75367
411.383	12.82406
411.592	12.68385
411.802	11.9218
412.011	12.93964
412.22	12.49647
412.429	13.68162
412.639	13.59499
412.848	13.16215
413.057	13.58522
413.266	13.52143
413.475	13.00587
413.685	13.10075
413.894	13.62161
414.103	13.65883
414.312	13.58499
414.521	12.93494
414.73	13.26466
414.939	14.6276
415.148	13.72798
415.357	13.53312
415.566	13.3001
415.776	13.32338
415.985	13.46039
416.194	14.0456
416.403	14.95737
416.611	13.06606
416.82	13.642
417.029	14.05377
417.238	13.65443
417.447	13.52162
417.656	14.02304
417.865	13.66048
418.074	14.06372
418.283	14.18165
418.492	14.83515
418.7	14.61033
418.909	15.74723
419.118	14.91662
419.327	15.30501
419.536	15.31341
419.744	15.51717
419.953	16.9738
420.162	17.42887
420.371	17.09298
420.579	18.03537
420.788	18.79993
420.997	18.90393
421.205	19.41207
421.414	19.11884
421.623	19.2036
421.831	18.71663
422.04	19.18924
422.249	18.09151
422.457	18.45883
422.666	17.49148
422.874	18.27259
423.083	18.51952
423.291	18.62761
423.5	18.63716
423.708	19.29412
423.917	19.73625
424.125	19.31803
424.334	19.30859
424.542	20.78686
424.751	20.2475
424.959	19.68071
425.167	19.52601
425.376	19.31016
425.584	17.71822
425.793	17.44932
426.001	16.30995
426.209	16.1145
426.418	14.9641
426.626	14.35493
426.834	14.29905
427.042	14.61105
427.251	14.27228
427.459	15.07808
427.667	14.53276
427.875	14.04099
428.084	14.49034
428.292	15.4743
428.5	15.10138
428.708	14.26469
428.916	14.44029
429.124	14.99973
429.333	14.80013
429.541	14.8309
429.749	15.04377
429.957	15.04917
430.165	16.60716
430.373	14.232
430.581	15.13362
430.789	15.87531
430.997	14.89317
431.205	14.67622
431.413	15.42355
431.621	15.17788
431.829	15.7569
432.037	15.30411
432.245	15.765
432.453	15.73466
432.661	15.44668
432.869	16.66897
433.076	15.13021
433.284	15.50828
433.492	15.82749
433.7	16.07461
433.908	15.25251
434.116	15.59967
434.323	15.45102
434.531	15.23404
434.739	15.6221
434.947	15.74162
435.154	15.78715
435.362	15.23871
435.57	15.14639
435.778	14.92604
435.985	15.62341
436.193	15.21514
436.401	16.19366
436.608	15.49214
436.816	15.35096
437.023	16.42117
437.231	16.64465
437.439	15.85914
437.646	15.97088
437.854	15.87045
438.061	16.23685
438.269	15.83646
438.476	16.28506
438.684	16.02502
438.891	15.79919
439.099	15.64533
439.306	15.49428
439.514	15.53721
439.721	16.72688
439.929	16.61552
440.136	17.57178
440.343	17.77182
440.551	17.69824
440.758	19.21591
440.965	17.75706
441.173	17.46992
441.38	17.32608
441.587	16.72883
441.795	16.50378
442.002	15.89274
442.209	15.76005
442.416	15.92076
442.624	15.99524
442.831	15.79149
443.038	15.55006
443.245	15.2907
443.452	15.71843
443.66	16.2543
443.867	15.75658
444.074	15.81185
444.281	15.91981
444.488	16.16238
444.695	16.2915
444.902	16.10781
445.109	17.55219
445.316	17.63405
445.523	18.34422
445.73	18.81874
445.937	19.88533
446.144	20.39559
446.351	20.89952
446.558	19.86453
446.765	21.78731
446.972	20.81611
447.179	20.43329
447.386	20.74385
447.593	18.69732
447.8	19.58699
448.007	17.75881
448.214	16.76622
448.42	16.2009
448.627	16.24512
448.834	15.76371
449.041	15.65257
449.248	15.5727
449.454	16.17531
449.661	16.7945
449.868	15.53921
450.075	15.51552
450.281	14.87971
450.488	15.36928
450.695	15.43389
450.901	15.65759
451.108	15.67455
451.315	16.52041
451.521	15.96786
451.728	16.73677
451.935	15.77332
452.141	16.14719
452.348	16.11771
452.554	16.09699
452.761	15.8774
452.967	17.00337
453.174	16.13223
453.38	16.26363
453.587	15.42752
453.793	16.09818
454	16.52403
454.206	17.21328
454.413	16.44579
454.619	16.28494
454.825	15.75331
455.032	16.52261
455.238	16.52821
455.445	15.5053
455.651	16.16447
455.857	15.30516
456.064	15.98187
456.27	15.93664
456.476	16.02062
456.682	15.55054
456.889	16.50087
457.095	16.46247
457.301	17.56663
457.507	16.42311
457.714	16.54918
457.92	16.58038
458.126	16.28633
458.332	16.69512
458.538	16.5346
458.744	16.82864
458.951	16.92124
459.157	19.16989
459.363	18.87773
459.569	19.44316
459.775	19.94927
459.981	19.94931
460.187	20.3313
460.393	20.16048
460.599	20.08411
460.805	18.85056
461.011	17.5648
461.217	17.19057
461.423	16.57649
461.629	15.95476
461.835	16.28039
462.041	15.90277
462.247	16.86027
462.453	15.9693
462.658	15.97336
462.864	16.41829
463.07	16.35619
463.276	16.3947
463.482	16.36801
463.688	17.1138
463.893	16.16322
464.099	16.55426
464.305	17.20376
464.511	16.22628
464.716	16.44327
464.922	16.96094
465.128	15.97504
465.333	17.43808
465.539	16.94067
465.745	16.50255
465.95	16.66647
466.156	17.99643
466.362	17.18296
466.567	16.51773
466.773	16.27182
466.978	17.34859
467.184	16.01838
467.389	15.56361
467.595	16.67358
467.8	16.23084
468.006	17.35563
468.211	17.24182
468.417	15.97165
468.622	16.62902
468.828	16.92968
469.033	16.74456
469.239	18.03843
469.444	16.39197
469.649	17.14193
469.855	16.76516
470.06	16.63162
470.266	16.25364
470.471	17.14921
470.676	16.97203
470.881	15.70997
471.087	17.25945
471.292	18.06199
471.497	16.147
471.703	16.59558
471.908	16.39328
472.113	16.75798
472.318	17.33921
472.523	16.28961
472.729	17.0445
472.934	17.19826
473.139	16.58642
473.344	16.91647
473.549	17.45454
473.754	16.41694
473.959	18.1999
474.164	16.2485
474.369	16.65878
474.575	17.12247
474.78	16.74053
474.985	16.47761
475.19	15.88205
475.395	16.53421
475.6	16.89739
475.804	17.86605
476.009	17.15114
476.214	17.03037
476.419	16.75706
476.624	16.16121
476.829	16.69152
477.034	17.43841
477.239	16.6271
477.444	17.36672
477.648	17.27293
477.853	17.28686
478.058	16.81927
478.263	16.55033
478.468	16.51666
478.672	16.45775
478.877	17.60766
479.082	17.74852
479.287	17.17803
479.491	16.87499
479.696	16.5464
479.901	17.39894
480.105	17.5301
480.31	16.78793
480.515	17.28479
480.719	18.38599
480.924	17.07224
481.128	16.77185
481.333	17.58316
481.538	17.58291
481.742	18.38943
481.947	20.04075
482.151	21.78738
482.356	23.74434
482.56	27.73274
482.765	31.2449
482.969	36.58621
483.174	41.15033
483.378	46.93279
483.582	48.87683
483.787	51.57647
483.991	52.71488
484.196	52.90073
484.4	51.80746
484.604	51.2335
484.809	46.93402
485.013	43.56342
485.217	39.33967
485.422	35.17517
485.626	32.12241
485.83	30.39364
486.034	29.74738
486.239	30.44487
486.443	31.51539
486.647	32.54099
486.851	34.45277
487.055	36.89425
487.26	37.3758
487.464	39.03286
487.668	38.57758
487.872	39.39031
488.076	39.00874
488.28	37.51904
488.484	35.13931
488.688	33.9556
488.892	31.77601
489.096	29.37307
489.3	27.22996
489.504	25.44522
489.708	24.02763
489.912	23.61984
490.116	23.28807
490.32	23.3683
490.524	25.35471
490.728	27.08
490.932	28.76101
491.136	30.6979
491.34	32.31061
491.544	32.88643
491.748	33.01579
491.951	32.70266
492.155	31.89333
492.359	30.56062
492.563	28.08765
492.767	26.12176
492.97	23.43719
493.174	21.03703
493.378	19.1344
493.582	17.1705
493.785	16.52387
493.989	16.67244
494.193	16.74468
494.396	16.71865
494.6	17.25709
494.804	17.02854
495.007	16.86907
495.211	16.99738
495.414	17.20842
495.618	17.68726
495.822	18.14826
496.025	17.56527
496.229	17.89391
496.432	17.21407
496.636	17.60274
496.839	17.43588
497.043	18.1185
497.246	17.57427
497.45	17.18248
497.653	17.45844
497.856	17.36081
498.06	16.73452
498.263	17.12484
498.467	17.02866
498.67	17.6029
498.873	17.4151
499.077	17.12294
499.28	17.1346
499.483	17.26438
499.686	17.43886
499.89	17.19137
500.093	17.64534
500.296	16.69313
500.499	18.00478
500.703	17.13419
500.906	17.5294
501.109	18.01853
501.312	17.32493
501.515	17.14857
501.719	17.4604
501.922	17.85289
502.125	17.37119
502.328	17.34425
502.531	16.86564
502.734	17.30718
502.937	16.64551
503.14	17.57459
503.343	17.1585
503.546	17.3649
503.749	17.03149
503.952	17.79209
504.155	17.10653
504.358	17.50339
504.561	17.4489
504.764	16.6841
504.967	17.37452
505.17	17.25384
505.373	18.19211
505.576	17.31073
505.778	17.72645
505.981	16.92237
506.184	18.10834
506.387	16.55228
506.59	18.48429
506.793	18.01387
506.995	17.84967
507.198	16.65701
507.401	17.90296
507.604	17.96985
507.806	17.25492
508.009	17.28111
508.212	18.14388
508.414	17.29474
508.617	17.44791
508.82	17.5987
509.022	18.30187
509.225	17.69923
509.427	16.87382
509.63	18.11451
509.833	17.48895
510.035	17.25762
510.238	16.74297
510.44	18.10057
510.643	16.6095
510.845	18.35293
511.048	17.71857
511.25	17.11796
511.453	17.53707
511.655	17.64743
511.858	17.3804
512.06	17.95554
512.262	17.54393
512.465	17.86661
512.667	17.20906
512.869	16.91226
513.072	17.59424
513.274	17.73185
513.476	17.62218
513.679	17.68374
513.881	16.86265
514.083	18.22162
514.286	17.04519
514.488	16.94279
514.69	16.83867
514.892	16.67945
515.094	17.65909
515.297	17.05985
515.499	17.58316
515.701	17.10519
515.903	18.41569
516.105	18.5385
516.307	18.04625
516.509	16.8638
516.711	17.35869
516.913	18.04271
517.116	18.05739
517.318	17.79928
517.52	18.62364
517.722	18.29923
517.924	17.51739
518.126	18.31509
518.328	17.8506
518.529	18.70216
518.731	19.42342
518.933	17.97303
519.135	18.0716
519.337	18.50656
519.539	17.64196
519.741	16.49484
519.943	17.0308
520.145	17.08441
520.346	17.58446
520.548	17.0264
520.75	17.35358
520.952	17.10364
521.153	17.5565
521.355	17.63906
521.557	16.87524
521.759	17.50901
521.96	17.32766
522.162	16.92129
522.364	18.06032
522.565	17.34175
522.767	17.96903
522.969	18.20429
523.17	18.06397
523.372	17.89005
523.573	17.47157
523.775	17.70511
523.977	17.49536
524.178	18.99338
524.38	17.85554
524.581	18.46413
524.783	18.14529
524.984	18.52107
525.186	18.41401
525.387	19.22405
525.589	19.40666
525.79	19.61568
525.991	19.75007
526.193	20.44461
526.394	20.02622
526.596	20.90242
526.797	21.55508
526.998	21.56364
527.2	23.0364
527.401	26.03594
527.602	28.44986
527.803	32.67836
528.005	35.2325
528.206	37.82422
528.407	39.8939
528.608	40.20419
528.81	40.61836
529.011	39.71917
529.212	40.18738
529.413	37.68982
529.614	35.08748
529.815	32.45648
530.017	29.56113
530.218	26.27601
530.419	23.68773
530.62	22.52823
530.821	21.34595
531.022	19.74447
531.223	20.3917
531.424	20.11742
531.625	20.35808
531.826	20.25675
532.027	21.44246
532.228	23.37034
532.429	24.23785
532.63	25.34539
532.831	26.95445
533.032	27.34509
533.233	28.38436
533.433	27.86459
533.634	27.94602
533.835	26.7452
534.036	25.68715
534.237	24.25836
534.438	22.70658
534.638	20.48993
534.839	19.42588
535.04	18.69272
535.241	17.88215
535.441	18.86849
535.642	18.6743
535.843	18.63478
536.043	19.09009
536.244	19.45436
536.445	20.05176
536.645	20.64818
536.846	20.33217
537.047	20.62104
537.247	19.20987
537.448	18.50247
537.648	17.91806
537.849	17.2931
538.049	17.24038
538.25	17.57072
538.451	17.58283
538.651	17.08488
538.851	17.9841
539.052	18.4559
539.252	18.31052
539.453	18.14656
539.653	18.52395
539.854	18.70268
540.054	19.01347
540.254	21.79984
540.455	24.0759
540.655	25.28369
540.855	28.023
541.056	29.57565
541.256	29.80572
541.456	30.95139
541.657	30.72963
541.857	31.05707
542.057	29.21708
542.257	28.00734
542.458	27.40616
542.658	26.07714
542.858	23.55436
543.058	22.71476
543.258	21.54577
543.458	19.69857
543.659	18.84535
543.859	19.10496
544.059	18.46612
544.259	17.5912
544.459	18.18072
544.659	17.47635
544.859	17.93815
545.059	17.64207
545.259	18.32611
545.459	18.20212
545.659	18.6194
545.859	18.2712
546.059	18.5529
546.259	17.8826
546.459	17.57747
546.659	17.68761
546.859	18.50715
547.059	18.04861
547.258	18.12142
547.458	18.10669
547.658	17.20952
547.858	17.05655
548.058	17.59805
548.258	17.27655
548.457	16.94445
548.657	18.76448
548.857	17.40812
549.057	18.04542
549.256	17.94063
549.456	17.34062
549.656	16.67041
549.855	18.88752
550.055	17.68125
550.255	19.01318
550.454	18.23966
550.654	18.51089
550.853	19.10946
551.053	18.63881
551.253	18.37908
551.452	18.7291
551.652	17.59885
551.851	17.52028
552.051	18.16111
552.25	17.94976
552.45	17.85541
552.649	18.03488
552.849	17.78871
553.048	18.28142
553.248	18.53445
553.447	17.3602
553.646	18.32003
553.846	19.34473
554.045	18.60379
554.244	16.94284
554.444	18.73813
554.643	17.27726
554.842	18.95071
555.042	19.21887
555.241	17.45995
555.44	17.17982
555.64	18.43644
555.839	18.99859
556.038	18.4486
556.237	17.71776
556.436	18.35912
556.636	18.47957
556.835	17.60041
557.034	19.14488
557.233	18.14151
557.432	17.06859
557.631	18.62766
557.83	17.84752
558.029	17.74558
558.228	17.68465
558.427	17.58438
558.626	18.41934
558.825	17.36622
559.024	17.9551
559.223	19.32469
559.422	17.92639
559.621	18.45517
559.82	16.80387
560.019	18.26413
560.218	17.86717
560.417	16.76265
560.616	17.89811
560.815	20.51642
561.014	17.30434
561.212	19.48002
561.411	18.244
561.61	17.24795
561.809	18.0714
562.008	19.2931
562.206	17.8258
562.405	18.57651
562.604	18.03047
562.803	18.13976
563.001	17.95567
563.2	17.28694
563.399	18.45878
563.597	17.37028
563.796	18.18678
563.995	17.57643
564.193	18.83436
564.392	18.24656
564.59	19.96614
564.789	17.3063
564.988	18.30116
565.186	18.93028
565.385	18.63721
565.583	18.62959
565.782	18.68896
565.98	18.60185
566.179	18.39488
566.377	17.97168
566.575	17.97181
566.774	19.33891
566.972	18.74233
567.171	19.58083
567.369	19.05073
567.567	18.25818
567.766	18.08437
567.964	16.85201
568.162	18.51483
568.361	19.08981
568.559	17.99313
568.757	18.48738
568.956	18.36621
569.154	18.4235
569.352	18.74667
569.55	18.39419
569.748	18.47253
569.947	18.03752
570.145	17.84416
570.343	17.90967
570.541	19.76759
570.739	17.88608
570.937	18.73603
571.135	19.22067
571.333	20.3555
571.532	20.1668
571.73	19.04815
571.928	19.5075
572.126	19.08984
572.324	18.45287
572.522	19.30677
572.72	20.31736
572.918	18.54824
573.116	18.70981
573.313	18.17809
573.511	18.47041
573.709	18.01698
573.907	19.20191
574.105	18.44938
574.303	17.7734
574.501	17.62842
574.699	19.23611
574.896	19.04516
575.094	19.24458
575.292	17.66345
575.49	19.34441
575.688	18.32615
575.885	19.42864
576.083	20.1464
576.281	18.82566
576.478	17.79042
576.676	18.68031
576.874	17.40304
577.071	18.39137
577.269	19.92334
577.467	18.35077
577.664	18.25161
577.862	19.13778
578.059	17.69199
578.257	19.12971
578.455	18.13181
578.652	18.4404
578.85	16.96131
579.047	18.65353
579.245	18.14926
579.442	18.3265
579.64	18.14997
579.837	17.1158
580.034	20.6154
580.232	18.2457
580.429	17.5559
580.627	18.90574
580.824	19.49356
581.021	19.04789
581.219	18.06968
581.416	18.11213
581.613	19.76643
581.811	19.56469
582.008	17.91538
582.205	19.42218
582.402	18.79825
582.6	19.97159
582.797	18.60539
582.994	18.96163
583.191	19.27364
583.388	18.62082
583.586	19.19371
583.783	19.53111
583.98	17.84332
584.177	18.71738
584.374	16.51599
584.571	18.47499
584.768	18.57244
584.965	18.45554
585.162	19.38694
585.359	20.14128
585.556	18.69588
585.753	18.9007
585.95	17.50892
586.147	17.69684
586.344	19.1747
586.541	18.64175
586.738	17.76261
586.935	18.82919
587.132	18.20888
587.329	19.96662
587.526	18.788
587.722	23.10485
587.919	17.78561
588.116	19.30182
588.313	20.23602
588.51	20.63628
588.706	18.82222
588.903	19.59943
589.1	19.78786
589.297	21.57994
589.493	18.77878
589.69	19.72709
589.887	18.48504
590.083	17.914
590.28	18.42484
590.477	19.76927
590.673	19.38941
590.87	19.83762
591.067	18.2684
591.263	19.15143
591.46	18.98453
591.656	18.39049
591.853	20.10793
592.049	18.08733
592.246	18.44809
592.442	19.84914
592.639	20.16354
592.835	18.2528
593.032	19.37238
593.228	17.96298
593.425	17.97307
593.621	18.06518
593.817	19.52347
594.014	18.53135
594.21	19.42402
594.406	20.20088
594.603	19.43618
594.799	18.57865
594.995	17.20319
595.192	20.22988
595.388	19.00474
595.584	19.01881
595.78	18.43599
595.977	22.09442
596.173	21.058
596.369	19.57171
596.565	18.92128
596.761	18.47016
596.957	20.53046
597.154	18.9781
597.35	18.82321
597.546	18.74411
597.742	19.44205
597.938	19.05505
598.134	18.03829
598.33	18.72131
598.526	19.56335
598.722	18.71635
598.918	20.22314
599.114	19.05924
599.31	17.66494
599.506	18.78227
599.702	17.98975
599.898	19.02029
600.094	19.82886
600.29	19.73296
600.485	19.99887
600.681	18.32569
600.877	20.5376
601.073	19.33716
601.269	21.13771
601.465	20.80044
601.66	18.47981
601.856	17.79371
602.052	21.72103
602.248	19.5737
602.443	18.10719
602.639	18.85064
602.835	19.16279
603.03	19.1633
603.226	20.61575
603.422	19.1824
603.617	19.757
603.813	19.66957
604.009	19.52393
604.204	20.92755
604.4	18.69498
604.595	20.64803
604.791	18.75447
604.986	19.81591
605.182	18.6262
605.377	18.92945
605.573	18.69387
605.768	18.9722
605.964	19.26909
606.159	19.34476
606.355	19.82145
606.55	18.41916
606.746	19.81198
606.941	18.85576
607.136	20.88485
607.332	21.87237
607.527	18.32785
607.722	19.69852
607.918	19.48881
608.113	19.14029
608.308	20.90117
608.503	20.65772
608.699	20.50439
608.894	20.76639
609.089	19.43938
609.284	20.4367
609.479	19.64743
609.675	20.38577
609.87	19.48508
610.065	20.27466
610.26	20.18629
610.455	19.96738
610.65	19.27549
610.845	19.36986
611.04	20.06612
611.235	19.05862
611.43	18.97692
611.625	18.20122
611.82	20.63076
612.015	18.68845
612.21	20.94578
612.405	17.85986
612.6	20.87182
612.795	20.90172
612.99	20.07822
613.185	18.31616
613.38	18.83734
613.575	19.61931
613.77	22.49011
613.965	17.82572
614.159	18.78608
614.354	20.79885
614.549	20.52789
614.744	20.10523
614.938	18.14464
615.133	17.86053
615.328	21.01629
615.523	20.84831
615.717	22.57984
615.912	18.93777
616.107	19.73383
616.301	19.36865
616.496	18.94848
616.691	21.11314
616.885	20.41906
617.08	23.00858
617.274	20.67479
617.469	21.88164
617.664	20.38914
617.858	19.07473
618.053	20.05948
618.247	19.42379
618.442	17.26186
618.636	21.41506
618.831	18.77281
619.025	18.95134
619.219	23.1041
619.414	16.47019
619.608	19.07246
619.803	18.82499
619.997	22.03024
620.191	20.98335
620.386	19.9317
620.58	19.39636
620.774	17.71867
620.969	17.74478
621.163	20.00888
621.357	18.50731
621.551	19.39057
621.746	19.78476
621.94	19.28001
622.134	23.54411
622.328	21.9847
622.522	17.87303
622.716	20.7465
622.911	20.93151
623.105	21.03514
623.299	20.32539
623.493	23.40087
623.687	18.6788
623.881	18.87463
624.075	20.35077
624.269	21.34465
624.463	17.60434
624.657	18.12605
624.851	20.84142
625.045	20.85978
625.239	21.25289
625.433	19.94929
625.627	22.50318
625.821	20.16415
626.015	19.58996
626.209	20.56136
626.403	18.95166
626.596	20.76908
626.79	21.31753
626.984	18.85983
627.178	20.74977
627.372	20.64146
627.565	20.89368
627.759	18.51273
627.953	18.53737
628.147	20.24429
628.34	20.49459
628.534	22.34906
628.728	19.06655
628.921	20.61258
629.115	20.46194
629.309	20.99669
629.502	21.0742
629.696	19.97845
629.89	19.75312
630.083	20.30354
630.277	20.22624
630.47	21.93663
630.664	19.19621
630.857	17.94953
631.051	21.17929
631.244	21.45066
631.438	20.87136
631.631	19.03195
631.825	21.70927
632.018	20.88884
632.212	22.50716
632.405	21.55379
632.598	19.24306
632.792	20.50451
632.985	17.54206
633.178	20.14147
633.372	20.24065
633.565	20.14925
633.758	21.87397
633.952	19.31509
634.145	19.12903
634.338	20.19291
634.531	19.57638
634.724	18.95541
634.918	20.06152
635.111	19.47552
635.304	19.48583
635.497	23.15733
635.69	20.13597
635.883	21.34013
636.077	18.78812
636.27	20.70992
636.463	20.35675
636.656	20.32541
636.849	19.73688
637.042	20.91835
637.235	22.66337
637.428	21.27824
637.621	20.61163
637.814	21.98894
638.007	22.26844
638.2	22.00363
638.393	22.85074
638.586	18.21732
638.778	19.64035
638.971	19.77152
639.164	22.19957
639.357	20.26202
639.55	22.25573
639.743	21.15577
639.935	21.00029
640.128	23.44745
640.321	21.75001
640.514	20.58124
640.707	23.55222
640.899	21.38027
641.092	17.73379
641.285	35.80646
641.477	17.20353
641.67	23.91575
641.863	22.26454
642.055	20.82492
642.248	20.47115
642.441	19.78902
642.633	21.45098
642.826	22.45638
643.018	22.34528
643.211	23.30835
643.403	23.63656
643.596	24.12218
643.788	22.87383
643.981	19.94622
644.173	21.8357
644.366	20.08914
644.558	17.61188
644.751	21.9444
644.943	18.44133
645.135	23.23308
645.328	22.90725
645.52	21.56793
645.712	22.53366
645.905	25.62951
646.097	18.45539
646.289	21.24155
646.482	24.4327
646.674	19.5606
646.866	22.67355
647.058	21.62939
647.251	19.20176
647.443	19.81714
647.635	20.0549
647.827	18.80278
648.019	18.98582
648.211	19.93442
648.404	20.78407
648.596	23.71736
648.788	21.1427
648.98	20.95338
649.172	21.47792
649.364	21.35009
649.556	17.85727
649.748	25.60986
649.94	19.58655
650.132	22.39537
650.324	19.59416
650.516	19.79869
650.708	23.01021
650.9	18.8135
651.092	18.46664
651.284	19.13106
651.476	19.14505
651.667	22.20231
651.859	23.408
652.051	20.7524
652.243	21.45752
652.435	20.28941
652.627	22.04595
652.818	22.01764
653.01	18.41904
653.202	19.73339
653.394	20.36602
653.585	21.66561
653.777	28.81111
653.969	23.61786
654.16	23.09154
654.352	19.23969
654.544	21.24403
654.735	22.70816
654.927	20.95516
655.118	23.80939
655.31	22.29057
655.502	23.67774
655.693	20.58802
655.885	22.1252
656.076	24.11349
656.268	21.52167
656.459	24.20679
656.651	24.12563
656.842	20.79998
657.034	20.23246
657.225	23.54778
657.416	24.4444
657.608	24.26471
657.799	21.95074
657.99	24.33075
658.182	21.60743
658.373	21.49911
658.564	24.70052
658.756	23.17196
658.947	22.32255
659.138	21.13628
659.33	21.35338
659.521	21.12318
659.712	21.68473
659.903	21.29273
660.094	20.7517
660.286	19.00938
660.477	24.34582
660.668	22.34228
660.859	21.07218
661.05	19.08573
661.241	22.32477
661.432	21.93311
661.623	20.8857
661.814	21.01268
662.006	18.74103
662.197	21.43907
662.388	23.55635
662.579	21.97103
662.77	23.96759
662.96	26.36133
663.151	23.20277
663.342	18.40746
663.533	22.69933
663.724	21.82111
663.915	25.4407
664.106	21.80313
664.297	25.17011
664.488	23.07294
664.678	20.45338
664.869	23.47658
665.06	23.4724
665.251	22.14111
665.442	23.25022
665.632	19.70717
665.823	25.68734
666.014	16.44375
666.204	23.29619
666.395	24.78924
666.586	26.94365
666.776	23.77234
666.967	26.00954
667.158	22.2521
667.348	25.19797
667.539	20.55258
667.729	23.95173
667.92	21.03957
668.111	24.56574
668.301	23.62476
668.492	22.1241
668.682	22.92595
668.873	22.48371
669.063	20.43543
669.253	23.25862
669.444	25.39572
669.634	22.61775
669.825	26.19067
670.015	24.98911
670.206	21.01035
670.396	26.48527
670.586	21.96489
670.777	23.21086
670.967	18.31541
671.157	21.63097
671.347	20.84312
671.538	25.64149
671.728	23.83722
671.918	27.02733
672.108	24.52516
672.299	21.82141
672.489	23.05613
672.679	20.95382
672.869	23.63732
673.059	27.66409
673.249	24.41998
673.44	20.43606
673.63	22.03235
673.82	24.09115
674.01	20.54701
674.2	23.79413
674.39	28.94747
674.58	24.56495
674.77	23.08782
674.96	22.74758
675.15	31.95468
675.34	25.38547
675.53	22.99465
675.72	22.1769
675.91	19.61903
676.099	27.2589
676.289	28.59507
676.479	25.91636
676.669	21.96433
676.859	24.00506
677.049	21.5868
677.238	23.52365
677.428	27.29143
677.618	24.73412
677.808	27.98677
677.997	24.896
678.187	21.93047
678.377	23.76
678.567	22.23818
678.756	22.92688
678.946	23.70332
679.136	21.32671
679.325	22.98479
679.515	22.20917
679.704	21.45099
679.894	26.24515
680.084	24.99933
680.273	26.45837
680.463	22.35331
680.652	22.18771
680.842	23.81194
681.031	26.11731
681.221	22.04336
681.41	24.87668
681.6	23.01129
681.789	24.77427
681.978	26.39635
682.168	24.07037
682.357	23.98765
682.547	24.88518
682.736	23.83982
682.925	26.28423
683.115	26.07897
683.304	25.30402
683.493	23.96406
683.682	24.90605
683.872	24.687
684.061	26.27431
684.25	24.85992
684.439	29.58797
684.629	26.20705
684.818	32.43581
685.007	24.59008
685.196	23.23112
685.385	28.71716
685.574	25.11574
685.763	25.711
685.952	24.83125
686.142	21.67526
686.331	27.96071
686.52	21.62529
686.709	29.79872
686.898	29.58681
687.087	26.45645
687.276	29.42854
687.465	28.45154
687.654	24.38401
687.842	28.51288
688.031	22.27066
688.22	28.71687
688.409	25.67994
688.598	25.46623
688.787	31.76975
688.976	25.61139
689.165	30.3099
689.353	24.36064
689.542	26.70145
689.731	27.73974
689.92	31.28815
690.108	27.18824
690.297	23.91679
690.486	25.82161
690.675	27.35093
690.863	30.02677
691.052	29.4729
691.241	26.14327
691.429	26.71548
691.618	29.24979
691.806	22.37549
691.995	24.99613
692.184	25.88859
692.372	24.62231
692.561	26.0445
692.749	26.7985
692.938	35.17965
693.126	27.16934
693.315	25.55803
693.503	28.13069
693.692	28.61233
693.88	28.44611
694.068	31.94529
694.257	27.02524
694.445	28.11008
694.634	20.87222
694.822	28.47038
695.01	29.24911
695.199	32.65194
695.387	30.76524
695.575	30.33673
695.763	25.91257
695.952	25.54834
696.14	22.802
696.328	25.03217
696.516	26.93194
696.705	28.12184
696.893	27.53326
697.081	22.86026
697.269	29.81439
697.457	24.58656
697.645	24.31355
697.833	30.05246
698.021	25.315
698.21	26.37596
698.398	26.99828
698.586	24.52831
698.774	24.02338
698.962	26.53811
699.15	24.19341
699.338	22.62847
699.526	27.41809
699.714	24.24366
699.901	24.28548
700.089	27.74534
700.277	23.52762
700.465	25.24069
700.653	27.30735
700.841	27.16491
701.029	23.5016
701.217	30.08013
701.404	26.10456
701.592	31.01421
701.78	33.30011
701.968	25.80881
702.155	25.17576
702.343	22.98262
702.531	30.50253
702.718	27.61349
702.906	25.11386
703.094	24.98011
703.281	30.55151
703.469	26.93311
703.657	30.63375
703.844	37.87287
704.032	33.7483
704.219	26.51647
704.407	29.26525
704.595	32.3747
704.782	28.89668
704.97	27.58037
705.157	27.16077
705.345	34.79832
705.532	40.48861
705.719	32.20522
705.907	34.71217
706.094	31.90754
706.282	38.47504
706.469	31.49917
706.656	32.40124
706.844	31.54594
707.031	36.72624
707.218	34.32967
707.406	38.83123
707.593	36.53467
707.78	36.31427
707.968	34.14741
708.155	31.51848
708.342	36.23655
708.529	36.64323
708.716	35.82273
708.904	39.90082
709.091	36.9627
709.278	30.93215
709.465	41.85851
709.652	39.38246
709.839	38.51683
710.026	33.40207
710.213	27.85006
710.4	33.93355
710.587	35.56197
710.774	36.31728
710.961	37.58156
711.148	33.83498
711.335	36.9571
711.522	32.73629
711.709	35.48365
711.896	41.23037
712.083	37.72886
712.27	31.27026
712.457	35.02431
712.644	28.73285
712.831	41.44231
713.017	34.89817
713.204	36.45461
713.391	32.1592
713.578	36.79013
713.765	38.79947
713.951	34.61246
714.138	44.87593
714.325	33.90586
714.512	32.44748
714.698	28.74992
714.885	37.27773
715.072	32.25356
715.258	31.72162
715.445	29.39696
715.631	36.14234
715.818	22.26825
716.005	28.86061
716.191	32.87628
716.378	29.41042
716.564	33.34032
716.751	27.49973
716.937	28.90018
717.124	33.92507
717.31	27.13378
717.497	37.97076
717.683	28.32674
717.869	38.83807
718.056	28.19849
718.242	32.18204
718.429	29.14556
718.615	26.22959
718.801	30.20471
718.988	35.15351
719.174	33.17962
719.36	28.92862
719.547	34.51179
719.733	31.62346
719.919	32.44134
720.105	32.92253
720.291	30.98008
720.478	31.76723
720.664	30.32981
720.85	29.79822
721.036	42.67823
721.222	38.84746
721.408	30.74269
721.595	39.3369
721.781	37.94168
721.967	36.05276
722.153	38.77076
722.339	34.41703
722.525	33.44732
722.711	26.77534
722.897	26.48014
723.083	30.15189
723.269	36.35388
723.455	44.19379
723.641	50.0732
723.827	32.22523
724.012	33.62649
724.198	30.85616
724.384	38.67446
724.57	33.58798
724.756	26.37212
724.942	23.51675
725.127	36.5787
725.313	37.97116
725.499	37.69395
725.685	41.79845
725.87	33.88939
726.056	28.19582
726.242	38.31288
726.428	25.73005
726.613	36.08574
726.799	30.91605
726.985	27.94016
727.17	25.01976
727.356	41.83801
727.541	27.62553
727.727	32.80516
727.913	36.4686
728.098	30.67737
728.284	35.70982
728.469	27.51486
728.655	29.31617
728.84	37.73896
729.026	36.45939
729.211	36.10047
729.397	34.50136
729.582	37.18526
729.767	32.37665
729.953	34.40176
730.138	38.87958
730.323	22.8306
730.509	28.03765
730.694	41.4043
730.879	35.90832
731.065	34.31096
731.25	43.80494
731.435	36.33446
731.621	27.15005
731.806	30.06471
731.991	33.73452
732.176	27.45577
732.361	40.5747
732.547	34.5052
732.732	26.65401
732.917	44.38717
733.102	27.59981
733.287	29.92996
733.472	33.29694
733.657	32.62456
733.842	25.91152
734.027	29.98867
734.212	31.65574
734.397	29.25517
734.582	33.41654
734.767	37.02636
734.952	40.14842
735.137	21.51681
735.322	39.80222
735.507	35.68404
735.692	33.60324
735.877	43.57551
736.062	42.41241
736.247	35.55031
736.431	32.86921
736.616	37.82753
736.801	35.64305
736.986	33.53528
737.171	28.82041
737.355	27.48256
737.54	40.01617
737.725	34.58985
737.909	47.95074
738.094	30.34364
738.279	38.03965
738.463	32.25372
738.648	36.48062
738.833	35.48248
739.017	45.01191
739.202	32.87852
739.386	32.37343
739.571	29.11664
739.756	38.16509
739.94	33.74378
740.125	35.4906
740.309	30.32432
740.494	37.53504
740.678	33.92813
740.863	36.33564
741.047	33.55887
741.231	42.14198
741.416	30.34934
741.6	42.84377
741.785	29.38133
741.969	38.64608
742.153	42.19502
742.338	23.49254
742.522	33.77053
742.706	40.25749
742.89	28.61683
743.075	34.54195
743.259	41.5764
743.443	39.81047
743.627	41.80519
743.812	47.59044
743.996	25.44218
744.18	33.22628
744.364	32.37751
744.548	48.0443
744.732	32.6456
744.916	40.2952
745.1	38.21391
745.285	32.81063
745.469	37.63307
745.653	44.43934
745.837	28.92765
746.021	49.04501
746.205	42.4497
746.389	35.98322
746.573	33.75647
746.757	44.84662
746.94	32.33512
747.124	41.86848
747.308	28.20949
747.492	41.45419
747.676	28.9257
747.86	50.97713
748.044	33.04668
748.227	25.85365
748.411	58.89876
748.595	36.60373
748.779	31.22483
748.963	37.67498
749.146	36.08483
749.33	32.35449
749.514	30.26001
749.697	42.07973
749.881	30.33861
750.065	29.46884
750.248	35.9222
750.432	49.9565
750.616	35.24498
750.799	29.3875
750.983	51.21391
751.166	50.68429
751.35	26.70124
751.533	41.71371
751.717	45.07002
751.9	44.90722
752.084	33.696
752.267	30.59138
752.451	31.69422
752.634	36.48161
752.818	40.10232
753.001	41.35433
753.184	43.15381
753.368	38.26824
753.551	17.79194
753.734	30.86142
753.918	51.31196
754.101	32.66231
754.284	40.42188
754.467	31.90174
754.651	32.13468
754.834	30.32977
755.017	43.17916
755.2	44.30356
755.384	30.32573
755.567	41.50983
755.75	42.26897
755.933	33.75177
756.116	41.49133
756.299	33.11651
756.482	30.5215
756.665	39.31569
756.848	34.89785
757.032	38.70074
757.215	27.09304
757.398	30.35594
757.581	30.47901
757.764	56.14424
757.947	36.68855
758.129	42.79175
758.312	20.56062
758.495	34.89033
758.678	36.33978
758.861	33.15658
759.044	48.1938
759.227	30.22234
759.41	31.74782
759.592	41.64305
759.775	34.55973
759.958	42.59847
760.141	28.82542
760.324	53.19393
760.506	46.6171
760.689	41.82538
760.872	51.1081
761.054	39.09217
761.237	35.50862
761.42	37.58185
761.602	42.5872
761.785	38.68271
761.968	44.96611
762.15	49.57062
762.333	35.35544
762.515	40.55992
762.698	33.92005
762.88	43.60503
763.063	39.80642
763.245	44.8067
763.428	31.5011
763.61	33.89056
763.793	29.45573
763.975	38.40826
764.158	34.27715
764.34	33.02579
764.522	30.58142
764.705	35.19275
764.887	45.96506
765.069	26.8275
765.252	39.6438
765.434	40.53466
765.616	36.98265
765.799	31.92507
765.981	41.21158
766.163	31.19782
766.345	46.00073
766.528	30.85757
766.71	22.2576
766.892	39.01411
767.074	45.46904
767.256	34.25201
767.438	50.25146
767.62	38.69899
767.802	54.0293
767.985	40.88625
768.167	50.70278
768.349	33.11167
768.531	42.26913
768.713	38.5672
768.895	42.94385
769.077	40.50237
769.259	57.96612
769.441	75.66989
769.623	43.70064
769.804	50.5918
769.986	48.11751
770.168	55.03943
770.35	66.96221
770.532	51.36906
770.714	54.79646
770.896	57.46407
771.077	29.72156
771.259	59.10488
771.441	50.48219
771.623	61.36242
771.804	72.46289
771.986	32.10649
772.168	41.54924
772.35	57.60626
772.531	74.7287
772.713	50.18617
772.894	63.40861
773.076	49.01717
773.258	44.20526
773.439	64.27525
773.621	71.53173
773.802	39.62356
773.984	42.59136
774.166	51.39468
774.347	67.357
774.529	61.31023
774.71	30.77598
774.891	46.81412
775.073	43.33503
775.254	63.66176
775.436	42.41936
775.617	75.34811
775.799	44.69776
775.98	64.65661
776.161	69.9462
776.343	74.09385
776.524	49.30765
776.705	48.17158
776.886	31.03901
777.068	52.23046
777.249	101.09001
777.43	73.4311
777.611	38.29732
777.793	43.82388
777.974	72.79716
778.155	42.43421
778.336	38.02807
778.517	79.45899
778.698	40.98101
778.879	30.15381
779.061	22.4823
779.242	56.52368
779.423	56.33507
779.604	43.4268
779.785	47.6024
779.966	51.98155
780.147	62.10742
780.328	62.66906
780.509	84.95384
780.69	61.93117
780.871	41.98446
781.051	34.47927
781.232	52.93144
781.413	51.85018
781.594	48.00274
781.775	46.02451
781.956	41.71005
782.137	25.94759
782.317	43.40325
782.498	51.21925
782.679	50.95852
782.86	54.06103
783.04	43.43772
783.221	54.89065
783.402	73.58705
783.583	51.21108
783.763	60.44947
783.944	43.28478
784.124	34.51926
784.305	72.70996
784.486	59.41142
784.666	48.7666
784.847	32.65725
785.027	94.76651
785.208	42.99638
785.388	43.27682
785.569	43.29884
785.749	47.72153
785.93	44.07803
786.11	33.10852
786.291	58.3364
786.471	53.52019
786.652	61.94053
786.832	48.13145
787.012	53.0883
787.193	37.82163
787.373	52.04534
787.553	44.62596
787.734	53.33772
787.914	47.76382
788.094	63.68694
788.275	54.64978
788.455	46.57165
788.635	36.7294
788.815	53.56257
788.995	38.71461
789.176	32.00126
789.356	40.89425
789.536	48.53679
789.716	56.18265
789.896	40.64939
790.076	43.42686
790.256	52.30443
790.436	26.54
790.616	39.44692
790.796	53.31296
790.976	45.77766
791.156	40.39496
791.336	57.55738
791.516	55.09993
791.696	47.01552
791.876	34.06815
792.056	50.95541
792.236	62.57693
792.416	60.01411
792.596	54.62058
792.776	56.02321
792.956	59.07111
793.135	74.00329
793.315	37.30688
793.495	62.74298
793.675	61.04978
793.854	59.22314
794.034	62.69662
794.214	37.55086
794.394	59.51885
794.573	67.77643
794.753	51.74471
794.933	40.17961
795.112	53.37114
795.292	62.63217
795.472	73.35526
795.651	36.51148
795.831	49.70227
796.01	46.59249
796.19	46.7287
796.369	49.66541
796.549	56.4556
796.728	48.88675
796.908	34.47373
797.087	38.07299
797.267	47.56508
797.446	37.98761
797.626	55.80543
797.805	55.33656
797.984	41.09472
798.164	59.92814
798.343	40.6297
798.522	52.32189
798.702	51.73534
798.881	35.07822
799.06	46.01996
799.239	28.74329
799.419	40.14472
799.598	72.04402
799.777	54.86999
799.956	65.89183
800.136	45.81789
800.315	38.66595
800.494	55.88145
800.673	64.44793
800.852	59.5478
801.031	65.4532
801.21	57.80515
801.389	46.02138
801.568	51.90014
801.747	75.67337
801.926	53.5125
802.105	69.78814
802.284	44.60097
802.463	72.67661
802.642	55.87491
802.821	54.54687
803	68.31665
803.179	63.77767
803.358	63.04935
803.537	43.25646
803.716	51.05411
803.895	42.13111
804.073	49.06671
804.252	42.40035
804.431	55.70292
804.61	47.22697
804.789	61.17215
804.967	44.13326
805.146	44.19519
805.325	80.46603
805.503	55.63111
805.682	35.41379
805.861	96.03693
806.039	68.87788
806.218	45.36432
806.397	53.90187
806.575	48.42724
806.754	54.0408
806.932	38.18917
807.111	66.04867
807.289	62.26576
807.468	51.61001
807.646	64.30862
807.825	58.60488
808.003	53.51251
808.182	63.83859
808.36	52.2965
808.539	40.81509
808.717	71.83902
808.895	43.04491
809.074	55.56477
809.252	51.27981
809.43	60.77679
809.609	66.60431
809.787	78.17855
809.965	48.90278
810.144	53.09113
810.322	51.33183
810.5	56.603
810.678	47.48275
810.856	82.74084
811.035	65.1159
811.213	62.33036
811.391	73.06232
811.569	56.84304
811.747	105.1693
811.925	71.05244
812.103	43.11763
812.281	54.5306
812.459	78.04874
812.637	80.28622
812.816	64.44047
812.994	84.95394
813.171	72.25137
813.349	60.19671
813.527	65.72742
813.705	74.40622
813.883	93.93128
814.061	66.92049
814.239	80.65729
814.417	88.32956
814.595	61.96408
814.773	59.11777
814.95	55.784
815.128	60.51412
815.306	58.63714
815.484	51.79926
815.662	43.39816
815.839	39.71332
816.017	47.63561
816.195	70.23744
816.372	49.48708
816.55	65.74263
816.728	79.58467
816.905	53.4312
817.083	78.77319
817.261	52.93827
817.438	101.00362
817.616	81.82069
817.793	46.69274
817.971	67.15987
818.148	66.30821
818.326	73.81065
818.503	59.561
818.681	78.72745
818.858	51.03816
819.036	55.09492
819.213	57.7032
819.391	46.4062
819.568	46.77113
819.745	44.05278
819.923	66.57797
820.1	50.85518
820.277	43.51765
820.455	50.34589
820.632	54.14946
820.809	56.53268
820.986	41.11323
821.164	35.38775
821.341	35.19836
821.518	45.58368
821.695	37.28016
821.872	35.80349
822.05	33.1058
822.227	30.07893
822.404	30.57292
822.581	32.98438
822.758	30.10584
822.935	30.00808
823.112	31.72096
823.289	28.69191
823.466	31.05205
823.643	29.69905
823.82	32.33625
823.997	30.37035
824.174	32.87618
824.351	39.57045
824.528	37.41163
824.705	36.04658
824.882	38.04412
825.059	45.09551
825.236	36.54887
825.412	38.48078
825.589	43.35914
825.766	56.72128
825.943	41.68209
826.12	45.29339
826.296	36.94168
826.473	42.89179
826.65	43.11358
826.827	48.62954
827.003	36.53667
827.18	39.56236
827.357	42.69637
827.533	38.25058
827.71	28.22483
827.887	35.01033
828.063	37.96123
828.24	33.29049
828.416	39.4241
828.593	34.50237
828.769	44.78888
828.946	44.58238
829.122	46.57783
829.299	45.18988
829.475	34.09313
829.652	44.96703
829.828	67.8445
830.005	46.79556
830.181	59.153
830.357	47.73025
830.534	62.49499
830.71	50.93333
830.886	61.70879
831.063	61.49089
831.239	72.66627
831.415	42.04841
831.592	74.21455
831.768	54.08835
831.944	46.44208
832.12	81.79774
832.296	74.42363
832.473	64.99172
832.649	48.15954
832.825	66.84151
833.001	43.53737
833.177	59.08574
833.353	54.23392
833.529	37.67148
833.705	51.44343
833.881	37.39651
834.058	37.64719
834.234	39.42453
834.41	38.69416
834.586	33.29867
834.761	36.64876
834.937	39.97582
835.113	40.37539
835.289	35.12508
835.465	40.16985
835.641	36.54429
835.817	40.29009
835.993	61.06845
836.169	38.13565
836.344	52.28679
836.52	56.76347
836.696	53.57002
836.872	44.8491
837.048	103.08938
837.223	51.24855
837.399	78.47081
837.575	67.45006
837.75	65.40805
837.926	84.07081
838.102	120.53107
838.277	100.95272
838.453	131.68699
838.628	128.62287
838.804	59.0744
838.98	115.74964
839.155	69.69458
839.331	85.555
839.506	65.34081
839.682	66.01455
839.857	83.96976
840.033	98.62078
840.208	52.82419
840.384	32.92338
840.559	54.09833
840.734	73.09363
840.91	93.81759
841.085	59.7349
841.26	60.91801
841.436	55.57988
841.611	56.65449
841.786	78.45084
841.962	97.7778
842.137	68.48127
842.312	47.7731
842.487	61.20826
842.663	55.94439
842.838	62.67132
843.013	174.37656
843.188	89.40831
843.363	94.14482
843.538	146.80574
843.714	144.97722
843.889	146.35692
844.064	163.16583
844.239	132.22805
844.414	145.77535
844.589	102.98786
844.764	183.28866
844.939	176.27658
845.114	192.69302
845.289	186.97106
845.464	242.20526
845.639	171.25287
845.814	94.65656
845.989	102.48884
846.163	129.4695
846.338	133.21944
846.513	187.18545
846.688	124.15003
846.863	124.11206
847.038	112.22249
847.212	126.4246
847.387	128.40197
847.562	141.45712
847.737	163.87734
847.911	73.89122
848.086	85.85761
848.261	279.05719
848.435	115.75265
848.61	171.34226
848.785	95.88482
848.959	178.23707
849.134	240.54629
849.308	242.87149
849.483	142.5162
849.658	205.06993
849.832	121.7597
850.007	109.72319
850.181	269.09896
850.356	108.18223
850.53	251.41266
850.705	89.05562
850.879	60.53811
851.053	128.67162
851.228	117.96823
851.402	148.30676
851.577	188.20585
851.751	207.03696
851.925	144.14523
852.099	72.19196
852.274	102.54333
852.448	130.04376
852.622	171.10304
852.797	138.77885
852.971	128.98095
853.145	139.73415
853.319	374.39404
853.493	197.85572
853.668	113.34396
853.842	243.8019
854.016	197.2344
854.19	225.65988
854.364	143.93703
854.538	154.45575
854.712	199.31374
854.886	126.03776
855.06	127.38346
855.234	57.77583
855.408	214.74099
855.582	186.9959
855.756	183.29657
855.93	240.85575
856.104	164.22556
856.278	190.39694
856.452	147.63068
856.626	180.17506
856.8	286.32039
856.973	174.95838
857.147	160.35374
857.321	163.89278
857.495	198.51403
857.669	140.27862
857.842	114.90104
858.016	195.2854
858.19	104.78943
858.364	310.23804
858.537	125.58083
858.711	148.8019
858.885	128.417
859.058	115.46283
859.232	77.32787
859.405	82.41479
859.579	188.4969
859.753	156.44448
859.926	117.73673
860.1	83.57351
860.273	143.59883
860.447	224.48138
860.62	125.75846
860.794	261.49602
860.967	164.00616
861.141	199.80857
861.314	283.74926
861.487	181.42278
861.661	222.60681
861.834	225.52836
862.008	194.59006
862.181	144.79001
862.354	147.98003
862.528	164.31703
862.701	118.46406
862.874	91.35447
863.047	133.24068
863.221	126.45791
863.394	73.61276
863.567	234.61321
863.74	59.34121
863.913	181.45596
864.087	162.89739
864.26	199.54562
864.433	144.35038
864.606	245.31856
864.779	144.23569
864.952	85.9618
865.125	120.39275
865.298	139.01309
865.471	148.20986
865.644	278.5501
865.817	227.34678
865.99	196.12126
866.163	210.38694
866.336	126.95292
866.509	148.59181
866.682	132.23541
866.855	210.89258
867.028	99.18861
867.2	183.36329
867.373	74.84091
867.546	158.85832
867.719	290.83875
867.892	180.00442
868.064	105.50407
868.237	171.53327
868.41	149.30003
868.583	85.28659
868.755	98.40952
868.928	146.02419
869.101	290.30526
869.273	212.33671
869.446	182.73911
869.619	207.722
869.791	140.22281
869.964	208.82284
870.136	186.13788
870.309	155.32169
870.481	154.48242
870.654	81.31636
870.826	163.07831
870.999	127.76761
871.171	196.7166
871.344	127.20148
871.516	151.82278
871.689	114.23367
871.861	151.9004
872.033	109.39665
872.206	133.60551
872.378	210.36721
872.55	133.65308
872.723	92.49191
872.895	139.18798
873.067	212.04615
873.24	228.45039
873.412	119.70431
873.584	137.6848
873.756	122.03498
873.928	168.91168
874.101	173.16608
874.273	185.20918
874.445	67.77358
874.617	99.48734
874.789	157.51648
874.961	132.48877
875.133	179.51552
875.305	156.57719
875.477	104.32086
875.649	89.92823
875.821	107.86241
875.993	243.72985
876.165	101.44228
876.337	171.82662
876.509	133.50971
876.681	170.27981
876.853	167.82553
877.025	165.94284
877.197	110.50451
877.369	106.74796
877.541	196.17789
877.712	70.80112
877.884	104.92141
878.056	181.60963
878.228	103.41057
878.4	171.37229
878.571	105.76321
878.743	78.46322
878.915	162.59077
879.086	102.50102
879.258	121.27944
879.43	113.23826
879.601	98.05676
879.773	106.44246
879.945	37.38729
880.116	55.50757
880.288	39.36453
880.459	41.98381
880.631	37.10206
880.802	41.50047
880.974	39.1178
881.145	33.15262
881.317	38.39517
881.488	32.67489
881.66	34.82059
881.831	32.62781
882.002	38.89537
882.174	33.04482
882.345	38.34606
882.517	27.67795
882.688	40.71052
882.859	36.92496
883.03	50.08644
883.202	47.83795
883.373	43.96295
883.544	43.03144
883.715	67.86562
883.887	57.58781
884.058	50.76045
884.229	68.44865
884.4	68.70542
884.571	75.01642
884.742	69.79689
884.914	73.66431
885.085	102.16294
885.256	120.27316
885.427	101.3858
885.598	116.77105
885.769	121.26421
885.94	120.94745
886.111	83.9277
886.282	138.07875
886.453	117.75522
886.624	86.09713
886.795	135.66167
886.966	119.17154
887.136	147.2925
887.307	106.24503
887.478	178.98297
887.649	156.3551
887.82	164.29827
887.991	136.29118
888.161	177.80344
888.332	163.42425
888.503	98.5947
888.674	222.17797
888.844	229.02483
889.015	194.71583
889.186	97.7641
889.356	221.911
889.527	92.07891
889.698	372.81342
889.868	135.9878
890.039	164.54014
890.209	145.21869
890.38	195.85861
890.551	161.22914
890.721	231.80003
890.892	190.57328
891.062	146.43953
891.233	164.70696
891.403	135.07175
891.574	102.36155
891.744	144.24669
891.914	185.53752
892.085	156.15429
892.255	64.35268
892.425	221.05509
892.596	182.49023
892.766	171.46147
892.936	228.60273
893.107	196.01884
893.277	115.23755
893.447	89.82999
893.618	70.67252
893.788	132.83935
893.958	74.83587
894.128	78.89098
894.298	88.01524
894.468	115.77756
894.639	59.4138
894.809	48.86075
894.979	66.62578
895.149	76.10898
895.319	62.46482
895.489	80.86383
895.659	98.20929
895.829	72.93614
895.999	72.56603
896.169	56.62781
896.339	71.43496
896.509	130.64326
896.679	145.17169
896.849	133.54848
897.019	193.94814
897.189	152.51126
897.358	139.59484
897.528	194.29909
897.698	82.42022
897.868	182.21184
898.038	292.66079
898.208	281.07899
898.377	100.44853
898.547	282.82077
898.717	439.13624
898.886	176.9847
899.056	288.1457
899.226	419.07238
899.395	259.01501
899.565	312.74995
899.735	215.60127
899.904	350.20696
900.074	292.80216
900.244	150.51303
900.413	522.14223
900.583	145.41411
900.752	204.16511
900.922	320.65684
901.091	52.07866
901.261	295.64008
901.43	268.40924
901.599	268.049
901.769	588.78833
901.938	316.51086
902.108	301.06453
902.277	383.99669
902.446	112.44995
902.616	132.70296
902.785	189.05275
902.954	305.3833
903.124	212.30104
903.293	169.53177
903.462	103.28343
903.631	131.47393
903.801	101.4459
903.97	62.91379
904.139	95.96295
904.308	72.66769
904.477	63.81715
904.646	41.99457
904.816	59.20604
904.985	78.84509
905.154	112.75048
