Data from WindowProjectSample_Transmission__87__00087.txt Node

Date: Sat May 03 18:12:22 EDT 2025
User: jessi
Spectrometer: SR400872
Trigger mode: 0
Integration Time (sec): 5.000010E-1
Scans to average: 6
Electric dark correction enabled: true
Nonlinearity correction enabled: true
Boxcar width: 0
XAxis mode: Wavelengths
Number of Pixels in Spectrum: 3648
>>>>>Begin Spectral Data<<<<<
184.909	3338.47215
185.132	4085.93521
185.355	-3978.78097
185.578	4220.40368
185.801	-253.92269
186.024	-4846.1686
186.247	2058.03368
186.47	550.22293
186.693	-71.74585
186.916	3737.83685
187.139	3169.16244
187.362	-1797.62482
187.585	5459.426
187.808	24049.37699
188.031	5.34762
188.254	-4682.73434
188.476	951.11454
188.699	3644.25336
188.922	-195.19152
189.145	-7158.50521
189.368	-369.82606
189.591	-700.78576
189.813	-3074.76848
190.036	1094.19888
190.259	-9494.47542
190.482	1379.64203
190.705	4011.91792
190.927	-1764.26904
191.15	-6666.72497
191.373	6382.62068
191.595	-1099.42736
191.818	2057.22779
192.041	-746.81945
192.263	1967.00301
192.486	-2472.26842
192.709	-23556.07228
192.931	1825.95891
193.154	-3787.24919
193.377	-2318.85711
193.599	4943.64693
193.822	1824.73443
194.044	6178.97193
194.267	896.72924
194.489	-327.33986
194.712	2513.0156
194.934	9039.77112
195.157	-23517.15313
195.379	2132.61766
195.602	1869.32831
195.824	1495.04192
196.047	44082.48246
196.269	3332.86945
196.492	-2009.12191
196.714	-1206.15894
196.936	1851.89912
197.159	-11617.57402
197.381	-408.60724
197.604	-3959.03826
197.826	-17488.92388
198.048	10096.20721
198.271	-8196.55506
198.493	4343.60712
198.715	3552.08921
198.938	-876.15418
199.16	-17849.14198
199.382	1178.43456
199.604	-1705.85233
199.827	-3484.85243
200.049	2384.38313
200.271	-7886.95098
200.493	-46170.2222
200.715	3704.07641
200.938	-3199.03593
201.16	-2675.8117
201.382	-1780.78966
201.604	-3261.56313
201.826	3341.30689
202.048	3354.80873
202.27	-1125.58309
202.492	-3503.56443
202.715	-1348.04884
202.937	-17798.78791
203.159	2536.4859
203.381	2216.27915
203.603	-3027.91522
203.825	-937.06963
204.047	55734.00793
204.269	-1420.5184
204.491	-1127.21379
204.713	65337.53067
204.935	-3098.55533
205.156	-1003.95034
205.378	-4621.16133
205.6	-1237.43094
205.822	2336.13502
206.044	-480.44109
206.266	6157.37519
206.488	862.47598
206.71	3232.01579
206.932	1429.0564
207.153	-1694.30999
207.375	-2761.39168
207.597	3987.87809
207.819	28790.47112
208.041	4121.46594
208.262	-1792.96182
208.484	-1082.21433
208.706	-1741.64621
208.927	2837.6694
209.149	5026.4616
209.371	-5335.65376
209.593	425.28253
209.814	-30906.94177
210.036	2844.3962
210.258	-796.59072
210.479	4267.16127
210.701	-3615.71413
210.922	-11064.11943
211.144	-838.43412
211.366	5145.50495
211.587	-2333.73881
211.809	-5013.44046
212.03	-797.47191
212.252	-501.96648
212.473	3347.22141
212.695	-774.53633
212.916	-890.70714
213.138	730.07276
213.359	-1416.44345
213.581	12281.78288
213.802	-2186.08125
214.024	-2524.29586
214.245	-6143.70737
214.466	-191.64816
214.688	-2941.64916
214.909	-18793.15445
215.131	-4720.56427
215.352	-2085.77933
215.573	11567.46297
215.795	1674.26891
216.016	6726.83668
216.237	-577.51121
216.459	6664.68856
216.68	-3622.54938
216.901	-2751.40653
217.122	-1931.11284
217.344	-7421.74918
217.565	-2855.18878
217.786	2287.31046
218.007	1659.77829
218.228	-614.23525
218.45	-4566.07282
218.671	1583.17331
218.892	3875.62447
219.113	1565.1249
219.334	342.63071
219.555	-7190.10822
219.776	12551.584
219.997	4093.87716
220.219	1934.17855
220.44	1099.32694
220.661	1114.59727
220.882	-2492.31873
221.103	-1080.24669
221.324	2491.87631
221.545	3127.20026
221.766	-3425.27492
221.987	-596.57348
222.208	-9600.14236
222.429	169348.89701
222.65	-559.64423
222.87	-9750.97011
223.091	2475.69143
223.312	-1291.9848
223.533	2463.73326
223.754	2022.37509
223.975	2735.31315
224.196	-6060.90879
224.417	-2692.9757
224.637	8588.47351
224.858	1116.76592
225.079	1407.30302
225.3	1065.07631
225.521	4855.0737
225.741	952.98943
225.962	1183.82194
226.183	-404.57124
226.404	1447.29836
226.624	1105.21443
226.845	1648.5315
227.066	924.50918
227.286	594.90115
227.507	216.9053
227.728	190.29805
227.948	288.44443
228.169	96.34461
228.389	97.26854
228.61	49.04737
228.831	68.34335
229.051	7.11762
229.272	36.28013
229.492	50.96075
229.713	14.07032
229.933	40.91501
230.154	34.60341
230.374	53.76756
230.595	40.19035
230.815	27.33227
231.036	41.47053
231.256	-9.85376
231.477	74.88103
231.697	43.71223
231.917	47.31368
232.138	65.54558
232.358	129.08736
232.579	118.83575
232.799	21.75782
233.019	110.06562
233.24	143.09647
233.46	49.81329
233.68	75.9979
233.901	59.05077
234.121	37.86121
234.341	14.9861
234.561	-3.06031
234.782	29.67959
235.002	79.07775
235.222	-1.42666
235.442	65.22599
235.662	36.49371
235.883	75.70898
236.103	70.50235
236.323	45.66632
236.543	32.93939
236.763	47.02958
236.983	49.86053
237.203	50.71542
237.423	75.49241
237.643	104.99991
237.864	92.30782
238.084	24.94106
238.304	37.68334
238.524	57.59869
238.744	41.72004
238.964	81.62281
239.184	69.88062
239.404	75.43813
239.624	36.63223
239.843	67.60729
240.063	37.78669
240.283	27.09631
240.503	27.47936
240.723	28.33708
240.943	14.04905
241.163	20.53877
241.383	15.66997
241.603	7.80472
241.822	9.19063
242.042	6.23257
242.262	9.00782
242.482	9.76518
242.702	11.3357
242.921	3.73037
243.141	8.17975
243.361	6.53133
243.581	10.36921
243.8	8.87081
244.02	5.92406
244.24	10.77349
244.459	9.87394
244.679	21.65837
244.899	13.06362
245.118	14.53868
245.338	13.24692
245.558	15.62189
245.777	8.25834
245.997	9.92201
246.216	10.99021
246.436	6.41453
246.655	4.59912
246.875	3.28135
247.094	6.70161
247.314	2.13774
247.533	3.8077
247.753	5.11575
247.972	3.92695
248.192	1.38135
248.411	2.29398
248.631	4.11854
248.85	5.55419
249.07	3.73573
249.289	6.68288
249.508	5.60791
249.728	8.94852
249.947	8.84587
250.166	9.73065
250.386	5.83098
250.605	8.21041
250.824	12.08658
251.044	8.56083
251.263	27.3965
251.482	15.54286
251.701	13.12034
251.921	0.33897
252.14	4.8365
252.359	4.6682
252.578	11.49754
252.798	3.53369
253.017	10.40985
253.236	5.20232
253.455	7.12606
253.674	13.17864
253.893	6.15126
254.112	9.18267
254.331	13.36512
254.551	11.50471
254.77	5.47317
254.989	16.06904
255.208	15.35588
255.427	15.89188
255.646	13.82998
255.865	23.53184
256.084	10.05043
256.303	12.00112
256.522	16.46231
256.741	3.80888
256.96	3.93002
257.179	11.47238
257.397	12.20793
257.616	6.83293
257.835	7.38556
258.054	16.89999
258.273	10.07083
258.492	12.18654
258.711	6.976
258.93	3.67968
259.148	4.43475
259.367	4.69867
259.586	6.02611
259.805	2.84468
260.023	5.42144
260.242	4.17475
260.461	2.99714
260.68	1.66268
260.898	4.91608
261.117	1.57587
261.336	1.05583
261.554	4.04628
261.773	3.98227
261.992	1.02432
262.21	3.94194
262.429	5.14737
262.648	8.48781
262.866	9.25756
263.085	6.45637
263.303	5.84897
263.522	10.01189
263.74	10.08964
263.959	16.93361
264.178	8.70753
264.396	7.58937
264.615	4.91936
264.833	12.62165
265.051	12.04545
265.27	11.88648
265.488	12.51335
265.707	8.23569
265.925	11.85848
266.144	5.52909
266.362	6.74886
266.58	6.45299
266.799	5.63809
267.017	6.83736
267.235	5.9174
267.454	3.97085
267.672	2.08242
267.89	4.90312
268.109	5.28286
268.327	4.64128
268.545	1.22881
268.763	4.75759
268.982	2.2986
269.2	5.76207
269.418	3.37067
269.636	2.99809
269.854	5.44378
270.073	4.10865
270.291	1.63306
270.509	2.49114
270.727	5.03439
270.945	7.9065
271.163	8.15136
271.381	2.18801
271.599	3.41833
271.817	5.91562
272.036	2.22437
272.254	3.74758
272.472	2.86917
272.69	2.79709
272.908	3.01993
273.126	4.82848
273.344	5.94836
273.562	2.42414
273.779	3.04186
273.997	4.28883
274.215	4.94986
274.433	3.57104
274.651	5.10917
274.869	5.24045
275.087	3.29475
275.305	4.81357
275.523	2.64709
275.74	3.61537
275.958	6.21743
276.176	8.74105
276.394	2.99249
276.612	3.85127
276.829	3.57172
277.047	3.06582
277.265	3.70071
277.483	4.34957
277.7	5.1786
277.918	4.02681
278.136	7.01572
278.353	3.91739
278.571	1.99501
278.789	5.84448
279.006	1.2279
279.224	3.23718
279.442	5.63329
279.659	3.89177
279.877	2.80888
280.094	6.21289
280.312	1.59004
280.529	4.20117
280.747	1.23604
280.964	2.85033
281.182	6.59314
281.399	3.19075
281.617	4.38525
281.834	3.44812
282.052	2.643
282.269	3.83019
282.487	2.84407
282.704	2.19651
282.921	2.53613
283.139	3.72232
283.356	4.95064
283.574	4.00815
283.791	2.04666
284.008	5.96604
284.226	3.07304
284.443	3.58782
284.66	4.92364
284.877	3.71579
285.095	2.5366
285.312	1.7275
285.529	1.23156
285.746	0.86173
285.964	2.42637
286.181	1.42381
286.398	2.32303
286.615	3.15132
286.832	3.04094
287.05	0.88202
287.267	2.07111
287.484	2.47394
287.701	2.96149
287.918	2.95808
288.135	2.97242
288.352	1.35618
288.569	1.62088
288.786	2.80595
289.003	2.17293
289.22	3.12568
289.437	2.05332
289.654	3.38906
289.871	3.55384
290.088	3.36596
290.305	2.65527
290.522	2.01419
290.739	2.36512
290.956	3.38515
291.173	4.48827
291.39	4.06362
291.607	2.68491
291.824	2.04075
292.04	1.45076
292.257	3.31462
292.474	3.71126
292.691	2.48384
292.908	1.43583
293.125	2.09859
293.341	1.17652
293.558	5.76656
293.775	2.34714
293.992	2.47443
294.208	1.09348
294.425	1.37823
294.642	2.011
294.858	3.36895
295.075	1.00174
295.292	2.1044
295.508	2.67878
295.725	4.06523
295.942	2.10379
296.158	1.55683
296.375	2.47088
296.591	1.87863
296.808	1.95902
297.024	2.20238
297.241	2.52081
297.458	2.64215
297.674	0.22173
297.891	2.09689
298.107	1.61193
298.323	1.18937
298.54	2.99058
298.756	1.41573
298.973	0.57057
299.189	3.04415
299.406	1.33506
299.622	3.35852
299.838	3.19451
300.055	3.03087
300.271	0.84208
300.487	1.24584
300.704	1.49604
300.92	0.95429
301.136	4.25427
301.353	3.1461
301.569	2.21671
301.785	2.5476
302.001	3.16522
302.218	2.59057
302.434	2.56015
302.65	0.8737
302.866	1.86793
303.083	4.44497
303.299	4.08965
303.515	2.02949
303.731	2.40439
303.947	0.96968
304.163	1.46322
304.379	2.31954
304.595	2.89309
304.812	1.63734
305.028	1.2574
305.244	1.93431
305.46	2.78469
305.676	3.09755
305.892	3.68314
306.108	2.30908
306.324	1.8802
306.54	4.2617
306.756	3.03855
306.972	2.9247
307.187	1.89652
307.403	3.70575
307.619	1.59701
307.835	3.21202
308.051	3.80916
308.267	0.89642
308.483	3.21272
308.699	2.78881
308.914	2.37884
309.13	2.16486
309.346	0.69586
309.562	1.23108
309.778	0.76467
309.993	2.76578
310.209	2.14789
310.425	0.90547
310.641	1.94777
310.856	1.07785
311.072	1.04552
311.288	1.8834
311.503	2.27193
311.719	0.42514
311.935	0.39412
312.15	2.42554
312.366	2.10564
312.581	2.71774
312.797	2.11536
313.013	2.7174
313.228	1.6625
313.444	2.41307
313.659	1.52889
313.875	2.68839
314.09	2.14098
314.306	3.39563
314.521	3.15447
314.737	2.84964
314.952	2.31987
315.168	2.08109
315.383	2.83079
315.599	2.0377
315.814	1.81024
316.029	3.00691
316.245	0.98295
316.46	0.7806
316.675	3.60459
316.891	4.34205
317.106	5.00884
317.321	2.97049
317.537	2.812
317.752	3.4007
317.967	3.15928
318.183	1.55094
318.398	2.07699
318.613	3.27769
318.828	3.7566
319.043	3.18868
319.259	1.78881
319.474	2.72303
319.689	3.36211
319.904	0.60656
320.119	3.02003
320.334	2.40423
320.549	2.07943
320.765	3.37905
320.98	2.47008
321.195	3.29975
321.41	1.92607
321.625	3.10689
321.84	4.08096
322.055	4.61599
322.27	1.50183
322.485	1.20741
322.7	2.37767
322.915	3.42943
323.13	1.35264
323.345	3.66595
323.56	3.09622
323.775	3.23774
323.989	2.7991
324.204	2.54158
324.419	3.03103
324.634	0.94993
324.849	2.17696
325.064	4.6494
325.279	3.29761
325.493	2.92268
325.708	3.24007
325.923	1.59225
326.138	1.53521
326.352	4.02835
326.567	3.38774
326.782	1.96003
326.997	1.53151
327.211	2.65312
327.426	2.85748
327.641	1.93458
327.855	0.61681
328.07	2.75729
328.285	3.8456
328.499	1.81979
328.714	2.98777
328.928	3.06077
329.143	2.51803
329.358	3.22416
329.572	3.35934
329.787	3.74371
330.001	4.96871
330.216	0.79361
330.43	4.17379
330.645	4.09938
330.859	3.33831
331.074	1.52836
331.288	2.5024
331.503	3.68191
331.717	1.22032
331.931	2.2279
332.146	2.32001
332.36	4.11579
332.575	3.09591
332.789	2.56046
333.003	2.15516
333.218	2.73764
333.432	2.05504
333.646	2.82824
333.86	3.76679
334.075	4.20519
334.289	1.97987
334.503	1.4493
334.717	2.99263
334.932	2.90655
335.146	3.68053
335.36	2.18714
335.574	3.16091
335.788	2.63978
336.003	3.5692
336.217	2.94255
336.431	2.80901
336.645	1.72511
336.859	1.13181
337.073	1.90188
337.287	2.56567
337.501	1.53684
337.715	2.59429
337.929	3.00509
338.143	1.23536
338.357	2.24546
338.571	1.46967
338.785	2.67977
338.999	1.69305
339.213	1.86878
339.427	1.03878
339.641	3.33412
339.855	2.11219
340.069	1.8809
340.283	3.42584
340.497	4.01815
340.711	2.70828
340.924	1.8418
341.138	1.36977
341.352	1.06458
341.566	2.4057
341.78	0.65559
341.993	1.60478
342.207	1.19397
342.421	2.63106
342.635	2.32874
342.848	1.78447
343.062	0.33502
343.276	1.53485
343.49	4.30404
343.703	1.69429
343.917	2.81912
344.131	3.06123
344.344	1.55959
344.558	1.64107
344.771	1.58182
344.985	3.49109
345.199	3.71269
345.412	2.40705
345.626	2.61428
345.839	0.71143
346.053	1.31205
346.266	1.17759
346.48	2.82848
346.693	2.47597
346.907	2.82089
347.12	1.43143
347.334	2.46218
347.547	2.6111
347.76	2.00212
347.974	3.32737
348.187	2.55919
348.401	1.91502
348.614	1.76078
348.827	1.92517
349.041	2.82694
349.254	0.87907
349.467	2.07544
349.681	0.9566
349.894	1.45303
350.107	3.42326
350.32	3.61088
350.534	0.63248
350.747	1.5524
350.96	1.30334
351.173	1.54911
351.386	1.92801
351.6	1.78947
351.813	1.45768
352.026	2.08192
352.239	0.79649
352.452	1.72706
352.665	2.92618
352.878	1.89085
353.092	4.11591
353.305	2.60935
353.518	2.3678
353.731	1.17905
353.944	3.38832
354.157	1.39618
354.37	1.2155
354.583	0.99578
354.796	0.78382
355.009	3.10299
355.222	2.03666
355.435	2.16124
355.647	3.10226
355.86	1.05432
356.073	1.8826
356.286	1.55066
356.499	2.56105
356.712	2.26313
356.925	2.21946
357.138	2.88537
357.35	1.01752
357.563	1.55478
357.776	2.01118
357.989	1.39573
358.201	2.43455
358.414	1.96459
358.627	2.82303
358.84	1.5859
359.052	1.13089
359.265	0.93134
359.478	2.80849
359.69	-0.27504
359.903	2.30495
360.116	2.53647
360.328	0.48111
360.541	2.57257
360.753	0.89966
360.966	1.27432
361.179	1.41465
361.391	1.36292
361.604	0.86527
361.816	1.2694
362.029	1.12778
362.241	1.08224
362.454	1.19378
362.666	0.93321
362.879	1.57633
363.091	1.40878
363.304	0.98979
363.516	1.56853
363.728	0.70519
363.941	2.13011
364.153	1.21861
364.366	0.0583
364.578	0.80095
364.79	2.003
365.003	1.65492
365.215	1.35162
365.427	1.9934
365.639	2.72259
365.852	1.97938
366.064	3.30117
366.276	1.23083
366.488	2.1098
366.701	1.29568
366.913	1.62106
367.125	1.60374
367.337	1.16856
367.549	1.35476
367.762	1.64775
367.974	1.94271
368.186	0.98004
368.398	2.69474
368.61	2.16082
368.822	2.28382
369.034	1.79335
369.246	2.28448
369.458	3.5941
369.67	0.97653
369.882	3.27762
370.094	0.15745
370.306	3.00392
370.518	1.39334
370.73	0.94368
370.942	1.1295
371.154	1.43477
371.366	1.0942
371.578	1.86907
371.79	1.0698
372.002	2.6212
372.214	2.99071
372.425	1.84975
372.637	2.6176
372.849	1.65335
373.061	-0.23542
373.273	2.06674
373.484	2.24743
373.696	2.27125
373.908	0.00808
374.12	2.51463
374.331	2.2293
374.543	1.17953
374.755	0.96271
374.967	1.82385
375.178	2.33902
375.39	1.58811
375.602	1.89878
375.813	0.9446
376.025	0.65006
376.236	1.7409
376.448	1.81389
376.66	1.36324
376.871	1.31276
377.083	2.45099
377.294	2.65813
377.506	1.26343
377.717	2.60367
377.929	1.85969
378.14	1.13479
378.352	2.1001
378.563	2.08426
378.775	2.61375
378.986	0.99006
379.197	1.89834
379.409	1.27825
379.62	2.40097
379.832	1.91268
380.043	1.5906
380.254	1.90514
380.466	0.74856
380.677	3.89583
380.888	3.42813
381.1	3.78528
381.311	3.66877
381.522	1.89374
381.733	4.05195
381.945	1.65384
382.156	1.71643
382.367	1.45285
382.578	4.15001
382.789	4.00697
383.001	1.4797
383.212	2.86439
383.423	3.30426
383.634	2.65228
383.845	2.32491
384.056	1.50186
384.267	1.8125
384.478	1.79981
384.69	0.95493
384.901	2.36267
385.112	2.07358
385.323	3.23967
385.534	2.29606
385.745	2.29432
385.956	2.22099
386.167	1.09212
386.378	2.44878
386.588	1.21539
386.799	1.17485
387.01	0.76288
387.221	2.6032
387.432	2.01385
387.643	3.46081
387.854	1.81041
388.065	1.78498
388.275	1.92832
388.486	1.62676
388.697	2.04786
388.908	1.72769
389.119	2.88765
389.329	3.26255
389.54	2.01071
389.751	2.41736
389.962	3.10832
390.172	2.26206
390.383	1.92416
390.594	1.64797
390.804	1.61864
391.015	1.81103
391.226	2.2897
391.436	2.66993
391.647	2.49601
391.858	2.51366
392.068	1.03227
392.279	1.42306
392.489	2.46161
392.7	3.01311
392.91	1.68056
393.121	1.81418
393.331	2.56277
393.542	3.1527
393.752	2.98394
393.963	2.5379
394.173	2.61461
394.384	2.90127
394.594	2.41031
394.804	1.67495
395.015	2.27911
395.225	2.88499
395.436	1.70702
395.646	2.92198
395.856	1.97321
396.067	1.38887
396.277	3.2719
396.487	2.76892
396.697	2.74928
396.908	3.22933
397.118	3.03379
397.328	2.68961
397.538	3.24919
397.749	2.1723
397.959	3.30681
398.169	3.05741
398.379	1.64549
398.589	2.88947
398.8	2.94962
399.01	2.92931
399.22	2.59293
399.43	4.43825
399.64	2.49585
399.85	3.05789
400.06	2.73534
400.27	2.36255
400.48	2.674
400.69	3.69818
400.9	2.51547
401.11	2.12428
401.32	3.43596
401.53	2.5211
401.74	3.89913
401.95	3.35075
402.16	2.68709
402.37	3.28473
402.58	2.51622
402.79	3.33034
403	3.42999
403.209	2.5403
403.419	3.64747
403.629	2.4999
403.839	3.68605
404.049	3.8009
404.258	2.76429
404.468	2.65048
404.678	3.7206
404.888	3.91763
405.097	2.91108
405.307	2.98012
405.517	3.53994
405.727	3.53974
405.936	2.92823
406.146	3.42549
406.356	3.99734
406.565	3.16492
406.775	2.77839
406.984	2.83757
407.194	4.65508
407.404	3.37772
407.613	3.52276
407.823	3.89883
408.032	4.20714
408.242	4.0324
408.451	2.97351
408.661	3.2333
408.87	4.52537
409.08	2.9746
409.289	3.78689
409.499	3.53628
409.708	3.28129
409.918	2.14133
410.127	3.6596
410.336	4.47628
410.546	3.90082
410.755	3.20906
410.964	3.16054
411.174	2.75375
411.383	3.94733
411.592	3.79573
411.802	2.80584
412.011	3.97148
412.22	3.42724
412.429	4.28652
412.639	4.63384
412.848	4.49648
413.057	4.82718
413.266	4.45316
413.475	3.74002
413.685	4.21291
413.894	4.16046
414.103	4.39937
414.312	4.16149
414.521	3.58955
414.73	4.031
414.939	5.09492
415.148	4.1034
415.357	3.99107
415.566	3.75741
415.776	3.81382
415.985	3.63047
416.194	4.36178
416.403	5.33395
416.611	3.02825
416.82	3.67242
417.029	4.08145
417.238	3.57295
417.447	3.54539
417.656	3.91402
417.865	3.65443
418.074	4.10441
418.283	4.49403
418.492	5.39887
418.7	5.25064
418.909	6.48268
419.118	5.25648
419.327	5.77111
419.536	5.48693
419.744	5.33357
419.953	6.69166
420.162	6.7296
420.371	5.70205
420.579	6.0427
420.788	7.05736
420.997	7.29346
421.205	7.2916
421.414	6.99761
421.623	7.20388
421.831	6.63558
422.04	7.29468
422.249	6.30907
422.457	6.92536
422.666	6.2025
422.874	7.20261
423.083	7.23778
423.291	7.17127
423.5	6.97719
423.708	7.17032
423.917	7.75355
424.125	7.10422
424.334	6.98591
424.542	8.89152
424.751	8.03811
424.959	7.63339
425.167	8.08486
425.376	7.77433
425.584	6.81283
425.793	6.90337
426.001	5.75924
426.209	6.47331
426.418	5.16638
426.626	4.97128
426.834	4.71904
427.042	4.97076
427.251	4.43605
427.459	5.17547
427.667	4.7444
427.875	3.96863
428.084	4.30847
428.292	5.42709
428.5	5.20613
428.708	4.13284
428.916	4.07642
429.124	4.71092
429.333	4.37125
429.541	4.66576
429.749	4.72798
429.957	4.63888
430.165	6.14585
430.373	3.80158
430.581	4.693
430.789	5.71058
430.997	4.73525
431.205	4.2423
431.413	4.91894
431.621	4.58525
431.829	5.14501
432.037	4.57836
432.245	4.79519
432.453	5.09537
432.661	4.8645
432.869	6.32046
433.076	4.64679
433.284	5.2676
433.492	6.10694
433.7	6.17711
433.908	5.38063
434.116	5.61039
434.323	5.5083
434.531	5.31195
434.739	5.62784
434.947	5.42769
435.154	5.69551
435.362	5.04171
435.57	4.80941
435.778	4.58086
435.985	5.05065
436.193	4.57177
436.401	5.76155
436.608	5.01281
436.816	4.75376
437.023	5.8759
437.231	6.12188
437.439	5.20788
437.646	5.4775
437.854	5.34992
438.061	5.56242
438.269	5.13802
438.476	5.5593
438.684	5.43727
438.891	5.39788
439.099	5.3212
439.306	5.03697
439.514	5.22051
439.721	6.76543
439.929	5.92844
440.136	7.03393
440.343	6.90692
440.551	6.63241
440.758	8.44002
440.965	7.27951
441.173	6.8267
441.38	6.43426
441.587	6.59853
441.795	6.20787
442.002	6.07218
442.209	5.98835
442.416	6.03972
442.624	5.7815
442.831	5.68958
443.038	4.96223
443.245	4.83261
443.452	5.02811
443.66	5.627
443.867	5.08907
444.074	5.02962
444.281	5.18823
444.488	5.5408
444.695	6.03803
444.902	5.85681
445.109	6.99885
445.316	6.66807
445.523	7.00362
445.73	6.7245
445.937	7.58428
446.144	8.01851
446.351	8.52367
446.558	7.28796
446.765	9.08521
446.972	8.52203
447.179	7.9232
447.386	8.61564
447.593	7.24798
447.8	8.2983
448.007	6.93002
448.214	6.54341
448.42	5.92922
448.627	6.8683
448.834	5.89716
449.041	5.55842
449.248	5.31538
449.454	5.80112
449.661	6.36144
449.868	5.04782
450.075	4.82225
450.281	4.30713
450.488	4.67241
450.695	4.80303
450.901	4.77312
451.108	4.95553
451.315	5.9279
451.521	5.14946
451.728	5.95289
451.935	4.905
452.141	5.24451
452.348	5.31932
452.554	5.26903
452.761	5.00787
452.967	6.27525
453.174	5.50721
453.38	5.4407
453.587	4.5811
453.793	5.50913
454	5.70406
454.206	6.55743
454.413	5.84051
454.619	5.62846
454.825	4.93093
455.032	5.66133
455.238	5.83259
455.445	4.4659
455.651	5.48
455.857	4.12149
456.064	5.20982
456.27	5.15821
456.476	5.07327
456.682	4.52897
456.889	5.43252
457.095	5.66574
457.301	6.7243
457.507	5.37335
457.714	5.27224
457.92	5.41539
458.126	4.94873
458.332	5.32433
458.538	5.54179
458.744	5.82131
458.951	6.2083
459.157	8.13536
459.363	7.34803
459.569	7.56818
459.775	8.18027
459.981	7.67876
460.187	8.04151
460.393	8.34707
460.599	8.68729
460.805	7.54968
461.011	6.90667
461.217	7.15931
461.423	6.48263
461.629	5.7467
461.835	5.94479
462.041	5.52436
462.247	6.57037
462.453	5.43482
462.658	5.36623
462.864	5.89516
463.07	5.65368
463.276	5.60641
463.482	5.60179
463.688	6.58824
463.893	5.15419
464.099	5.34953
464.305	6.50123
464.511	5.23738
464.716	5.44564
464.922	6.10032
465.128	5.00491
465.333	6.50104
465.539	6.00886
465.745	5.6499
465.95	5.70531
466.156	7.55812
466.362	6.33481
466.567	5.64206
466.773	5.35466
466.978	6.61152
467.184	5.11551
467.389	4.70597
467.595	5.95247
467.8	5.14339
468.006	6.42841
468.211	6.37732
468.417	5.10002
468.622	5.89321
468.828	5.84454
469.033	5.79672
469.239	7.42592
469.444	5.21796
469.649	6.23092
469.855	5.66292
470.06	5.8164
470.266	5.01779
470.471	5.97816
470.676	6.03409
470.881	4.61757
471.087	6.70569
471.292	6.86437
471.497	4.99542
471.703	5.56299
471.908	5.3221
472.113	5.77243
472.318	6.45798
472.523	5.11298
472.729	5.99465
472.934	6.05191
473.139	5.56663
473.344	6.09213
473.549	6.71924
473.754	5.30634
473.959	7.22577
474.164	5.36455
474.369	5.69124
474.575	6.1935
474.78	5.74385
474.985	5.55738
475.19	4.65174
475.395	5.3856
475.6	5.68303
475.804	6.66424
476.009	5.94289
476.214	5.73119
476.419	5.54536
476.624	4.90877
476.829	5.36377
477.034	6.20275
477.239	5.57245
477.444	5.90579
477.648	6.27696
477.853	6.28439
478.058	5.72956
478.263	5.471
478.468	5.42931
478.672	5.48885
478.877	6.90288
479.082	6.96536
479.287	6.22058
479.491	5.89584
479.696	5.37177
479.901	6.59877
480.105	6.39469
480.31	5.5488
480.515	5.99178
480.719	7.4483
480.924	5.97133
481.128	5.79755
481.333	6.82245
481.538	7.2999
481.742	7.14589
481.947	8.4997
482.151	9.04894
482.356	9.55253
482.56	11.444
482.765	12.68064
482.969	15.72205
483.174	17.62208
483.378	20.20979
483.582	20.74761
483.787	22.34606
483.991	22.46235
484.196	22.66405
484.4	22.08414
484.604	22.24804
484.809	19.7759
485.013	18.83813
485.217	16.74542
485.422	14.69705
485.626	13.50518
485.83	12.76415
486.034	12.37497
486.239	12.79694
486.443	13.06533
486.647	13.34168
486.851	14.54328
487.055	16.01058
487.26	15.65641
487.464	16.32611
487.668	15.77893
487.872	16.18491
488.076	16.68461
488.28	15.52141
488.484	14.42533
488.688	14.20846
488.892	13.43715
489.096	12.48863
489.3	11.37458
489.504	10.75553
489.708	10.27325
489.912	10.23209
490.116	9.85842
490.32	9.58536
490.524	10.71551
490.728	11.52273
490.932	11.99079
491.136	12.62132
491.34	13.94519
491.544	14.25974
491.748	13.90729
491.951	13.89044
492.155	13.48383
492.359	13.08423
492.563	11.48238
492.767	10.86386
492.97	9.72183
493.174	8.42651
493.378	8.0173
493.582	6.81607
493.785	6.8448
493.989	6.73566
494.193	6.39054
494.396	5.856
494.6	6.26131
494.804	5.69144
495.007	5.39946
495.211	5.67188
495.414	5.77239
495.618	6.46262
495.822	7.04202
496.025	6.39954
496.229	7.16394
496.432	6.58636
496.636	7.03362
496.839	6.99367
497.043	8.00775
497.246	7.24783
497.45	6.83004
497.653	7.17188
497.856	7.03429
498.06	6.40912
498.263	6.59032
498.467	6.35295
498.67	6.9408
498.873	6.52647
499.077	6.04026
499.28	6.24128
499.483	6.40869
499.686	6.64608
499.89	6.25365
500.093	6.70836
500.296	5.67292
500.499	7.32747
500.703	6.28209
500.906	6.45573
501.109	7.07341
501.312	6.17283
501.515	6.11275
501.719	6.49422
501.922	6.9132
502.125	6.41494
502.328	6.21276
502.531	5.65826
502.734	6.27234
502.937	5.2963
503.14	6.4006
503.343	5.89142
503.546	6.14939
503.749	6.02298
503.952	6.60107
504.155	5.87085
504.358	6.5991
504.561	6.51265
504.764	5.55407
504.967	6.37155
505.17	6.22541
505.373	7.19297
505.576	6.11513
505.778	6.74351
505.981	5.68407
506.184	7.03674
506.387	5.31513
506.59	7.55593
506.793	6.88847
506.995	6.53157
507.198	5.17092
507.401	6.63914
507.604	6.53615
507.806	5.7275
508.009	5.88105
508.212	6.85483
508.414	5.86868
508.617	6.09776
508.82	6.33074
509.022	7.22899
509.225	6.54194
509.427	5.62129
509.63	6.93428
509.833	6.28658
510.035	6.05976
510.238	5.50697
510.44	7.02852
510.643	5.36496
510.845	7.5054
511.048	6.62772
511.25	6.12769
511.453	6.28214
511.655	6.57933
511.858	6.14721
512.06	6.81143
512.262	6.47371
512.465	7.06725
512.667	6.38133
512.869	5.72724
513.072	6.63489
513.274	6.88007
513.476	6.84571
513.679	6.9257
513.881	5.68842
514.083	7.28378
514.286	5.88355
514.488	5.81182
514.69	5.82211
514.892	5.6617
515.094	6.89404
515.297	6.12023
515.499	6.5907
515.701	5.75354
515.903	7.50087
516.105	7.413
516.307	6.92157
516.509	5.3943
516.711	5.80535
516.913	6.39489
517.116	6.43384
517.318	6.22041
517.52	7.25221
517.722	7.32866
517.924	6.62317
518.126	7.63727
518.328	7.20968
518.529	8.06247
518.731	8.88733
518.933	7.2146
519.135	7.56931
519.337	8.21037
519.539	7.492
519.741	5.86134
519.943	6.48227
520.145	6.14124
520.346	6.944
520.548	6.21253
520.75	6.6419
520.952	6.27275
521.153	6.69779
521.355	6.75328
521.557	5.89756
521.759	6.46514
521.96	6.43402
522.162	5.78517
522.364	6.98208
522.565	5.96833
522.767	6.9532
522.969	7.01341
523.17	6.74289
523.372	6.33068
523.573	6.22483
523.775	6.3897
523.977	5.88603
524.178	7.33839
524.38	6.19871
524.581	7.06062
524.783	6.61739
524.984	7.87718
525.186	7.67738
525.387	8.41527
525.589	8.27728
525.79	8.19742
525.991	8.10322
526.193	8.88177
526.394	7.87516
526.596	8.99133
526.797	9.42442
526.998	8.98503
527.2	9.356
527.401	11.40833
527.602	12.28658
527.803	14.65646
528.005	15.65593
528.206	16.88466
528.407	17.72457
528.608	17.46601
528.81	17.80664
529.011	16.94051
529.212	18.00304
529.413	16.33421
529.614	15.19346
529.815	14.37857
530.017	13.02165
530.218	11.41151
530.419	10.09472
530.62	9.69245
530.821	9.32411
531.022	8.00006
531.223	9.00351
531.424	8.76959
531.625	9.0035
531.826	8.68852
532.027	9.39594
532.228	10.85116
532.429	10.65353
532.63	10.981
532.831	11.85249
533.032	11.72226
533.233	12.67872
533.433	12.23982
533.634	12.61282
533.835	11.68836
534.036	10.94546
534.237	10.44292
534.438	9.6519
534.638	8.26728
534.839	8.13547
535.04	8.16024
535.241	7.4449
535.441	8.74842
535.642	8.07017
535.843	7.37308
536.043	7.91352
536.244	8.07461
536.445	8.4169
536.645	9.25821
536.846	8.86436
537.047	9.3704
537.247	7.82088
537.448	7.79483
537.648	7.72622
537.849	7.07133
538.049	6.79799
538.25	7.05457
538.451	6.91185
538.651	6.16431
538.851	6.82967
539.052	7.57426
539.252	7.26379
539.453	6.64173
539.653	7.18444
539.854	7.47289
540.054	8.28645
540.254	9.84742
540.455	10.81068
540.655	10.81622
540.855	12.35745
541.056	13.46167
541.256	12.80325
541.456	13.99853
541.657	13.09648
541.857	13.99405
542.057	12.19884
542.257	11.69051
542.458	12.06269
542.658	11.44424
542.858	9.6033
543.058	10.34119
543.258	9.47701
543.458	7.72671
543.659	7.47494
543.859	8.4061
544.059	8.2682
544.259	7.20149
544.459	7.66687
544.659	6.57165
544.859	7.05752
545.059	6.40674
545.259	7.21466
545.459	6.71357
545.659	7.4071
545.859	6.86454
546.059	7.08373
546.259	6.63782
546.459	6.43964
546.659	6.48889
546.859	7.50756
547.059	7.18386
547.258	7.03505
547.458	7.19798
547.658	6.16017
547.858	6.10593
548.058	6.75459
548.258	6.41356
548.457	5.95589
548.657	8.28078
548.857	6.47865
549.057	7.12494
549.256	7.25394
549.456	6.19788
549.656	5.37741
549.855	7.89303
550.055	6.42384
550.255	7.87916
550.454	7.16984
550.654	7.10968
550.853	7.59242
551.053	7.34706
551.253	6.80524
551.452	7.01319
551.652	5.68993
551.851	5.68906
552.051	6.46472
552.25	6.35417
552.45	6.15911
552.649	6.57872
552.849	6.09327
553.048	6.58077
553.248	7.05047
553.447	5.94696
553.646	7.29024
553.846	7.89511
554.045	7.22647
554.244	5.70561
554.444	7.94621
554.643	6.00441
554.842	7.74306
555.042	8.19878
555.241	6.1167
555.44	5.81747
555.64	7.25518
555.839	7.94633
556.038	6.92374
556.237	5.98795
556.436	6.70546
556.636	7.00343
556.835	6.23647
557.034	7.90412
557.233	6.60857
557.432	5.75505
557.631	7.66302
557.83	6.67795
558.029	6.38758
558.228	6.14323
558.427	5.90058
558.626	6.92534
558.825	5.80627
559.024	6.56739
559.223	8.19717
559.422	6.40793
559.621	6.83129
559.82	4.68998
560.019	6.53267
560.218	6.67431
560.417	4.29728
560.616	6.03108
560.815	9.50391
561.014	5.51976
561.212	8.03933
561.411	6.6932
561.61	5.51535
561.809	6.3083
562.008	7.5326
562.206	6.44483
562.405	6.85138
562.604	6.32796
562.803	6.91425
563.001	6.24197
563.2	5.42052
563.399	6.8885
563.597	5.62941
563.796	6.60827
563.995	5.62157
564.193	7.28614
564.392	6.34673
564.59	8.28019
564.789	4.89696
564.988	6.24555
565.186	6.64886
565.385	6.47904
565.583	6.46258
565.782	6.4445
565.98	6.30503
566.179	6.57871
566.377	5.74634
566.575	5.99592
566.774	7.60803
566.972	7.15651
567.171	8.19693
567.369	7.56451
567.567	6.64989
567.766	6.88069
567.964	5.05433
568.162	6.91395
568.361	7.41881
568.559	6.21849
568.757	6.79362
568.956	6.55133
569.154	6.55946
569.352	6.99433
569.55	6.50599
569.748	6.37997
569.947	5.93455
570.145	5.80014
570.343	5.82662
570.541	7.40281
570.739	5.52875
570.937	6.48994
571.135	6.92621
571.333	7.8651
571.532	7.8795
571.73	6.85851
571.928	7.70281
572.126	6.88707
572.324	6.21465
572.522	7.71119
572.72	8.66146
572.918	6.60736
573.116	6.90038
573.313	6.43355
573.511	6.6953
573.709	6.14785
573.907	7.14157
574.105	6.35781
574.303	5.47186
574.501	5.38668
574.699	6.9421
574.896	6.89033
575.094	7.0377
575.292	5.36519
575.49	7.23181
575.688	6.41555
575.885	7.66924
576.083	8.33445
576.281	6.87609
576.478	5.96369
576.676	6.94954
576.874	5.32509
577.071	6.30506
577.269	8.73103
577.467	6.57573
577.664	6.50692
577.862	7.50772
578.059	5.8851
578.257	7.52956
578.455	6.38039
578.652	6.63676
578.85	4.84077
579.047	6.75598
579.245	6.56419
579.442	6.53018
579.64	6.63226
579.837	5.21176
580.034	9.10264
580.232	6.27868
580.429	5.37075
580.627	6.74136
580.824	7.79646
581.021	6.61027
581.219	6.09982
581.416	5.71894
581.613	7.6621
581.811	7.9458
582.008	5.97337
582.205	7.29965
582.402	6.83957
582.6	8.64732
582.797	6.61339
582.994	6.79614
583.191	7.0435
583.388	6.61294
583.586	7.31987
583.783	7.6818
583.98	6.11398
584.177	7.014
584.374	3.75179
584.571	6.38585
584.768	6.55627
584.965	5.7979
585.162	7.26907
585.359	8.50749
585.556	6.76856
585.753	7.14976
585.95	5.26783
586.147	5.82759
586.344	7.033
586.541	6.21687
586.738	5.35686
586.935	6.51793
587.132	5.72691
587.329	7.70885
587.526	6.45905
587.722	11.48538
587.919	5.4903
588.116	7.12038
588.313	7.96398
588.51	8.91479
588.706	6.34986
588.903	7.16868
589.1	7.36317
589.297	9.21141
589.493	6.65269
589.69	7.17428
589.887	5.85661
590.083	5.73401
590.28	6.02633
590.477	7.45782
590.673	7.62842
590.87	8.11772
591.067	6.52514
591.263	7.13084
591.46	6.94626
591.656	6.31694
591.853	8.17325
592.049	5.65291
592.246	6.03284
592.442	8.02036
592.639	7.90995
592.835	5.80352
593.032	7.26154
593.228	5.24154
593.425	5.02348
593.621	4.9739
593.817	6.98846
594.014	5.75887
594.21	6.49747
594.406	7.50031
594.603	7.25681
594.799	5.90851
594.995	4.24909
595.192	7.99283
595.388	6.34499
595.584	6.31143
595.78	5.21705
595.977	8.7118
596.173	8.24174
596.369	6.46573
596.565	5.52384
596.761	5.13913
596.957	7.98264
597.154	5.87005
597.35	5.99098
597.546	5.956
597.742	7.4998
597.938	6.59317
598.134	5.81394
598.33	6.75476
598.526	7.78112
598.722	6.81683
598.918	8.64572
599.114	7.04356
599.31	5.69442
599.506	6.58982
599.702	5.96553
599.898	6.76966
600.094	7.46639
600.29	7.35337
600.485	7.45385
600.681	5.99802
600.877	8.44078
601.073	6.6439
601.269	8.8552
601.465	8.15107
601.66	5.47988
601.856	4.74661
602.052	8.55663
602.248	6.41544
602.443	4.71884
602.639	5.45262
602.835	5.83872
603.03	5.60184
603.226	7.83031
603.422	5.64593
603.617	6.08127
603.813	6.15746
604.009	6.11499
604.204	7.94619
604.4	5.2123
604.595	7.29335
604.791	5.5956
604.986	6.75926
605.182	5.84307
605.377	6.27202
605.573	5.94686
605.768	6.65022
605.964	7.14363
606.159	7.10743
606.355	7.80043
606.55	5.90862
606.746	7.9299
606.941	6.40549
607.136	9.10287
607.332	9.89552
607.527	5.16737
607.722	6.89738
607.918	6.6296
608.113	6.04815
608.308	7.69615
608.503	7.06791
608.699	7.04595
608.894	7.28828
609.089	5.9054
609.284	6.82796
609.479	6.11685
609.675	7.54677
609.87	6.24799
610.065	7.55908
610.26	7.6236
610.455	7.45397
610.65	6.55187
610.845	6.97082
611.04	7.80487
611.235	6.63493
611.43	6.18398
611.625	5.49529
611.82	8.53311
612.015	5.87154
612.21	8.53311
612.405	4.72127
612.6	8.87548
612.795	8.15951
612.99	7.46033
613.185	5.6931
613.38	5.96518
613.575	6.97749
613.77	10.44428
613.965	4.80527
614.159	5.55539
614.354	8.72601
614.549	8.20389
614.744	7.70603
614.938	5.47884
615.133	5.32939
615.328	8.9296
615.523	8.19239
615.717	11.09802
615.912	5.7294
616.107	7.27458
616.301	6.59779
616.496	6.17336
616.691	8.79991
616.885	8.28606
617.08	10.57233
617.274	8.36036
617.469	9.86275
617.664	7.95278
617.858	6.50559
618.053	7.56906
618.247	6.6641
618.442	4.0433
618.636	9.10628
618.831	5.99918
619.025	6.33488
619.219	10.66256
619.414	2.94597
619.608	6.88642
619.803	6.32344
619.997	10.13748
620.191	8.76568
620.386	7.60115
620.58	7.13534
620.774	5.18621
620.969	4.86636
621.163	6.97076
621.357	5.56147
621.551	6.29696
621.746	7.3052
621.94	6.7776
622.134	11.55985
622.328	9.92981
622.522	4.92715
622.716	8.5658
622.911	8.45748
623.105	8.22067
623.299	7.53451
623.493	11.91393
623.687	5.87628
623.881	6.67486
624.075	7.62845
624.269	8.99587
624.463	4.54871
624.657	4.96845
624.851	7.75935
625.045	8.57169
625.239	8.55983
625.433	6.64861
625.627	9.36656
625.821	6.48519
626.015	6.21337
626.209	7.40935
626.403	5.15447
626.596	7.70427
626.79	8.3839
626.984	5.51856
627.178	7.82226
627.372	7.95252
627.565	8.10442
627.759	5.09483
627.953	5.5965
628.147	8.04559
628.34	7.97393
628.534	9.618
628.728	6.9314
628.921	8.51819
629.115	7.7576
629.309	8.5477
629.502	8.71167
629.696	7.34698
629.89	7.12515
630.083	8.00968
630.277	7.87345
630.47	10.09694
630.664	7.15067
630.857	5.24269
631.051	8.34935
631.244	9.47426
631.438	8.69415
631.631	6.31145
631.825	9.52588
632.018	8.34496
632.212	10.19563
632.405	9.36228
632.598	6.49031
632.792	7.58996
632.985	4.24096
633.178	6.84336
633.372	7.4756
633.565	6.94139
633.758	9.42567
633.952	5.84224
634.145	5.94436
634.338	6.87562
634.531	6.41617
634.724	6.34736
634.918	7.39311
635.111	6.79593
635.304	6.91023
635.497	11.16345
635.69	7.3215
635.883	9.57828
636.077	5.83511
636.27	8.19509
636.463	7.72418
636.656	7.96107
636.849	6.66648
637.042	8.61221
637.235	10.17187
637.428	9.14023
637.621	8.97241
637.814	9.93442
638.007	10.56988
638.2	9.99288
638.393	10.62985
638.586	5.93212
638.778	6.9205
638.971	7.94784
639.164	10.9516
639.357	8.49499
639.55	10.82855
639.743	9.61951
639.935	8.84356
640.128	11.36896
640.321	9.15391
640.514	8.02003
640.707	12.48832
640.899	9.33589
641.092	5.22161
641.285	21.68812
641.477	4.19925
641.67	12.25962
641.863	10.19348
642.055	8.54607
642.248	7.97543
642.441	7.28939
642.633	9.09788
642.826	10.31349
643.018	10.96669
643.211	11.4656
643.403	11.35576
643.596	12.85669
643.788	11.74863
643.981	7.52469
644.173	9.87699
644.366	7.8994
644.558	4.80779
644.751	10.81239
644.943	5.57909
645.135	11.54843
645.328	12.16272
645.52	9.39003
645.712	10.51837
645.905	14.75487
646.097	6.68544
646.289	8.6915
646.482	12.4533
646.674	7.93165
646.866	11.10236
647.058	9.70961
647.251	6.66674
647.443	7.63234
647.635	8.2656
647.827	6.58243
648.019	7.76448
648.211	8.96873
648.404	8.74091
648.596	12.37118
648.788	9.22916
648.98	9.28464
649.172	9.75441
649.364	9.52092
649.556	5.45179
649.748	13.83766
649.94	6.5082
650.132	9.64871
650.324	6.64294
650.516	7.72981
650.708	10.9825
650.9	5.76853
651.092	7.80851
651.284	5.95462
651.476	6.4022
651.667	10.11599
651.859	10.97265
652.051	8.39029
652.243	8.42019
652.435	7.84297
652.627	10.67245
652.818	9.80611
653.01	5.90551
653.202	6.89246
653.394	7.81151
653.585	9.99212
653.777	18.35343
653.969	11.67935
654.16	11.53581
654.352	6.83203
654.544	7.66715
654.735	10.91502
654.927	9.43901
655.118	12.48205
655.31	9.70053
655.502	11.64929
655.693	8.08494
655.885	10.46868
656.076	11.35117
656.268	9.34458
656.459	12.22983
656.651	12.16214
656.842	7.99268
657.034	7.71987
657.225	11.08672
657.416	11.48421
657.608	11.75117
657.799	9.00504
657.99	11.45502
658.182	7.73297
658.373	7.71364
658.564	10.28561
658.756	9.21651
658.947	8.66256
659.138	6.6878
659.33	7.89089
659.521	7.11392
659.712	8.65364
659.903	8.22318
660.094	7.63101
660.286	5.37198
660.477	12.5877
660.668	10.37769
660.859	8.77645
661.05	5.94997
661.241	10.64516
661.432	10.38582
661.623	8.39527
661.814	7.82496
662.006	5.4436
662.197	9.88517
662.388	11.88043
662.579	9.61746
662.77	12.60152
662.96	16.4864
663.151	10.64507
663.342	5.75834
663.533	10.73415
663.724	10.2329
663.915	14.11501
664.106	9.41217
664.297	13.87966
664.488	11.15354
664.678	8.56658
664.869	11.06011
665.06	12.80757
665.251	10.21157
665.442	10.39132
665.632	7.57191
665.823	14.49128
666.014	3.46588
666.204	11.83415
666.395	12.86785
666.586	16.94718
666.776	12.00456
666.967	14.03559
667.158	9.82028
667.348	13.02398
667.539	7.30256
667.729	11.80994
667.92	7.60834
668.111	12.95862
668.301	11.45926
668.492	9.35339
668.682	10.15786
668.873	9.63984
669.063	7.01337
669.253	10.60064
669.444	12.36434
669.634	9.55474
669.825	15.22288
670.015	12.54163
670.206	8.08796
670.396	15.41335
670.586	9.70589
670.777	11.48368
670.967	5.11162
671.157	9.25549
671.347	8.26169
671.538	14.51327
671.728	11.3807
671.918	15.65
672.108	12.34534
672.299	10.11681
672.489	11.0465
672.679	8.95718
672.869	11.81074
673.059	15.15478
673.249	12.65636
673.44	7.70213
673.63	10.03424
673.82	12.78639
674.01	8.6297
674.2	11.57391
674.39	18.5582
674.58	12.12172
674.77	10.45629
674.96	10.40664
675.15	21.88012
675.34	14.00557
675.53	10.73416
675.72	10.24099
675.91	7.25054
676.099	15.74592
676.289	17.67574
676.479	13.25123
676.669	9.36481
676.859	11.84559
677.049	8.68316
677.238	11.09947
677.428	16.05053
677.618	12.4721
677.808	14.56819
677.997	12.37248
678.187	7.4487
678.377	11.20524
678.567	9.3432
678.756	9.30714
678.946	9.78608
679.136	7.54066
679.325	8.52298
679.515	8.17489
679.704	7.426
679.894	11.99749
680.084	11.04466
680.273	13.90569
680.463	8.6482
680.652	8.68753
680.842	10.71639
681.031	13.25702
681.221	8.70777
681.41	11.90338
681.6	9.85705
681.789	13.14532
681.978	13.91768
682.168	11.55867
682.357	11.1176
682.547	12.53517
682.736	11.46628
682.925	14.14111
683.115	14.16904
683.304	13.5714
683.493	12.09296
683.682	12.40967
683.872	12.47213
684.061	14.81775
684.25	13.22011
684.439	17.27148
684.629	13.43571
684.818	22.28204
685.007	11.86038
685.196	10.79561
685.385	16.24901
685.574	12.73332
685.763	13.327
685.952	12.86895
686.142	9.22912
686.331	16.02288
686.52	6.30964
686.709	16.18462
686.898	16.66252
687.087	13.61378
687.276	17.72417
687.465	15.5388
687.654	11.10644
687.842	16.81967
688.031	8.93338
688.22	16.67131
688.409	13.03705
688.598	12.97802
688.787	20.02005
688.976	13.01321
689.165	19.03204
689.353	11.47793
689.542	14.24308
689.731	15.1118
689.92	19.14411
690.108	15.3112
690.297	11.99242
690.486	13.40253
690.675	15.86293
690.863	18.68055
691.052	18.37273
691.241	13.53815
691.429	14.2507
691.618	18.15065
691.806	9.0528
691.995	11.71859
692.184	12.91128
692.372	12.06885
692.561	14.0497
692.749	13.22561
692.938	22.62502
693.126	15.7575
693.315	13.90349
693.503	16.09001
693.692	15.51122
693.88	17.25728
694.068	21.8465
694.257	13.11293
694.445	15.33476
694.634	5.97246
694.822	17.54683
695.01	18.05981
695.199	19.22472
695.387	19.45307
695.575	17.5223
695.763	13.96133
695.952	11.86928
696.14	8.64351
696.328	11.81916
696.516	14.01077
696.705	14.5725
696.893	15.28933
697.081	7.91531
697.269	15.36549
697.457	10.26519
697.645	9.50812
697.833	16.41526
698.021	10.83448
698.21	11.24874
698.398	12.66461
698.586	9.21018
698.774	8.26818
698.962	11.78138
699.15	9.48736
699.338	7.88553
699.526	13.81962
699.714	10.84988
699.901	10.42961
700.089	16.11116
700.277	10.71227
700.465	11.9462
700.653	14.96236
700.841	14.4552
701.029	10.07063
701.217	17.09926
701.404	14.07972
701.592	18.89799
701.78	21.02882
701.968	12.57078
702.155	13.76234
702.343	7.38624
702.531	19.10817
702.718	15.72449
702.906	13.95343
703.094	12.2596
703.281	19.39786
703.469	13.9392
703.657	18.781
703.844	26.13519
704.032	22.17501
704.219	12.93951
704.407	16.41033
704.595	19.65953
704.782	15.07825
704.97	12.55287
705.157	12.96746
705.345	21.24889
705.532	26.28912
705.719	16.60328
705.907	21.08816
706.094	15.48527
706.282	22.13697
706.469	14.55596
706.656	15.63684
706.844	14.6098
707.031	20.7709
707.218	15.8009
707.406	22.408
707.593	19.20002
707.78	17.93971
707.968	15.21694
708.155	12.73197
708.342	19.18112
708.529	17.83089
708.716	17.6219
708.904	22.87153
709.091	18.56491
709.278	11.1362
709.465	23.74213
709.652	24.11237
709.839	21.49231
710.026	17.8799
710.213	8.66159
710.4	18.04788
710.587	21.35513
710.774	21.6527
710.961	21.38614
711.148	16.52929
711.335	21.558
711.522	14.78308
711.709	17.92054
711.896	25.653
712.083	20.53482
712.27	13.05102
712.457	18.29308
712.644	11.15687
712.831	25.71034
713.017	17.19468
713.204	19.78059
713.391	14.22083
713.578	21.72036
713.765	24.09684
713.951	20.08801
714.138	31.85988
714.325	20.95571
714.512	18.292
714.698	13.90429
714.885	25.96323
715.072	19.74891
715.258	19.12685
715.445	15.33712
715.631	23.75995
715.818	6.44648
716.005	15.30517
716.191	20.65578
716.378	15.88411
716.564	21.75624
716.751	14.57384
716.937	16.17315
717.124	23.51935
717.31	14.78368
717.497	25.12634
717.683	15.05664
717.869	29.23565
718.056	16.90071
718.242	21.47138
718.429	18.07444
718.615	13.47996
718.801	19.22776
718.988	23.52444
719.174	22.39301
719.36	19.05792
719.547	25.04749
719.733	21.90468
719.919	21.22665
720.105	21.41015
720.291	18.76864
720.478	20.73032
720.664	19.22223
720.85	17.9564
721.036	33.87093
721.222	28.30141
721.408	19.46205
721.595	31.29218
721.781	29.29132
721.967	26.56292
722.153	29.26104
722.339	22.66078
722.525	22.83284
722.711	15.391
722.897	13.72267
723.083	18.39493
723.269	25.72407
723.455	34.84263
723.641	37.01787
723.827	22.71585
724.012	22.23696
724.198	20.32003
724.384	28.4135
724.57	22.84011
724.756	13.03866
724.942	9.84948
725.127	26.75848
725.313	29.66591
725.499	28.77361
725.685	32.71185
725.87	22.21573
726.056	17.16421
726.242	29.23973
726.428	13.43325
726.613	26.51586
726.799	18.91026
726.985	14.80211
727.17	12.39466
727.356	30.22954
727.541	16.47949
727.727	20.40212
727.913	25.60128
728.098	17.97699
728.284	24.90416
728.469	13.36281
728.655	15.44171
728.84	25.67346
729.026	25.13415
729.211	26.69784
729.397	23.69432
729.582	25.6321
729.767	21.01482
729.953	22.2547
730.138	26.62848
730.323	9.85367
730.509	14.90217
730.694	30.0751
730.879	24.95522
731.065	21.73819
731.25	35.34525
731.435	25.64093
731.621	13.31262
731.806	19.37243
731.991	23.57373
732.176	12.98132
732.361	29.52037
732.547	24.08768
732.732	11.60609
732.917	35.70013
733.102	14.39879
733.287	17.00145
733.472	21.55761
733.657	22.21579
733.842	12.42659
734.027	19.33348
734.212	20.17482
734.397	16.58535
734.582	22.60082
734.767	26.07527
734.952	29.81179
735.137	7.26492
735.322	30.66537
735.507	22.45349
735.692	23.46159
735.877	34.64974
736.062	34.34916
736.247	24.26323
736.431	20.34783
736.616	30.14272
736.801	24.84645
736.986	23.2156
737.171	18.6895
737.355	11.78641
737.54	30.38303
737.725	23.34655
737.909	41.20784
738.094	19.35644
738.279	27.55674
738.463	21.42907
738.648	26.61909
738.833	26.11303
739.017	36.1174
739.202	22.1261
739.386	22.14005
739.571	15.5113
739.756	26.57096
739.94	23.94692
740.125	28.50121
740.309	17.08173
740.494	27.91214
740.678	23.49228
740.863	25.94014
741.047	24.29737
741.231	33.11136
741.416	19.8878
741.6	33.62244
741.785	18.01452
741.969	30.50781
742.153	30.88895
742.338	9.57414
742.522	24.10814
742.706	27.85929
742.89	15.9732
743.075	24.84401
743.259	33.63985
743.443	30.50971
743.627	30.92801
743.812	39.97543
743.996	7.59605
744.18	22.81271
744.364	20.66548
744.548	42.5122
744.732	24.1153
744.916	28.2721
745.1	28.73772
745.285	22.89587
745.469	28.61684
745.653	39.49433
745.837	15.50296
746.021	42.24849
746.205	34.74537
746.389	24.86344
746.573	22.30692
746.757	39.06648
746.94	22.04383
747.124	34.35584
747.308	15.01578
747.492	35.28346
747.676	20.35281
747.86	44.20466
748.044	22.8488
748.227	12.81957
748.411	54.42103
748.595	28.71395
748.779	17.35237
748.963	27.86914
749.146	26.73345
749.33	20.29753
749.514	15.7407
749.697	33.71811
749.881	21.3585
750.065	17.24385
750.248	25.49587
750.432	43.47302
750.616	25.99771
750.799	15.85829
750.983	43.12646
751.166	47.83151
751.35	12.95108
751.533	33.57993
751.717	34.33713
751.9	38.11927
752.084	21.31662
752.267	12.83208
752.451	19.70513
752.634	28.45424
752.818	27.88876
753.001	33.22891
753.184	35.48882
753.368	29.15615
753.551	1.87329
753.734	20.36054
753.918	42.01468
754.101	19.42452
754.284	30.61653
754.467	22.12771
754.651	20.87797
754.834	18.73164
755.017	36.96276
755.2	34.89044
755.384	16.5811
755.567	32.77107
755.75	35.29545
755.933	23.78192
756.116	30.08545
756.299	22.21201
756.482	18.60526
756.665	29.15042
756.848	27.20573
757.032	29.87954
757.215	11.64712
757.398	18.68347
757.581	17.51085
757.764	48.45402
757.947	25.78646
758.129	35.56536
758.312	2.10368
758.495	25.17244
758.678	24.77764
758.861	22.96447
759.044	44.1482
759.227	21.85568
759.41	19.90243
759.592	30.74707
759.775	27.17861
759.958	36.39523
760.141	15.2764
760.324	44.31904
760.506	40.37996
760.689	32.23012
760.872	46.53035
761.054	30.08028
761.237	22.73701
761.42	30.20153
761.602	35.12486
761.785	30.55267
761.968	35.52215
762.15	42.51835
762.333	24.05225
762.515	29.5991
762.698	21.44293
762.88	32.35932
763.063	27.96309
763.245	30.57416
763.428	18.32972
763.61	19.21868
763.793	15.49585
763.975	27.01266
764.158	20.50757
764.34	19.32642
764.522	17.91361
764.705	23.72598
764.887	36.52976
765.069	13.93055
765.252	30.32791
765.434	30.42309
765.616	25.79141
765.799	18.56187
765.981	30.44173
766.163	19.94926
766.345	33.62221
766.528	20.9617
766.71	8.08295
766.892	24.70277
767.074	36.71091
767.256	25.78341
767.438	42.78193
767.62	29.66381
767.802	47.34684
767.985	32.75318
768.167	45.82243
768.349	23.55762
768.531	30.7282
768.713	29.27084
768.895	36.57576
769.077	30.47944
769.259	54.28826
769.441	79.21796
769.623	37.59048
769.804	43.96024
769.986	44.38754
770.168	54.68444
770.35	68.48795
770.532	50.17514
770.714	49.73951
770.896	54.53875
771.077	21.41199
771.259	53.70908
771.441	44.98342
771.623	60.67727
771.804	78.31166
771.986	16.50247
772.168	40.80053
772.35	57.81927
772.531	73.75065
772.713	45.01282
772.894	58.42684
773.076	42.93718
773.258	35.5871
773.439	58.62127
773.621	68.05126
773.802	27.19057
773.984	43.60599
774.166	47.26927
774.347	67.63504
774.529	57.1828
774.71	15.24826
774.891	41.64204
775.073	40.6986
775.254	71.26291
775.436	35.88282
775.617	68.75152
775.799	37.88506
775.98	73.74964
776.161	72.87016
776.343	69.52599
776.524	45.45757
776.705	38.86907
776.886	20.95875
777.068	52.29391
777.249	86.43968
777.43	81.11582
777.611	28.05497
777.793	44.22069
777.974	73.44893
778.155	40.83528
778.336	27.6241
778.517	76.3058
778.698	37.02243
778.879	17.434
779.061	4.65515
779.242	52.71269
779.423	50.83149
779.604	36.56128
779.785	41.0649
779.966	50.33991
780.147	58.471
780.328	63.06371
780.509	90.25795
780.69	56.69777
780.871	37.53719
781.051	22.33839
781.232	51.55839
781.413	49.54825
781.594	37.93911
781.775	38.81842
781.956	35.424
782.137	15.12452
782.317	36.35042
782.498	50.25367
782.679	46.11986
782.86	46.30384
783.04	37.36353
783.221	48.27365
783.402	81.66199
783.583	45.30958
783.763	56.70725
783.944	39.19623
784.124	19.52145
784.305	72.37339
784.486	54.6121
784.666	43.90046
784.847	18.82779
785.027	90.50278
785.208	32.46291
785.388	30.21686
785.569	36.23669
785.749	40.75405
785.93	36.29831
786.11	24.4932
786.291	50.75689
786.471	48.99602
786.652	57.75535
786.832	45.72838
787.012	52.93358
787.193	26.79452
787.373	44.91601
787.553	36.9785
787.734	47.43383
787.914	37.50085
788.094	54.85146
788.275	49.4444
788.455	38.39971
788.635	23.71459
788.815	48.93107
788.995	29.09944
789.176	23.86827
789.356	30.20612
789.536	38.93167
789.716	53.38987
789.896	31.26891
790.076	36.73919
790.256	44.32156
790.436	12.39897
790.616	28.18017
790.796	48.44236
790.976	36.73611
791.156	36.46113
791.336	52.41443
791.516	49.15749
791.696	42.23716
791.876	23.09357
792.056	48.72123
792.236	60.52709
792.416	56.18999
792.596	54.07666
792.776	49.10864
792.956	54.77395
793.135	70.20689
793.315	26.38524
793.495	66.75707
793.675	51.66513
793.854	59.91772
794.034	63.98693
794.214	29.33915
794.394	58.63017
794.573	62.70423
794.753	43.52522
794.933	31.8762
795.112	47.59216
795.292	56.50116
795.472	73.45557
795.651	26.78911
795.831	46.23998
796.01	36.80712
796.19	40.94883
796.369	39.83925
796.549	50.87151
796.728	39.19236
796.908	27.37555
797.087	27.3557
797.267	43.83696
797.446	24.78627
797.626	46.393
797.805	50.53799
797.984	32.96205
798.164	52.45923
798.343	30.40534
798.522	46.8569
798.702	48.11095
798.881	22.94502
799.06	41.13816
799.239	16.99075
799.419	27.22313
799.598	67.75011
799.777	51.56886
799.956	60.57015
800.136	39.15541
800.315	35.22845
800.494	47.93556
800.673	59.29468
800.852	54.05219
801.031	62.00739
801.21	54.05362
801.389	35.69456
801.568	51.60181
801.747	72.4066
801.926	43.71334
802.105	70.25923
802.284	39.00848
802.463	68.67251
802.642	48.57136
802.821	49.37581
803	63.36822
803.179	58.08657
803.358	66.94169
803.537	36.45256
803.716	57.12318
803.895	30.13219
804.073	45.20831
804.252	36.66139
804.431	55.12198
804.61	44.54387
804.789	62.61912
804.967	37.14427
805.146	35.57536
805.325	86.27253
805.503	54.17884
805.682	27.21183
805.861	89.80833
806.039	62.68084
806.218	33.78729
806.397	45.8967
806.575	49.34506
806.754	49.63398
806.932	30.35337
807.111	74.20621
807.289	59.26845
807.468	50.14924
807.646	61.13519
807.825	48.89579
808.003	49.63456
808.182	59.97893
808.36	47.19053
808.539	29.22184
808.717	74.91601
808.895	30.01025
809.074	52.24676
809.252	41.98384
809.43	61.33207
809.609	72.27079
809.787	83.48411
809.965	42.69889
810.144	48.79686
810.322	40.76977
810.5	59.34209
810.678	45.75538
810.856	92.30107
811.035	66.45853
811.213	66.90188
811.391	63.89725
811.569	54.10944
811.747	106.9011
811.925	66.1242
812.103	39.75553
812.281	41.1879
812.459	90.55927
812.637	86.82301
812.816	71.5775
812.994	90.11523
813.171	69.95437
813.349	69.0086
813.527	76.0177
813.705	76.42671
813.883	93.53467
814.061	66.19404
814.239	85.86735
814.417	103.21883
814.595	62.59164
814.773	59.31724
814.95	55.22865
815.128	62.26911
815.306	50.30943
815.484	50.49126
815.662	36.6928
815.839	35.56215
816.017	43.38931
816.195	77.98861
816.372	48.86931
816.55	71.77774
816.728	81.51001
816.905	52.78761
817.083	81.38694
817.261	57.36881
817.438	101.57372
817.616	94.40075
817.793	42.92702
817.971	68.31458
818.148	64.54153
818.326	80.04475
818.503	61.02564
818.681	78.61036
818.858	41.09058
819.036	57.96916
819.213	56.20603
819.391	40.91048
819.568	36.18032
819.745	32.02577
819.923	61.17082
820.1	40.78415
820.277	36.02359
820.455	42.31716
820.632	44.38418
820.809	44.87752
820.986	27.79978
821.164	22.54969
821.341	18.46679
821.518	27.89525
821.695	20.43513
821.872	19.13634
822.05	16.31425
822.227	12.34166
822.404	13.59225
822.581	14.29402
822.758	12.91006
822.935	13.00767
823.112	15.4508
823.289	12.57345
823.466	15.50787
823.643	14.04388
823.82	17.21269
823.997	15.27223
824.174	18.59958
824.351	24.41403
824.528	23.43753
824.705	21.08329
824.882	24.50757
825.059	31.40998
825.236	21.97219
825.412	20.85723
825.589	29.69664
825.766	43.30139
825.943	24.91014
826.12	29.52864
826.296	18.6525
826.473	26.84144
826.65	28.02472
826.827	33.53536
827.003	20.90509
827.18	24.30502
827.357	27.55322
827.533	23.74919
827.71	11.3819
827.887	20.24211
828.063	24.49513
828.24	20.10455
828.416	29.3838
828.593	21.43568
828.769	33.51897
828.946	38.759
829.122	39.67787
829.299	41.10836
829.475	14.68563
829.652	36.559
829.828	63.7867
830.005	41.38667
830.181	53.01092
830.357	33.11001
830.534	60.99421
830.71	45.0158
830.886	62.70858
831.063	56.20144
831.239	70.74006
831.415	30.30828
831.592	76.49196
831.768	42.98391
831.944	38.89494
832.12	77.5684
832.296	68.82664
832.473	58.51902
832.649	39.29505
832.825	55.58876
833.001	30.26736
833.177	48.10994
833.353	42.98633
833.529	22.13393
833.705	35.00079
833.881	23.0505
834.058	23.09703
834.234	25.22795
834.41	25.47705
834.586	20.55026
834.761	23.16493
834.937	27.09999
835.113	29.14515
835.289	23.90043
835.465	31.26069
835.641	27.03568
835.817	30.7399
835.993	56.7266
836.169	23.37481
836.344	42.29052
836.52	53.62506
836.696	53.85565
836.872	32.38008
837.048	110.86183
837.223	39.47989
837.399	94.17301
837.575	69.45962
837.75	68.39769
837.926	97.88585
838.102	151.90745
838.277	112.6532
838.453	156.93363
838.628	151.55072
838.804	46.47932
838.98	148.87589
839.155	73.65758
839.331	98.59887
839.506	71.57818
839.682	65.07875
839.857	78.50276
840.033	97.45528
840.208	44.18586
840.384	22.54086
840.559	48.28703
840.734	71.95138
840.91	102.11842
841.085	63.80774
841.26	65.87915
841.436	56.21736
841.611	50.98857
841.786	92.96682
841.962	126.75559
842.137	80.56679
842.312	33.7039
842.487	72.39701
842.663	66.69964
842.838	80.46143
843.013	248.12016
843.188	129.95935
843.363	113.51923
843.538	223.99559
843.714	225.35941
843.889	232.78539
844.064	191.6487
844.239	156.68525
844.414	247.39606
844.589	173.58598
844.764	272.02489
844.939	289.9935
845.114	266.67257
845.289	308.26902
845.464	366.24264
845.639	258.23016
845.814	148.20488
845.989	192.89702
846.163	201.58699
846.338	262.13114
846.513	308.01197
846.688	217.82876
846.863	232.06069
847.038	148.00225
847.212	210.70502
847.387	233.11995
847.562	223.92187
847.737	304.18225
847.911	119.85253
848.086	132.20525
848.261	295.18949
848.435	183.8955
848.61	285.4293
848.785	153.7464
848.959	307.49304
849.134	294.7863
849.308	636.99565
849.483	249.7804
849.658	360.45765
849.832	185.20901
850.007	115.90328
850.181	475.45462
850.356	231.49222
850.53	416.37125
850.705	156.50763
850.879	92.32406
851.053	183.2932
851.228	214.17731
851.402	306.61196
851.577	308.30042
851.751	395.86772
851.925	206.93997
852.099	69.24049
852.274	163.36054
852.448	206.93414
852.622	292.38883
852.797	225.21478
852.971	241.63098
853.145	262.90631
853.319	455.71054
853.493	439.07155
853.668	231.24827
853.842	533.75023
854.016	377.51848
854.19	467.47782
854.364	232.77487
854.538	313.71455
854.712	319.57233
854.886	204.95793
855.06	223.64342
855.234	81.15005
855.408	361.24834
855.582	339.24965
855.756	510.15013
855.93	365.87424
856.104	320.7237
856.278	337.86213
856.452	224.54736
856.626	264.18502
856.8	469.47293
856.973	362.05184
857.147	320.73591
857.321	331.92805
857.495	340.62887
857.669	285.80785
857.842	272.97642
858.016	404.37247
858.19	156.38161
858.364	514.40503
858.537	232.57062
858.711	344.51647
858.885	226.86735
859.058	168.92008
859.232	145.33815
859.405	116.69138
859.579	330.34297
859.753	384.02127
859.926	183.17262
860.1	147.04755
860.273	292.74177
860.447	400.30743
860.62	210.13577
860.794	504.27713
860.967	245.27148
861.141	299.69346
861.314	481.44358
861.487	299.36661
861.661	366.30708
861.834	536.33599
862.008	352.02757
862.181	339.26428
862.354	268.82937
862.528	404.25868
862.701	238.51397
862.874	141.13944
863.047	199.5183
863.221	194.74237
863.394	97.91488
863.567	291.12233
863.74	97.64725
863.913	358.90024
864.087	322.03269
864.26	363.10643
864.433	242.99682
864.606	468.63542
864.779	323.90523
864.952	112.16991
865.125	288.58439
865.298	269.41403
865.471	295.03421
865.644	448.1292
865.817	330.81718
865.99	365.08285
866.163	411.54265
866.336	170.754
866.509	274.14148
866.682	279.62228
866.855	454.99332
867.028	143.99869
867.2	261.15971
867.373	77.46654
867.546	256.68854
867.719	475.176
867.892	356.39577
868.064	181.37776
868.237	259.45326
868.41	268.43429
868.583	146.78951
868.755	164.85621
868.928	225.341
869.101	549.66343
869.273	385.75437
869.446	270.52935
869.619	400.24573
869.791	344.73671
869.964	400.61075
870.136	458.39778
870.309	217.03761
870.481	265.27577
870.654	111.42954
870.826	246.51679
870.999	195.17406
871.171	373.38765
871.344	179.41206
871.516	210.39129
871.689	168.19013
871.861	270.71241
872.033	174.0552
872.206	239.8575
872.378	247.56321
872.55	261.6912
872.723	137.60916
872.895	231.98741
873.067	342.8348
873.24	288.0614
873.412	197.41911
873.584	226.18466
873.756	229.72301
873.928	242.74259
874.101	230.07108
874.273	271.05762
874.445	97.03838
874.617	139.50518
874.789	205.6263
874.961	200.25116
875.133	276.00826
875.305	240.71196
875.477	150.84067
875.649	114.8881
875.821	151.08218
875.993	335.52012
876.165	209.82025
876.337	247.41712
876.509	217.45056
876.681	234.95864
876.853	222.10091
877.025	259.14408
877.197	173.72137
877.369	152.43085
877.541	271.32854
877.712	62.73671
877.884	139.16871
878.056	245.43577
878.228	122.94757
878.4	261.54872
878.571	127.88877
878.743	82.09334
878.915	188.44137
879.086	102.02996
879.258	130.06429
879.43	113.03465
879.601	105.42896
879.773	97.214
879.945	17.88682
880.116	37.98737
880.288	21.40745
880.459	24.80242
880.631	18.83533
880.802	23.17127
880.974	21.63218
881.145	14.56397
881.317	20.42166
881.488	15.16874
881.66	16.92158
881.831	15.16518
882.002	21.57321
882.174	14.99086
882.345	20.06142
882.517	9.31314
882.688	23.99078
882.859	18.38815
883.03	33.55528
883.202	31.07067
883.373	24.50858
883.544	24.45785
883.715	44.81446
883.887	37.01608
884.058	30.7814
884.229	45.97795
884.4	45.95853
884.571	55.5234
884.742	48.31805
884.914	52.50049
885.085	84.2393
885.256	114.29715
885.427	90.94991
885.598	118.69464
885.769	112.82184
885.94	102.01013
886.111	71.01596
886.282	124.74563
886.453	111.31061
886.624	80.47184
886.795	147.22989
886.966	114.79575
887.136	161.07379
887.307	108.44549
887.478	200.23604
887.649	195.05445
887.82	181.12767
887.991	150.92417
888.161	236.6895
888.332	203.12862
888.503	114.55577
888.674	289.47302
888.844	343.196
889.015	331.86487
889.186	157.75194
889.356	319.06407
889.527	147.32673
889.698	519.45642
889.868	191.09487
890.039	332.83735
890.209	212.11964
890.38	277.7789
890.551	277.3286
890.721	353.38666
890.892	330.72344
891.062	318.82615
891.233	351.80053
891.403	260.99797
891.574	172.86402
891.744	206.426
891.914	243.06689
892.085	353.09202
892.255	55.6229
892.425	328.51728
892.596	191.43713
892.766	268.79303
892.936	405.48496
893.107	238.87611
893.277	118.54704
893.447	111.69977
893.618	77.78756
893.788	154.56833
893.958	88.57583
894.128	69.49878
894.298	82.67393
894.468	106.51778
894.639	49.55451
894.809	25.48535
894.979	55.86085
895.149	58.90754
895.319	42.54686
895.489	65.4439
895.659	96.73227
895.829	62.00018
895.999	56.96289
896.169	53.18392
896.339	69.77395
896.509	129.4813
896.679	146.13863
896.849	165.96936
897.019	235.04299
897.189	229.54204
897.358	170.73236
897.528	274.40104
897.698	132.80476
897.868	268.65296
898.038	528.60938
898.208	448.90202
898.377	132.70838
898.547	784.24963
898.717	833.83563
898.886	347.26126
899.056	565.8549
899.226	880.78202
899.395	664.90286
899.565	772.23531
899.735	419.17697
899.904	613.43958
900.074	837.63618
900.244	305.00223
900.413	1749.02836
900.583	325.7001
900.752	3317.17211
900.922	614.57618
901.091	115.89951
901.261	694.46755
901.43	531.70683
901.599	715.17986
901.769	1458.17185
901.938	683.78338
902.108	636.63457
902.277	694.06796
902.446	278.12546
902.616	319.9383
902.785	422.62441
902.954	546.07971
903.124	296.26639
903.293	218.59854
903.462	88.81976
903.631	150.2787
903.801	101.37984
903.97	52.12091
904.139	80.00414
904.308	64.81433
904.477	51.66986
904.646	26.23638
904.816	45.94493
904.985	70.31313
905.154	106.42866
