Data from WindowProjectSample_Transmission__30__00030.txt Node

Date: Sat May 03 15:33:23 EDT 2025
User: jessi
Spectrometer: SR400872
Trigger mode: 0
Integration Time (sec): 5.000010E-1
Scans to average: 6
Electric dark correction enabled: true
Nonlinearity correction enabled: true
Boxcar width: 0
XAxis mode: Wavelengths
Number of Pixels in Spectrum: 3648
>>>>>Begin Spectral Data<<<<<
184.909	18484.68127
185.132	2636.9745
185.355	23572.20038
185.578	-8284.70022
185.801	276.17529
186.024	-1512.77862
186.247	867.29941
186.47	1690.95938
186.693	-16.01705
186.916	-2883.57076
187.139	-2701.64882
187.362	1796.80474
187.585	2873.6781
187.808	-3283.5938
188.031	-890.18399
188.254	-1419.64506
188.476	-968.79294
188.699	2550.90291
188.922	-1258.60921
189.145	-10249.29139
189.368	-397.75531
189.591	-1092.10641
189.813	-1790.69354
190.036	1232.21296
190.259	1765.16051
190.482	583.87672
190.705	10724.39138
190.927	-1095.10737
191.15	3629.42785
191.373	2396.17524
191.595	-2318.94319
191.818	2633.30128
192.041	-296.76366
192.263	2848.97686
192.486	2116.91721
192.709	-5529.01202
192.931	2803.51264
193.154	-6456.02945
193.377	186796.54035
193.599	1465.21603
193.822	1858.09056
194.044	-2363.29538
194.267	494.90309
194.489	-49.49547
194.712	1503.64815
194.934	3424.59577
195.157	-13825.73028
195.379	864.30304
195.602	2354.77671
195.824	2172.98645
196.047	2464.67667
196.269	3023.46076
196.492	3478.03743
196.714	2879.04348
196.936	1236.21935
197.159	1457.24239
197.381	-2800.72691
197.604	-1570.38412
197.826	6863.35649
198.048	3160.95756
198.271	4296.32002
198.493	2247.59908
198.715	-6174.23012
198.938	-544.15548
199.16	2020.95484
199.382	1482.6515
199.604	-682.83096
199.827	9793.04505
200.049	990.88735
200.271	-3174.41942
200.493	-52355.63927
200.715	2356.83384
200.938	6741.32052
201.16	-7257.67718
201.382	-3192.29604
201.604	-2109.45897
201.826	6876.8449
202.048	921.67905
202.27	-16085.06589
202.492	4980.2818
202.715	-1054.98615
202.937	4651.31946
203.159	-2310.99034
203.381	919.79462
203.603	-3720.70654
203.825	-2552.03021
204.047	3394.7502
204.269	-2152.31072
204.491	2239.363
204.713	1959.67678
204.935	15280.99954
205.156	1930.9917
205.378	-9212.67256
205.6	-4329.50307
205.822	9444.69845
206.044	-633.05743
206.266	4285.12223
206.488	1022.58964
206.71	29230.7715
206.932	2419.61988
207.153	-5016.60095
207.375	-2032.55471
207.597	8851.0584
207.819	4251.06555
208.041	2301.46827
208.262	-2241.48649
208.484	-1378.29615
208.706	-2694.49995
208.927	32440.65734
209.149	1086.91256
209.371	-6606.82846
209.593	1426.12853
209.814	5730.87518
210.036	-4078.37869
210.258	-4709.05941
210.479	-1448.72699
210.701	989.23918
210.922	6824.12869
211.144	-1134.6844
211.366	-6396.09702
211.587	-600.01476
211.809	9854.38784
212.03	-1275.70299
212.252	-2213.60927
212.473	838.57976
212.695	-2402.78442
212.916	3083.74868
213.138	2840.32721
213.359	-1922.51137
213.581	6750.36708
213.802	-1410.70988
214.024	17889.6354
214.245	-3314.2371
214.466	-697.22549
214.688	1641.22366
214.909	1013.92869
215.131	-103108.00275
215.352	1826.93403
215.573	2499.54755
215.795	2966.20149
216.016	4166.69922
216.237	-603.5117
216.459	7171.21053
216.68	100333.04923
216.901	-88586.18719
217.122	2034.01934
217.344	6166.04745
217.565	-58704.03902
217.786	1572.9905
218.007	1880.66246
218.228	-996.39627
218.45	-1240.80095
218.671	-1132.0183
218.892	1263.46679
219.113	-18467.89014
219.334	-271.38069
219.555	-5120.08615
219.776	1676.28176
219.997	3576.04271
220.219	1169.1263
220.44	2335.66021
220.661	-2904.61623
220.882	3462.95059
221.103	-1216.87659
221.324	978.88625
221.545	2328.14582
221.766	-6105.5217
221.987	3421.57935
222.208	-1948.89264
222.429	3473.96545
222.65	-113.83119
222.87	-688.23756
223.091	8042.91899
223.312	2639.95019
223.533	6814.07803
223.754	1887.31922
223.975	1507.24162
224.196	-11246.92321
224.417	1092.00659
224.637	995.2203
224.858	-660.82103
225.079	6712.40012
225.3	671.18175
225.521	2065.20153
225.741	1623.70702
225.962	733.15657
226.183	254.35589
226.404	684.40494
226.624	606.3401
226.845	384.53241
227.066	416.05667
227.286	200.54166
227.507	92.26247
227.728	87.11866
227.948	129.90959
228.169	42.81267
228.389	46.74399
228.61	26.60813
228.831	35.96275
229.051	4.10137
229.272	20.50867
229.492	29.93827
229.713	8.95357
229.933	24.4071
230.154	20.40251
230.374	33.38142
230.595	23.32788
230.815	16.94034
231.036	24.21076
231.256	-6.18605
231.477	44.20531
231.697	26.1725
231.917	25.82837
232.138	36.74557
232.358	73.16247
232.579	63.92314
232.799	11.31273
233.019	70.13332
233.24	82.36748
233.46	25.5533
233.68	43.02963
233.901	33.30579
234.121	20.14795
234.341	9.63346
234.561	-3.27885
234.782	16.1351
235.002	49.30097
235.222	0.34905
235.442	42.90616
235.662	20.35366
235.883	44.24264
236.103	38.06428
236.323	27.33635
236.543	18.83635
236.763	31.64124
236.983	30.8974
237.203	30.62521
237.423	46.09342
237.643	62.89836
237.864	54.43592
238.084	13.53677
238.304	21.81523
238.524	33.68064
238.744	27.15847
238.964	48.07267
239.184	43.75943
239.404	47.08551
239.624	25.37873
239.843	39.82861
240.063	23.91672
240.283	16.08305
240.503	17.8164
240.723	17.7558
240.943	9.87584
241.163	13.87759
241.383	10.80302
241.603	5.12173
241.822	6.14069
242.042	4.97136
242.262	6.06198
242.482	6.06353
242.702	8.29575
242.921	2.62127
243.141	5.96151
243.361	5.23797
243.581	7.14499
243.8	6.2734
244.02	4.31751
244.24	7.85878
244.459	7.63376
244.679	14.58063
244.899	9.32541
245.118	10.778
245.338	9.54118
245.558	10.93012
245.777	6.41728
245.997	7.27054
246.216	8.21308
246.436	4.47494
246.655	3.34391
246.875	2.73856
247.094	4.79613
247.314	1.84682
247.533	2.77214
247.753	3.57868
247.972	2.63168
248.192	1.32577
248.411	1.75508
248.631	3.21297
248.85	4.09266
249.07	3.07988
249.289	5.27477
249.508	4.05366
249.728	6.68736
249.947	6.73221
250.166	7.13021
250.386	4.87053
250.605	5.42039
250.824	8.70542
251.044	5.88821
251.263	20.44703
251.482	10.71894
251.701	9.61672
251.921	-0.32486
252.14	2.79309
252.359	3.88091
252.578	8.70535
252.798	3.20121
253.017	7.3602
253.236	4.16199
253.455	4.93725
253.674	9.95987
253.893	4.71435
254.112	6.30124
254.331	9.67587
254.551	7.60568
254.77	3.44582
254.989	11.01536
255.208	9.85792
255.427	12.80032
255.646	10.6717
255.865	18.66417
256.084	7.51349
256.303	8.11319
256.522	11.53671
256.741	2.96926
256.96	2.87174
257.179	6.93316
257.397	8.75705
257.616	4.5104
257.835	4.80786
258.054	12.39584
258.273	7.18085
258.492	8.89294
258.711	5.47358
258.93	2.41045
259.148	3.48592
259.367	3.30564
259.586	4.47038
259.805	2.18772
260.023	4.42484
260.242	3.42267
260.461	2.34794
260.68	1.39086
260.898	3.89604
261.117	1.25101
261.336	1.09968
261.554	3.25986
261.773	3.3691
261.992	0.7952
262.21	3.12288
262.429	4.00048
262.648	6.28303
262.866	6.86289
263.085	5.17114
263.303	4.3637
263.522	7.49555
263.74	7.90242
263.959	12.5568
264.178	5.95331
264.396	5.87085
264.615	3.98582
264.833	9.63678
265.051	8.05529
265.27	8.37824
265.488	9.39816
265.707	6.2389
265.925	8.85098
266.144	4.04582
266.362	5.3317
266.58	5.48222
266.799	4.39693
267.017	5.39932
267.235	4.81895
267.454	2.8023
267.672	1.94945
267.89	3.89764
268.109	3.96993
268.327	3.86609
268.545	1.19016
268.763	3.85233
268.982	1.57083
269.2	4.86577
269.418	2.75024
269.636	1.93664
269.854	3.85753
270.073	2.9452
270.291	1.65303
270.509	1.7969
270.727	3.65374
270.945	5.91244
271.163	6.18886
271.381	1.52429
271.599	2.46393
271.817	4.76846
272.036	1.70182
272.254	2.88752
272.472	2.01539
272.69	2.2068
272.908	2.44899
273.126	3.81813
273.344	4.775
273.562	1.84761
273.779	2.29604
273.997	3.34746
274.215	3.59612
274.433	2.63998
274.651	4.05551
274.869	4.17775
275.087	2.6579
275.305	3.84583
275.523	2.05994
275.74	2.91514
275.958	4.96729
276.176	7.1473
276.394	2.40167
276.612	2.95271
276.829	2.82686
277.047	2.23287
277.265	2.97055
277.483	3.37331
277.7	3.9223
277.918	2.97063
278.136	5.82836
278.353	2.87665
278.571	1.50197
278.789	4.2569
279.006	0.93022
279.224	2.4564
279.442	4.35976
279.659	3.05726
279.877	2.24348
280.094	4.70423
280.312	1.17139
280.529	2.98738
280.747	1.03171
280.964	2.30692
281.182	5.40297
281.399	2.61838
281.617	3.38019
281.834	2.37255
282.052	1.92405
282.269	2.75903
282.487	2.25747
282.704	1.74853
282.921	2.28738
283.139	2.92752
283.356	3.98195
283.574	3.25292
283.791	1.73436
284.008	4.60605
284.226	2.54867
284.443	2.96249
284.66	3.829
284.877	3.05224
285.095	2.0166
285.312	1.40667
285.529	1.09241
285.746	0.74025
285.964	1.96731
286.181	1.25173
286.398	1.92435
286.615	2.49845
286.832	2.37482
287.05	0.77186
287.267	1.69502
287.484	1.81317
287.701	2.55418
287.918	2.45829
288.135	2.59537
288.352	1.19669
288.569	1.29215
288.786	2.14709
289.003	1.80263
289.22	2.68684
289.437	1.66485
289.654	2.57343
289.871	2.82814
290.088	2.72895
290.305	2.05962
290.522	1.74313
290.739	1.95703
290.956	2.84208
291.173	3.41721
291.39	3.06834
291.607	2.38478
291.824	1.71284
292.04	1.15731
292.257	2.79128
292.474	2.92812
292.691	1.97272
292.908	0.91131
293.125	1.83449
293.341	0.87818
293.558	4.54767
293.775	1.79309
293.992	2.06122
294.208	0.90597
294.425	1.18229
294.642	1.66786
294.858	2.32434
295.075	0.65471
295.292	1.86045
295.508	2.30429
295.725	3.59662
295.942	1.60947
296.158	1.19493
296.375	2.02038
296.591	1.50237
296.808	1.65947
297.024	1.87897
297.241	2.09075
297.458	2.20292
297.674	0.22022
297.891	1.73296
298.107	1.3642
298.323	0.99819
298.54	2.61012
298.756	1.25093
298.973	0.54384
299.189	2.6705
299.406	1.25788
299.622	2.72235
299.838	2.77072
300.055	2.48115
300.271	0.71659
300.487	1.02999
300.704	1.04229
300.92	0.61783
301.136	3.61024
301.353	2.67463
301.569	1.97781
301.785	2.10603
302.001	2.64849
302.218	2.31905
302.434	2.04993
302.65	0.63266
302.866	1.55296
303.083	3.78254
303.299	3.27564
303.515	1.78901
303.731	1.98163
303.947	0.83758
304.163	1.10465
304.379	2.04991
304.595	2.36627
304.812	1.34927
305.028	1.13393
305.244	1.55711
305.46	2.64833
305.676	2.67823
305.892	3.15144
306.108	1.92762
306.324	1.59199
306.54	3.46726
306.756	2.42856
306.972	2.56222
307.187	1.49706
307.403	3.25386
307.619	1.27081
307.835	2.72419
308.051	3.10688
308.267	0.65403
308.483	2.7225
308.699	2.18479
308.914	2.05585
309.13	1.68527
309.346	0.46507
309.562	1.00646
309.778	0.68089
309.993	2.24726
310.209	1.70568
310.425	0.74029
310.641	1.57708
310.856	0.93673
311.072	0.91059
311.288	1.75164
311.503	1.85031
311.719	0.39912
311.935	0.29927
312.15	2.13992
312.366	1.78825
312.581	2.33014
312.797	1.8816
313.013	2.32446
313.228	1.47078
313.444	1.97713
313.659	1.35302
313.875	2.23139
314.09	1.63866
314.306	2.82942
314.521	2.59905
314.737	2.50781
314.952	2.10927
315.168	1.70127
315.383	2.53408
315.599	1.50643
315.814	1.52136
316.029	2.50399
316.245	0.69668
316.46	0.73703
316.675	3.20099
316.891	3.61914
317.106	4.49137
317.321	2.62651
317.537	2.37044
317.752	2.74364
317.967	2.73885
318.183	1.1672
318.398	1.82651
318.613	2.88177
318.828	3.35746
319.043	2.42758
319.259	1.50291
319.474	2.2734
319.689	2.88764
319.904	0.39212
320.119	2.5539
320.334	2.17068
320.549	1.78296
320.765	2.86784
320.98	2.23115
321.195	2.64128
321.41	1.91054
321.625	2.52902
321.84	3.85683
322.055	3.64937
322.27	1.53913
322.485	1.02838
322.7	2.15415
322.915	3.01085
323.13	1.24221
323.345	3.28286
323.56	2.80325
323.775	2.6712
323.989	2.43529
324.204	2.2061
324.419	2.84941
324.634	0.98038
324.849	1.76257
325.064	4.16049
325.279	2.98385
325.493	2.52404
325.708	2.79385
325.923	1.25655
326.138	1.26622
326.352	3.35586
326.567	2.7397
326.782	1.59132
326.997	1.32418
327.211	2.40875
327.426	2.40115
327.641	1.6743
327.855	0.6968
328.07	2.47651
328.285	3.54759
328.499	1.59932
328.714	2.59217
328.928	2.75114
329.143	2.05377
329.358	2.80112
329.572	2.8864
329.787	3.1446
330.001	4.24902
330.216	0.68851
330.43	3.44393
330.645	3.65806
330.859	2.76891
331.074	1.66385
331.288	2.17209
331.503	3.10645
331.717	1.21762
331.931	1.89426
332.146	2.01288
332.36	3.4788
332.575	2.51878
332.789	2.2507
333.003	1.90539
333.218	2.52678
333.432	1.6345
333.646	2.53085
333.86	3.46345
334.075	3.48004
334.289	1.81527
334.503	1.2807
334.717	2.521
334.932	2.50063
335.146	3.27492
335.36	1.69263
335.574	2.73303
335.788	2.477
336.003	3.07233
336.217	2.58063
336.431	2.65246
336.645	1.44664
336.859	1.05261
337.073	1.71412
337.287	2.27947
337.501	1.37799
337.715	2.38474
337.929	2.66404
338.143	1.1998
338.357	2.11022
338.571	1.21491
338.785	2.52727
338.999	1.72672
339.213	1.83963
339.427	0.87173
339.641	2.98821
339.855	1.90466
340.069	1.51908
340.283	2.96013
340.497	3.64162
340.711	2.47758
340.924	1.69827
341.138	1.13882
341.352	0.73062
341.566	2.14533
341.78	0.57208
341.993	1.55046
342.207	1.07319
342.421	2.22414
342.635	2.13747
342.848	1.54151
343.062	0.28591
343.276	1.40718
343.49	3.96423
343.703	1.48661
343.917	2.61317
344.131	2.80147
344.344	1.40166
344.558	1.54407
344.771	1.24571
344.985	3.16245
345.199	3.27045
345.412	2.06971
345.626	2.21912
345.839	0.64689
346.053	1.05192
346.266	0.96403
346.48	2.71976
346.693	2.3476
346.907	2.49472
347.12	1.26985
347.334	2.20822
347.547	2.30392
347.76	1.82066
347.974	2.95393
348.187	2.33326
348.401	1.67819
348.614	1.58017
348.827	1.65356
349.041	2.56728
349.254	0.8153
349.467	1.70182
349.681	0.8061
349.894	1.57887
350.107	3.1189
350.32	3.25443
350.534	0.48233
350.747	1.61914
350.96	1.281
351.173	1.27799
351.386	1.58093
351.6	1.55301
351.813	1.31056
352.026	2.03947
352.239	0.87274
352.452	1.2727
352.665	2.30539
352.878	1.69622
353.092	3.79026
353.305	2.26183
353.518	2.20178
353.731	1.43487
353.944	2.9784
354.157	1.18126
354.37	1.18601
354.583	0.84795
354.796	0.65689
355.009	2.74275
355.222	1.82839
355.435	1.86021
355.647	2.66729
355.86	0.92846
356.073	1.82118
356.286	1.49392
356.499	2.26448
356.712	1.86513
356.925	2.07424
357.138	2.42268
357.35	0.99636
357.563	1.45663
357.776	1.86382
357.989	1.35953
358.201	2.124
358.414	1.60883
358.627	2.6616
358.84	1.47807
359.052	0.92427
359.265	0.86434
359.478	2.61078
359.69	-0.42387
359.903	2.10905
360.116	2.23878
360.328	0.40492
360.541	2.19704
360.753	0.82196
360.966	1.18229
361.179	1.22129
361.391	1.15512
361.604	0.76182
361.816	1.06955
362.029	0.90446
362.241	0.96588
362.454	1.02287
362.666	0.7894
362.879	1.47933
363.091	1.20123
363.304	0.90443
363.516	1.37549
363.728	0.61712
363.941	1.83784
364.153	0.96256
364.366	-0.00384
364.578	0.83229
364.79	1.89165
365.003	1.41726
365.215	1.1905
365.427	1.89866
365.639	2.32672
365.852	1.70458
366.064	3.31697
366.276	1.05693
366.488	1.9682
366.701	1.16249
366.913	1.34299
367.125	1.41457
367.337	1.13626
367.549	1.35579
367.762	1.64068
367.974	1.62069
368.186	0.93238
368.398	2.25872
368.61	1.96248
368.822	2.04498
369.034	1.67472
369.246	2.15597
369.458	3.34893
369.67	0.91629
369.882	2.92449
370.094	0.14866
370.306	2.87369
370.518	1.28669
370.73	0.86949
370.942	0.89472
371.154	1.15335
371.366	1.00797
371.578	1.6414
371.79	0.78079
372.002	2.45427
372.214	2.60085
372.425	1.71742
372.637	2.44274
372.849	1.50272
373.061	-0.09001
373.273	1.78229
373.484	1.8807
373.696	2.17669
373.908	0.01414
374.12	2.40083
374.331	1.97589
374.543	0.79685
374.755	0.70581
374.967	1.62024
375.178	2.12423
375.39	1.39278
375.602	1.6301
375.813	0.65816
376.025	0.41819
376.236	1.5305
376.448	1.53984
376.66	1.06566
376.871	1.24125
377.083	2.17525
377.294	2.43404
377.506	1.05108
377.717	2.38727
377.929	1.59913
378.14	0.93143
378.352	2.00387
378.563	1.8116
378.775	2.45977
378.986	0.90011
379.197	1.35113
379.409	1.30403
379.62	2.13542
379.832	1.68772
380.043	1.4051
380.254	1.58479
380.466	0.65879
380.677	3.66354
380.888	3.20531
381.1	3.56804
381.311	3.4057
381.522	1.74423
381.733	3.73206
381.945	1.53267
382.156	1.71529
382.367	1.34931
382.578	3.7379
382.789	3.68335
383.001	1.38824
383.212	2.69598
383.423	2.95764
383.634	2.4585
383.845	2.00722
384.056	1.24974
384.267	1.65348
384.478	1.75584
384.69	0.90922
384.901	2.16271
385.112	2.00403
385.323	2.90039
385.534	2.19691
385.745	2.1779
385.956	2.20439
386.167	1.08037
386.378	2.26904
386.588	1.25746
386.799	1.18482
387.01	0.7446
387.221	2.56276
387.432	1.92646
387.643	3.27076
387.854	1.80443
388.065	1.76109
388.275	1.73088
388.486	1.65935
388.697	2.1068
388.908	1.71004
389.119	2.90349
389.329	3.25008
389.54	2.10339
389.751	2.53584
389.962	3.02803
390.172	2.19429
390.383	2.14646
390.594	1.8737
390.804	1.77529
391.015	1.9295
391.226	2.32864
391.436	2.66911
391.647	2.57524
391.858	2.88757
392.068	1.15866
392.279	1.62641
392.489	2.54473
392.7	3.19171
392.91	1.9711
393.121	1.98878
393.331	2.87722
393.542	3.38067
393.752	3.22512
393.963	2.98162
394.173	2.94161
394.384	3.25027
394.594	2.6224
394.804	2.01066
395.015	2.73604
395.225	3.21176
395.436	2.06872
395.646	3.15091
395.856	2.50896
396.067	1.80426
396.277	3.35975
396.487	3.08268
396.697	3.14151
396.908	3.48933
397.118	3.36843
397.328	3.04414
397.538	3.55472
397.749	2.65465
397.959	3.76998
398.169	3.49621
398.379	2.13674
398.589	3.25618
398.8	3.41546
399.01	3.36616
399.22	3.03075
399.43	4.82075
399.64	3.15626
399.85	3.62933
400.06	3.37321
400.27	2.90747
400.48	3.23155
400.69	4.13026
400.9	3.12366
401.11	2.63376
401.32	3.95881
401.53	3.06923
401.74	4.43621
401.95	3.93897
402.16	3.19076
402.37	3.72163
402.58	3.10288
402.79	3.89251
403	4.06257
403.209	3.0975
403.419	4.32733
403.629	3.26067
403.839	4.41629
404.049	4.41392
404.258	3.61774
404.468	3.47378
404.678	4.39306
404.888	4.68767
405.097	3.88916
405.307	3.82017
405.517	4.47345
405.727	4.29437
405.936	3.67182
406.146	4.22836
406.356	4.96844
406.565	3.98469
406.775	3.67031
406.984	3.79566
407.194	5.50383
407.404	4.16931
407.613	4.54097
407.823	4.69483
408.032	5.06562
408.242	4.76382
408.451	3.80095
408.661	4.1519
408.87	5.24984
409.08	3.80237
409.289	4.50587
409.499	4.6196
409.708	4.23287
409.918	3.05162
410.127	4.61805
410.336	5.52371
410.546	5.11155
410.755	4.0258
410.964	4.26603
411.174	3.74483
411.383	4.83868
411.592	4.69266
411.802	3.85665
412.011	5.18065
412.22	4.38007
412.429	5.72215
412.639	5.54777
412.848	5.31053
413.057	5.95802
413.266	5.33013
413.475	4.70191
413.685	5.18557
413.894	5.29561
414.103	5.3787
414.312	5.30662
414.521	4.63849
414.73	5.08163
414.939	6.1027
415.148	5.21517
415.357	5.028
415.566	4.86406
415.776	4.72362
415.985	4.75658
416.194	5.56846
416.403	6.29626
416.611	4.2926
416.82	4.88514
417.029	5.37344
417.238	4.89198
417.447	4.82854
417.656	5.32742
417.865	4.98649
418.074	5.49619
418.283	5.90676
418.492	6.85461
418.7	6.67521
418.909	8.01195
419.118	6.8601
419.327	7.39772
419.536	7.1569
419.744	7.0997
419.953	8.60598
420.162	8.46232
420.371	7.69425
420.579	8.16283
420.788	9.14378
420.997	9.3288
421.205	9.34315
421.414	9.03944
421.623	9.32577
421.831	8.72917
422.04	9.36877
422.249	8.38329
422.457	8.90051
422.666	8.04137
422.874	9.11293
423.083	9.18852
423.291	9.1642
423.5	9.1256
423.708	9.47914
423.917	9.95587
424.125	9.25631
424.334	8.9946
424.542	10.95749
424.751	10.20624
424.959	9.846
425.167	10.16477
425.376	9.94591
425.584	8.85742
425.793	8.70408
426.001	7.74496
426.209	8.24916
426.418	7.00488
426.626	6.48698
426.834	6.20654
427.042	6.26713
427.251	5.95544
427.459	6.68343
427.667	6.25711
427.875	5.44518
428.084	5.90673
428.292	6.9813
428.5	6.59726
428.708	5.43556
428.916	5.75867
429.124	6.24394
429.333	6.05754
429.541	6.07685
429.749	6.32928
429.957	6.23602
430.165	7.78641
430.373	5.20249
430.581	6.24481
430.789	7.12189
430.997	6.14168
431.205	5.61074
431.413	6.48353
431.621	6.17266
431.829	6.80406
432.037	6.15268
432.245	6.30548
432.453	6.63436
432.661	6.34775
432.869	7.68878
433.076	6.2587
433.284	6.9094
433.492	7.53997
433.7	7.94735
433.908	6.90816
434.116	7.27105
434.323	7.00409
434.531	7.0028
434.739	7.00068
434.947	7.11927
435.154	7.39395
435.362	6.67913
435.57	6.45762
435.778	6.20317
435.985	6.71817
436.193	6.26615
436.401	7.37377
436.608	6.63071
436.816	6.3348
437.023	7.60675
437.231	7.64205
437.439	6.82898
437.646	6.96422
437.854	6.92885
438.061	7.20362
438.269	6.78798
438.476	7.3432
438.684	7.06543
438.891	7.13226
439.099	7.09672
439.306	6.85774
439.514	7.12493
439.721	8.59594
439.929	7.85103
440.136	9.07462
440.343	9.04917
440.551	8.61473
440.758	10.59212
440.965	9.07882
441.173	8.87598
441.38	8.59955
441.587	8.4171
441.795	8.20431
442.002	7.93305
442.209	7.81125
442.416	7.81188
442.624	7.5589
442.831	7.3666
443.038	6.6807
443.245	6.45477
443.452	6.67609
443.66	7.41249
443.867	6.69121
444.074	6.67516
444.281	6.98061
444.488	7.22833
444.695	7.68631
444.902	7.65741
445.109	9.08518
445.316	8.52241
445.523	9.07699
445.73	8.91004
445.937	9.80525
446.144	10.49708
446.351	11.05948
446.558	9.61494
446.765	11.53446
446.972	10.8151
447.179	10.21339
447.386	10.85376
447.593	9.43636
447.8	10.30263
448.007	9.06133
448.214	8.39366
448.42	7.94686
448.627	8.64801
448.834	7.60542
449.041	7.31905
449.248	7.12488
449.454	7.6176
449.661	8.30865
449.868	6.86077
450.075	6.66708
450.281	6.14478
450.488	6.43909
450.695	6.43138
450.901	6.46952
451.108	6.88186
451.315	7.7333
451.521	6.91492
451.728	7.69303
451.935	6.52099
452.141	6.884
452.348	7.13955
452.554	7.26657
452.761	6.9009
452.967	8.16702
453.174	7.27322
453.38	7.26038
453.587	6.50347
453.793	7.33145
454	7.49885
454.206	8.57228
454.413	7.65038
454.619	7.53732
454.825	6.74163
455.032	7.52904
455.238	7.63794
455.445	6.35894
455.651	7.2441
455.857	6.08177
456.064	6.98567
456.27	6.92605
456.476	6.77874
456.682	6.27239
456.889	7.25935
457.095	7.55332
457.301	8.47604
457.507	7.16157
457.714	7.13761
457.92	7.22259
458.126	6.72963
458.332	7.04936
458.538	7.17906
458.744	7.55238
458.951	8.14027
459.157	10.10798
459.363	9.42338
459.569	9.72117
459.775	10.31743
459.981	9.95066
460.187	10.35848
460.393	10.62687
460.599	10.77684
460.805	9.72548
461.011	9.04378
461.217	8.96304
461.423	8.26303
461.629	7.46183
461.835	7.7209
462.041	7.30582
462.247	8.4698
462.453	7.26188
462.658	7.24704
462.864	7.77187
463.07	7.57671
463.276	7.39365
463.482	7.37177
463.688	8.34081
463.893	6.98926
464.099	7.267
464.305	8.43914
464.511	7.16588
464.716	7.22113
464.922	7.83171
465.128	6.95511
465.333	8.25278
465.539	7.72013
465.745	7.44816
465.95	7.51179
466.156	9.25472
466.362	8.25314
466.567	7.50655
466.773	7.33401
466.978	8.46394
467.184	6.92605
467.389	6.56374
467.595	7.68011
467.8	7.07365
468.006	8.36109
468.211	8.15171
468.417	6.84846
468.622	7.70545
468.828	7.90665
469.033	7.69267
469.239	9.45385
469.444	7.01293
469.649	8.09601
469.855	7.43069
470.06	7.77112
470.266	6.88106
470.471	7.91062
470.676	7.78468
470.881	6.32542
471.087	8.71325
471.292	8.89884
471.497	6.81552
471.703	7.47861
471.908	7.19111
472.113	7.72937
472.318	8.27217
472.523	7.00021
472.729	7.79815
472.934	7.9906
473.139	7.48994
473.344	7.81624
473.549	8.686
473.754	7.23709
473.959	9.2359
474.164	7.29372
474.369	7.59564
474.575	8.10245
474.78	7.60237
474.985	7.24863
475.19	6.51735
475.395	7.20596
475.6	7.34792
475.804	8.69112
476.009	7.69944
476.214	7.59626
476.419	7.27637
476.624	6.80074
476.829	7.35731
477.034	8.07973
477.239	7.41103
477.444	8.14739
477.648	8.27933
477.853	8.30188
478.058	7.69157
478.263	7.22948
478.468	7.30704
478.672	7.37371
478.877	8.86869
479.082	8.97514
479.287	8.11455
479.491	7.84453
479.696	7.24506
479.901	8.42431
480.105	8.30855
480.31	7.37998
480.515	7.93061
480.719	9.2389
480.924	7.68946
481.128	7.48945
481.333	8.62028
481.538	8.78279
481.742	9.12037
481.947	10.43744
482.151	11.2164
482.356	12.04491
482.56	14.41878
482.765	16.04868
482.969	19.41982
483.174	21.76435
483.378	25.37565
483.582	26.32383
483.787	28.06649
483.991	28.14824
484.196	28.39911
484.4	27.84704
484.604	27.84989
484.809	25.06507
485.013	23.64451
485.217	21.33576
485.422	18.60166
485.626	16.88003
485.83	16.20832
486.034	15.43305
486.239	15.9864
486.443	16.65215
486.647	17.00077
486.851	18.35396
487.055	19.95169
487.26	19.81067
487.464	20.89422
487.668	20.11674
487.872	20.55856
488.076	20.93231
488.28	19.84466
488.484	18.41637
488.688	18.05113
488.892	16.80474
489.096	15.67236
489.3	14.22356
489.504	13.54425
489.708	12.92424
489.912	12.56934
490.116	12.16933
490.32	11.89993
490.524	13.20701
490.728	14.44448
490.932	14.98787
491.136	16.13905
491.34	17.26675
491.544	17.89274
491.748	17.47232
491.951	17.36956
492.155	16.94946
492.359	16.26426
492.563	14.41757
492.767	13.74773
492.97	12.23382
493.174	10.85836
493.378	9.86867
493.582	8.58535
493.785	8.4208
493.989	8.39817
494.193	7.90552
494.396	7.36148
494.6	7.98754
494.804	7.64724
495.007	7.80543
495.211	7.83533
495.414	7.91383
495.618	8.19568
495.822	8.84735
496.025	8.16266
496.229	8.74441
496.432	8.27425
496.636	8.70849
496.839	8.72762
497.043	9.67039
497.246	9.01185
497.45	8.7863
497.653	8.74132
497.856	8.70653
498.06	8.19422
498.263	8.11841
498.467	8.32975
498.67	8.80821
498.873	8.59095
499.077	8.23528
499.28	8.33479
499.483	8.51074
499.686	8.87261
499.89	8.32038
500.093	8.7866
500.296	7.80587
500.499	9.25742
500.703	8.1598
500.906	8.3838
501.109	9.23104
501.312	8.37321
501.515	8.06311
501.719	8.36301
501.922	8.98716
502.125	8.16315
502.328	8.02192
502.531	7.55593
502.734	8.28554
502.937	7.22754
503.14	8.38085
503.343	7.82205
503.546	8.04417
503.749	8.07224
503.952	8.60012
504.155	7.84563
504.358	8.77727
504.561	8.41024
504.764	7.42064
504.967	8.27392
505.17	8.33793
505.373	9.29342
505.576	8.00225
505.778	8.74236
505.981	7.68517
506.184	8.96854
506.387	7.20323
506.59	9.35064
506.793	8.8849
506.995	8.47114
507.198	6.95276
507.401	8.49399
507.604	8.62411
507.806	7.70057
508.009	7.87801
508.212	8.83965
508.414	7.94469
508.617	7.99905
508.82	8.40208
509.022	9.4044
509.225	8.69544
509.427	7.4747
509.63	9.16744
509.833	8.28568
510.035	8.2301
510.238	7.55026
510.44	9.14664
510.643	7.29382
510.845	9.49422
511.048	8.63221
511.25	8.01184
511.453	8.3339
511.655	8.52507
511.858	8.25794
512.06	8.82164
512.262	8.53849
512.465	9.06814
512.667	8.363
512.869	7.60989
513.072	8.67377
513.274	8.86485
513.476	8.68741
513.679	8.8663
513.881	7.77951
514.083	9.45053
514.286	7.82022
514.488	7.96623
514.69	7.72012
514.892	7.49672
515.094	8.76829
515.297	7.95189
515.499	8.45717
515.701	7.79846
515.903	9.52595
516.105	9.3756
516.307	8.95673
516.509	7.16742
516.711	7.50939
516.913	8.25999
517.116	8.48211
517.318	8.0222
517.52	9.00027
517.722	8.79929
517.924	8.21523
518.126	9.42783
518.328	8.99153
518.529	9.75089
518.731	10.52358
518.933	9.00267
519.135	9.15244
519.337	9.96787
519.539	9.23359
519.741	7.64781
519.943	8.43809
520.145	8.32231
520.346	9.00541
520.548	8.37569
520.75	8.76079
520.952	8.13087
521.153	8.67749
521.355	8.88632
521.557	7.79491
521.759	8.42572
521.96	8.31171
522.162	7.78894
522.364	9.03334
522.565	8.14526
522.767	8.83096
522.969	9.14541
523.17	8.59443
523.372	8.48054
523.573	8.1594
523.775	8.30975
523.977	7.63493
524.178	9.73678
524.38	8.00421
524.581	8.90037
524.783	8.23647
524.984	9.29646
525.186	9.27745
525.387	9.81336
525.589	9.89378
525.79	9.91031
525.991	9.7966
526.193	10.53533
526.394	9.72599
526.596	10.78776
526.797	11.15245
526.998	10.86666
527.2	11.51088
527.401	13.67401
527.602	14.86047
527.803	17.70714
528.005	18.84195
528.206	20.35792
528.407	21.32421
528.608	21.35156
528.81	21.57036
529.011	20.59983
529.212	21.43227
529.413	19.91115
529.614	18.42068
529.815	17.28706
530.017	15.49332
530.218	13.74396
530.419	12.24729
530.62	11.74629
530.821	11.1858
531.022	9.67975
531.223	10.73017
531.424	10.32658
531.625	10.79685
531.826	10.46209
532.027	11.00617
532.228	12.60691
532.429	12.69606
532.63	13.14871
532.831	14.2081
533.032	14.09793
533.233	15.12479
533.433	14.65233
533.634	14.89006
533.835	13.98117
534.036	13.21548
534.237	12.40361
534.438	11.59867
534.638	9.96908
534.839	9.76347
535.04	9.70085
535.241	8.87907
535.441	10.23787
535.642	9.62625
535.843	8.95458
536.043	9.51666
536.244	9.72111
536.445	10.01205
536.645	11.0042
536.846	10.4157
537.047	10.91761
537.247	9.36491
537.448	9.27838
537.648	9.25712
537.849	8.80093
538.049	8.62058
538.25	9.01912
538.451	9.10326
538.651	8.0505
538.851	8.90967
539.052	9.49833
539.252	9.28457
539.453	8.42168
539.653	8.75813
539.854	8.76073
540.054	9.68121
540.254	11.55771
540.455	12.8616
540.655	12.78301
540.855	14.49529
541.056	15.84608
541.256	15.57959
541.456	16.62074
541.657	15.7906
541.857	16.63465
542.057	14.66494
542.257	13.96222
542.458	14.30551
542.658	13.58703
542.858	11.60942
543.058	11.93305
543.258	11.05805
543.458	9.42519
543.659	9.00422
543.859	9.93062
544.059	9.66712
544.259	8.85776
544.459	9.24196
544.659	8.44375
544.859	9.04937
545.059	8.32998
545.259	9.057
545.459	8.76154
545.659	9.2692
545.859	8.60958
546.059	8.74328
546.259	8.23675
546.459	8.01458
546.659	8.10134
546.859	9.3118
547.059	9.0736
547.258	9.0355
547.458	9.11343
547.658	8.11995
547.858	8.03384
548.058	8.85579
548.258	8.37162
548.457	7.81126
548.657	10.28264
548.857	8.40225
549.057	9.08481
549.256	8.95371
549.456	8.19779
549.656	6.8987
549.855	9.79889
550.055	8.01256
550.255	9.78404
550.454	8.65369
550.654	9.0371
550.853	9.61147
551.053	9.1155
551.253	8.6573
551.452	8.95027
551.652	7.61537
551.851	7.48152
552.051	8.37347
552.25	8.05872
552.45	8.02687
552.649	8.25566
552.849	7.97112
553.048	8.43183
553.248	9.00508
553.447	7.70139
553.646	9.11043
553.846	10.02494
554.045	9.35493
554.244	7.37314
554.444	9.665
554.643	7.72086
554.842	9.47743
555.042	9.85771
555.241	8.09064
555.44	7.54257
555.64	8.99612
555.839	9.91597
556.038	8.61023
556.237	7.63379
556.436	8.56486
556.636	8.84127
556.835	7.66617
557.034	9.70143
557.233	8.39726
557.432	7.42876
557.631	9.34307
557.83	8.40456
558.029	8.11116
558.228	7.77787
558.427	7.52256
558.626	8.83649
558.825	7.48665
559.024	8.28238
559.223	9.79797
559.422	8.05755
559.621	8.50615
559.82	6.25849
560.019	8.29701
560.218	8.21276
560.417	5.8386
560.616	7.81723
560.815	11.30079
561.014	6.9947
561.212	10.02391
561.411	8.43614
561.61	6.97911
561.809	7.86842
562.008	9.44755
562.206	7.98548
562.405	8.89875
562.604	8.02024
562.803	8.45552
563.001	8.2779
563.2	7.07757
563.399	8.74361
563.597	7.44496
563.796	7.9226
563.995	7.21236
564.193	8.85509
564.392	8.03037
564.59	10.30318
564.789	6.77349
564.988	7.75731
565.186	8.55503
565.385	8.34695
565.583	8.33876
565.782	8.32795
565.98	8.26285
566.179	8.4146
566.377	7.62954
566.575	8.03931
566.774	9.81736
566.972	9.12404
567.171	10.12029
567.369	9.38218
567.567	8.517
567.766	8.70455
567.964	6.59228
568.162	8.59364
568.361	9.08646
568.559	8.18843
568.757	8.40012
568.956	8.50262
569.154	8.33908
569.352	8.9789
569.55	8.38842
569.748	8.23157
569.947	7.62474
570.145	7.76816
570.343	7.61981
570.541	9.14257
570.739	7.32545
570.937	8.34974
571.135	9.07839
571.333	10.25661
571.532	9.88125
571.73	8.65897
571.928	9.47722
572.126	9.09851
572.324	8.02721
572.522	9.78161
572.72	10.65662
572.918	8.68148
573.116	8.92303
573.313	8.44654
573.511	8.6656
573.709	7.70023
573.907	9.08499
574.105	8.28722
574.303	7.01569
574.501	7.12787
574.699	8.83318
574.896	8.80657
575.094	8.99042
575.292	7.06683
575.49	9.40379
575.688	8.16864
575.885	9.48462
576.083	10.33195
576.281	9.06783
576.478	7.67438
576.676	8.54998
576.874	6.85946
577.071	8.04911
577.269	10.60178
577.467	8.27528
577.664	8.1849
577.862	9.39499
578.059	7.45525
578.257	9.12722
578.455	8.08981
578.652	8.36412
578.85	6.49434
579.047	8.33168
579.245	8.11829
579.442	8.23848
579.64	8.30884
579.837	6.3125
580.034	11.19548
580.232	7.96804
580.429	7.12834
580.627	8.70255
580.824	9.55604
581.021	8.93891
581.219	7.77704
581.416	7.45416
581.613	9.90117
581.811	9.31141
582.008	7.32926
582.205	9.1064
582.402	8.47425
582.6	9.77352
582.797	8.31519
582.994	8.23349
583.191	9.29973
583.388	8.15161
583.586	8.74213
583.783	9.29341
583.98	7.84045
584.177	8.85016
584.374	5.37421
584.571	7.88381
584.768	8.26608
584.965	7.3588
585.162	8.91969
585.359	10.03684
585.556	8.20497
585.753	8.31518
585.95	7.06833
586.147	7.38751
586.344	9.10777
586.541	7.79971
586.738	6.81139
586.935	8.1538
587.132	7.31795
587.329	9.50932
587.526	8.22207
587.722	13.64994
587.919	6.8313
588.116	8.82724
588.313	9.66992
588.51	10.70655
588.706	7.79304
588.903	8.91451
589.1	9.18586
589.297	11.02137
589.493	8.44601
589.69	9.22392
589.887	7.69071
590.083	7.63478
590.28	7.91549
590.477	8.97286
590.673	9.32624
590.87	9.58228
591.067	8.08188
591.263	9.37165
591.46	8.67425
591.656	7.74905
591.853	9.88896
592.049	7.16014
592.246	7.6053
592.442	9.56508
592.639	9.76912
592.835	7.31414
593.032	8.88943
593.228	6.65627
593.425	6.68293
593.621	6.36684
593.817	8.5631
594.014	7.52801
594.21	8.30302
594.406	9.50076
594.603	8.779
594.799	7.69081
594.995	6.02932
595.192	9.47138
595.388	7.9399
595.584	8.20397
595.78	7.08842
595.977	10.80011
596.173	10.19969
596.369	8.18283
596.565	7.32901
596.761	7.02488
596.957	10.05321
597.154	7.81647
597.35	7.92936
597.546	7.75267
597.742	9.33983
597.938	8.73641
598.134	7.86161
598.33	8.71736
598.526	9.95536
598.722	8.72495
598.918	10.37728
599.114	8.6641
599.31	7.09708
599.506	8.22144
599.702	7.27226
599.898	8.50237
600.094	9.09837
600.29	8.99156
600.485	9.56951
600.681	7.82728
600.877	10.63588
601.073	8.46193
601.269	10.44302
601.465	9.84753
601.66	7.36572
601.856	6.15593
602.052	10.44283
602.248	7.99804
602.443	6.66893
602.639	7.18814
602.835	7.87823
603.03	7.40451
603.226	9.51084
603.422	7.27024
603.617	8.02701
603.813	8.19841
604.009	7.86976
604.204	9.94366
604.4	7.22245
604.595	9.59228
604.791	7.4103
604.986	8.84497
605.182	7.61058
605.377	8.4528
605.573	7.89852
605.768	8.66631
605.964	9.323
606.159	9.24065
606.355	9.63875
606.55	8.19894
606.746	10.1667
606.941	8.02938
607.136	11.08924
607.332	12.04303
607.527	6.49044
607.722	8.57155
607.918	8.25524
608.113	7.65966
608.308	9.37386
608.503	9.0094
608.699	8.9455
608.894	9.41359
609.089	7.89571
609.284	9.02469
609.479	8.2225
609.675	9.30308
609.87	8.36659
610.065	9.5973
610.26	9.7638
610.455	9.61379
610.65	8.42325
610.845	8.39669
611.04	9.89891
611.235	8.28174
611.43	7.78984
611.625	6.78728
611.82	10.38875
612.015	7.60498
612.21	10.6677
612.405	6.74723
612.6	10.69746
612.795	10.1307
612.99	8.91895
613.185	7.4047
613.38	7.76488
613.575	8.45239
613.77	12.41154
613.965	6.34909
614.159	7.44825
614.354	10.5509
614.549	9.7094
614.744	9.47453
614.938	7.43986
615.133	6.76654
615.328	10.60897
615.523	9.80329
615.717	12.49434
615.912	7.56338
616.107	8.73798
616.301	8.16805
616.496	7.98874
616.691	10.92706
616.885	9.48328
617.08	12.80146
617.274	9.98068
617.469	11.60661
617.664	9.93489
617.858	7.9664
618.053	9.63846
618.247	8.38052
618.442	5.63945
618.636	10.43113
618.831	7.77292
619.025	7.75846
619.219	12.90094
619.414	4.33073
619.608	8.58874
619.803	7.5092
619.997	12.19147
620.191	10.64148
620.386	9.26202
620.58	8.94541
620.774	6.70332
620.969	6.68984
621.163	8.8439
621.357	7.07312
621.551	7.99445
621.746	9.19969
621.94	8.43478
622.134	13.71451
622.328	12.47931
622.522	6.46882
622.716	10.57999
622.911	10.56148
623.105	10.40603
623.299	9.41365
623.493	13.86645
623.687	7.22635
623.881	8.35168
624.075	9.37433
624.269	10.80842
624.463	6.16342
624.657	6.34862
624.851	9.89398
625.045	10.53369
625.239	10.63127
625.433	8.48198
625.627	11.58735
625.821	8.10628
626.015	7.98069
626.209	8.97368
626.403	6.67383
626.596	9.54032
626.79	10.51231
626.984	7.25472
627.178	9.63892
627.372	9.92185
627.565	10.01858
627.759	6.98574
627.953	7.39133
628.147	9.76549
628.34	9.75106
628.534	12.43344
628.728	8.45906
628.921	10.28086
629.115	9.98007
629.309	10.42792
629.502	10.80482
629.696	8.91296
629.89	8.76773
630.083	8.7755
630.277	9.91756
630.47	11.88138
630.664	8.58963
630.857	6.99679
631.051	10.14533
631.244	11.20243
631.438	10.56048
631.631	7.47074
631.825	11.26709
632.018	9.9518
632.212	12.34673
632.405	11.54932
632.598	7.96679
632.792	9.48029
632.985	5.76494
633.178	8.38783
633.372	8.71989
633.565	8.61052
633.758	11.58563
633.952	7.48979
634.145	7.46601
634.338	8.84462
634.531	8.42673
634.724	7.87143
634.918	9.39157
635.111	8.67836
635.304	7.94954
635.497	13.54326
635.69	9.49581
635.883	11.86435
636.077	7.19535
636.27	10.0991
636.463	9.64463
636.656	9.97802
636.849	8.67575
637.042	10.65532
637.235	12.23902
637.428	10.73069
637.621	11.16976
637.814	12.22219
638.007	12.08125
638.2	12.02543
638.393	12.45588
638.586	7.46501
638.778	8.79086
638.971	9.54399
639.164	12.87148
639.357	10.17279
639.55	12.57523
639.743	11.93579
639.935	10.36317
640.128	13.64129
640.321	10.69977
640.514	9.77522
640.707	14.17836
640.899	11.113
641.092	6.37948
641.285	26.36381
641.477	5.57003
641.67	14.96367
641.863	12.86401
642.055	10.25302
642.248	9.84174
642.441	8.78759
642.633	11.47743
642.826	12.65733
643.018	13.29596
643.211	14.20611
643.403	14.02467
643.596	14.85413
643.788	14.97044
643.981	9.46516
644.173	12.18314
644.366	10.24036
644.558	6.31967
644.751	12.94854
644.943	7.32118
645.135	13.95758
645.328	14.82131
645.52	11.41152
645.712	12.50076
645.905	17.52019
646.097	7.91125
646.289	10.77763
646.482	15.3888
646.674	9.11143
646.866	13.24301
647.058	11.48591
647.251	8.023
647.443	8.96056
647.635	9.90402
647.827	7.73424
648.019	9.54258
648.211	10.29525
648.404	10.14495
648.596	14.14276
648.788	10.99346
648.98	11.02905
649.172	11.26865
649.364	11.37887
649.556	7.18173
649.748	16.46367
649.94	8.35847
650.132	12.09221
650.324	8.43684
650.516	9.21548
650.708	13.03038
650.9	7.48966
651.092	7.49491
651.284	7.31775
651.476	8.64777
651.667	12.04371
651.859	13.21199
652.051	10.6286
652.243	10.24806
652.435	9.40327
652.627	12.27029
652.818	11.51366
653.01	7.81295
653.202	8.23325
653.394	9.5805
653.585	11.57274
653.777	21.10478
653.969	14.28876
654.16	13.18988
654.352	8.22487
654.544	9.59246
654.735	13.22158
654.927	10.65825
655.118	14.97902
655.31	11.73706
655.502	14.10535
655.693	9.77343
655.885	12.46148
656.076	14.02329
656.268	11.27097
656.459	14.72084
656.651	14.29373
656.842	9.48035
657.034	9.2203
657.225	12.57168
657.416	14.00081
657.608	14.28617
657.799	11.16169
657.99	13.45893
658.182	9.45163
658.373	9.61354
658.564	12.59347
658.756	11.36844
658.947	10.50661
659.138	8.43673
659.33	9.84332
659.521	9.42777
659.712	9.98118
659.903	10.40363
660.094	9.41863
660.286	7.65247
660.477	15.21276
660.668	12.71281
660.859	10.78489
661.05	7.26326
661.241	12.51301
661.432	12.41214
661.623	10.40614
661.814	9.3999
662.006	7.35409
662.197	11.56533
662.388	13.78392
662.579	11.61003
662.77	17.86015
662.96	18.63071
663.151	13.91133
663.342	7.43386
663.533	13.01859
663.724	11.41633
663.915	16.11434
664.106	11.66073
664.297	16.34931
664.488	13.68089
664.678	10.0548
664.869	13.87817
665.06	14.19886
665.251	12.88271
665.442	13.42013
665.632	8.94594
665.823	16.71417
666.014	4.04633
666.204	14.19383
666.395	15.34214
666.586	19.81269
666.776	14.42534
666.967	16.26904
667.158	12.11852
667.348	14.9847
667.539	8.71848
667.729	14.84617
667.92	9.79439
668.111	14.98416
668.301	13.98458
668.492	11.49703
668.682	12.25342
668.873	12.25733
669.063	8.72792
669.253	12.7207
669.444	15.14448
669.634	11.48367
669.825	17.9603
670.015	14.43959
670.206	9.56845
670.396	17.99386
670.586	12.0857
670.777	13.70336
670.967	5.28357
671.157	10.66533
671.347	10.0861
671.538	16.82638
671.728	14.26978
671.918	18.32476
672.108	14.63372
672.299	11.74566
672.489	13.49981
672.679	11.39327
672.869	13.87799
673.059	18.72899
673.249	14.67573
673.44	9.44594
673.63	12.13112
673.82	16.17269
674.01	9.76622
674.2	13.97985
674.39	22.38195
674.58	14.83792
674.77	12.90701
674.96	11.82524
675.15	25.72926
675.34	17.74679
675.53	12.70148
675.72	12.80337
675.91	8.39478
676.099	18.65557
676.289	20.43115
676.479	16.55901
676.669	11.35001
676.859	14.39713
677.049	10.03723
677.238	13.01803
677.428	18.32903
677.618	13.27452
677.808	16.91046
677.997	14.90929
678.187	10.33188
678.377	12.6783
678.567	11.75052
678.756	10.86035
678.946	11.63552
679.136	9.34155
679.325	10.58032
679.515	10.12233
679.704	9.35928
679.894	14.8485
680.084	13.8173
680.273	15.53344
680.463	10.64874
680.652	9.78208
680.842	12.37326
681.031	15.9575
681.221	11.0023
681.41	14.30008
681.6	12.83251
681.789	15.55277
681.978	16.82404
682.168	14.39807
682.357	14.23552
682.547	15.15954
682.736	12.98615
682.925	17.58586
683.115	16.76459
683.304	16.36387
683.493	15.04327
683.682	15.09563
683.872	15.17297
684.061	18.60747
684.25	16.12209
684.439	20.73004
684.629	15.95917
684.818	26.51679
685.007	14.05662
685.196	12.34659
685.385	19.95861
685.574	15.76694
685.763	16.21091
685.952	14.71001
686.142	10.3634
686.331	19.18817
686.52	8.626
686.709	20.59876
686.898	20.51532
687.087	17.1612
687.276	21.07232
687.465	19.09995
687.654	14.08331
687.842	20.63439
688.031	10.48338
688.22	20.47022
688.409	15.64663
688.598	15.06315
688.787	24.59563
688.976	14.86524
689.165	22.44287
689.353	13.03295
689.542	16.82611
689.731	18.73551
689.92	22.84488
690.108	17.84874
690.297	14.76008
690.486	15.24613
690.675	18.75276
690.863	21.92509
691.052	21.41344
691.241	17.17875
691.429	16.66902
691.618	21.50626
691.806	10.10871
691.995	14.14172
692.184	15.7839
692.372	13.85885
692.561	16.63565
692.749	15.74693
692.938	26.51615
693.126	18.80373
693.315	16.18306
693.503	18.6705
693.692	19.17401
693.88	20.5211
694.068	24.43759
694.257	15.90346
694.445	17.68019
694.634	8.16824
694.822	20.29073
695.01	22.30998
695.199	23.34945
695.387	23.394
695.575	21.44026
695.763	16.00406
695.952	14.42921
696.14	10.80851
696.328	15.13553
696.516	17.68994
696.705	17.81441
696.893	17.56987
697.081	9.84274
697.269	19.58554
697.457	12.41126
697.645	11.85187
697.833	18.77893
698.021	13.68087
698.21	13.86571
698.398	15.6279
698.586	11.44083
698.774	12.20933
698.962	14.99663
699.15	12.27216
699.338	10.56959
699.526	17.18715
699.714	12.81572
699.901	13.26665
700.089	18.92952
700.277	12.84498
700.465	14.46822
700.653	18.94772
700.841	17.84524
701.029	13.33126
701.217	20.82801
701.404	17.72438
701.592	22.15707
701.78	25.96382
701.968	15.07968
702.155	16.54065
702.343	9.93518
702.531	22.53753
702.718	19.48429
702.906	15.71834
703.094	14.91026
703.281	23.54578
703.469	17.8276
703.657	23.18556
703.844	32.67797
704.032	26.07106
704.219	15.08792
704.407	19.21425
704.595	24.38398
704.782	17.60193
704.97	16.12023
705.157	16.09686
705.345	24.62563
705.532	30.79765
705.719	20.3973
705.907	25.19375
706.094	19.25188
706.282	26.88803
706.469	17.43372
706.656	19.09896
706.844	16.83092
707.031	22.91013
707.218	20.26358
707.406	26.57219
707.593	22.60193
707.78	21.78516
707.968	18.93137
708.155	15.34959
708.342	21.71725
708.529	22.11994
708.716	21.22478
708.904	27.76493
709.091	23.09005
709.278	14.74131
709.465	28.91204
709.652	27.9313
709.839	26.53976
710.026	21.41143
710.213	12.00201
710.4	21.48311
710.587	24.96101
710.774	25.8223
710.961	25.54393
711.148	19.90842
711.335	26.36314
711.522	19.72571
711.709	23.09394
711.896	32.73532
712.083	25.39146
712.27	15.61719
712.457	21.94482
712.644	14.50384
712.831	31.47707
713.017	21.20338
713.204	25.40179
713.391	17.96569
713.578	27.15145
713.765	29.142
713.951	24.01334
714.138	39.12992
714.325	24.88674
714.512	20.80558
714.698	16.34919
714.885	29.6863
715.072	23.57508
715.258	22.56042
715.445	19.41531
715.631	28.53892
715.818	9.02185
716.005	18.67178
716.191	25.53889
716.378	19.93366
716.564	27.10885
716.751	18.00536
716.937	19.54784
717.124	27.979
717.31	18.43165
717.497	31.61962
717.683	19.18864
717.869	36.34164
718.056	19.53896
718.242	24.69676
718.429	20.95545
718.615	16.69044
718.801	23.4466
718.988	29.84474
719.174	27.02581
719.36	22.21536
719.547	29.72158
719.733	25.77009
719.919	25.74771
720.105	29.22833
720.291	23.09319
720.478	26.33055
720.664	22.61813
720.85	21.84789
721.036	42.52618
721.222	33.72748
721.408	23.56165
721.595	35.51419
721.781	33.73186
721.967	31.51266
722.153	34.2394
722.339	26.25884
722.525	27.50606
722.711	18.18992
722.897	16.06906
723.083	21.76524
723.269	30.3341
723.455	42.75772
723.641	46.80765
723.827	26.03446
724.012	28.83774
724.198	23.18448
724.384	33.2406
724.57	28.47419
724.756	15.66614
724.942	12.42818
725.127	32.86266
725.313	34.80545
725.499	33.89821
725.685	36.78423
725.87	27.64201
726.056	20.50444
726.242	33.72999
726.428	16.36149
726.613	32.06352
726.799	23.97478
726.985	18.82003
727.17	16.30739
727.356	39.00619
727.541	20.1011
727.727	25.80189
727.913	29.73467
728.098	21.51331
728.284	32.41874
728.469	16.49039
728.655	19.23575
728.84	32.38385
729.026	29.53128
729.211	32.68834
729.397	29.58109
729.582	29.33138
729.767	25.23595
729.953	27.25724
730.138	33.84658
730.323	12.3175
730.509	19.40835
730.694	35.02388
730.879	30.81583
731.065	27.06322
731.25	41.64304
731.435	32.08242
731.621	15.83949
731.806	22.62355
731.991	28.50643
732.176	15.88983
732.361	35.72683
732.547	30.49493
732.732	14.15476
732.917	43.71365
733.102	17.71591
733.287	20.29827
733.472	27.02093
733.657	27.51774
733.842	16.80823
734.027	23.53362
734.212	26.15728
734.397	21.05926
734.582	26.72133
734.767	33.14256
734.952	36.60325
735.137	9.32185
735.322	36.52287
735.507	29.26324
735.692	27.75405
735.877	43.22648
736.062	41.58406
736.247	30.51247
736.431	25.2749
736.616	33.07261
736.801	28.96499
736.986	29.16019
737.171	21.0656
737.355	17.80527
737.54	37.11133
737.725	29.72068
737.909	49.87374
738.094	24.41027
738.279	34.79756
738.463	25.96301
738.648	34.57664
738.833	30.6672
739.017	43.68217
739.202	27.06811
739.386	27.56298
739.571	20.98742
739.756	36.33439
739.94	27.43268
740.125	35.56612
740.309	24.93052
740.494	33.64103
740.678	28.86185
740.863	34.25379
741.047	32.00809
741.231	40.13545
741.416	24.42807
741.6	43.10164
741.785	21.2064
741.969	38.39015
742.153	41.39926
742.338	10.85129
742.522	28.268
742.706	36.93359
742.89	18.46228
743.075	31.85381
743.259	42.10776
743.443	39.34457
743.627	39.35271
743.812	49.29926
743.996	10.61435
744.18	30.69576
744.364	22.34321
744.548	51.74137
744.732	29.75477
744.916	37.02987
745.1	35.33386
745.285	28.77281
745.469	35.73034
745.653	47.34056
745.837	19.18107
746.021	49.84349
746.205	38.42647
746.389	33.0773
746.573	29.10349
746.757	43.71724
746.94	26.23522
747.124	44.49632
747.308	21.13466
747.492	39.14624
747.676	26.65008
747.86	53.40669
748.044	29.44756
748.227	15.04824
748.411	68.0371
748.595	35.30687
748.779	22.66521
748.963	37.4048
749.146	32.10715
749.33	26.59544
749.514	21.44711
749.697	42.82417
749.881	27.55426
750.065	21.98547
750.248	31.12947
750.432	55.41675
750.616	34.04189
750.799	18.08922
750.983	54.66736
751.166	59.07599
751.35	16.72752
751.533	36.51855
751.717	46.44331
751.9	46.80526
752.084	27.00791
752.267	21.38593
752.451	26.58777
752.634	32.5554
752.818	37.99467
753.001	38.23452
753.184	41.44491
753.368	35.48805
753.551	1.79735
753.734	22.33877
753.918	52.96037
754.101	22.97913
754.284	36.3443
754.467	26.8135
754.651	25.29743
754.834	26.24912
755.017	42.89962
755.2	43.31922
755.384	22.29452
755.567	39.54099
755.75	41.51026
755.933	28.11838
756.116	34.79753
756.299	23.46855
756.482	25.29429
756.665	37.81365
756.848	35.42493
757.032	37.51561
757.215	18.36158
757.398	22.64824
757.581	24.39636
757.764	61.12162
757.947	31.57077
758.129	46.45945
758.312	6.27358
758.495	33.72074
758.678	32.00545
758.861	31.99146
759.044	55.437
759.227	26.64778
759.41	25.11818
759.592	40.26818
759.775	30.45073
759.958	41.86389
760.141	19.97508
760.324	58.74219
760.506	49.73943
760.689	42.13807
760.872	59.43927
761.054	40.51758
761.237	27.73142
761.42	37.12147
761.602	42.29797
761.785	37.34071
761.968	44.85422
762.15	51.57372
762.333	29.17349
762.515	37.37566
762.698	27.73029
762.88	39.1553
763.063	33.4659
763.245	40.78753
763.428	23.13304
763.61	26.31802
763.793	19.24989
763.975	33.64727
764.158	25.83347
764.34	27.49651
764.522	22.33518
764.705	29.15958
764.887	44.64225
765.069	18.00048
765.252	37.8786
765.434	40.93595
765.616	33.06474
765.799	25.2487
765.981	38.28541
766.163	24.22901
766.345	40.04515
766.528	27.15674
766.71	10.64047
766.892	33.4378
767.074	46.5719
767.256	31.82675
767.438	53.4444
767.62	37.29519
767.802	59.05521
767.985	44.6161
768.167	58.18017
768.349	28.04974
768.531	40.57443
768.713	37.79132
768.895	48.80404
769.077	39.50227
769.259	65.89612
769.441	98.74123
769.623	46.90805
769.804	57.36363
769.986	57.65138
770.168	73.6133
770.35	80.22211
770.532	67.19755
770.714	63.02687
770.896	70.03309
771.077	20.95665
771.259	70.30464
771.441	60.36608
771.623	76.31626
771.804	91.9416
771.986	26.89225
772.168	45.82875
772.35	72.44936
772.531	100.91747
772.713	55.99021
772.894	77.11503
773.076	52.43082
773.258	43.88403
773.439	77.8221
773.621	81.07177
773.802	33.20081
773.984	53.98908
774.166	57.65946
774.347	90.95545
774.529	69.18112
774.71	16.72745
774.891	53.56454
775.073	50.00172
775.254	84.27556
775.436	47.80148
775.617	96.57111
775.799	47.05995
775.98	89.4895
776.161	94.08555
776.343	90.33118
776.524	52.34059
776.705	51.17569
776.886	26.74314
777.068	63.40076
777.249	115.83846
777.43	101.47163
777.611	36.87973
777.793	56.38457
777.974	90.03799
778.155	52.78509
778.336	44.5396
778.517	97.17945
778.698	44.64292
778.879	24.49817
779.061	8.88552
779.242	64.94035
779.423	62.70585
779.604	43.93932
779.785	52.81383
779.966	66.38854
780.147	77.85335
780.328	78.37096
780.509	108.57289
780.69	76.1477
780.871	49.05391
781.051	26.35726
781.232	58.97827
781.413	61.99067
781.594	49.47942
781.775	46.22744
781.956	44.90897
782.137	23.82575
782.317	46.90552
782.498	63.44903
782.679	66.00159
782.86	58.27614
783.04	41.76047
783.221	65.22265
783.402	98.34841
783.583	63.05793
783.763	78.01924
783.944	50.41521
784.124	28.95091
784.305	96.88694
784.486	69.40271
784.666	54.59692
784.847	20.29965
785.027	121.02455
785.208	41.60642
785.388	43.29381
785.569	46.11995
785.749	46.76874
785.93	46.78504
786.11	30.43624
786.291	62.4086
786.471	66.37641
786.652	73.48602
786.832	55.58699
787.012	72.62426
787.193	33.42211
787.373	59.13167
787.553	49.2298
787.734	59.47183
787.914	45.73876
788.094	71.5424
788.275	65.19075
788.455	47.00514
788.635	32.64656
788.815	59.54337
788.995	36.11199
789.176	29.1193
789.356	40.76401
789.536	46.37934
789.716	61.36074
789.896	37.9901
790.076	45.30393
790.256	63.41248
790.436	13.94319
790.616	36.62262
790.796	65.46438
790.976	47.52453
791.156	44.3173
791.336	74.74526
791.516	62.02749
791.696	50.23465
791.876	28.04982
792.056	60.13329
792.236	79.48296
792.416	75.44682
792.596	66.38575
792.776	60.12121
792.956	71.15066
793.135	87.61332
793.315	35.43402
793.495	80.1554
793.675	73.26843
793.854	77.65849
794.034	77.61864
794.214	34.88162
794.394	72.38725
794.573	83.12699
794.753	57.82822
794.933	43.40637
795.112	58.46395
795.292	77.1266
795.472	92.25047
795.651	35.05945
795.831	59.98703
796.01	49.93972
796.19	49.66619
796.369	49.93348
796.549	66.55417
796.728	49.35767
796.908	33.37835
797.087	34.49105
797.267	52.89255
797.446	33.55569
797.626	60.62635
797.805	64.78463
797.984	44.47371
798.164	70.31209
798.343	37.68615
798.522	63.68282
798.702	57.81378
798.881	34.72257
799.06	48.8612
799.239	18.33775
799.419	36.07511
799.598	89.16264
799.777	67.64869
799.956	76.62857
800.136	53.63746
800.315	42.36522
800.494	61.31465
800.673	74.31979
800.852	74.95569
801.031	82.47105
801.21	68.04504
801.389	42.67401
801.568	60.05588
801.747	93.35537
801.926	55.91854
802.105	91.13826
802.284	49.28271
802.463	89.19615
802.642	62.62131
802.821	61.42193
803	82.73806
803.179	79.19638
803.358	81.84665
803.537	44.72614
803.716	65.85936
803.895	39.15182
804.073	60.09375
804.252	47.18979
804.431	62.24578
804.61	57.17698
804.789	83.52088
804.967	51.24905
805.146	49.46651
805.325	103.91264
805.503	65.30052
805.682	33.57076
805.861	125.70586
806.039	90.22367
806.218	44.17124
806.397	68.37963
806.575	63.34009
806.754	63.16481
806.932	41.2459
807.111	92.17712
807.289	82.05547
807.468	64.72052
807.646	81.15489
807.825	68.70823
808.003	66.56262
808.182	80.79197
808.36	60.14084
808.539	39.69885
808.717	91.59786
808.895	41.94918
809.074	64.29274
809.252	49.66653
809.43	89.64047
809.609	92.77534
809.787	111.3215
809.965	56.73339
810.144	61.04692
810.322	50.98716
810.5	80.28315
810.678	63.05317
810.856	106.20817
811.035	85.71172
811.213	92.33592
811.391	87.03704
811.569	62.51142
811.747	146.48557
811.925	92.33673
812.103	50.60786
812.281	54.92899
812.459	116.0793
812.637	108.90349
812.816	93.82496
812.994	116.3079
813.171	93.35512
813.349	90.75845
813.527	103.52956
813.705	101.15559
813.883	119.52071
814.061	95.62753
814.239	119.95302
814.417	115.5716
814.595	87.60825
814.773	73.8988
814.95	79.33754
815.128	84.22772
815.306	66.24408
815.484	73.38752
815.662	49.42954
815.839	44.20011
816.017	54.6368
816.195	98.53691
816.372	64.02617
816.55	97.84149
816.728	104.69878
816.905	64.50316
817.083	105.176
817.261	71.3719
817.438	147.9748
817.616	128.04369
817.793	51.19172
817.971	86.95619
818.148	83.41154
818.326	113.57105
818.503	76.91819
818.681	102.49358
818.858	63.10827
819.036	70.01801
819.213	73.57297
819.391	48.88941
819.568	44.73215
819.745	42.55273
819.923	78.57187
820.1	53.22921
820.277	45.25708
820.455	55.39385
820.632	55.79902
820.809	61.15935
820.986	36.57107
821.164	29.62189
821.341	23.96684
821.518	36.54306
821.695	27.16742
821.872	24.66834
822.05	20.43257
822.227	16.37362
822.404	17.63527
822.581	20.88791
822.758	17.96954
822.935	18.0498
823.112	20.55792
823.289	16.33751
823.466	21.2104
823.643	19.6231
823.82	23.26024
823.997	20.21274
824.174	24.97648
824.351	33.068
824.528	31.59587
824.705	28.1193
824.882	30.6446
825.059	40.36854
825.236	28.26513
825.412	28.35068
825.589	36.83642
825.766	55.44681
825.943	32.62743
826.12	39.65009
826.296	26.64454
826.473	35.27257
826.65	33.73191
826.827	44.76698
827.003	28.36772
827.18	31.01223
827.357	37.12345
827.533	29.5466
827.71	15.45815
827.887	26.07062
828.063	32.96431
828.24	27.0441
828.416	38.24806
828.593	29.74351
828.769	46.16255
828.946	48.40081
829.122	47.84998
829.299	51.52611
829.475	21.52338
829.652	45.98679
829.828	77.57893
830.005	51.50272
830.181	68.18369
830.357	47.08181
830.534	71.93926
830.71	58.52631
830.886	71.13948
831.063	70.35121
831.239	92.62372
831.415	36.09975
831.592	107.09698
831.768	57.11291
831.944	45.96106
832.12	99.78095
832.296	95.11183
832.473	76.89839
832.649	49.12372
832.825	75.97152
833.001	38.85054
833.177	62.04349
833.353	56.58509
833.529	26.29137
833.705	46.36574
833.881	31.79197
834.058	35.05123
834.234	32.61262
834.41	34.25574
834.586	25.71159
834.761	31.77601
834.937	35.78758
835.113	37.34857
835.289	31.56301
835.465	39.48553
835.641	33.32694
835.817	40.81466
835.993	75.68059
836.169	30.78274
836.344	54.79993
836.52	64.21594
836.696	73.9069
836.872	47.2039
837.048	146.45713
837.223	52.30392
837.399	121.35473
837.575	95.03217
837.75	81.55189
837.926	127.2653
838.102	204.86367
838.277	158.20187
838.453	213.70248
838.628	207.65275
838.804	64.15654
838.98	204.98241
839.155	101.82919
839.331	133.39814
839.506	101.81019
839.682	91.75209
839.857	107.91531
840.033	130.90512
840.208	58.94202
840.384	27.65751
840.559	65.87133
840.734	101.81355
840.91	138.76353
841.085	89.77534
841.26	94.27488
841.436	79.44942
841.611	75.99606
841.786	112.09592
841.962	157.28779
842.137	118.48912
842.312	64.31356
842.487	98.37702
842.663	84.61184
842.838	105.31798
843.013	308.28654
843.188	193.48584
843.363	132.36519
843.538	312.56617
843.714	357.72388
843.889	313.61151
844.064	308.18551
844.239	230.8713
844.414	438.85033
844.589	237.92317
844.764	407.37777
844.939	379.92289
845.114	415.37393
845.289	430.05523
845.464	499.21091
845.639	393.70641
845.814	184.69793
845.989	319.85162
846.163	220.04983
846.338	309.98737
846.513	416.47236
846.688	270.86275
846.863	310.49767
847.038	226.55174
847.212	282.53536
847.387	342.92428
847.562	285.51747
847.737	479.22754
847.911	173.86387
848.086	188.50457
848.261	454.88659
848.435	259.72293
848.61	383.27591
848.785	211.47266
848.959	426.02509
849.134	464.96438
849.308	678.75112
849.483	321.39214
849.658	541.61994
849.832	256.34359
850.007	244.72697
850.181	668.8711
850.356	314.25852
850.53	771.0406
850.705	345.19443
850.879	160.66139
851.053	302.10337
851.228	307.60341
851.402	474.21122
851.577	491.91898
851.751	589.85431
851.925	353.17705
852.099	125.5774
852.274	260.8764
852.448	303.5354
852.622	451.16946
852.797	328.0217
852.971	348.16324
853.145	416.07813
853.319	728.96269
853.493	667.15931
853.668	535.22052
853.842	783.3696
854.016	493.79267
854.19	676.5391
854.364	354.11862
854.538	335.34824
854.712	766.1592
854.886	398.38129
855.06	293.52234
855.234	119.94093
855.408	627.58458
855.582	431.46885
855.756	679.00025
855.93	559.99321
856.104	624.14026
856.278	580.57609
856.452	367.7336
856.626	398.66846
856.8	932.82019
856.973	381.22018
857.147	461.7075
857.321	474.72169
857.495	512.43452
857.669	343.47807
857.842	449.27376
858.016	615.84805
858.19	228.72854
858.364	777.72267
858.537	378.29252
858.711	506.84195
858.885	419.35389
859.058	239.56883
859.232	180.25233
859.405	145.72971
859.579	492.94926
859.753	572.69056
859.926	255.45405
860.1	255.50146
860.273	371.71602
860.447	479.25613
860.62	374.21641
860.794	613.28669
860.967	346.70948
861.141	497.0042
861.314	791.05791
861.487	494.54974
861.661	465.74419
861.834	544.70713
862.008	649.87543
862.181	438.37424
862.354	510.66674
862.528	506.25753
862.701	312.68144
862.874	187.94016
863.047	320.50154
863.221	293.87734
863.394	207.11285
863.567	415.99548
863.74	140.54558
863.913	498.6538
864.087	516.99283
864.26	489.74589
864.433	365.85182
864.606	591.09415
864.779	360.29764
864.952	169.85774
865.125	409.99082
865.298	291.00085
865.471	345.68798
865.644	772.0257
865.817	498.14501
865.99	510.80558
866.163	461.94086
866.336	237.72918
866.509	330.77007
866.682	559.0558
866.855	730.00767
867.028	194.98389
867.2	382.88572
867.373	85.93562
867.546	384.69549
867.719	686.78275
867.892	444.32038
868.064	263.31453
868.237	339.02736
868.41	384.0782
868.583	167.62809
868.755	232.62709
868.928	433.35265
869.101	829.30137
869.273	547.91982
869.446	533.12665
869.619	577.68546
869.791	388.03064
869.964	501.08912
870.136	861.74102
870.309	363.55202
870.481	400.56061
870.654	205.10325
870.826	329.66651
870.999	231.64536
871.171	421.37611
871.344	229.37519
871.516	321.45899
871.689	240.24754
871.861	350.78099
872.033	294.6667
872.206	263.97587
872.378	336.94405
872.55	354.66678
872.723	192.79773
872.895	318.89672
873.067	463.32484
873.24	365.66551
873.412	336.87607
873.584	386.88136
873.756	349.72687
873.928	457.96364
874.101	353.56463
874.273	425.95105
874.445	124.81346
874.617	245.47713
874.789	297.62243
874.961	320.43753
875.133	357.58686
875.305	389.93325
875.477	292.83482
875.649	158.66214
875.821	193.03922
875.993	613.89809
876.165	336.00182
876.337	369.50388
876.509	302.94432
876.681	399.03616
876.853	368.0739
877.025	356.43534
877.197	237.72677
877.369	166.62904
877.541	339.97917
877.712	92.19011
877.884	180.52577
878.056	347.62079
878.228	186.30323
878.4	399.32608
878.571	164.22433
878.743	113.11735
878.915	276.31598
879.086	135.238
879.258	180.35767
879.43	172.87947
879.601	133.06263
879.773	134.41505
879.945	20.92102
880.116	50.69538
880.288	28.82033
880.459	31.78507
880.631	27.04777
880.802	31.28773
880.974	28.24972
881.145	17.89418
881.317	26.86613
881.488	20.30408
881.66	22.29085
881.831	20.5239
882.002	28.24532
882.174	20.99757
882.345	26.5661
882.517	13.88417
882.688	32.90981
882.859	24.25598
883.03	43.87189
883.202	39.90147
883.373	32.02273
883.544	32.5501
883.715	60.37282
883.887	49.82002
884.058	37.29361
884.229	62.99699
884.4	62.9351
884.571	77.85578
884.742	62.47704
884.914	71.13466
885.085	100.53979
885.256	149.3533
885.427	121.39139
885.598	150.91769
885.769	147.92846
885.94	146.62507
886.111	93.44504
886.282	180.87262
886.453	158.65282
886.624	107.85419
886.795	201.41189
886.966	166.69448
887.136	215.72512
887.307	154.33859
887.478	316.91925
887.649	268.84755
887.82	270.22681
887.991	219.2666
888.161	350.70887
888.332	335.49134
888.503	138.09726
888.674	374.09255
888.844	526.51301
889.015	314.29677
889.186	202.76707
889.356	506.61249
889.527	201.3147
889.698	648.11923
889.868	229.42152
890.039	424.2703
890.209	272.23706
890.38	399.09311
890.551	382.51636
890.721	423.88194
890.892	456.3163
891.062	431.27197
891.233	525.75966
891.403	421.41471
891.574	301.53949
891.744	272.73882
891.914	348.59505
892.085	360.17173
892.255	120.56854
892.425	447.39359
892.596	319.87953
892.766	392.55242
892.936	458.46165
893.107	385.71907
893.277	166.67153
893.447	198.74511
893.618	100.14328
893.788	189.55577
893.958	122.65855
894.128	98.31116
894.298	117.6943
894.468	151.12045
894.639	73.06171
894.809	35.46005
894.979	70.46477
895.149	86.13865
895.319	67.6212
895.489	108.36462
895.659	139.97456
895.829	79.5829
895.999	86.59195
896.169	75.23549
896.339	91.24496
896.509	191.9112
896.679	191.2559
896.849	235.93873
897.019	262.70623
897.189	242.1337
897.358	202.41125
897.528	341.99217
897.698	230.89199
897.868	304.09958
898.038	618.81534
898.208	610.82708
898.377	226.60017
898.547	986.9013
898.717	1407.02849
898.886	401.38725
899.056	615.69021
899.226	1483.77461
899.395	741.04812
899.565	1295.73917
899.735	845.21684
899.904	930.68169
900.074	1036.96325
900.244	287.35851
900.413	1265.96708
900.583	415.72421
900.752	1368.99578
900.922	992.24756
901.091	312.06722
901.261	1737.2281
901.43	533.61462
901.599	2163.40838
901.769	1473.61475
901.938	1091.9287
902.108	1634.68548
902.277	827.51053
902.446	425.98181
902.616	413.80898
902.785	534.23799
902.954	701.02903
903.124	545.46356
903.293	290.1775
903.462	128.38408
903.631	205.16047
903.801	146.94282
903.97	68.85277
904.139	114.12332
904.308	83.77034
904.477	71.16907
904.646	39.70284
904.816	57.87366
904.985	97.20229
905.154	149.01249
