Data from WindowProjectSample_Transmission__35__00035__06985535788037713.txt Node

Date: Mon May 05 17:43:33 EDT 2025
User: jessi
Spectrometer: SR400872
Trigger mode: 0
Integration Time (sec): 5.000010E-1
Scans to average: 20
Electric dark correction enabled: true
Nonlinearity correction enabled: true
Boxcar width: 0
XAxis mode: Wavelengths
Number of Pixels in Spectrum: 3648
>>>>>Begin Spectral Data<<<<<
184.909	21562.02433
185.132	-5231.93232
185.355	-3099.95619
185.578	-17837.60263
185.801	1270.07137
186.024	10334.99938
186.247	-2113.98622
186.47	1089.07948
186.693	445.81226
186.916	337.95394
187.139	-3766.59676
187.362	3760.88145
187.585	4213.49578
187.808	3806.6022
188.031	10.67034
188.254	-58780.93863
188.476	-746.59434
188.699	6429.57739
188.922	527.7512
189.145	-15582.74105
189.368	-537.08179
189.591	-1416.14376
189.813	3156.19616
190.036	-52221.35987
190.259	-848.1729
190.482	-4358.30952
190.705	7334.0316
190.927	-2489.1066
191.15	13473.8078
191.373	3379.69686
191.595	-8823.37383
191.818	-4174.58858
192.041	-6530.84209
192.263	-3410.31834
192.486	-999.3003
192.709	-4063.68909
192.931	8140.54363
193.154	-28604.17204
193.377	-2975.26875
193.599	-2605.05637
193.822	-8960.4787
194.044	-1951.06208
194.267	1164.59814
194.489	265.82461
194.712	-43783.97282
194.934	-32299.11161
195.157	1229.85524
195.379	1534.17293
195.602	-7187.66456
195.824	-1343.57878
196.047	-9641.53028
196.269	2758.91708
196.492	-6479.69899
196.714	30526.69558
196.936	-8817.08926
197.159	-1184.45828
197.381	1210.53515
197.604	485.20812
197.826	12010.49161
198.048	-12039.51766
198.271	-2978.54975
198.493	7662.52918
198.715	2256.24524
198.938	-525.56594
199.16	7924.94319
199.382	-104967.52671
199.604	2898.06649
199.827	-1119.69787
200.049	-2916.61544
200.271	14242.57992
200.493	1269.40311
200.715	-38925.89925
200.938	-6133.3959
201.16	-4298.76193
201.382	20022.47955
201.604	2297.70163
201.826	2347.25306
202.048	-2046.11941
202.27	-2070.17119
202.492	-37367.52266
202.715	2946.29301
202.937	-4698.62624
203.159	-6562.38005
203.381	1592.36629
203.603	7070.36752
203.825	6777.96304
204.047	2335.22701
204.269	-2886.86791
204.491	2217.75422
204.713	5935.44954
204.935	-521667.61816
205.156	1246.37055
205.378	-2946.43238
205.6	1677.68864
205.822	156975.7803
206.044	-1043.6834
206.266	1693.88985
206.488	4854.1889
206.71	-5348.92703
206.932	1149.63866
207.153	12573.14178
207.375	-6891.55842
207.597	-39689.94314
207.819	-2893.0667
208.041	2400.55495
208.262	469.51771
208.484	708.95755
208.706	-854.11152
208.927	-823.2861
209.149	565.78301
209.371	-3007.14629
209.593	-257.7913
209.814	-909.00787
210.036	673.38638
210.258	-664.18735
210.479	2050.25094
210.701	1756.16028
210.922	3082.81333
211.144	-3780.68771
211.366	2123.39032
211.587	8331.12226
211.809	-8029.08705
212.03	2343.76405
212.252	489.97197
212.473	2010.10461
212.695	-5805.28662
212.916	3056.2332
213.138	-780.7677
213.359	3966.27805
213.581	5279.3514
213.802	-755.60641
214.024	1157.60349
214.245	2215.80067
214.466	3219.91549
214.688	-3112.02401
214.909	-1277.14062
215.131	-1749.19123
215.352	-3277.20422
215.573	15340.84638
215.795	5227.20557
216.016	5501.74228
216.237	845.07012
216.459	3555.35267
216.68	1817.0978
216.901	5307.22973
217.122	-3422.1755
217.344	-12035.93103
217.565	3456.05909
217.786	8947.39463
218.007	18000.69897
218.228	-644.03184
218.45	5873.96176
218.671	804.75894
218.892	37075.69496
219.113	1534.3418
219.334	-474.09309
219.555	10421.32287
219.776	3162.05585
219.997	22919.20707
220.219	2701.67081
220.44	-12037.06364
220.661	496.88472
220.882	1504.58743
221.103	-1100.54015
221.324	2222.31445
221.545	2317.21473
221.766	-8926.3107
221.987	914.99745
222.208	1736.48013
222.429	4409.40237
222.65	265.06749
222.87	18084.66901
223.091	729.0234
223.312	615.00901
223.533	1399.8494
223.754	1502.84884
223.975	1396.95366
224.196	1996.83805
224.417	1350.97059
224.637	680.65256
224.858	82.06499
225.079	1121.04897
225.3	678.10012
225.521	3743.12508
225.741	473.10066
225.962	529.22644
226.183	148.772
226.404	675.68759
226.624	430.36209
226.845	606.38904
227.066	408.35011
227.286	266.95036
227.507	134.02015
227.728	115.18225
227.948	251.14448
228.169	77.16591
228.389	86.94897
228.61	48.02755
228.831	66.04503
229.051	2.97143
229.272	39.29366
229.492	59.45166
229.713	13.80472
229.933	39.42733
230.154	31.40529
230.374	55.32005
230.595	37.84487
230.815	24.3019
231.036	39.85673
231.256	-8.47759
231.477	68.45139
231.697	37.69803
231.917	41.74926
232.138	54.78709
232.358	119.85461
232.579	104.17988
232.799	19.47998
233.019	102.30426
233.24	118.57512
233.46	39.02332
233.68	60.45445
233.901	42.92224
234.121	28.4906
234.341	15.45109
234.561	-3.04262
234.782	22.27336
235.002	71.90879
235.222	-3.73388
235.442	65.48588
235.662	30.74775
235.883	64.10257
236.103	50.97812
236.323	36.55904
236.543	29.94958
236.763	36.39826
236.983	48.06143
237.203	40.68281
237.423	63.08611
237.643	87.48472
237.864	75.47798
238.084	18.39827
238.304	25.48999
238.524	47.13457
238.744	42.97255
238.964	75.90022
239.184	62.75974
239.404	66.50272
239.624	36.09097
239.843	62.77994
240.063	36.73043
240.283	22.50547
240.503	27.62729
240.723	24.99157
240.943	14.23326
241.163	20.11724
241.383	13.74819
241.603	7.59917
241.822	10.41896
242.042	6.86109
242.262	8.36275
242.482	10.10593
242.702	10.23067
242.921	2.77576
243.141	6.63707
243.361	6.5373
243.581	9.76664
243.8	7.40754
244.02	5.03958
244.24	9.34022
244.459	9.68424
244.679	17.62126
244.899	10.57257
245.118	13.92016
245.338	12.56679
245.558	14.36999
245.777	8.25313
245.997	10.64793
246.216	10.65348
246.436	6.28089
246.655	5.03079
246.875	3.37593
247.094	6.36533
247.314	2.14855
247.533	3.62117
247.753	4.44151
247.972	3.57559
248.192	1.1118
248.411	1.81327
248.631	3.64655
248.85	4.77358
249.07	3.97457
249.289	5.80417
249.508	5.20731
249.728	7.70781
249.947	6.95133
250.166	9.21275
250.386	4.71911
250.605	6.19462
250.824	11.08151
251.044	7.69482
251.263	29.24586
251.482	14.82408
251.701	11.48663
251.921	0.2819
252.14	3.46483
252.359	3.89115
252.578	10.19211
252.798	3.22909
253.017	9.39757
253.236	4.24738
253.455	5.48609
253.674	10.66319
253.893	4.79222
254.112	8.24787
254.331	11.37934
254.551	8.98143
254.77	3.51431
254.989	14.44779
255.208	9.84216
255.427	14.74024
255.646	12.38764
255.865	21.79798
256.084	9.01749
256.303	10.47871
256.522	13.67481
256.741	2.52709
256.96	3.20378
257.179	7.6538
257.397	11.13876
257.616	6.48732
257.835	6.70055
258.054	15.85913
258.273	10.55322
258.492	11.37339
258.711	6.98315
258.93	3.36245
259.148	4.96223
259.367	4.94311
259.586	5.74974
259.805	2.41452
260.023	5.34232
260.242	4.00156
260.461	2.85196
260.68	1.30574
260.898	4.55836
261.117	1.57332
261.336	0.96162
261.554	3.54161
261.773	3.3887
261.992	0.65915
262.21	3.43277
262.429	3.77318
262.648	7.56363
262.866	8.2967
263.085	5.81095
263.303	4.9184
263.522	8.41737
263.74	9.2173
263.959	15.7694
264.178	7.17098
264.396	6.76518
264.615	4.63691
264.833	10.67638
265.051	8.81388
265.27	10.96685
265.488	11.27997
265.707	6.15651
265.925	10.92289
266.144	5.20935
266.362	5.74325
266.58	5.66224
266.799	5.08043
267.017	6.48943
267.235	5.23956
267.454	3.32366
267.672	1.87096
267.89	4.16194
268.109	4.56472
268.327	4.56313
268.545	1.02992
268.763	4.33764
268.982	1.35173
269.2	4.45038
269.418	2.9496
269.636	1.91574
269.854	4.7544
270.073	3.02925
270.291	1.83655
270.509	1.52269
270.727	4.47729
270.945	7.31754
271.163	7.26522
271.381	1.42719
271.599	3.34127
271.817	5.59842
272.036	1.79267
272.254	3.34394
272.472	2.45057
272.69	2.63823
272.908	2.55115
273.126	4.67285
273.344	5.53476
273.562	1.97141
273.779	2.52594
273.997	3.9288
274.215	4.24605
274.433	2.97741
274.651	4.73948
274.869	4.95398
275.087	2.97496
275.305	4.0413
275.523	2.55838
275.74	2.89449
275.958	5.57716
276.176	8.24544
276.394	2.64557
276.612	3.30469
276.829	3.30886
277.047	2.79648
277.265	2.83549
277.483	3.50033
277.7	4.30943
277.918	3.54821
278.136	6.29763
278.353	2.86037
278.571	1.84752
278.789	4.35774
279.006	1.16807
279.224	3.2566
279.442	5.25145
279.659	3.75853
279.877	2.56287
280.094	5.90768
280.312	1.0332
280.529	3.41316
280.747	0.92421
280.964	2.76997
281.182	6.12417
281.399	2.76286
281.617	4.03432
281.834	2.47885
282.052	1.94175
282.269	3.19927
282.487	2.57622
282.704	2.10174
282.921	2.24341
283.139	3.38988
283.356	4.07274
283.574	3.87921
283.791	2.0464
284.008	5.68146
284.226	3.06628
284.443	3.31002
284.66	4.5883
284.877	3.54357
285.095	2.07973
285.312	1.54111
285.529	0.80654
285.746	0.93842
285.964	2.16746
286.181	1.42235
286.398	2.0082
286.615	2.73279
286.832	2.57203
287.05	0.61904
287.267	1.83872
287.484	1.83326
287.701	2.70534
287.918	2.6973
288.135	2.78925
288.352	1.28332
288.569	1.45899
288.786	2.40886
289.003	2.09251
289.22	3.04339
289.437	1.74678
289.654	3.02298
289.871	3.16509
290.088	3.00435
290.305	2.21502
290.522	1.76286
290.739	2.07544
290.956	3.17196
291.173	3.5762
291.39	3.5012
291.607	2.48429
291.824	1.72307
292.04	1.33952
292.257	2.95068
292.474	3.34447
292.691	1.89386
292.908	0.94462
293.125	1.62617
293.341	1.13252
293.558	5.08225
293.775	1.98026
293.992	2.17506
294.208	0.78064
294.425	1.3131
294.642	2.08621
294.858	2.92953
295.075	0.74294
295.292	1.98615
295.508	2.37245
295.725	4.13162
295.942	1.80076
296.158	1.41997
296.375	2.16
296.591	1.68305
296.808	1.91858
297.024	2.28524
297.241	2.46
297.458	2.722
297.674	0.43727
297.891	2.01169
298.107	1.83949
298.323	1.30308
298.54	3.48873
298.756	1.71728
298.973	1.03505
299.189	3.51386
299.406	1.70143
299.622	3.31751
299.838	3.1503
300.055	3.20524
300.271	1.20744
300.487	1.50268
300.704	1.91607
300.92	1.40114
301.136	4.88822
301.353	3.26982
301.569	2.4947
301.785	2.87335
302.001	3.23682
302.218	2.93394
302.434	3.14149
302.65	1.49367
302.866	2.19399
303.083	4.78675
303.299	4.73985
303.515	2.92687
303.731	3.03819
303.947	1.44176
304.163	2.25114
304.379	3.0113
304.595	3.32941
304.812	2.11225
305.028	2.16572
305.244	2.54723
305.46	3.43848
305.676	3.63722
305.892	4.12648
306.108	3.41273
306.324	2.43946
306.54	4.71899
306.756	3.46086
306.972	3.41799
307.187	2.81324
307.403	4.38693
307.619	2.55752
307.835	4.11521
308.051	4.46694
308.267	2.09453
308.483	4.04807
308.699	3.40766
308.914	3.10786
309.13	2.89803
309.346	1.76849
309.562	2.20843
309.778	1.96144
309.993	3.50329
310.209	3.14807
310.425	2.02473
310.641	3.02164
310.856	2.29356
311.072	2.18117
311.288	3.04161
311.503	3.24825
311.719	1.67334
311.935	1.61548
312.15	3.61774
312.366	3.27233
312.581	3.58371
312.797	3.14659
313.013	3.93875
313.228	2.56635
313.444	2.94865
313.659	2.54351
313.875	3.69572
314.09	3.11629
314.306	4.4474
314.521	3.86547
314.737	3.85454
314.952	3.061
315.168	3.27308
315.383	3.49117
315.599	2.91265
315.814	2.9763
316.029	3.86451
316.245	2.19312
316.46	1.68462
316.675	4.38744
316.891	4.87587
317.106	5.82822
317.321	3.49762
317.537	3.92287
317.752	4.05221
317.967	4.04138
318.183	2.44555
318.398	2.89919
318.613	3.9307
318.828	4.62538
319.043	3.94077
319.259	2.99213
319.474	3.40989
319.689	4.41082
319.904	1.79776
320.119	4.0887
320.334	3.48628
320.549	3.00337
320.765	4.2373
320.98	3.59601
321.195	3.78704
321.41	3.19408
321.625	4.08638
321.84	5.00051
322.055	4.91158
322.27	2.68255
322.485	2.3824
322.7	3.68183
322.915	4.01183
323.13	2.71617
323.345	4.72317
323.56	4.29943
323.775	4.14899
323.989	3.53314
324.204	3.48863
324.419	4.45409
324.634	2.31878
324.849	3.26002
325.064	6.57442
325.279	4.32418
325.493	3.82333
325.708	4.17498
325.923	2.72493
326.138	3.01488
326.352	4.8875
326.567	4.26108
326.782	3.02587
326.997	2.83857
327.211	4.05872
327.426	3.59698
327.641	3.02044
327.855	1.99107
328.07	3.87119
328.285	5.05299
328.499	3.04704
328.714	3.65442
328.928	3.94085
329.143	3.21368
329.358	4.44035
329.572	4.19807
329.787	4.68481
330.001	5.76537
330.216	2.27573
330.43	5.32359
330.645	4.76244
330.859	4.30327
331.074	2.73416
331.288	3.49172
331.503	4.83535
331.717	2.54698
331.931	3.64958
332.146	3.51795
332.36	5.09884
332.575	3.73033
332.789	3.6911
333.003	3.71481
333.218	4.06243
333.432	2.77132
333.646	4.39425
333.86	5.12263
334.075	4.95862
334.289	3.03606
334.503	2.47456
334.717	4.07948
334.932	3.86903
335.146	4.41633
335.36	3.02582
335.574	3.98829
335.788	3.83664
336.003	4.458
336.217	4.09329
336.431	3.85127
336.645	3.00392
336.859	2.4608
337.073	3.4296
337.287	3.84881
337.501	2.50589
337.715	3.92118
337.929	4.27184
338.143	2.54408
338.357	3.42062
338.571	2.95284
338.785	4.09934
338.999	3.06542
339.213	3.04547
339.427	2.19664
339.641	4.7087
339.855	3.16308
340.069	2.76612
340.283	4.3336
340.497	5.13313
340.711	3.79839
340.924	3.39977
341.138	2.5947
341.352	2.42363
341.566	3.68866
341.78	2.17369
341.993	3.16611
342.207	2.65094
342.421	3.71305
342.635	3.35974
342.848	3.10574
343.062	1.6679
343.276	2.94701
343.49	5.19529
343.703	2.8745
343.917	4.4244
344.131	4.43425
344.344	2.76565
344.558	3.07481
344.771	2.31642
344.985	4.78403
345.199	4.84146
345.412	3.74503
345.626	3.87104
345.839	2.13673
346.053	2.57116
346.266	2.64187
346.48	4.07452
346.693	3.7549
346.907	3.573
347.12	2.66816
347.334	3.73268
347.547	3.77472
347.76	3.32322
347.974	4.38842
348.187	3.58866
348.401	3.01454
348.614	2.82037
348.827	3.11257
349.041	3.77241
349.254	2.06882
349.467	2.99455
349.681	2.37555
349.894	2.69805
350.107	4.37584
350.32	5.01897
350.534	2.26383
350.747	3.09395
350.96	2.64567
351.173	2.89753
351.386	3.08686
351.6	2.95752
351.813	2.93917
352.026	3.06271
352.239	2.38973
352.452	3.00552
352.665	4.28911
352.878	3.31759
353.092	4.94789
353.305	3.99318
353.518	3.41267
353.731	2.54823
353.944	4.21664
354.157	2.89372
354.37	2.73644
354.583	2.47909
354.796	2.17585
355.009	4.17092
355.222	3.5317
355.435	3.39905
355.647	4.17164
355.86	2.68694
356.073	3.38484
356.286	2.89138
356.499	3.93995
356.712	3.68951
356.925	3.76769
357.138	3.94537
357.35	2.62024
357.563	3.06434
357.776	3.35999
357.989	3.11445
358.201	3.72131
358.414	3.55074
358.627	4.41099
358.84	3.19123
359.052	2.36678
359.265	2.76436
359.478	4.08219
359.69	1.3333
359.903	3.81309
360.116	4.05952
360.328	2.07354
360.541	3.89617
360.753	2.66884
360.966	3.06193
361.179	3.12326
361.391	2.9175
361.604	2.82918
361.816	3.06672
362.029	2.90856
362.241	2.73232
362.454	3.02169
362.666	2.65684
362.879	3.59983
363.091	3.00256
363.304	2.81644
363.516	3.19665
363.728	2.49705
363.941	3.68003
364.153	3.11618
364.366	1.79602
364.578	2.40981
364.79	3.39657
365.003	3.19792
365.215	2.75638
365.427	3.66619
365.639	3.9419
365.852	3.23958
366.064	4.8061
366.276	3.03938
366.488	3.47666
366.701	2.97118
366.913	3.04075
367.125	3.0023
367.337	2.63776
367.549	2.74386
367.762	3.29131
367.974	3.06899
368.186	2.82153
368.398	3.84326
368.61	3.65196
368.822	3.64351
369.034	3.11628
369.246	3.71025
369.458	5.37789
369.67	2.6765
369.882	4.53212
370.094	1.86985
370.306	4.31599
370.518	2.98576
370.73	2.63157
370.942	2.71537
371.154	3.11857
371.366	2.81448
371.578	3.43386
371.79	2.85069
372.002	4.01843
372.214	4.59922
372.425	3.18414
372.637	4.19716
372.849	3.39829
373.061	1.75345
373.273	3.46361
373.484	3.38306
373.696	3.82355
373.908	1.85639
374.12	3.92531
374.331	3.44281
374.543	2.65671
374.755	2.55844
374.967	3.27069
375.178	3.73521
375.39	2.94635
375.602	3.26419
375.813	2.14876
376.025	2.57585
376.236	3.24848
376.448	3.44684
376.66	2.86947
376.871	2.89351
377.083	4.0795
377.294	4.31892
377.506	2.91324
377.717	4.20628
377.929	3.36486
378.14	2.81151
378.352	3.43497
378.563	3.5373
378.775	4.2167
378.986	2.50474
379.197	3.20384
379.409	2.71182
379.62	3.69829
379.832	3.50845
380.043	3.06791
380.254	3.14486
380.466	2.38915
380.677	5.27118
380.888	4.55654
381.1	4.92966
381.311	4.94143
381.522	3.30445
381.733	5.19843
381.945	3.08717
382.156	3.23203
382.367	2.79544
382.578	5.13433
382.789	5.15181
383.001	2.81256
383.212	4.28548
383.423	4.38709
383.634	4.05671
383.845	3.70012
384.056	3.06312
384.267	3.31932
384.478	3.25806
384.69	2.54791
384.901	3.54213
385.112	3.51273
385.323	4.40751
385.534	3.62047
385.745	3.458
385.956	3.4452
386.167	2.7059
386.378	3.69335
386.588	2.71714
386.799	2.78667
387.01	2.26751
387.221	3.8195
387.432	3.28584
387.643	4.48099
387.854	3.1675
388.065	3.0353
388.275	3.25415
388.486	3.00626
388.697	3.18561
388.908	2.88624
389.119	4.06948
389.329	4.26375
389.54	3.23162
389.751	3.54785
389.962	4.17377
390.172	3.43792
390.383	3.09033
390.594	2.88427
390.804	2.89004
391.015	2.86102
391.226	3.35836
391.436	3.7019
391.647	3.61088
391.858	3.7354
392.068	2.2933
392.279	2.62447
392.489	3.41247
392.7	4.06372
392.91	2.70238
393.121	2.84104
393.331	3.60831
393.542	4.06076
393.752	3.75345
393.963	3.66714
394.173	3.52318
394.384	3.69744
394.594	3.38155
394.804	2.72215
395.015	3.47814
395.225	3.67967
395.436	2.70954
395.646	3.61901
395.856	2.99445
396.067	2.48139
396.277	3.8839
396.487	3.71974
396.697	3.68258
396.908	3.67563
397.118	3.70324
397.328	3.57443
397.538	3.98661
397.749	2.81313
397.959	3.87979
398.169	3.76915
398.379	2.50551
398.589	3.8072
398.8	3.50808
399.01	3.38386
399.22	3.16022
399.43	4.87393
399.64	3.25926
399.85	3.90225
400.06	3.39576
400.27	2.82045
400.48	3.28294
400.69	4.51607
400.9	3.15182
401.11	2.7938
401.32	3.92738
401.53	3.26716
401.74	4.52582
401.95	3.81758
402.16	2.93551
402.37	3.63121
402.58	3.14947
402.79	3.90765
403	4.15334
403.209	3.13548
403.419	4.10487
403.629	3.04098
403.839	4.03304
404.049	3.96386
404.258	3.17745
404.468	3.04464
404.678	3.72466
404.888	4.22841
405.097	3.19982
405.307	3.43398
405.517	3.86985
405.727	3.81271
405.936	3.2708
406.146	3.74613
406.356	4.37076
406.565	3.50404
406.775	3.22542
406.984	3.36197
407.194	4.6499
407.404	3.64958
407.613	3.86607
407.823	4.00491
408.032	4.34403
408.242	4.30578
408.451	3.26693
408.661	3.57943
408.87	4.80508
409.08	3.24142
409.289	3.86546
409.499	3.79168
409.708	3.83175
409.918	2.48989
410.127	3.7482
410.336	4.70097
410.546	4.13742
410.755	3.47224
410.964	3.55528
411.174	3.20944
411.383	3.97224
411.592	3.99906
411.802	3.26436
412.011	4.26572
412.22	3.61365
412.429	4.9692
412.639	4.72959
412.848	4.40042
413.057	4.66004
413.266	4.74577
413.475	3.8672
413.685	4.16385
413.894	4.47254
414.103	4.63055
414.312	4.41401
414.521	3.75036
414.73	3.87433
414.939	5.31643
415.148	4.35124
415.357	4.151
415.566	3.88605
415.776	3.81611
415.985	3.82497
416.194	4.57675
416.403	5.18132
416.611	3.31895
416.82	3.832
417.029	4.19603
417.238	3.78673
417.447	3.63764
417.656	4.03086
417.865	3.74816
418.074	4.1039
418.283	4.20735
418.492	4.79673
418.7	4.5735
418.909	5.4089
419.118	4.5932
419.327	4.86113
419.536	4.6806
419.744	4.55097
419.953	5.63062
420.162	5.80088
420.371	5.02299
420.579	5.20474
420.788	6.15944
420.997	6.17459
421.205	6.36386
421.414	6.15399
421.623	6.1737
421.831	5.84491
422.04	6.40086
422.249	5.60152
422.457	6.1062
422.666	5.45121
422.874	6.28432
423.083	6.26012
423.291	6.32346
423.5	6.02457
423.708	6.25742
423.917	6.70163
424.125	6.31414
424.334	6.14342
424.542	7.66536
424.751	7.19214
424.959	6.86671
425.167	7.03814
425.376	6.92199
425.584	6.05222
425.793	6.16032
426.001	5.39458
426.209	5.75712
426.418	4.90622
426.626	4.79401
426.834	4.68618
427.042	4.98979
427.251	4.67562
427.459	5.50292
427.667	4.97391
427.875	4.29217
428.084	4.63873
428.292	5.63015
428.5	5.35346
428.708	4.45674
428.916	4.45834
429.124	4.97515
429.333	4.67442
429.541	4.80198
429.749	4.95846
429.957	4.93482
430.165	6.49884
430.373	4.17635
430.581	5.09486
430.789	5.84518
430.997	4.75315
431.205	4.58483
431.413	5.17958
431.621	4.81202
431.829	5.4016
432.037	4.95163
432.245	5.26451
432.453	5.29718
432.661	5.01802
432.869	6.20257
433.076	4.75065
433.284	5.09597
433.492	5.57278
433.7	5.92212
433.908	5.15278
434.116	5.31539
434.323	5.46688
434.531	5.25535
434.739	5.72167
434.947	5.84117
435.154	5.75883
435.362	5.32036
435.57	5.21495
435.778	4.95899
435.985	5.52361
436.193	5.09257
436.401	6.05007
436.608	5.38907
436.816	5.09272
437.023	6.0821
437.231	6.21572
437.439	5.58074
437.646	5.73309
437.854	5.59645
438.061	5.82547
438.269	5.37185
438.476	5.85564
438.684	5.52383
438.891	5.38885
439.099	5.15547
439.306	5.00382
439.514	5.08703
439.721	5.9574
439.929	5.53253
440.136	6.41343
440.343	6.31262
440.551	6.24362
440.758	7.71375
440.965	6.63863
441.173	6.37568
441.38	6.18414
441.587	6.23621
441.795	5.96421
442.002	5.90688
442.209	5.9063
442.416	6.05058
442.624	6.08444
442.831	5.90137
443.038	5.49982
443.245	5.13463
443.452	5.53216
443.66	6.04289
443.867	5.36774
444.074	5.39847
444.281	5.37945
444.488	5.57688
444.695	5.74234
444.902	5.56982
445.109	6.34606
445.316	6.08343
445.523	6.32274
445.73	6.35862
445.937	7.16504
446.144	7.50077
446.351	7.83751
446.558	7.03338
446.765	8.43211
446.972	8.07271
447.179	7.62051
447.386	8.31682
447.593	7.09921
447.8	7.82115
448.007	6.70652
448.214	6.4417
448.42	6.02157
448.627	6.54739
448.834	6.00517
449.041	5.91864
449.248	5.84712
449.454	6.35346
449.661	6.94138
449.868	5.80725
450.075	5.72943
450.281	4.94729
450.488	5.40785
450.695	5.45574
450.901	5.52342
451.108	5.58716
451.315	6.46273
451.521	5.7505
451.728	6.42442
451.935	5.58456
452.141	5.86117
452.348	5.92874
452.554	5.91167
452.761	5.73552
452.967	6.87519
453.174	6.12281
453.38	6.18751
453.587	5.47907
453.793	6.18493
454	6.53364
454.206	7.20902
454.413	6.62884
454.619	6.37051
454.825	5.75243
455.032	6.50952
455.238	6.57633
455.445	5.50246
455.651	6.16858
455.857	5.21532
456.064	5.88421
456.27	5.88783
456.476	5.82565
456.682	5.32245
456.889	6.31853
457.095	6.31692
457.301	7.46352
457.507	6.18203
457.714	6.24523
457.92	6.19651
458.126	5.80743
458.332	6.1218
458.538	5.93194
458.744	6.12035
458.951	6.14379
459.157	7.92736
459.363	7.1511
459.569	7.30208
459.775	8.09117
459.981	7.57027
460.187	7.99615
460.393	8.34015
460.599	8.66239
460.805	7.92895
461.011	7.27495
461.217	7.46296
461.423	7.21449
461.629	6.56597
461.835	6.95234
462.041	6.49694
462.247	7.45838
462.453	6.36532
462.658	6.52888
462.864	6.89765
463.07	6.64716
463.276	6.56032
463.482	6.56576
463.688	7.14656
463.893	6.23652
464.099	6.41703
464.305	7.23392
464.511	6.22869
464.716	6.46692
464.922	6.99809
465.128	6.11424
465.333	7.50857
465.539	7.00233
465.745	6.57132
465.95	6.61409
466.156	8.14689
466.362	7.29458
466.567	6.61005
466.773	6.39245
466.978	7.52538
467.184	6.21045
467.389	5.69593
467.595	7.00288
467.8	6.37147
468.006	7.54907
468.211	7.40732
468.417	6.21669
468.622	7.01998
468.828	7.13591
469.033	7.00436
469.239	8.27475
469.444	6.58471
469.649	7.34055
469.855	6.74872
470.06	6.80602
470.266	6.26591
470.471	7.12701
470.676	6.99182
470.881	5.94915
471.087	7.67248
471.292	8.3847
471.497	6.23489
471.703	6.81545
471.908	6.68703
472.113	6.97903
472.318	7.3069
472.523	6.40515
472.729	7.09839
472.934	7.20611
473.139	6.62824
473.344	7.20769
473.549	7.70574
473.754	6.71319
473.959	8.64773
474.164	6.61409
474.369	6.99994
474.575	7.51029
474.78	7.1382
474.985	6.68263
475.19	5.9963
475.395	6.65689
475.6	7.0247
475.804	7.86314
476.009	6.99502
476.214	7.09062
476.419	6.90282
476.624	6.24871
476.829	6.5599
477.034	7.46107
477.239	6.86571
477.444	7.51852
477.648	7.45524
477.853	7.50462
478.058	7.03503
478.263	6.82423
478.468	6.66471
478.672	6.73921
478.877	8.0034
479.082	8.10645
479.287	7.54774
479.491	7.25918
479.696	6.78532
479.901	7.6321
480.105	7.71639
480.31	6.96131
480.515	7.28753
480.719	8.47599
480.924	7.03964
481.128	6.81249
481.333	7.45989
481.538	7.46323
481.742	7.57936
481.947	8.41939
482.151	9.15401
482.356	9.65714
482.56	11.21918
482.765	12.52228
482.969	14.84801
483.174	16.89528
483.378	19.71296
483.582	20.57308
483.787	22.42974
483.991	23.063
484.196	23.76815
484.4	23.6183
484.604	24.35541
484.809	22.14951
485.013	21.08315
485.217	19.2878
485.422	17.37746
485.626	15.72516
485.83	14.57055
486.034	13.76589
486.239	13.98227
486.443	14.05423
486.647	14.23003
486.851	15.2024
487.055	16.41983
487.26	16.34354
487.464	17.21718
487.668	17.06151
487.872	17.58693
488.076	17.94213
488.28	17.27409
488.484	16.39818
488.688	16.09062
488.892	15.36991
489.096	14.41566
489.3	13.26613
489.504	12.31579
489.708	11.74224
489.912	11.30482
490.116	10.95436
490.32	10.3203
490.524	11.1678
490.728	11.88775
490.932	12.46859
491.136	13.15811
491.34	14.49925
491.544	14.84044
491.748	14.84058
491.951	15.09041
492.155	14.79053
492.359	14.56426
492.563	13.45244
492.767	12.73788
492.97	11.58513
493.174	10.46517
493.378	9.53845
493.582	8.28364
493.785	8.05558
493.989	8.09079
494.193	7.96237
494.396	7.79045
494.6	8.26688
494.804	7.79922
495.007	7.49152
495.211	7.63208
495.414	7.67756
495.618	7.94514
495.822	8.42102
496.025	7.84105
496.229	8.15487
496.432	7.5503
496.636	7.91557
496.839	7.81488
497.043	8.66435
497.246	8.21581
497.45	7.7986
497.653	7.9858
497.856	8.17755
498.06	7.67369
498.263	7.93803
498.467	7.89035
498.67	8.4284
498.873	8.18197
499.077	7.83247
499.28	7.92784
499.483	8.05064
499.686	8.36049
499.89	8.10778
500.093	8.49026
500.296	7.62339
500.499	8.73814
500.703	7.96958
500.906	8.20381
501.109	8.80386
501.312	7.96058
501.515	7.91722
501.719	8.11145
501.922	8.64596
502.125	8.02067
502.328	7.87731
502.531	7.50588
502.734	7.85299
502.937	7.09341
503.14	7.99952
503.343	7.5749
503.546	7.80008
503.749	7.68837
503.952	8.3732
504.155	7.65959
504.358	8.19395
504.561	8.03864
504.764	7.4313
504.967	8.08902
505.17	7.9958
505.373	8.85605
505.576	8.09161
505.778	8.37918
505.981	7.5625
506.184	8.66249
506.387	7.22666
506.59	9.13805
506.793	8.5399
506.995	8.38592
507.198	7.21692
507.401	8.32841
507.604	8.24447
507.806	7.65358
508.009	7.77422
508.212	8.52756
508.414	7.80663
508.617	7.91607
508.82	8.11535
509.022	8.92021
509.225	8.37135
509.427	7.62105
509.63	8.87342
509.833	8.26821
510.035	8.0106
510.238	7.58996
510.44	8.86411
510.643	7.32278
510.845	9.27017
511.048	8.40871
511.25	7.96104
511.453	8.2532
511.655	8.48185
511.858	8.12033
512.06	8.62254
512.262	8.43176
512.465	8.68083
512.667	8.05422
512.869	7.83317
513.072	8.50327
513.274	8.6073
513.476	8.54714
513.679	8.79411
513.881	7.85247
514.083	9.14049
514.286	7.9019
514.488	7.90459
514.69	7.80501
514.892	7.5913
515.094	8.56529
515.297	7.87418
515.499	8.35235
515.701	7.81678
515.903	9.12537
516.105	9.09852
516.307	8.66024
516.509	7.36028
516.711	7.71084
516.913	8.28393
517.116	8.32984
517.318	8.05635
517.52	8.83483
517.722	8.6603
517.924	7.85624
518.126	8.63306
518.328	8.28721
518.529	9.00876
518.731	9.84565
518.933	8.47402
519.135	8.77498
519.337	9.47783
519.539	8.90945
519.741	7.79929
519.943	8.4418
520.145	8.41257
520.346	8.8533
520.548	8.29277
520.75	8.61506
520.952	8.3321
521.153	8.6541
521.355	8.719
521.557	8.07024
521.759	8.53972
521.96	8.4198
522.162	7.89836
522.364	9.02015
522.565	8.17682
522.767	8.78144
522.969	8.94929
523.17	8.7033
523.372	8.70676
523.573	8.18588
523.775	8.34462
523.977	8.07781
524.178	9.45875
524.38	8.18715
524.581	8.87873
524.783	8.43167
524.984	8.89491
525.186	8.68656
525.387	9.26464
525.589	9.24832
525.79	9.34738
525.991	9.38675
526.193	10.00582
526.394	9.45615
526.596	10.28127
526.797	10.53488
526.998	10.23184
527.2	10.48145
527.401	12.24372
527.602	13.20915
527.803	15.25054
528.005	16.45534
528.206	17.85888
528.407	18.95735
528.608	19.28185
528.81	19.84872
529.011	19.65886
529.212	20.55359
529.413	19.41052
529.614	18.45218
529.815	17.4746
530.017	16.13415
530.218	14.29451
530.419	12.69644
530.62	12.15155
530.821	11.41886
531.022	10.10704
531.223	10.66077
531.424	10.38604
531.625	10.28941
531.826	10.03176
532.027	10.41669
532.228	11.52765
532.429	11.61513
532.63	12.05362
532.831	13.00911
533.032	13.33735
533.233	14.1083
533.433	13.81453
533.634	14.2474
533.835	13.5312
534.036	13.12493
534.237	12.70648
534.438	11.86816
534.638	10.63274
534.839	10.22842
535.04	9.92793
535.241	9.24738
535.441	9.94732
535.642	9.56949
535.843	8.97387
536.043	9.17824
536.244	9.44847
536.445	9.73824
536.645	10.48381
536.846	10.269
537.047	10.63725
537.247	9.58191
537.448	9.47049
537.648	9.28084
537.849	8.98222
538.049	8.95909
538.25	9.24567
538.451	9.12846
538.651	8.59477
538.851	9.3108
539.052	9.51097
539.252	9.33768
539.453	8.88536
539.653	8.94625
539.854	8.85835
540.054	8.90524
540.254	10.47722
540.455	11.5291
540.655	11.73872
540.855	13.31994
541.056	14.42643
541.256	14.59136
541.456	15.547
541.657	15.38545
541.857	16.1491
542.057	14.92084
542.257	14.5175
542.458	14.70093
542.658	14.30749
542.858	12.42739
543.058	12.27762
543.258	11.74149
543.458	10.29887
543.659	9.87899
543.859	10.20859
544.059	9.88104
544.259	9.35975
544.459	9.88514
544.659	9.15992
544.859	9.476
545.059	9.11934
545.259	9.62982
545.459	9.40874
545.659	9.69591
545.859	9.22704
546.059	9.41297
546.259	8.84483
546.459	8.57703
546.659	8.88341
546.859	9.61499
547.059	9.37556
547.258	9.52697
547.458	9.52692
547.658	8.82849
547.858	8.75761
548.058	9.36833
548.258	8.9632
548.457	8.71393
548.657	10.45721
548.857	8.95162
549.057	9.59001
549.256	9.32483
549.456	8.594
549.656	7.96217
549.855	10.17038
550.055	8.71552
550.255	10.0368
550.454	9.30814
550.654	9.53277
550.853	9.87352
551.053	9.4654
551.253	9.0677
551.452	9.43365
551.652	8.19847
551.851	8.06632
552.051	8.73703
552.25	8.61226
552.45	8.58861
552.649	8.76423
552.849	8.61753
553.048	9.02491
553.248	9.50637
553.447	8.36934
553.646	9.55073
553.846	10.59292
554.045	9.78834
554.244	8.38385
554.444	9.89508
554.643	8.46339
554.842	9.94286
555.042	10.12381
555.241	8.59168
555.44	8.18619
555.64	9.35983
555.839	9.93429
556.038	9.3181
556.237	8.55288
556.436	9.11539
556.636	9.14096
556.835	8.38577
557.034	9.94612
557.233	8.86422
557.432	8.00912
557.631	9.61645
557.83	8.80752
558.029	8.52544
558.228	8.54346
558.427	8.44396
558.626	9.29402
558.825	8.19709
559.024	8.77675
559.223	10.14938
559.422	8.83627
559.621	9.12223
559.82	7.41586
560.019	8.85064
560.218	8.53103
560.417	7.18328
560.616	8.56446
560.815	11.02522
561.014	7.86598
561.212	10.02938
561.411	9.13421
561.61	8.01073
561.809	8.77729
562.008	10.06389
562.206	8.63513
562.405	9.26413
562.604	8.8087
562.803	9.062
563.001	8.88436
563.2	8.00259
563.399	9.24342
563.597	8.16256
563.796	8.87229
563.995	8.13508
564.193	9.43946
564.392	8.83795
564.59	10.34419
564.789	7.76185
564.988	8.72624
565.186	9.13731
565.385	8.92465
565.583	8.70108
565.782	8.96645
565.98	8.76362
566.179	8.91263
566.377	8.41864
566.575	8.5047
566.774	10.06028
566.972	9.63228
567.171	10.49806
567.369	10.03027
567.567	9.21223
567.766	9.23713
567.964	7.79675
568.162	9.45223
568.361	9.92321
568.559	8.85529
568.757	9.31288
568.956	8.99251
569.154	9.10878
569.352	9.49258
569.55	8.90671
569.748	9.07524
569.947	8.52234
570.145	8.35333
570.343	8.47196
570.541	10.05836
570.739	8.15734
570.937	9.05146
571.135	9.34606
571.333	10.59332
571.532	10.48806
571.73	9.23478
571.928	9.92953
572.126	9.54699
572.324	8.89126
572.522	9.94207
572.72	10.96517
572.918	9.21865
573.116	9.50277
573.313	9.01518
573.511	9.17445
573.709	8.78621
573.907	9.81035
574.105	8.85791
574.303	8.05012
574.501	8.07844
574.699	9.53906
574.896	9.3599
575.094	9.66477
575.292	8.22238
575.49	9.75832
575.688	9.07154
575.885	10.09562
576.083	10.70154
576.281	9.61772
576.478	8.61446
576.676	9.57389
576.874	8.11405
577.071	9.16587
577.269	10.62606
577.467	9.05459
577.664	9.00053
577.862	9.69387
578.059	8.36366
578.257	9.56692
578.455	8.90269
578.652	9.10324
578.85	7.77526
579.047	9.24427
579.245	8.69766
579.442	8.98016
579.64	8.75544
579.837	7.70298
580.034	11.10484
580.232	8.88022
580.429	8.05551
580.627	9.46769
580.824	10.01721
581.021	9.45059
581.219	8.57604
581.416	8.42547
581.613	10.20152
581.811	10.00106
582.008	8.42611
582.205	9.7748
582.402	9.39304
582.6	10.97991
582.797	9.10309
582.994	9.48751
583.191	9.72401
583.388	8.89976
583.586	9.68231
583.783	10.17105
583.98	8.30289
584.177	9.18264
584.374	7.01688
584.571	8.8745
584.768	8.96824
584.965	8.78972
585.162	9.60775
585.359	10.3346
585.556	9.01712
585.753	9.39653
585.95	8.02715
586.147	8.40183
586.344	9.59765
586.541	8.84259
586.738	8.09366
586.935	8.80767
587.132	8.52846
587.329	9.9868
587.526	9.10667
587.722	13.2676
587.919	8.01596
588.116	9.48667
588.313	10.32868
588.51	11.00616
588.706	8.93717
588.903	9.48591
589.1	10.04193
589.297	11.48116
589.493	8.98591
589.69	9.66017
589.887	8.68861
590.083	8.19032
590.28	8.63654
590.477	9.98405
590.673	9.66864
590.87	10.19168
591.067	8.63892
591.263	9.52703
591.46	9.49505
591.656	8.88392
591.853	10.43283
592.049	8.50156
592.246	8.57337
592.442	9.95556
592.639	10.2756
592.835	8.44663
593.032	9.43082
593.228	7.80444
593.425	7.99525
593.621	7.94854
593.817	9.29656
594.014	8.48593
594.21	9.2911
594.406	10.09711
594.603	9.38354
594.799	8.63944
594.995	7.46524
595.192	10.12094
595.388	8.95481
595.584	8.68436
595.78	8.03875
595.977	11.51785
596.173	10.47716
596.369	9.03046
596.565	8.49597
596.761	8.18462
596.957	10.25407
597.154	8.69143
597.35	8.93955
597.546	8.71932
597.742	9.76883
597.938	9.5322
598.134	8.65321
598.33	9.53408
598.526	10.31978
598.722	9.42084
598.918	10.71712
599.114	9.64951
599.31	8.04719
599.506	8.93274
599.702	8.4352
599.898	9.4169
600.094	9.89477
600.29	9.92295
600.485	9.87144
600.681	8.54736
600.877	10.77659
601.073	9.27637
601.269	11.07749
601.465	10.4531
601.66	8.44839
601.856	7.55396
602.052	11.0113
602.248	8.91942
602.443	7.5255
602.639	8.26122
602.835	8.54036
603.03	8.27067
603.226	9.98723
603.422	8.49903
603.617	9.01725
603.813	9.16636
604.009	8.88675
604.204	10.37624
604.4	8.31066
604.595	10.26736
604.791	8.59857
604.986	9.66549
605.182	8.76473
605.377	9.17608
605.573	9.13754
605.768	9.40244
605.964	9.82718
606.159	9.95909
606.355	10.20741
606.55	8.88397
606.746	10.27711
606.941	9.18987
607.136	11.04903
607.332	11.8262
607.527	8.14972
607.722	9.67643
607.918	9.05583
608.113	8.50915
608.308	10.04447
608.503	9.8251
608.699	9.70501
608.894	9.88366
609.089	8.71567
609.284	9.80889
609.479	9.04658
609.675	10.1252
609.87	9.33561
610.065	10.18231
610.26	10.35345
610.455	10.36404
610.65	9.69688
610.845	10.06725
611.04	10.49575
611.235	9.55277
611.43	9.57287
611.625	8.75671
611.82	11.1067
612.015	9.19781
612.21	11.41491
612.405	8.26998
612.6	11.32085
612.795	11.24323
612.99	10.41567
613.185	8.54354
613.38	8.83983
613.575	9.81044
613.77	12.71373
613.965	8.28177
614.159	8.80046
614.354	11.06621
614.549	10.81578
614.744	10.02015
614.938	8.39985
615.133	8.16738
615.328	11.17873
615.523	10.68696
615.717	12.74956
615.912	9.10174
616.107	9.76728
616.301	9.26079
616.496	8.92343
616.691	11.36251
616.885	10.28533
617.08	12.74958
617.274	10.56325
617.469	11.84788
617.664	10.41291
617.858	9.26937
618.053	10.12316
618.247	9.46759
618.442	7.27486
618.636	11.13351
618.831	8.9619
619.025	8.7852
619.219	12.95454
619.414	6.24191
619.608	9.39885
619.803	8.95853
619.997	12.09143
620.191	10.93768
620.386	10.06762
620.58	9.74029
620.774	7.70582
620.969	8.00875
621.163	9.92991
621.357	8.37548
621.551	9.37787
621.746	9.81588
621.94	9.3677
622.134	13.45641
622.328	12.21511
622.522	7.95688
622.716	10.86222
622.911	10.82388
623.105	10.6753
623.299	10.07488
623.493	13.27076
623.687	8.96696
623.881	8.99963
624.075	10.49726
624.269	11.13597
624.463	7.37255
624.657	7.77233
624.851	10.11366
625.045	10.47124
625.239	10.71908
625.433	9.07488
625.627	11.65297
625.821	8.99244
626.015	8.76254
626.209	9.95773
626.403	7.90075
626.596	10.26904
626.79	10.69129
626.984	8.32601
627.178	10.48778
627.372	10.21476
627.565	10.50774
627.759	8.27595
627.953	8.60448
628.147	10.17862
628.34	10.76921
628.534	12.35578
628.728	9.48351
628.921	10.80009
629.115	10.60549
629.309	11.04917
629.502	11.22011
629.696	10.02699
629.89	9.77605
630.083	10.21531
630.277	10.16264
630.47	12.06048
630.664	9.42465
630.857	8.07827
631.051	11.45894
631.244	11.31589
631.438	11.14618
631.631	9.12962
631.825	11.85292
632.018	10.55286
632.212	12.4429
632.405	11.41896
632.598	8.91957
632.792	9.98897
632.985	7.10419
633.178	9.60741
633.372	10.07254
633.565	9.52597
633.758	11.42254
633.952	8.75857
634.145	8.83297
634.338	9.80801
634.531	9.37372
634.724	9.04365
634.918	10.10298
635.111	9.61675
635.304	9.70536
635.497	13.14006
635.69	10.43009
635.883	11.42566
636.077	8.54984
636.27	10.61536
636.463	10.42181
636.656	10.57167
636.849	9.59611
637.042	10.90269
637.235	12.70806
637.428	11.23103
637.621	10.77828
637.814	12.09329
638.007	12.13217
638.2	12.34658
638.393	12.64926
638.586	8.31248
638.778	9.69128
638.971	10.09716
639.164	12.31624
639.357	10.89649
639.55	12.48757
639.743	11.32782
639.935	11.14647
640.128	13.4691
640.321	11.84089
640.514	10.69712
640.707	14.10533
640.899	11.45555
641.092	8.20353
641.285	25.97759
641.477	7.51765
641.67	14.29088
641.863	12.34266
642.055	11.0549
642.248	10.79091
642.441	9.99578
642.633	11.47333
642.826	12.0419
643.018	12.47865
643.211	13.46711
643.403	13.67608
643.596	14.30297
643.788	14.01178
643.981	9.83916
644.173	12.20928
644.366	10.07342
644.558	7.94845
644.751	12.50386
644.943	8.9921
645.135	13.40635
645.328	13.41753
645.52	11.84381
645.712	12.73179
645.905	15.9528
646.097	9.05366
646.289	11.57683
646.482	14.50093
646.674	9.7134
646.866	12.70078
647.058	12.00061
647.251	9.30438
647.443	9.92193
647.635	10.40861
647.827	9.2574
648.019	9.27074
648.211	10.67545
648.404	11.10056
648.596	13.91235
648.788	11.51487
648.98	11.26931
649.172	12.11021
649.364	11.93612
649.556	8.60293
649.748	15.45587
649.94	9.8201
650.132	12.44038
650.324	9.94818
650.516	9.88744
650.708	12.91339
650.9	8.97019
651.092	8.65584
651.284	8.8952
651.476	9.29096
651.667	12.24102
651.859	13.62186
652.051	10.80927
652.243	11.51074
652.435	10.55178
652.627	12.2772
652.818	12.06855
653.01	8.78647
653.202	10.05768
653.394	10.48737
653.585	11.96737
653.777	19.00148
653.969	13.81207
654.16	13.39435
654.352	9.83317
654.544	11.07549
654.735	13.39556
654.927	11.64283
655.118	14.26441
655.31	12.85836
655.502	13.50118
655.693	11.03863
655.885	12.38518
656.076	14.17532
656.268	12.10282
656.459	14.17829
656.651	13.85255
656.842	10.75913
657.034	10.31382
657.225	13.2863
657.416	14.31935
657.608	14.036
657.799	11.69348
657.99	13.75957
658.182	10.29311
658.373	10.3888
658.564	13.58514
658.756	12.17481
658.947	11.30498
659.138	10.10121
659.33	10.72634
659.521	10.55004
659.712	11.47812
659.903	11.28682
660.094	10.54891
660.286	9.16451
660.477	14.7844
660.668	12.83251
660.859	11.38546
661.05	9.43457
661.241	12.43061
661.432	12.32733
661.623	11.2404
661.814	10.9258
662.006	9.11613
662.197	12.45975
662.388	13.85093
662.579	12.45263
662.77	14.4867
662.96	16.75133
663.151	13.75908
663.342	8.73959
663.533	13.10083
663.724	11.76533
663.915	15.95878
664.106	11.96234
664.297	15.68461
664.488	13.44334
664.678	11.06625
664.869	13.87719
665.06	13.52978
665.251	12.49062
665.442	13.73462
665.632	10.34157
665.823	16.33611
666.014	7.15821
666.204	13.70593
666.395	15.00099
666.586	17.61253
666.776	14.03661
666.967	16.40038
667.158	12.35202
667.348	15.58397
667.539	10.78902
667.729	14.60889
667.92	11.02026
668.111	14.54428
668.301	14.17859
668.492	11.83168
668.682	12.73576
668.873	12.14998
669.063	10.06082
669.253	12.9741
669.444	15.54668
669.634	12.38729
669.825	16.11898
670.015	15.08954
670.206	11.27779
670.396	16.93254
670.586	12.21443
670.777	13.80069
670.967	8.87437
671.157	12.34654
671.347	11.63058
671.538	15.96843
671.728	14.40757
671.918	17.08721
672.108	14.61534
672.299	12.58133
672.489	13.47191
672.679	11.60448
672.869	14.04497
673.059	18.07428
673.249	14.38821
673.44	10.9627
673.63	12.30296
673.82	15.1781
674.01	10.88907
674.2	14.11243
674.39	19.12955
674.58	14.37149
674.77	13.77145
674.96	12.73746
675.15	22.09772
675.34	15.45357
675.53	13.67872
675.72	12.35851
675.91	10.20459
676.099	17.79733
676.289	18.97828
676.479	16.07227
676.669	11.99761
676.859	14.46442
677.049	11.88857
677.238	13.74717
677.428	17.41154
677.618	14.48482
677.808	18.0655
677.997	14.53018
678.187	11.70474
678.377	13.50273
678.567	12.207
678.756	12.75047
678.946	13.26278
679.136	10.60862
679.325	12.19897
679.515	11.67018
679.704	10.85801
679.894	15.47647
680.084	14.24239
680.273	16.30123
680.463	11.54912
680.652	11.61589
680.842	13.40586
681.031	15.28866
681.221	11.99435
681.41	14.7206
681.6	13.13745
681.789	15.22991
681.978	16.59645
682.168	14.49149
682.357	13.93031
682.547	15.0649
682.736	14.16484
682.925	16.73569
683.115	16.63495
683.304	15.93813
683.493	14.28429
683.682	15.15579
683.872	15.21855
684.061	16.9361
684.25	15.32757
684.439	19.978
684.629	16.21582
684.818	22.8115
685.007	14.77055
685.196	13.86544
685.385	19.19268
685.574	15.87235
685.763	15.24666
685.952	15.19094
686.142	11.51693
686.331	18.10639
686.52	11.04169
686.709	20.11383
686.898	19.69985
687.087	16.90337
687.276	19.47311
687.465	18.15619
687.654	14.26273
687.842	18.91317
688.031	12.43923
688.22	18.90457
688.409	15.57751
688.598	15.58198
688.787	21.47175
688.976	15.3368
689.165	20.50189
689.353	14.657
689.542	16.76424
689.731	18.37761
689.92	21.19271
690.108	17.65743
690.297	14.51211
690.486	16.25325
690.675	17.40827
690.863	20.40062
691.052	19.91312
691.241	16.08028
691.429	16.5585
691.618	19.15531
691.806	12.15541
691.995	15.08739
692.184	15.90963
692.372	15.18471
692.561	16.03955
692.749	16.96931
692.938	25.48723
693.126	17.31825
693.315	15.61801
693.503	18.17569
693.692	19.15982
693.88	18.91678
694.068	22.45806
694.257	16.73737
694.445	18.35384
694.634	11.279
694.822	18.88657
695.01	19.89293
695.199	23.09489
695.387	21.01298
695.575	19.81445
695.763	15.90381
695.952	15.92932
696.14	11.91605
696.328	15.15754
696.516	16.9075
696.705	17.5301
696.893	16.62306
697.081	11.96343
697.269	18.84213
697.457	13.51724
697.645	13.30264
697.833	18.4428
698.021	13.8127
698.21	14.75265
698.398	15.2689
698.586	12.93256
698.774	12.50248
698.962	15.53536
699.15	13.04159
699.338	11.77432
699.526	16.98174
699.714	13.82307
699.901	14.02365
700.089	17.672
700.277	13.60226
700.465	15.05877
700.653	17.92636
700.841	16.6488
701.029	13.98204
701.217	20.4205
701.404	16.35183
701.592	20.60468
701.78	23.63261
701.968	15.56219
702.155	15.47405
702.343	13.76057
702.531	21.15823
702.718	18.32281
702.906	15.5094
703.094	15.19905
703.281	21.11599
703.469	16.38912
703.657	20.68772
703.844	28.01773
704.032	23.40685
704.219	16.281
704.407	19.48311
704.595	22.8636
704.782	19.354
704.97	17.64845
705.157	17.17124
705.345	24.88102
705.532	30.74955
705.719	21.60025
705.907	25.43438
706.094	21.68667
706.282	27.22272
706.469	21.33099
706.656	22.40104
706.844	21.20367
707.031	26.13984
707.218	24.35919
707.406	28.54282
707.593	25.6344
707.78	25.62147
707.968	23.68903
708.155	20.88911
708.342	26.08905
708.529	25.79285
708.716	25.288
708.904	29.90316
709.091	25.53607
709.278	20.16359
709.465	30.8306
709.652	28.92729
709.839	27.96113
710.026	23.60748
710.213	17.57856
710.4	23.69469
710.587	25.04992
710.774	26.46914
710.961	26.71494
711.148	22.95195
711.335	26.66944
711.522	22.82813
711.709	25.39254
711.896	30.77062
712.083	26.63226
712.27	20.35892
712.457	24.0766
712.644	18.26356
712.831	31.20091
713.017	24.37413
713.204	26.15231
713.391	20.8
713.578	26.44516
713.765	27.99749
713.951	23.88939
714.138	33.99662
714.325	23.25278
714.512	21.79557
714.698	18.45359
714.885	26.40776
715.072	21.67716
715.258	21.17201
715.445	18.89674
715.631	25.20309
715.818	11.79805
716.005	18.41893
716.191	23.03685
716.378	19.00759
716.564	23.21801
716.751	17.38205
716.937	19.01617
717.124	23.84874
717.31	17.50655
717.497	28.44571
717.683	17.98904
717.869	28.96077
718.056	18.84594
718.242	22.39462
718.429	19.69008
718.615	16.37403
718.801	20.68276
718.988	25.53253
719.174	23.06723
719.36	19.22597
719.547	26.43178
719.733	22.06198
719.919	21.9676
720.105	22.91616
720.291	20.67473
720.478	22.48236
720.664	20.74655
720.85	19.02298
721.036	33.45731
721.222	28.11837
721.408	21.29551
721.595	29.52027
721.781	28.4738
721.967	26.79728
722.153	28.32654
722.339	24.51256
722.525	23.57813
722.711	17.91903
722.897	16.61283
723.083	20.92198
723.269	26.51471
723.455	34.2603
723.641	39.87037
723.827	22.84715
724.012	24.26341
724.198	22.21409
724.384	28.3224
724.57	24.25008
724.756	16.07951
724.942	14.35862
725.127	27.05594
725.313	28.11321
725.499	27.83031
725.685	32.13709
725.87	23.84372
726.056	18.88045
726.242	28.07757
726.428	15.66345
726.613	26.89885
726.799	20.60292
726.985	17.82339
727.17	15.51439
727.356	32.18055
727.541	18.76944
727.727	21.6739
727.913	26.30923
728.098	20.70915
728.284	25.54797
728.469	17.36298
728.655	19.65623
728.84	28.0529
729.026	26.35685
729.211	26.10348
729.397	24.43932
729.582	26.2894
729.767	22.33584
729.953	24.30181
730.138	29.21723
730.323	13.00193
730.509	17.66032
730.694	30.8522
730.879	25.70504
731.065	24.49312
731.25	34.05359
731.435	26.00885
731.621	16.27226
731.806	20.45333
731.991	23.94359
732.176	16.71654
732.361	30.45979
732.547	24.06096
732.732	15.96762
732.917	33.86725
733.102	18.07994
733.287	19.86288
733.472	22.64559
733.657	22.47125
733.842	16.55856
734.027	20.4453
734.212	22.20065
734.397	19.71305
734.582	23.53923
734.767	26.98665
734.952	30.34303
735.137	12.05408
735.322	29.53717
735.507	25.56414
735.692	23.92729
735.877	33.21595
736.062	32.95095
736.247	24.57176
736.431	23.80607
736.616	28.98693
736.801	25.60495
736.986	23.70023
737.171	19.06214
737.355	17.60774
737.54	30.31462
737.725	24.4016
737.909	38.51286
738.094	21.11323
738.279	27.83338
738.463	22.51569
738.648	26.68045
738.833	25.74738
739.017	35.60311
739.202	22.36518
739.386	22.95948
739.571	19.30317
739.756	28.55447
739.94	23.87764
740.125	27.04281
740.309	20.83056
740.494	28.20593
740.678	25.46528
740.863	26.32066
741.047	24.66627
741.231	31.98595
741.416	21.32413
741.6	32.92111
741.785	20.35256
741.969	30.24943
742.153	32.46753
742.338	14.36892
742.522	24.58878
742.706	29.4728
742.89	18.3178
743.075	25.02838
743.259	31.18887
743.443	31.50981
743.627	32.08272
743.812	38.21343
743.996	16.75019
744.18	23.25034
744.364	22.2223
744.548	38.39472
744.732	23.52996
744.916	30.52493
745.1	28.86048
745.285	23.71685
745.469	28.82903
745.653	34.52202
745.837	18.7661
746.021	39.38244
746.205	31.72207
746.389	25.49781
746.573	23.8777
746.757	33.98773
746.94	22.40202
747.124	32.49016
747.308	18.86925
747.492	32.60185
747.676	20.19818
747.86	40.66584
748.044	22.9815
748.227	16.80524
748.411	50.32401
748.595	27.19209
748.779	21.17283
748.963	28.998
749.146	26.76755
749.33	21.27372
749.514	20.78749
749.697	32.91481
749.881	21.45939
750.065	19.50834
750.248	26.03997
750.432	40.41116
750.616	26.1063
750.799	20.437
750.983	41.04701
751.166	40.77031
751.35	17.14847
751.533	33.16107
751.717	36.9079
751.9	36.53962
752.084	24.2696
752.267	21.17448
752.451	21.16451
752.634	26.73216
752.818	29.72113
753.001	31.43693
753.184	33.85513
753.368	28.62167
753.551	7.84475
753.734	22.61899
753.918	41.88353
754.101	22.10115
754.284	30.40278
754.467	23.81864
754.651	23.00744
754.834	21.29709
755.017	33.35066
755.2	33.89267
755.384	20.52999
755.567	30.55266
755.75	32.01929
755.933	23.80008
756.116	31.88253
756.299	23.66832
756.482	20.9112
756.665	30.39096
756.848	26.49302
757.032	28.79694
757.215	18.09127
757.398	21.15981
757.581	22.28048
757.764	45.87764
757.947	25.9322
758.129	32.43235
758.312	11.11443
758.495	25.34102
758.678	25.21235
758.861	23.95797
759.044	38.83174
759.227	20.5848
759.41	21.43496
759.592	29.70606
759.775	24.99383
759.958	32.99145
760.141	18.63569
760.324	42.14924
760.506	37.14459
760.689	31.8394
760.872	42.31205
761.054	29.20216
761.237	25.29117
761.42	28.52235
761.602	31.36439
761.785	28.20191
761.968	34.10936
762.15	39.13938
762.333	26.4656
762.515	30.49743
762.698	24.69472
762.88	32.98045
763.063	29.88568
763.245	34.61911
763.428	21.20661
763.61	23.77732
763.793	20.01309
763.975	28.63465
764.158	24.56874
764.34	22.20952
764.522	20.85317
764.705	24.65585
764.887	36.32767
765.069	17.13593
765.252	29.89964
765.434	30.93304
765.616	27.22482
765.799	21.76771
765.981	31.36616
766.163	21.74559
766.345	35.80254
766.528	22.80201
766.71	13.55707
766.892	28.45395
767.074	36.97106
767.256	24.16147
767.438	40.29961
767.62	28.85584
767.802	43.99224
767.985	32.25975
768.167	40.03858
768.349	23.38969
768.531	30.98565
768.713	32.24175
768.895	35.53022
769.077	29.94386
769.259	47.08362
769.441	65.74997
769.623	34.1041
769.804	39.59681
769.986	37.65728
770.168	45.01145
770.35	55.45245
770.532	43.18709
770.714	46.07898
770.896	44.66095
771.077	21.58754
771.259	49.3483
771.441	42.07157
771.623	51.52337
771.804	61.27029
771.986	21.56436
772.168	31.63322
772.35	47.40927
772.531	62.66871
772.713	41.92228
772.894	53.69189
773.076	38.74473
773.258	33.98888
773.439	54.45273
773.621	60.69725
773.802	29.17369
773.984	32.94611
774.166	44.05498
774.347	56.90574
774.529	50.40668
774.71	18.70779
774.891	37.61425
775.073	34.17828
775.254	53.28649
775.436	33.34631
775.617	67.45706
775.799	33.95812
775.98	54.05797
776.161	59.64181
776.343	62.98996
776.524	39.66771
776.705	36.8779
776.886	21.1425
777.068	45.5036
777.249	90.57806
777.43	63.22439
777.611	26.55132
777.793	36.32226
777.974	62.14768
778.155	34.86488
778.336	27.58473
778.517	70.70885
778.698	29.70671
778.879	19.92407
779.061	10.99861
779.242	44.65782
779.423	44.636
779.604	31.86197
779.785	36.79925
779.966	41.93881
780.147	54.02688
780.328	52.94101
780.509	73.42394
780.69	52.35407
780.871	34.4586
781.051	24.84629
781.232	42.78446
781.413	41.76635
781.594	36.18744
781.775	35.12078
781.956	32.68779
782.137	19.42974
782.317	34.51372
782.498	42.97089
782.679	39.38669
782.86	43.64752
783.04	33.40499
783.221	43.5056
783.402	65.76734
783.583	41.35516
783.763	50.37045
783.944	33.95295
784.124	24.1134
784.305	64.0195
784.486	48.65481
784.666	39.95567
784.847	22.48192
785.027	84.57837
785.208	33.8927
785.388	28.69333
785.569	32.69102
785.749	38.06209
785.93	35.33365
786.11	24.58832
786.291	47.47022
786.471	44.19026
786.652	52.65184
786.832	39.55242
787.012	43.15035
787.193	27.05254
787.373	40.56907
787.553	34.41075
787.734	43.52348
787.914	34.99635
788.094	52.88004
788.275	44.22725
788.455	36.10159
788.635	26.9566
788.815	41.53814
788.995	28.86066
789.176	24.16796
789.356	31.95384
789.536	37.79851
789.716	46.34574
789.896	32.56491
790.076	32.48095
790.256	44.54488
790.436	16.85004
790.616	28.08649
790.796	45.02094
790.976	35.42632
791.156	31.84227
791.336	46.97753
791.516	43.02698
791.696	37.5302
791.876	25.02521
792.056	42.31669
792.236	51.61413
792.416	50.14841
792.596	44.47116
792.776	44.74556
792.956	50.4218
793.135	63.64369
793.315	27.04524
793.495	54.11059
793.675	49.43675
793.854	50.10667
794.034	51.61317
794.214	26.83522
794.394	50.25315
794.573	56.01853
794.753	42.43344
794.933	30.27838
795.112	41.97774
795.292	54.52117
795.472	62.69059
795.651	26.54259
795.831	40.11018
796.01	37.25997
796.19	36.8584
796.369	40.08673
796.549	46.23896
796.728	37.52161
796.908	24.85282
797.087	27.76133
797.267	37.44389
797.446	27.09101
797.626	46.00441
797.805	45.56906
797.984	31.60207
798.164	49.68302
798.343	30.74337
798.522	41.50404
798.702	42.41642
798.881	26.39651
799.06	37.33677
799.239	19.17065
799.419	29.39554
799.598	62.24609
799.777	45.12937
799.956	54.93936
800.136	35.72893
800.315	30.58432
800.494	45.05643
800.673	53.64766
800.852	49.54636
801.031	54.24858
801.21	46.48548
801.389	34.74929
801.568	42.39338
801.747	64.56958
801.926	41.39539
802.105	58.94952
802.284	35.58615
802.463	61.15661
802.642	44.37801
802.821	43.85469
803	60.81997
803.179	52.36051
803.358	53.46911
803.537	32.86566
803.716	40.3644
803.895	32.07514
804.073	38.0126
804.252	32.57207
804.431	45.38744
804.61	37.9046
804.789	51.80476
804.967	34.64909
805.146	34.99231
805.325	70.85182
805.503	46.17246
805.682	26.68169
805.861	85.43484
806.039	58.80621
806.218	34.31514
806.397	44.36207
806.575	38.95076
806.754	44.42648
806.932	28.35744
807.111	54.54414
807.289	51.0454
807.468	42.11134
807.646	53.48726
807.825	47.70631
808.003	45.11093
808.182	53.88992
808.36	40.71438
808.539	31.0087
808.717	61.66121
808.895	31.73166
809.074	44.09184
809.252	41.26916
809.43	48.81661
809.609	56.4687
809.787	65.90989
809.965	38.76378
810.144	41.79082
810.322	39.08049
810.5	48.25228
810.678	37.1619
810.856	71.82015
811.035	55.44855
811.213	50.48908
811.391	62.31973
811.569	45.68204
811.747	95.82892
811.925	58.82102
812.103	32.83185
812.281	43.55206
812.459	66.91299
812.637	65.46784
812.816	53.68688
812.994	73.83229
813.171	62.6106
813.349	50.60564
813.527	55.72033
813.705	66.51714
813.883	82.75362
814.061	56.07428
814.239	70.38737
814.417	77.23595
814.595	54.03807
814.773	49.91181
814.95	44.21833
815.128	50.66133
815.306	46.94449
815.484	43.86244
815.662	33.83714
815.839	29.17156
816.017	36.21215
816.195	60.42086
816.372	38.6999
816.55	53.74751
816.728	68.63764
816.905	42.33365
817.083	67.1104
817.261	44.53095
817.438	90.12041
817.616	68.85573
817.793	37.12794
817.971	55.74451
818.148	55.01567
818.326	62.6317
818.503	48.32469
818.681	67.57022
818.858	42.16467
819.036	44.23107
819.213	48.12127
819.391	36.90515
819.568	34.79708
819.745	32.76225
819.923	55.65687
820.1	40.34362
820.277	34.39537
820.455	39.49138
820.632	42.57679
820.809	45.47533
820.986	30.64693
821.164	24.9357
821.341	23.0014
821.518	33.85775
821.695	24.85586
821.872	22.73853
822.05	20.35529
822.227	17.10382
822.404	17.93557
822.581	20.3914
822.758	17.69631
822.935	18.0594
823.112	19.83554
823.289	17.16337
823.466	20.21704
823.643	19.16593
823.82	22.22202
823.997	20.30629
824.174	22.81986
824.351	29.54594
824.528	27.98304
824.705	26.10515
824.882	27.83382
825.059	35.20085
825.236	26.33046
825.412	27.4175
825.589	32.80699
825.766	44.33071
825.943	29.42165
826.12	33.93241
826.296	25.90856
826.473	30.57883
826.65	31.19837
826.827	35.72862
827.003	25.007
827.18	28.35348
827.357	31.09661
827.533	26.40946
827.71	16.48502
827.887	23.91459
828.063	27.0157
828.24	23.26805
828.416	29.99439
828.593	24.99705
828.769	34.92118
828.946	35.70572
829.122	37.0063
829.299	35.33581
829.475	24.15595
829.652	35.9603
829.828	55.47289
830.005	36.68749
830.181	49.30645
830.357	36.60162
830.534	51.6719
830.71	40.33849
830.886	51.02069
831.063	50.53265
831.239	62.65358
831.415	33.55174
831.592	62.76921
831.768	40.57981
831.944	36.96099
832.12	68.04024
832.296	62.97289
832.473	54.82361
832.649	36.82799
832.825	54.77338
833.001	34.21528
833.177	46.84201
833.353	44.00545
833.529	26.70646
833.705	39.59673
833.881	26.98567
834.058	26.00901
834.234	28.47392
834.41	28.12021
834.586	22.63272
834.761	26.50845
834.937	29.85777
835.113	29.98056
835.289	26.17077
835.465	32.11273
835.641	28.38294
835.817	30.57607
835.993	49.70844
836.169	27.61294
836.344	40.66396
836.52	46.32986
836.696	43.11738
836.872	34.73709
837.048	90.8932
837.223	39.46218
837.399	68.56036
837.575	57.48016
837.75	51.69939
837.926	73.80103
838.102	105.42309
838.277	86.67962
838.453	120.69179
838.628	117.73953
838.804	46.93468
838.98	103.481
839.155	55.83113
839.331	74.19929
839.506	55.92273
839.682	55.70427
839.857	73.02362
840.033	85.47487
840.208	43.09801
840.384	23.69851
840.559	42.89673
840.734	65.45737
840.91	80.42223
841.085	50.50425
841.26	49.87713
841.436	46.14734
841.611	44.58359
841.786	66.72037
841.962	89.67486
842.137	57.5956
842.312	37.54679
842.487	48.65405
842.663	45.87191
842.838	54.74555
843.013	156.52201
843.188	82.00247
843.363	82.42316
843.538	134.72238
843.714	133.68037
843.889	133.67531
844.064	148.62929
844.239	114.47374
844.414	133.86646
844.589	94.49175
844.764	166.99445
844.939	165.7796
845.114	182.10836
845.289	174.35434
845.464	231.63299
845.639	157.49033
845.814	81.79348
845.989	93.00902
846.163	119.16294
846.338	122.069
846.513	165.92616
846.688	110.36981
846.863	113.96718
847.038	101.91242
847.212	114.03669
847.387	111.70258
847.562	121.19585
847.737	156.48494
847.911	59.32978
848.086	79.55398
848.261	256.01381
848.435	110.52276
848.61	159.86944
848.785	80.02827
848.959	165.87541
849.134	223.21291
849.308	230.98601
849.483	122.65676
849.658	191.21017
849.832	101.27528
850.007	94.27223
850.181	258.56968
850.356	93.97127
850.53	238.13643
850.705	76.10205
850.879	49.64026
851.053	116.955
851.228	109.52358
851.402	134.96187
851.577	175.13641
851.751	194.55909
851.925	132.01881
852.099	62.76468
852.274	90.9205
852.448	114.83087
852.622	134.49065
852.797	124.71453
852.971	114.73182
853.145	120.88405
853.319	356.46025
853.493	183.67163
853.668	99.69185
853.842	224.79822
854.016	181.00721
854.19	215.13697
854.364	129.24816
854.538	143.94772
854.712	188.79677
854.886	118.81451
855.06	109.84144
855.234	44.69631
855.408	201.35777
855.582	169.41657
855.756	168.42618
855.93	218.26368
856.104	149.42381
856.278	174.13301
856.452	136.2176
856.626	169.47082
856.8	269.99918
856.973	161.88181
857.147	155.06111
857.321	151.56203
857.495	179.05133
857.669	116.11041
857.842	108.51558
858.016	187.08081
858.19	95.34194
858.364	293.62127
858.537	116.43085
858.711	134.08641
858.885	118.10746
859.058	103.1563
859.232	64.40879
859.405	70.9791
859.579	175.61709
859.753	151.84712
859.926	100.51459
860.1	74.89685
860.273	131.55906
860.447	206.79007
860.62	113.56438
860.794	256.2458
860.967	142.03711
861.141	187.7504
861.314	267.14085
861.487	167.56867
861.661	209.87553
861.834	210.60356
862.008	187.79319
862.181	131.01316
862.354	139.18537
862.528	161.92569
862.701	107.46997
862.874	76.73014
863.047	120.14389
863.221	109.66157
863.394	61.62242
863.567	218.11804
863.74	45.8228
863.913	180.32153
864.087	148.7263
864.26	181.08568
864.433	126.95102
864.606	234.56773
864.779	132.56678
864.952	67.44131
865.125	106.7367
865.298	126.97132
865.471	137.62065
865.644	264.60757
865.817	213.33465
865.99	184.55829
866.163	200.98744
866.336	115.8022
866.509	131.72216
866.682	119.34697
866.855	191.60541
867.028	81.81563
867.2	162.06371
867.373	62.22027
867.546	145.71277
867.719	268.39716
867.892	170.77378
868.064	97.81826
868.237	159.67488
868.41	139.99096
868.583	90.47629
868.755	80.7672
868.928	131.5645
869.101	276.43172
869.273	196.87154
869.446	172.39418
869.619	192.92563
869.791	126.02366
869.964	196.58508
870.136	179.04277
870.309	140.93347
870.481	149.59814
870.654	72.29089
870.826	142.41631
870.999	122.531
871.171	182.28637
871.344	113.60424
871.516	129.48918
871.689	97.32322
871.861	142.15737
872.033	103.84502
872.206	116.60589
872.378	189.38098
872.55	122.92789
872.723	78.17817
872.895	122.74332
873.067	191.09923
873.24	215.93645
873.412	116.35211
873.584	116.56515
873.756	117.55745
873.928	159.70633
874.101	157.51175
874.273	169.09542
874.445	58.61594
874.617	80.95568
874.789	147.94194
874.961	117.18783
875.133	167.49742
875.305	145.15037
875.477	91.39548
875.649	72.42299
875.821	94.03742
875.993	226.96421
876.165	86.65702
876.337	148.63784
876.509	122.83677
876.681	155.84222
876.853	145.62927
877.025	145.51156
877.197	96.62893
877.369	91.34591
877.541	185.35278
877.712	54.58876
877.884	86.22529
878.056	167.61692
878.228	93.64557
878.4	160.5838
878.571	94.18103
878.743	64.3762
878.915	146.91672
879.086	85.56379
879.258	109.3889
879.43	98.34591
879.601	87.9001
879.773	92.36032
879.945	25.21367
880.116	42.84249
880.288	26.95853
880.459	29.98314
880.631	23.97911
880.802	28.32288
880.974	26.21515
881.145	19.09451
881.317	24.80389
881.488	19.16079
881.66	21.51373
881.831	19.85682
882.002	26.98217
882.174	20.69135
882.345	25.87617
882.517	15.56363
882.688	29.33624
882.859	25.16388
883.03	39.16873
883.202	36.21439
883.373	32.41459
883.544	32.93099
883.715	53.63695
883.887	45.09935
884.058	39.3935
884.229	54.13624
884.4	58.61326
884.571	63.75586
884.742	54.67515
884.914	61.3972
885.085	87.32984
885.256	104.48911
885.427	86.53121
885.598	105.37051
885.769	107.76151
885.94	98.51897
886.111	68.79108
886.282	125.33247
886.453	99.41336
886.624	70.72148
886.795	121.1075
886.966	100.70199
887.136	131.74443
887.307	91.10202
887.478	165.71893
887.649	142.78523
887.82	149.88948
887.991	117.34834
888.161	156.94116
888.332	156.69032
888.503	83.9756
888.674	207.75896
888.844	221.92257
889.015	178.27594
889.186	80.83018
889.356	210.3723
889.527	83.22106
889.698	354.51258
889.868	123.38236
890.039	152.0825
890.209	129.38931
890.38	182.18423
890.551	146.28906
890.721	215.15923
890.892	181.9006
891.062	119.87633
891.233	151.13155
891.403	122.56513
891.574	95.19646
891.744	127.34064
891.914	163.82512
892.085	137.82577
892.255	48.84544
892.425	216.82516
892.596	177.0248
892.766	152.02467
892.936	214.91689
893.107	181.06437
893.277	93.43789
893.447	78.5393
893.618	58.43455
893.788	118.25438
893.958	68.1536
894.128	71.92014
894.298	75.15366
894.468	101.46691
894.639	47.17782
894.809	34.5478
894.979	50.34029
895.149	61.53952
895.319	52.49301
895.489	70.75692
895.659	86.26249
895.829	61.20766
895.999	62.46503
896.169	44.83617
896.339	54.0348
896.509	117.38162
896.679	130.94083
896.849	125.28731
897.019	174.55164
897.189	139.22264
897.358	124.88659
897.528	183.10385
897.698	68.97532
897.868	165.85343
898.038	277.47017
898.208	253.84966
898.377	92.10818
898.547	270.03584
898.717	430.20625
898.886	167.08269
899.056	263.5396
899.226	393.87972
899.395	230.68582
899.565	302.00552
899.735	200.2512
899.904	329.39066
900.074	280.85383
900.244	125.06476
900.413	488.16752
900.583	126.76345
900.752	180.3223
900.922	305.58636
901.091	43.03418
901.261	275.8925
901.43	243.99083
901.599	249.83307
901.769	552.8349
901.938	285.71239
902.108	285.47911
902.277	374.86159
902.446	103.99855
902.616	120.31587
902.785	166.72931
902.954	283.94195
903.124	195.5111
903.293	154.26867
903.462	88.62515
903.631	121.25604
903.801	88.67497
903.97	48.93981
904.139	80.1363
904.308	61.23384
904.477	49.07393
904.646	29.95541
904.816	48.1521
904.985	65.90782
905.154	101.50244
