Data from WindowProjectSample_Transmission__63__00063.txt Node

Date: Sat May 03 17:19:57 EDT 2025
User: jessi
Spectrometer: SR400872
Trigger mode: 0
Integration Time (sec): 5.000010E-1
Scans to average: 6
Electric dark correction enabled: true
Nonlinearity correction enabled: true
Boxcar width: 0
XAxis mode: Wavelengths
Number of Pixels in Spectrum: 3648
>>>>>Begin Spectral Data<<<<<
184.909	9454.55364
185.132	3105.35376
185.355	-3224.92416
185.578	4382.96535
185.801	-657.47162
186.024	10069.35571
186.247	718.40211
186.47	675.03734
186.693	558.86554
186.916	329.00141
187.139	7039.11301
187.362	-2302.83916
187.585	-30587.47441
187.808	953.04165
188.031	-68.59177
188.254	1377.45749
188.476	-1809.66677
188.699	1738.24279
188.922	2802.03282
189.145	7387.58115
189.368	-329.51262
189.591	-672.47074
189.813	1699.9585
190.036	3253.04291
190.259	4325.32585
190.482	1221.34514
190.705	-4866.10875
190.927	-1763.96196
191.15	4659.54716
191.373	1486.20135
191.595	-887.43798
191.818	2753.45238
192.041	-355.60575
192.263	-4081.5988
192.486	-4271.75632
192.709	14858.13195
192.931	3206.61854
193.154	5776.14124
193.377	-49895.37657
193.599	-22553.79499
193.822	-3071.24553
194.044	-2628.73627
194.267	934.75965
194.489	123.6629
194.712	2405.34989
194.934	16176.60471
195.157	2022.73502
195.379	3275.21283
195.602	1145.63281
195.824	1562.70133
196.047	-3297.77417
196.269	59286.32442
196.492	-2762.35652
196.714	9524.6778
196.936	1836.1962
197.159	2889.42803
197.381	-573.13226
197.604	-1673.4696
197.826	62266.2564
198.048	1515.46231
198.271	8485.18248
198.493	5904.50179
198.715	-10752.26154
198.938	-2874.93406
199.16	-6556.6688
199.382	2209.87303
199.604	850.15541
199.827	-1976.80655
200.049	966.97015
200.271	-9628.47179
200.493	5301.58776
200.715	30872.55354
200.938	11724.07338
201.16	-31509.05585
201.382	-5242.44011
201.604	-1179.66753
201.826	2075.54751
202.048	-9904.08221
202.27	4354.9459
202.492	12710.72704
202.715	-970.26143
202.937	27315.22505
203.159	3405.80542
203.381	1326.03086
203.603	-1129.24019
203.825	-1046.15057
204.047	2846.15653
204.269	-1553.52816
204.491	-1033.8199
204.713	7100.13252
204.935	-3223.94116
205.156	1261.84939
205.378	8293.6697
205.6	-1402.05234
205.822	-51716.12991
206.044	-2295.13806
206.266	5354.40718
206.488	897.11092
206.71	-27614.48726
206.932	3911.98044
207.153	-7911.27636
207.375	-2543.42936
207.597	4613.5348
207.819	1843.9654
208.041	-50468.47509
208.262	1258.89894
208.484	-1030.9566
208.706	-1055.29795
208.927	1884.46297
209.149	-1953.82687
209.371	-1367.11544
209.593	-1376.72125
209.814	-2439.51677
210.036	-827.28006
210.258	-2674.34863
210.479	2700.33565
210.701	2315.96107
210.922	5542.93234
211.144	42035.04214
211.366	-29448.77573
211.587	-846.33647
211.809	-2238.08577
212.03	-1196.88356
212.252	-483.19106
212.473	852.57932
212.695	-898.88269
212.916	-1680.8147
213.138	2967.83446
213.359	-1637.5535
213.581	1186.60435
213.802	-1370.80612
214.024	4103.66844
214.245	-4819.78979
214.466	-305.37583
214.688	1425.43713
214.909	-691.35242
215.131	-4874.78626
215.352	-5219.47898
215.573	6169.89164
215.795	1999.77605
216.016	8009.28908
216.237	-469.30376
216.459	2204.09448
216.68	-2213.72319
216.901	1453.38158
217.122	3884.77869
217.344	3486.24646
217.565	-3174.31212
217.786	2311.21501
218.007	62517.68692
218.228	2430.8322
218.45	2846.39645
218.671	-1472.22197
218.892	1685.51709
219.113	3072.25649
219.334	1454.68719
219.555	-4656.90212
219.776	1466.22226
219.997	5995.42267
220.219	651.38502
220.44	4317.04409
220.661	4553.33265
220.882	2968.40643
221.103	-841.9154
221.324	-2355.46438
221.545	-3871.3621
221.766	-2114.34238
221.987	2998.08283
222.208	-5202.67269
222.429	4531.27154
222.65	-534.49267
222.87	-759.09262
223.091	1778.00799
223.312	2726.6861
223.533	11671.70065
223.754	1381.7223
223.975	1237.08905
224.196	-1824.82087
224.417	1914.79283
224.637	-5395.44765
224.858	-891.64698
225.079	814.88157
225.3	1482.17981
225.521	2261.63493
225.741	679.33799
225.962	1129.87813
226.183	-4555.31667
226.404	678.07101
226.624	754.38259
226.845	531.88807
227.066	428.18969
227.286	218.49312
227.507	123.4071
227.728	88.60365
227.948	149.98219
228.169	47.03493
228.389	55.67068
228.61	27.57171
228.831	39.62647
229.051	5.48245
229.272	24.67516
229.492	33.34603
229.713	11.24756
229.933	23.926
230.154	20.73539
230.374	35.09002
230.595	24.87244
230.815	16.89369
231.036	25.15844
231.256	-2.88473
231.477	44.65732
231.697	23.31443
231.917	25.93027
232.138	43.23309
232.358	85.72765
232.579	70.29392
232.799	10.48542
233.019	64.98614
233.24	77.94505
233.46	24.79362
233.68	48.32827
233.901	35.93854
234.121	19.34083
234.341	6.89622
234.561	2.48091
234.782	17.49553
235.002	51.78816
235.222	0.11865
235.442	43.85787
235.662	20.34025
235.883	43.98819
236.103	38.29223
236.323	25.62951
236.543	20.01745
236.763	28.22935
236.983	31.09029
237.203	30.57881
237.423	46.32759
237.643	60.54286
237.864	56.75139
238.084	15.12587
238.304	22.06798
238.524	33.1722
238.744	30.65059
238.964	46.91103
239.184	44.70215
239.404	47.6642
239.624	23.93008
239.843	42.38509
240.063	26.20779
240.283	17.0843
240.503	18.89635
240.723	18.61095
240.943	9.69242
241.163	14.60289
241.383	10.953
241.603	4.88273
241.822	6.47106
242.042	4.82218
242.262	6.19714
242.482	6.3413
242.702	8.52477
242.921	2.58407
243.141	6.02171
243.361	4.98039
243.581	7.29225
243.8	6.75017
244.02	4.14236
244.24	8.02011
244.459	7.26232
244.679	15.37751
244.899	9.48148
245.118	11.00896
245.338	9.7497
245.558	12.07037
245.777	6.70364
245.997	7.6832
246.216	7.81759
246.436	4.2402
246.655	3.44007
246.875	2.47579
247.094	4.99615
247.314	1.68004
247.533	2.76951
247.753	3.39586
247.972	2.73976
248.192	1.18234
248.411	1.71389
248.631	3.04398
248.85	3.8875
249.07	2.90642
249.289	5.35678
249.508	3.98314
249.728	6.25679
249.947	6.49226
250.166	6.59478
250.386	4.60679
250.605	5.8165
250.824	8.01362
251.044	6.32239
251.263	19.9009
251.482	10.83937
251.701	9.15151
251.921	0.44522
252.14	3.11249
252.359	3.31004
252.578	8.14659
252.798	2.61529
253.017	7.42447
253.236	3.86642
253.455	4.67324
253.674	9.64444
253.893	4.75153
254.112	6.60964
254.331	9.60315
254.551	6.96539
254.77	3.23964
254.989	11.65382
255.208	10.39352
255.427	12.01242
255.646	10.0229
255.865	16.90868
256.084	7.05869
256.303	7.88466
256.522	11.50769
256.741	2.85308
256.96	3.27891
257.179	7.05032
257.397	8.53521
257.616	4.21572
257.835	5.15896
258.054	11.89631
258.273	7.40724
258.492	9.19995
258.711	5.13616
258.93	2.33726
259.148	3.2645
259.367	3.38732
259.586	4.27695
259.805	1.88391
260.023	4.13737
260.242	2.98328
260.461	2.14877
260.68	1.34527
260.898	3.73428
261.117	1.25103
261.336	0.87336
261.554	3.00997
261.773	3.05014
261.992	0.47011
262.21	2.90383
262.429	3.67056
262.648	6.01483
262.866	6.94466
263.085	4.73247
263.303	4.43031
263.522	7.24199
263.74	7.7834
263.959	12.11707
264.178	6.65178
264.396	5.44866
264.615	4.02077
264.833	9.8569
265.051	8.43132
265.27	7.80003
265.488	9.00783
265.707	5.45431
265.925	8.98171
266.144	3.90891
266.362	5.02578
266.58	5.29267
266.799	4.0066
267.017	5.08616
267.235	4.49162
267.454	2.92261
267.672	1.61234
267.89	3.90039
268.109	3.72691
268.327	3.70022
268.545	1.06086
268.763	3.87763
268.982	1.80018
269.2	4.54901
269.418	2.41468
269.636	1.98681
269.854	3.85443
270.073	2.98941
270.291	1.5265
270.509	1.85147
270.727	3.67477
270.945	5.58614
271.163	5.99137
271.381	1.48012
271.599	2.30199
271.817	4.23274
272.036	1.62295
272.254	2.60903
272.472	2.07087
272.69	2.05737
272.908	2.09559
273.126	3.50679
273.344	4.52832
273.562	1.71751
273.779	2.24297
273.997	3.20896
274.215	3.75649
274.433	2.7231
274.651	3.87871
274.869	3.68037
275.087	2.44474
275.305	3.62586
275.523	2.03849
275.74	2.8203
275.958	4.58001
276.176	6.37003
276.394	1.96811
276.612	2.68885
276.829	2.70488
277.047	2.13824
277.265	2.68466
277.483	2.97272
277.7	3.6389
277.918	2.87006
278.136	5.30916
278.353	2.68019
278.571	1.37846
278.789	4.52687
279.006	1.11728
279.224	2.50201
279.442	4.20048
279.659	2.87821
279.877	2.2085
280.094	4.6201
280.312	0.87311
280.529	2.89968
280.747	1.08007
280.964	2.08235
281.182	4.96234
281.399	2.43145
281.617	3.10834
281.834	2.23922
282.052	1.90529
282.269	2.47995
282.487	2.1166
282.704	1.54396
282.921	2.01754
283.139	2.68162
283.356	3.7584
283.574	2.94744
283.791	1.69721
284.008	4.5079
284.226	2.38961
284.443	2.72045
284.66	3.47161
284.877	2.77837
285.095	1.86461
285.312	1.37422
285.529	1.01058
285.746	0.76641
285.964	1.86503
286.181	0.99646
286.398	1.66051
286.615	2.22197
286.832	2.23431
287.05	0.7732
287.267	1.52294
287.484	1.78958
287.701	2.34105
287.918	2.18645
288.135	2.24571
288.352	1.16805
288.569	1.3851
288.786	2.07546
289.003	1.55372
289.22	2.25341
289.437	1.58853
289.654	2.49132
289.871	2.60087
290.088	2.60036
290.305	1.94311
290.522	1.56463
290.739	1.89873
290.956	2.75967
291.173	3.16321
291.39	2.96436
291.607	2.05813
291.824	1.66012
292.04	0.99328
292.257	2.4615
292.474	2.76024
292.691	1.74336
292.908	1.06083
293.125	1.62432
293.341	0.93262
293.558	3.96409
293.775	1.67123
293.992	1.93502
294.208	0.73765
294.425	1.11836
294.642	1.6715
294.858	2.18891
295.075	0.6758
295.292	1.73856
295.508	2.08339
295.725	3.08703
295.942	1.53837
296.158	1.17109
296.375	1.83836
296.591	1.44612
296.808	1.50673
297.024	1.57838
297.241	1.84224
297.458	1.97201
297.674	0.19846
297.891	1.50114
298.107	1.20506
298.323	0.93656
298.54	2.37835
298.756	0.98153
298.973	0.48077
299.189	2.3969
299.406	1.13159
299.622	2.31749
299.838	2.34441
300.055	2.32472
300.271	0.6003
300.487	0.85707
300.704	1.20522
300.92	0.70468
301.136	3.40981
301.353	2.28201
301.569	1.752
301.785	1.95796
302.001	2.35913
302.218	1.95668
302.434	1.91481
302.65	0.64165
302.866	1.43653
303.083	3.32637
303.299	3.12606
303.515	1.68634
303.731	1.79516
303.947	0.67238
304.163	1.01102
304.379	1.83979
304.595	2.02398
304.812	1.17623
305.028	0.97671
305.244	1.45015
305.46	2.37523
305.676	2.34163
305.892	2.77871
306.108	1.61129
306.324	1.41513
306.54	3.15623
306.756	2.11307
306.972	2.19664
307.187	1.52277
307.403	2.86007
307.619	1.20513
307.835	2.41467
308.051	2.82636
308.267	0.57806
308.483	2.33596
308.699	2.03394
308.914	1.80755
309.13	1.63682
309.346	0.47927
309.562	0.86251
309.778	0.53369
309.993	2.00972
310.209	1.58935
310.425	0.79491
310.641	1.33277
310.856	0.87337
311.072	0.78649
311.288	1.39844
311.503	1.67355
311.719	0.38529
311.935	0.29943
312.15	1.84669
312.366	1.49686
312.581	2.05839
312.797	1.62919
313.013	2.0619
313.228	1.20546
313.444	1.79551
313.659	1.1331
313.875	2.0721
314.09	1.51321
314.306	2.7156
314.521	2.23914
314.737	2.02489
314.952	1.86396
315.168	1.63784
315.383	2.14437
315.599	1.4142
315.814	1.48772
316.029	2.25233
316.245	0.67038
316.46	0.55721
316.675	2.65049
316.891	3.13578
317.106	3.83729
317.321	2.22335
317.537	2.03977
317.752	2.33357
317.967	2.24065
318.183	1.17784
318.398	1.34677
318.613	2.47606
318.828	2.78707
319.043	2.30576
319.259	1.25638
319.474	1.94909
319.689	2.66723
319.904	0.39593
320.119	2.28453
320.334	1.92198
320.549	1.73979
320.765	2.48528
320.98	1.87511
321.195	2.4848
321.41	1.41425
321.625	2.35887
321.84	3.14155
322.055	3.15749
322.27	1.19245
322.485	0.90578
322.7	1.95216
322.915	2.58555
323.13	0.94532
323.345	2.89869
323.56	1.97931
323.775	2.26624
323.989	2.11786
324.204	1.85995
324.419	2.27886
324.634	0.80107
324.849	1.58634
325.064	3.58126
325.279	2.53803
325.493	2.20063
325.708	2.55029
325.923	0.9808
326.138	1.17523
326.352	2.83017
326.567	2.37152
326.782	1.49303
326.997	1.15492
327.211	2.2649
327.426	2.15976
327.641	1.35633
327.855	0.60453
328.07	2.05951
328.285	2.93779
328.499	1.4296
328.714	2.07514
328.928	2.19514
329.143	1.72283
329.358	2.40884
329.572	2.5664
329.787	2.77488
330.001	3.58307
330.216	0.71585
330.43	3.02637
330.645	3.09557
330.859	2.37139
331.074	1.2806
331.288	1.8905
331.503	2.74249
331.717	0.80588
331.931	1.70064
332.146	1.79181
332.36	3.20568
332.575	2.25107
332.789	1.96054
333.003	1.61807
333.218	2.25652
333.432	1.59477
333.646	2.08485
333.86	2.83441
334.075	3.08811
334.289	1.41931
334.503	1.1508
334.717	2.25512
334.932	2.1685
335.146	2.86546
335.36	1.65636
335.574	2.27861
335.788	2.183
336.003	2.76589
336.217	2.4173
336.431	2.29937
336.645	1.36594
336.859	0.98169
337.073	1.45483
337.287	2.01582
337.501	0.97175
337.715	1.91003
337.929	2.10998
338.143	1.00707
338.357	1.69892
338.571	0.96504
338.785	2.04472
338.999	1.35859
339.213	1.53201
339.427	0.67681
339.641	2.4476
339.855	1.61923
340.069	1.29456
340.283	2.31542
340.497	3.08949
340.711	2.02542
340.924	1.51545
341.138	0.98117
341.352	0.80564
341.566	1.85645
341.78	0.48395
341.993	1.31543
342.207	0.98368
342.421	1.85544
342.635	1.82185
342.848	1.42536
343.062	0.2567
343.276	1.24371
343.49	3.38529
343.703	1.28694
343.917	2.24433
344.131	2.28754
344.344	1.11686
344.558	1.22137
344.771	1.04076
344.985	2.65692
345.199	2.80887
345.412	1.89692
345.626	1.78522
345.839	0.61384
346.053	0.90109
346.266	0.87159
346.48	2.26352
346.693	1.96023
346.907	2.12711
347.12	1.16722
347.334	1.8731
347.547	1.87335
347.76	1.62756
347.974	2.40818
348.187	1.81056
348.401	1.49985
348.614	1.25312
348.827	1.40277
349.041	2.07773
349.254	0.54296
349.467	1.46475
349.681	0.75539
349.894	1.1747
350.107	2.69121
350.32	2.7152
350.534	0.41446
350.747	1.30976
350.96	0.95338
351.173	1.16965
351.386	1.46149
351.6	1.33437
351.813	1.10388
352.026	1.70883
352.239	0.81302
352.452	1.32356
352.665	2.10705
352.878	1.33576
353.092	3.14435
353.305	2.02031
353.518	1.78412
353.731	1.09595
353.944	2.57758
354.157	1.08249
354.37	0.95973
354.583	0.62371
354.796	0.43167
355.009	2.36698
355.222	1.44251
355.435	1.53686
355.647	2.35738
355.86	0.76266
356.073	1.47031
356.286	1.1495
356.499	1.89131
356.712	1.61533
356.925	1.74051
357.138	2.20255
357.35	0.81994
357.563	1.26951
357.776	1.59479
357.989	1.25764
358.201	1.74393
358.414	1.46038
358.627	2.19969
358.84	1.25612
359.052	0.79039
359.265	0.74658
359.478	2.21591
359.69	-0.2276
359.903	1.79614
360.116	1.95363
360.328	0.40729
360.541	1.88761
360.753	0.70987
360.966	1.05006
361.179	1.0871
361.391	1.07408
361.604	0.81885
361.816	1.1308
362.029	1.03209
362.241	0.86647
362.454	0.98335
362.666	0.84571
362.879	1.26
363.091	1.09967
363.304	0.81148
363.516	1.32256
363.728	0.53859
363.941	1.65704
364.153	0.94998
364.366	0.09437
364.578	0.64527
364.79	1.54609
365.003	1.23759
365.215	1.01703
365.427	1.53257
365.639	1.97783
365.852	1.50405
366.064	2.72407
366.276	1.04012
366.488	1.76257
366.701	0.87411
366.913	1.13422
367.125	1.25269
367.337	0.9731
367.549	1.0501
367.762	1.31482
367.974	1.39894
368.186	0.88333
368.398	1.93315
368.61	1.64374
368.822	1.66723
369.034	1.31406
369.246	1.73094
369.458	2.81427
369.67	0.64221
369.882	2.49419
370.094	0.08712
370.306	2.33168
370.518	1.10468
370.73	0.73496
370.942	0.8851
371.154	1.12627
371.366	0.94234
371.578	1.57609
371.79	0.84839
372.002	2.09822
372.214	2.28165
372.425	1.42029
372.637	2.14966
372.849	1.27855
373.061	0.06149
373.273	1.58344
373.484	1.71187
373.696	1.89572
373.908	0.07772
374.12	1.886
374.331	1.66421
374.543	0.8236
374.755	0.71286
374.967	1.48448
375.178	1.69786
375.39	1.17049
375.602	1.32249
375.813	0.58436
376.025	0.43645
376.236	1.3217
376.448	1.31685
376.66	0.84164
376.871	1.05079
377.083	1.87559
377.294	2.03263
377.506	1.04298
377.717	2.00094
377.929	1.37887
378.14	0.74389
378.352	1.63166
378.563	1.56044
378.775	1.97537
378.986	0.91466
379.197	1.0616
379.409	1.10119
379.62	1.76943
379.832	1.49042
380.043	1.19096
380.254	1.31733
380.466	0.61974
380.677	2.92802
380.888	2.64485
381.1	2.80351
381.311	2.73383
381.522	1.38508
381.733	2.89931
381.945	1.13774
382.156	1.33491
382.367	0.96845
382.578	3.06163
382.789	2.98456
383.001	1.02623
383.212	1.99513
383.423	2.19637
383.634	1.90203
383.845	1.60408
384.056	1.08139
384.267	1.32761
384.478	1.31608
384.69	0.67615
384.901	1.67758
385.112	1.43691
385.323	2.21867
385.534	1.6716
385.745	1.52374
385.956	1.53169
386.167	0.73572
386.378	1.75143
386.588	0.69103
386.799	0.86017
387.01	0.37386
387.221	1.82216
387.432	1.21769
387.643	2.51919
387.854	1.2953
388.065	1.19525
388.275	1.27343
388.486	1.17625
388.697	1.41487
388.908	1.1863
389.119	2.11527
389.329	2.29549
389.54	1.37455
389.751	1.61306
389.962	2.07418
390.172	1.5766
390.383	1.12073
390.594	0.96544
390.804	0.94591
391.015	1.06401
391.226	1.41147
391.436	1.68353
391.647	1.69262
391.858	1.69242
392.068	0.53735
392.279	0.80613
392.489	1.41896
392.7	2.06486
392.91	0.95138
393.121	1.07385
393.331	1.73682
393.542	2.1145
393.752	1.8387
393.963	1.61256
394.173	1.53172
394.384	1.87784
394.594	1.37816
394.804	0.84135
395.015	1.48068
395.225	1.79774
395.436	1.00844
395.646	1.78173
395.856	1.12605
396.067	0.79161
396.277	2.05571
396.487	1.56747
396.697	1.65143
396.908	2.03072
397.118	1.98347
397.328	1.59272
397.538	2.09207
397.749	1.218
397.959	2.04079
398.169	1.95448
398.379	0.91503
398.589	1.94016
398.8	1.76329
399.01	1.50541
399.22	1.53021
399.43	2.83835
399.64	1.39822
399.85	2.01855
400.06	1.54493
400.27	1.28997
400.48	1.61637
400.69	2.44725
400.9	1.37068
401.11	1.35082
401.32	2.26228
401.53	1.44255
401.74	2.45291
401.95	2.18375
402.16	1.21709
402.37	1.92185
402.58	1.35142
402.79	2.00094
403	2.20425
403.209	1.68258
403.419	2.22314
403.629	1.43291
403.839	2.12802
404.049	2.22409
404.258	1.35798
404.468	1.39162
404.678	2.10648
404.888	2.23073
405.097	1.47419
405.307	1.74678
405.517	2.10977
405.727	2.06209
405.936	1.6227
406.146	1.9167
406.356	2.55439
406.565	1.84165
406.775	1.45693
406.984	1.49796
407.194	2.94902
407.404	1.96451
407.613	2.02256
407.823	2.37771
408.032	2.54778
408.242	2.42748
408.451	1.6196
408.661	1.87007
408.87	2.84335
409.08	1.52139
409.289	2.1987
409.499	1.9877
409.708	1.93838
409.918	0.87182
410.127	2.05064
410.336	2.84942
410.546	2.32578
410.755	1.82216
410.964	1.82861
411.174	1.49939
411.383	2.28006
411.592	2.23216
411.802	1.42007
412.011	2.55879
412.22	2.02144
412.429	2.82023
412.639	2.89525
412.848	2.72096
413.057	3.08975
413.266	2.60747
413.475	2.06846
413.685	2.57708
413.894	2.4993
414.103	2.87579
414.312	2.65883
414.521	2.04041
414.73	2.31204
414.939	3.18793
415.148	2.49224
415.357	2.44377
415.566	2.25384
415.776	2.01508
415.985	1.94725
416.194	2.63981
416.403	3.32523
416.611	1.62573
416.82	2.07349
417.029	2.64534
417.238	2.35429
417.447	2.11698
417.656	2.65673
417.865	2.53599
418.074	2.72447
418.283	3.14095
418.492	3.92028
418.7	3.7844
418.909	4.93539
419.118	3.83165
419.327	4.14064
419.536	3.78459
419.744	3.84644
419.953	5.06953
420.162	4.98145
420.371	3.96282
420.579	4.17631
420.788	5.15979
420.997	5.30744
421.205	5.35907
421.414	5.0324
421.623	5.24119
421.831	4.67104
422.04	5.32657
422.249	4.65253
422.457	5.06016
422.666	4.42692
422.874	5.43229
423.083	5.54343
423.291	5.1689
423.5	4.90172
423.708	5.37626
423.917	5.90993
424.125	5.20198
424.334	5.03822
424.542	6.95363
424.751	6.11525
424.959	5.88615
425.167	6.19017
425.376	6.11999
425.584	5.12526
425.793	5.24167
426.001	4.29831
426.209	5.04799
426.418	3.93924
426.626	3.78655
426.834	3.37025
427.042	3.71175
427.251	3.28378
427.459	3.97208
427.667	3.33841
427.875	2.46172
428.084	2.87787
428.292	3.69859
428.5	3.26132
428.708	2.48275
428.916	2.45145
429.124	3.00972
429.333	2.82777
429.541	2.81267
429.749	3.11619
429.957	2.94947
430.165	4.25999
430.373	2.31465
430.581	2.99943
430.789	3.75485
430.997	2.89306
431.205	2.66
431.413	3.18905
431.621	2.99483
431.829	3.61267
432.037	3.29574
432.245	3.61803
432.453	3.92445
432.661	3.60196
432.869	5.03282
433.076	3.51091
433.284	4.06314
433.492	4.71894
433.7	4.91069
433.908	3.97881
434.116	4.41242
434.323	4.30629
434.531	4.22946
434.739	4.36493
434.947	4.42811
435.154	4.35565
435.362	3.58579
435.57	3.47347
435.778	3.15946
435.985	3.739
436.193	3.27417
436.401	4.32529
436.608	3.51589
436.816	3.18524
437.023	4.42288
437.231	4.52846
437.439	3.9177
437.646	4.19133
437.854	4.04379
438.061	4.35813
438.269	4.04986
438.476	4.45269
438.684	4.32593
438.891	4.30151
439.099	4.30611
439.306	3.84429
439.514	4.15937
439.721	5.329
439.929	4.74109
440.136	5.62424
440.343	5.61457
440.551	5.37859
440.758	7.05399
440.965	5.81508
441.173	5.70983
441.38	5.1492
441.587	5.44672
441.795	5.04785
442.002	4.95498
442.209	5.02072
442.416	5.02066
442.624	4.85619
442.831	4.73274
443.038	4.11388
443.245	3.72193
443.452	3.84368
443.66	4.60192
443.867	3.96757
444.074	3.93744
444.281	4.24593
444.488	4.50104
444.695	4.77483
444.902	4.76055
445.109	5.77465
445.316	5.43779
445.523	5.50426
445.73	5.64112
445.937	6.39537
446.144	6.75852
446.351	7.03753
446.558	6.09435
446.765	7.54066
446.972	7.23344
447.179	6.60832
447.386	7.43259
447.593	5.98493
447.8	7.00557
448.007	5.76315
448.214	5.47488
448.42	5.10245
448.627	5.80211
448.834	4.91558
449.041	4.64628
449.248	4.56948
449.454	4.87915
449.661	5.45742
449.868	3.99654
450.075	3.77977
450.281	3.0738
450.488	3.3888
450.695	3.35899
450.901	3.48465
451.108	3.56555
451.315	4.36366
451.521	3.7338
451.728	4.54429
451.935	3.59145
452.141	4.00272
452.348	4.24593
452.554	3.89835
452.761	3.96306
452.967	5.18352
453.174	4.27754
453.38	4.34441
453.587	3.44729
453.793	4.20395
454	4.43058
454.206	5.03023
454.413	4.43786
454.619	4.10667
454.825	3.63673
455.032	4.06255
455.238	4.18831
455.445	3.29684
455.651	3.93715
455.857	2.98743
456.064	3.65909
456.27	3.72095
456.476	3.53057
456.682	3.23383
456.889	3.90281
457.095	4.00894
457.301	4.93126
457.507	4.00367
457.714	4.01152
457.92	4.14839
458.126	3.8889
458.332	4.63304
458.538	4.66446
458.744	5.17509
458.951	5.40958
459.157	7.3387
459.363	6.41478
459.569	6.74662
459.775	7.37204
459.981	6.66998
460.187	7.18316
460.393	7.48346
460.599	7.81325
460.805	6.83789
461.011	6.26831
461.217	6.5514
461.423	5.91141
461.629	5.15577
461.835	5.11712
462.041	4.39679
462.247	5.06563
462.453	4.00081
462.658	3.86612
462.864	4.34278
463.07	4.17134
463.276	4.22596
463.482	4.13681
463.688	4.77047
463.893	3.74259
464.099	4.00666
464.305	4.7632
464.511	3.79219
464.716	4.06259
464.922	4.56185
465.128	3.72288
465.333	4.88272
465.539	4.42075
465.745	4.18601
465.95	4.19876
466.156	5.44758
466.362	4.7632
466.567	4.13012
466.773	3.94558
466.978	5.05345
467.184	3.70618
467.389	3.33236
467.595	4.40281
467.8	3.84976
468.006	4.81908
468.211	4.93174
468.417	3.72507
468.622	4.41712
468.828	4.68543
469.033	4.48858
469.239	5.6484
469.444	3.99721
469.649	4.66201
469.855	4.17422
470.06	4.28941
470.266	3.77563
470.471	4.58267
470.676	4.52735
470.881	3.40289
471.087	5.02487
471.292	5.2483
471.497	3.71649
471.703	4.16595
471.908	4.15572
472.113	4.41432
472.318	4.75947
472.523	3.98973
472.729	4.63166
472.934	4.63861
473.139	4.22752
473.344	4.62522
473.549	5.11506
473.754	4.09821
473.959	5.62886
474.164	4.11586
474.369	4.26414
474.575	4.78751
474.78	4.50703
474.985	4.12296
475.19	3.63752
475.395	4.10063
475.6	4.39666
475.804	5.11209
476.009	4.55086
476.214	4.47844
476.419	4.25761
476.624	3.86969
476.829	4.35284
477.034	5.13545
477.239	4.48517
477.444	5.16375
477.648	5.29088
477.853	5.25168
478.058	4.89292
478.263	4.86815
478.468	4.6356
478.672	4.55786
478.877	6.00143
479.082	5.81315
479.287	5.27964
479.491	4.98416
479.696	4.64328
479.901	5.43332
480.105	5.60328
480.31	4.83128
480.515	5.39689
480.719	6.93542
480.924	5.57926
481.128	5.54757
481.333	6.5808
481.538	6.72954
481.742	7.00214
481.947	8.01588
482.151	8.67725
482.356	8.99565
482.56	11.08206
482.765	12.1609
482.969	14.60982
483.174	16.63206
483.378	19.43617
483.582	20.06197
483.787	21.74623
483.991	22.06056
484.196	22.25205
484.4	21.86609
484.604	22.07347
484.809	19.85569
485.013	19.1183
485.217	16.9055
485.422	15.23866
485.626	13.75561
485.83	12.92446
486.034	12.36278
486.239	12.83268
486.443	12.94064
486.647	13.14351
486.851	14.55597
487.055	15.79041
487.26	15.3996
487.464	16.50837
487.668	15.81188
487.872	16.25801
488.076	16.59179
488.28	16.0633
488.484	14.6632
488.688	14.32847
488.892	13.78393
489.096	12.81784
489.3	11.60319
489.504	10.99363
489.708	10.35403
489.912	10.16008
490.116	9.84004
490.32	9.38203
490.524	10.70882
490.728	11.27093
490.932	11.90497
491.136	12.5955
491.34	14.01134
491.544	14.12806
491.748	13.99015
491.951	14.02433
492.155	13.49595
492.359	13.32891
492.563	11.65927
492.767	11.15626
492.97	10.04311
493.174	8.8637
493.378	8.033
493.582	7.05914
493.785	6.85922
493.989	6.66065
494.193	6.40426
494.396	5.88349
494.6	6.22999
494.804	5.74175
495.007	5.4013
495.211	5.5108
495.414	5.67575
495.618	6.28878
495.822	6.89104
496.025	6.50928
496.229	7.08494
496.432	6.55875
496.636	7.01502
496.839	7.20623
497.043	8.04913
497.246	7.41262
497.45	6.9822
497.653	7.20427
497.856	7.067
498.06	6.55554
498.263	6.69249
498.467	6.45173
498.67	7.00949
498.873	6.55793
499.077	6.02055
499.28	5.86282
499.483	6.04269
499.686	6.30384
499.89	5.96204
500.093	6.00995
500.296	5.06519
500.499	6.19999
500.703	5.21057
500.906	5.32448
501.109	5.99534
501.312	5.19175
501.515	5.16125
501.719	5.43005
501.922	5.71581
502.125	5.28037
502.328	5.04852
502.531	4.73927
502.734	5.25705
502.937	4.35246
503.14	5.21685
503.343	4.8072
503.546	5.16172
503.749	5.13209
503.952	5.74958
504.155	5.17856
504.358	5.6578
504.561	5.60193
504.764	4.86636
504.967	5.53566
505.17	5.42704
505.373	6.18732
505.576	5.24181
505.778	5.78991
505.981	5.02838
506.184	5.89655
506.387	4.61796
506.59	6.28618
506.793	5.80851
506.995	5.57284
507.198	4.64446
507.401	5.83312
507.604	5.97319
507.806	5.41312
508.009	5.62971
508.212	6.39599
508.414	5.90335
508.617	6.02254
508.82	6.33266
509.022	7.1488
509.225	6.60097
509.427	5.71042
509.63	6.89347
509.833	6.23867
510.035	6.06475
510.238	5.51291
510.44	6.8814
510.643	5.2977
510.845	7.26551
511.048	6.38916
511.25	5.88477
511.453	6.10576
511.655	6.41045
511.858	6.02406
512.06	6.58431
512.262	6.16263
512.465	6.56813
512.667	6.02835
512.869	5.49217
513.072	6.19977
513.274	6.29424
513.476	6.07351
513.679	6.05257
513.881	5.06642
514.083	6.3518
514.286	5.23124
514.488	5.26335
514.69	5.12485
514.892	5.00582
515.094	5.86601
515.297	5.25742
515.499	5.54378
515.701	5.1568
515.903	6.37068
516.105	6.36983
516.307	5.94611
516.509	4.75439
516.711	5.25074
516.913	5.8717
517.116	6.24599
517.318	6.25059
517.52	7.36569
517.722	7.55413
517.924	7.14584
518.126	8.08651
518.328	7.81846
518.529	8.58269
518.731	9.48935
518.933	7.85999
519.135	8.26976
519.337	8.88601
519.539	8.11982
519.741	6.6754
519.943	7.03243
520.145	6.53907
520.346	7.02125
520.548	5.86556
520.75	6.30627
520.952	5.66639
521.153	6.00318
521.355	6.01392
521.557	5.32534
521.759	5.87517
521.96	5.64997
522.162	5.20366
522.364	6.18412
522.565	5.40184
522.767	6.11498
522.969	6.16828
523.17	5.97369
523.372	5.86673
523.573	5.48633
523.775	5.64456
523.977	5.48549
524.178	7.06112
524.38	6.37224
524.581	7.48028
524.783	7.22405
524.984	8.36746
525.186	8.36158
525.387	8.98681
525.589	8.85971
525.79	8.91553
525.991	8.96418
526.193	9.67498
526.394	8.98573
526.596	9.85587
526.797	10.15768
526.998	9.94462
527.2	10.39264
527.401	12.41841
527.602	13.37962
527.803	15.83373
528.005	16.77278
528.206	18.42039
528.407	19.2879
528.608	19.36058
528.81	19.75117
529.011	19.12653
529.212	19.8603
529.413	18.4416
529.614	17.28654
529.815	16.31003
530.017	14.96924
530.218	13.04073
530.419	11.57865
530.62	11.00205
530.821	10.50464
531.022	8.93181
531.223	10.07639
531.424	9.93244
531.625	9.93613
531.826	9.68303
532.027	10.34792
532.228	11.71863
532.429	11.60892
532.63	11.94614
532.831	12.9858
533.032	13.09918
533.233	14.04734
533.433	13.49307
533.634	13.86508
533.835	13.01167
534.036	12.30907
534.237	11.79305
534.438	11.05132
534.638	9.51616
534.839	9.36803
535.04	9.13668
535.241	8.49318
535.441	9.65856
535.642	9.06157
535.843	8.31433
536.043	8.83301
536.244	9.18321
536.445	9.34633
536.645	10.2577
536.846	9.87587
537.047	10.34798
537.247	8.98525
537.448	8.87385
537.648	8.68736
537.849	8.03284
538.049	7.65686
538.25	7.54432
538.451	7.2192
538.651	6.17337
538.851	6.9493
539.052	7.21946
539.252	7.24369
539.453	6.95118
539.653	7.69728
539.854	8.26045
540.054	9.01488
540.254	10.63447
540.455	11.8225
540.655	11.98662
540.855	13.57383
541.056	14.66654
541.256	14.56602
541.456	15.65243
541.657	14.85753
541.857	15.88762
542.057	14.19223
542.257	13.52928
542.458	13.9892
542.658	13.27233
542.858	11.37865
543.058	11.65018
543.258	10.75037
543.458	9.09565
543.659	8.75115
543.859	9.52759
544.059	9.1464
544.259	8.29721
544.459	8.51827
544.659	7.54733
544.859	7.87773
545.059	7.23818
545.259	7.88195
545.459	7.56507
545.659	8.1247
545.859	7.88069
546.059	8.08825
546.259	7.42519
546.459	7.3843
546.659	7.36314
546.859	8.33055
547.059	7.85691
547.258	8.00008
547.458	7.59399
547.658	6.61895
547.858	6.21492
548.058	6.66239
548.258	6.41454
548.457	5.93744
548.657	7.69678
548.857	6.2358
549.057	6.66676
549.256	6.62872
549.456	5.99382
549.656	5.22059
549.855	7.22168
550.055	6.01748
550.255	7.15327
550.454	6.55248
550.654	6.68631
550.853	6.90185
551.053	6.58019
551.253	6.44377
551.452	6.44152
551.652	5.7246
551.851	5.34692
552.051	6.20412
552.25	5.90474
552.45	5.96673
552.649	6.09405
552.849	5.97582
553.048	6.28871
553.248	6.60952
553.447	5.72367
553.646	6.97582
553.846	7.43201
554.045	7.09037
554.244	5.87386
554.444	7.37143
554.643	6.07341
554.842	7.26915
555.042	7.41679
555.241	5.98638
555.44	5.53281
555.64	6.76454
555.839	7.50695
556.038	6.54481
556.237	5.80771
556.436	6.46762
556.636	6.68872
556.835	5.89943
557.034	7.19856
557.233	6.28149
557.432	5.65709
557.631	6.98137
557.83	6.2941
558.029	6.07088
558.228	5.72254
558.427	5.69783
558.626	6.46782
558.825	5.80019
559.024	6.39256
559.223	7.46036
559.422	6.1335
559.621	6.58649
559.82	4.75185
560.019	6.36242
560.218	6.06339
560.417	4.63567
560.616	5.88663
560.815	8.414
561.014	5.47086
561.212	7.28434
561.411	6.28024
561.61	5.49123
561.809	6.06632
562.008	7.15197
562.206	6.144
562.405	6.75821
562.604	6.13165
562.803	6.38553
563.001	6.10879
563.2	5.49878
563.399	6.55165
563.597	5.4337
563.796	6.28787
563.995	5.4541
564.193	6.72594
564.392	6.08201
564.59	7.70033
564.789	5.14536
564.988	5.868
565.186	6.31172
565.385	6.27539
565.583	6.08524
565.782	6.30718
565.98	6.2651
566.179	6.39731
566.377	5.69597
566.575	6.06895
566.774	7.23128
566.972	7.09921
567.171	7.85693
567.369	7.25306
567.567	6.66857
567.766	6.83869
567.964	5.22868
568.162	6.78117
568.361	7.15949
568.559	6.26505
568.757	6.5942
568.956	6.46379
569.154	6.44172
569.352	6.99732
569.55	6.44953
569.748	6.27312
569.947	5.92616
570.145	5.90278
570.343	5.89006
570.541	7.30237
570.739	5.63993
570.937	6.54988
571.135	6.71527
571.333	7.5236
571.532	7.54271
571.73	6.50411
571.928	7.27526
572.126	6.83471
572.324	6.24155
572.522	7.48792
572.72	8.35641
572.918	6.71124
573.116	6.96809
573.313	6.66658
573.511	6.59712
573.709	6.18318
573.907	7.1683
574.105	6.35956
574.303	5.54264
574.501	5.66485
574.699	6.87898
574.896	6.74572
575.094	6.98138
575.292	5.61766
575.49	7.24436
575.688	6.4688
575.885	7.47822
576.083	7.84
576.281	6.82109
576.478	6.14523
576.676	6.82874
576.874	5.63613
577.071	6.34056
577.269	8.06118
577.467	6.53222
577.664	6.40498
577.862	7.24262
578.059	5.99937
578.257	7.01356
578.455	6.31115
578.652	6.46768
578.85	5.01611
579.047	6.45609
579.245	6.36947
579.442	6.38095
579.64	6.29626
579.837	5.12589
580.034	8.40395
580.232	6.26389
580.429	5.34115
580.627	6.87638
580.824	7.3893
581.021	6.60198
581.219	6.15158
581.416	5.67768
581.613	7.31911
581.811	7.39534
582.008	5.78138
582.205	6.89317
582.402	6.57348
582.6	7.60023
582.797	6.45384
582.994	6.62014
583.191	6.87277
583.388	6.3126
583.586	6.89333
583.783	7.05063
583.98	5.83841
584.177	6.65051
584.374	4.17083
584.571	6.32592
584.768	6.38158
584.965	5.89356
585.162	6.89676
585.359	7.66709
585.556	6.54533
585.753	6.50929
585.95	5.34148
586.147	5.77971
586.344	6.95714
586.541	6.2705
586.738	5.53356
586.935	6.43968
587.132	5.7528
587.329	7.15992
587.526	6.23953
587.722	10.29379
587.919	5.38677
588.116	6.68918
588.313	7.79479
588.51	8.13912
588.706	6.0901
588.903	6.81422
589.1	7.07903
589.297	8.64728
589.493	6.56662
589.69	7.06617
589.887	6.0808
590.083	5.80666
590.28	6.12415
590.477	7.3228
590.673	7.27075
590.87	7.6921
591.067	6.51601
591.263	6.97065
591.46	6.9738
591.656	6.46542
591.853	7.66394
592.049	5.61117
592.246	6.17963
592.442	7.66084
592.639	7.01325
592.835	5.51019
593.032	6.85738
593.228	5.22892
593.425	5.37117
593.621	5.0519
593.817	6.66942
594.014	5.88501
594.21	6.68677
594.406	7.41505
594.603	7.0721
594.799	6.14056
594.995	4.73804
595.192	7.23498
595.388	6.09655
595.584	6.22829
595.78	5.43104
595.977	8.40412
596.173	7.93594
596.369	6.41754
596.565	6.12155
596.761	5.72324
596.957	7.74858
597.154	6.13506
597.35	6.3824
597.546	6.17386
597.742	7.47354
597.938	6.97421
598.134	5.95905
598.33	6.77893
598.526	7.79315
598.722	7.12372
598.918	8.1475
599.114	6.99548
599.31	5.9995
599.506	6.76025
599.702	6.17003
599.898	6.74242
600.094	7.06569
600.29	7.3346
600.485	7.27538
600.681	6.17637
600.877	8.05365
601.073	6.71038
601.269	8.41597
601.465	7.77901
601.66	5.60966
601.856	5.02741
602.052	8.0041
602.248	6.19083
602.443	4.83998
602.639	5.72053
602.835	6.05142
603.03	5.85538
603.226	7.50963
603.422	5.81535
603.617	6.35898
603.813	6.48252
604.009	6.49504
604.204	7.71136
604.4	5.7782
604.595	7.5125
604.791	6.23438
604.986	7.08229
605.182	6.27243
605.377	6.66849
605.573	6.33648
605.768	7.08583
605.964	7.5667
606.159	7.46275
606.355	7.73894
606.55	6.68557
606.746	7.79541
606.941	6.60124
607.136	8.71553
607.332	9.29456
607.527	5.61432
607.722	6.91638
607.918	6.50672
608.113	5.95294
608.308	7.19369
608.503	7.14774
608.699	7.14643
608.894	7.307
609.089	6.41474
609.284	6.9005
609.479	6.46077
609.675	7.31274
609.87	6.62237
610.065	7.58113
610.26	7.58616
610.455	7.61316
610.65	7.11683
610.845	7.17563
611.04	7.72948
611.235	6.60769
611.43	6.4356
611.625	5.71884
611.82	8.17676
612.015	6.10424
612.21	8.40431
612.405	5.32593
612.6	8.68123
612.795	7.91882
612.99	7.76756
613.185	5.65362
613.38	5.99177
613.575	6.84205
613.77	9.78027
613.965	5.32765
614.159	5.7174
614.354	8.26612
614.549	7.94935
614.744	7.51768
614.938	5.83106
615.133	5.66758
615.328	8.09051
615.523	7.99198
615.717	10.10169
615.912	6.27746
616.107	6.67788
616.301	6.54293
616.496	6.19655
616.691	8.65747
616.885	7.67088
617.08	9.90648
617.274	8.00826
617.469	9.1778
617.664	7.45556
617.858	6.32087
618.053	7.37998
618.247	6.52954
618.442	4.53889
618.636	8.44866
618.831	6.5774
619.025	6.46635
619.219	9.71308
619.414	3.78986
619.608	6.80107
619.803	6.20426
619.997	9.21596
620.191	8.25989
620.386	7.51574
620.58	7.21837
620.774	5.173
620.969	4.99271
621.163	6.94965
621.357	5.56646
621.551	6.74886
621.746	7.13232
621.94	7.08545
622.134	10.94904
622.328	9.32426
622.522	5.48837
622.716	8.20664
622.911	7.84616
623.105	8.18168
623.299	7.57363
623.493	10.5967
623.687	5.82296
623.881	6.5306
624.075	7.55797
624.269	8.59289
624.463	4.97292
624.657	5.27725
624.851	7.52273
625.045	8.10767
625.239	8.25187
625.433	6.71517
625.627	8.806
625.821	6.31704
626.015	6.20373
626.209	7.27009
626.403	5.94805
626.596	7.54617
626.79	7.97682
626.984	5.67951
627.178	7.78169
627.372	7.64123
627.565	8.23383
627.759	5.75767
627.953	5.82645
628.147	7.74221
628.34	7.98944
628.534	9.3252
628.728	6.75049
628.921	8.29388
629.115	8.10633
629.309	8.06945
629.502	8.32935
629.696	7.51423
629.89	6.86644
630.083	7.29327
630.277	7.90185
630.47	9.23564
630.664	6.82264
630.857	5.89727
631.051	8.39308
631.244	9.01453
631.438	8.33492
631.631	6.75454
631.825	9.0645
632.018	8.41061
632.212	9.34723
632.405	8.74208
632.598	6.66982
632.792	7.16677
632.985	4.86482
633.178	6.76155
633.372	7.08057
633.565	7.27473
633.758	9.11517
633.952	6.21072
634.145	6.38438
634.338	6.54034
634.531	6.6472
634.724	6.62918
634.918	7.36503
635.111	7.02395
635.304	6.55826
635.497	10.48437
635.69	7.74159
635.883	8.84685
636.077	6.40084
636.27	7.89894
636.463	7.31376
636.656	8.06685
636.849	6.83793
637.042	8.37119
637.235	9.89042
637.428	8.52176
637.621	8.9305
637.814	9.48155
638.007	9.65852
638.2	9.61283
638.393	10.28792
638.586	5.97001
638.778	7.28495
638.971	7.91258
639.164	9.88179
639.357	8.08927
639.55	9.52184
639.743	8.82787
639.935	8.63771
640.128	10.93053
640.321	8.55772
640.514	8.12866
640.707	11.01382
640.899	8.8589
641.092	5.27609
641.285	19.09638
641.477	4.79796
641.67	11.42774
641.863	9.59024
642.055	8.06682
642.248	7.92657
642.441	6.91164
642.633	8.77288
642.826	9.27762
643.018	10.39889
643.211	10.86434
643.403	10.47559
643.596	11.16617
643.788	10.58067
643.981	7.24778
644.173	9.34743
644.366	7.90433
644.558	5.22839
644.751	9.37929
644.943	5.71917
645.135	10.94459
645.328	10.57662
645.52	9.45371
645.712	9.72291
645.905	13.12529
646.097	6.60574
646.289	8.63675
646.482	11.31389
646.674	7.40498
646.866	9.70514
647.058	9.15739
647.251	6.55654
647.443	7.49152
647.635	7.96945
647.827	6.5194
648.019	7.11477
648.211	8.02248
648.404	8.26043
648.596	11.36838
648.788	8.96902
648.98	8.52387
649.172	8.80907
649.364	8.96082
649.556	6.06947
649.748	12.96977
649.94	6.84804
650.132	9.33918
650.324	6.81788
650.516	7.20672
650.708	10.49024
650.9	6.29387
651.092	5.9371
651.284	6.39675
651.476	6.46415
651.667	9.60391
651.859	10.54744
652.051	8.4076
652.243	8.52097
652.435	7.21675
652.627	9.55356
652.818	9.13333
653.01	6.0839
653.202	7.15522
653.394	7.7809
653.585	9.22779
653.777	16.20094
653.969	10.78911
654.16	10.61659
654.352	6.9612
654.544	8.17993
654.735	10.34185
654.927	9.07578
655.118	11.37528
655.31	9.34982
655.502	9.96265
655.693	7.83548
655.885	9.22264
656.076	10.86382
656.268	8.7886
656.459	11.26496
656.651	11.40656
656.842	7.82994
657.034	7.07617
657.225	10.33605
657.416	11.04282
657.608	10.95965
657.799	8.45945
657.99	10.58019
658.182	7.36372
658.373	7.77001
658.564	9.85515
658.756	8.86497
658.947	8.51388
659.138	7.06271
659.33	7.79959
659.521	7.73077
659.712	8.4889
659.903	8.40766
660.094	7.90909
660.286	6.91717
660.477	11.77318
660.668	9.7406
660.859	8.84016
661.05	6.47934
661.241	9.89462
661.432	9.62237
661.623	8.4571
661.814	7.66791
662.006	6.08136
662.197	9.05446
662.388	10.90004
662.579	9.43249
662.77	13.98261
662.96	14.63377
663.151	10.97857
663.342	5.99387
663.533	10.08886
663.724	9.04882
663.915	11.92081
664.106	8.33016
664.297	12.21901
664.488	10.57593
664.678	8.19095
664.869	10.68799
665.06	11.02001
665.251	9.88641
665.442	10.33159
665.632	7.24403
665.823	12.96473
666.014	4.10522
666.204	10.84109
666.395	11.18783
666.586	14.89847
666.776	11.10659
666.967	12.76039
667.158	9.63272
667.348	12.00372
667.539	7.09551
667.729	11.27775
667.92	7.70902
668.111	11.17508
668.301	10.51944
668.492	9.22934
668.682	9.28878
668.873	9.51203
669.063	7.03885
669.253	9.69107
669.444	11.64736
669.634	9.25966
669.825	13.18985
670.015	11.26933
670.206	8.05554
670.396	13.76967
670.586	9.59127
670.777	11.1185
670.967	5.45345
671.157	9.38584
671.347	7.87819
671.538	12.65216
671.728	11.20607
671.918	13.98413
672.108	11.91245
672.299	9.5712
672.489	10.66234
672.679	8.37462
672.869	10.89981
673.059	13.82771
673.249	11.45062
673.44	7.771
673.63	9.68906
673.82	11.73305
674.01	8.50532
674.2	11.33734
674.39	15.95289
674.58	11.20605
674.77	10.29128
674.96	9.5515
675.15	18.89704
675.34	12.94735
675.53	10.52139
675.72	9.54542
675.91	6.98173
676.099	14.41684
676.289	15.74993
676.479	12.65599
676.669	9.30133
676.859	11.46726
677.049	8.7091
677.238	10.22583
677.428	13.84778
677.618	11.58401
677.808	12.99413
677.997	11.30767
678.187	7.94144
678.377	10.20073
678.567	9.45019
678.756	9.1849
678.946	9.34772
679.136	7.24596
679.325	8.75958
679.515	8.01461
679.704	7.50538
679.894	11.65905
680.084	11.0221
680.273	12.63572
680.463	8.1741
680.652	8.58624
680.842	9.80482
681.031	12.22594
681.221	8.42659
681.41	11.50118
681.6	9.69405
681.789	12.33147
681.978	12.98598
682.168	11.43297
682.357	10.88329
682.547	12.50923
682.736	11.08514
682.925	13.03061
683.115	13.20338
683.304	12.91987
683.493	11.26247
683.682	11.88412
683.872	11.93234
684.061	13.5894
684.25	12.28652
684.439	15.91728
684.629	12.40854
684.818	19.28105
685.007	10.76705
685.196	10.27085
685.385	15.39653
685.574	12.06661
685.763	12.40771
685.952	11.38892
686.142	8.43348
686.331	14.33635
686.52	6.68048
686.709	15.16296
686.898	15.22813
687.087	12.68876
687.276	16.01482
687.465	13.93379
687.654	10.09191
687.842	15.49705
688.031	8.07409
688.22	15.13631
688.409	11.26754
688.598	11.53638
688.787	17.89653
688.976	12.14349
689.165	16.9391
689.353	10.46647
689.542	12.33258
689.731	13.99291
689.92	16.89095
690.108	13.60062
690.297	10.63797
690.486	11.81323
690.675	13.99154
690.863	16.6087
691.052	16.18715
691.241	12.94384
691.429	12.6429
691.618	16.68863
691.806	9.00344
691.995	10.91259
692.184	11.96111
692.372	10.81916
692.561	12.71418
692.749	12.14956
692.938	19.78196
693.126	13.48687
693.315	12.62114
693.503	13.50409
693.692	15.04051
693.88	15.7539
694.068	19.10375
694.257	12.20017
694.445	14.09937
694.634	7.05221
694.822	15.22661
695.01	16.19692
695.199	17.09793
695.387	17.38098
695.575	16.25282
695.763	12.10455
695.952	11.22184
696.14	8.87981
696.328	10.86102
696.516	12.79059
696.705	13.90818
696.893	13.42522
697.081	7.62115
697.269	14.62627
697.457	9.97448
697.645	9.14031
697.833	14.89709
698.021	10.25874
698.21	10.94075
698.398	11.73642
698.586	9.58554
698.774	9.30666
698.962	11.74807
699.15	9.58474
699.338	8.54678
699.526	13.45277
699.714	10.60731
699.901	10.36841
700.089	15.09384
700.277	10.28118
700.465	12.49808
700.653	14.48302
700.841	13.61479
701.029	10.36241
701.217	16.54909
701.404	13.22424
701.592	17.48739
701.78	19.09187
701.968	12.23377
702.155	11.93212
702.343	8.64387
702.531	17.24658
702.718	14.36892
702.906	12.89042
703.094	11.66545
703.281	17.39415
703.469	12.99246
703.657	16.63841
703.844	23.78471
704.032	19.24798
704.219	11.98386
704.407	14.64086
704.595	17.76074
704.782	13.18901
704.97	12.19692
705.157	12.5631
705.345	18.38583
705.532	23.27142
705.719	15.92436
705.907	19.07132
706.094	14.5773
706.282	20.13795
706.469	13.05249
706.656	14.61566
706.844	12.78511
707.031	17.47987
707.218	14.79485
707.406	19.18332
707.593	17.36998
707.78	17.53496
707.968	13.96052
708.155	11.70216
708.342	16.07186
708.529	16.96466
708.716	15.28355
708.904	20.98664
709.091	16.78937
709.278	10.34483
709.465	20.88461
709.652	20.93446
709.839	18.66756
710.026	16.23494
710.213	9.62439
710.4	15.93341
710.587	18.2564
710.774	19.16138
710.961	18.68928
711.148	15.05779
711.335	18.50282
711.522	15.09265
711.709	16.44772
711.896	22.7992
712.083	18.61277
712.27	12.25738
712.457	15.46805
712.644	10.59232
712.831	22.6405
713.017	15.75879
713.204	17.96651
713.391	12.78489
713.578	19.93558
713.765	20.70729
713.951	17.66773
714.138	27.61286
714.325	18.58886
714.512	16.15897
714.698	13.75724
714.885	21.68898
715.072	17.54358
715.258	16.61198
715.445	13.95247
715.631	21.42571
715.818	7.97355
716.005	14.38594
716.191	18.50572
716.378	15.15984
716.564	19.15964
716.751	13.77048
716.937	14.43217
717.124	21.15691
717.31	12.67709
717.497	23.51544
717.683	13.79115
717.869	24.93246
718.056	14.50539
718.242	19.95078
718.429	16.5951
718.615	12.53666
718.801	16.76806
718.988	20.58803
719.174	18.7093
719.36	16.72328
719.547	22.24693
719.733	18.919
719.919	19.20441
720.105	20.31208
720.291	16.52313
720.478	19.31003
720.664	16.91453
720.85	15.40809
721.036	29.68262
721.222	24.10136
721.408	16.85514
721.595	26.33736
721.781	24.40753
721.967	23.68203
722.153	25.77463
722.339	19.8911
722.525	19.81865
722.711	13.82735
722.897	11.90385
723.083	15.54526
723.269	22.00545
723.455	29.86093
723.641	31.88923
723.827	19.43996
724.012	19.50293
724.198	16.58175
724.384	24.82623
724.57	20.64818
724.756	12.33628
724.942	10.57117
725.127	22.55995
725.313	25.03116
725.499	24.19852
725.685	27.00367
725.87	19.49308
726.056	15.26021
726.242	24.72745
726.428	11.83062
726.613	22.61121
726.799	17.38385
726.985	13.92326
727.17	11.69339
727.356	27.99785
727.541	13.89656
727.727	17.68809
727.913	22.81948
728.098	16.46022
728.284	22.08843
728.469	13.03695
728.655	14.66173
728.84	22.56718
729.026	21.74455
729.211	23.7143
729.397	21.45765
729.582	21.74709
729.767	18.07566
729.953	21.45006
730.138	24.14064
730.323	9.31443
730.509	13.73963
730.694	26.2486
730.879	21.53287
731.065	19.79852
731.25	30.35971
731.435	21.4905
731.621	12.42192
731.806	16.59593
731.991	20.3221
732.176	12.82267
732.361	25.22001
732.547	22.21699
732.732	11.26637
732.917	30.24284
733.102	13.13643
733.287	15.86616
733.472	20.06044
733.657	19.58533
733.842	11.71856
734.027	17.49283
734.212	18.25709
734.397	15.39872
734.582	19.00416
734.767	23.6745
734.952	26.46687
735.137	7.08142
735.322	26.98826
735.507	19.62485
735.692	20.03844
735.877	31.38215
736.062	28.4502
736.247	22.09012
736.431	18.51903
736.616	26.78612
736.801	21.10355
736.986	19.04709
737.171	15.54681
737.355	12.57843
737.54	25.5788
737.725	20.40282
737.909	34.13997
738.094	17.42019
738.279	23.59702
738.463	18.65697
738.648	24.71764
738.833	22.3056
739.017	30.8335
739.202	19.46808
739.386	19.32849
739.571	14.7871
739.756	24.28872
739.94	20.15109
740.125	24.26682
740.309	16.04845
740.494	24.08397
740.678	20.54672
740.863	23.75438
741.047	21.97966
741.231	27.96206
741.416	16.92544
741.6	27.95286
741.785	15.84791
741.969	25.64484
742.153	28.20944
742.338	8.51654
742.522	18.96351
742.706	24.22878
742.89	12.78369
743.075	22.97779
743.259	26.90598
743.443	26.17874
743.627	27.867
743.812	35.07666
743.996	7.20908
744.18	20.52295
744.364	18.1899
744.548	35.46299
744.732	20.3411
744.916	25.15652
745.1	23.73475
745.285	19.21665
745.469	25.05288
745.653	31.76638
745.837	13.85088
746.021	34.09064
746.205	28.35436
746.389	22.76171
746.573	19.24245
746.757	30.13872
746.94	20.38892
747.124	27.82259
747.308	14.16617
747.492	28.72126
747.676	17.62919
747.86	36.23058
748.044	19.46258
748.227	11.21404
748.411	43.54213
748.595	23.20358
748.779	17.38023
748.963	23.87983
749.146	23.06877
749.33	17.44784
749.514	15.8339
749.697	27.17272
749.881	17.48736
750.065	15.96303
750.248	21.089
750.432	36.70845
750.616	21.85963
750.799	12.35223
750.983	35.56268
751.166	39.34498
751.35	13.31018
751.533	26.54134
751.717	30.32732
751.9	31.56585
752.084	17.89031
752.267	14.18446
752.451	16.04748
752.634	23.78409
752.818	24.97944
753.001	26.22694
753.184	27.5343
753.368	24.89674
753.551	3.64366
753.734	17.67801
753.918	35.90727
754.101	17.62881
754.284	26.22581
754.467	19.51741
754.651	19.24999
754.834	18.26543
755.017	29.75216
755.2	28.93406
755.384	14.70233
755.567	28.52364
755.75	30.89809
755.933	19.99282
756.116	23.43484
756.299	18.86985
756.482	15.076
756.665	26.90583
756.848	23.17366
757.032	23.94812
757.215	11.06226
757.398	16.14734
757.581	16.44291
757.764	40.43458
757.947	22.21235
758.129	30.51896
758.312	3.66345
758.495	20.04861
758.678	19.74619
758.861	21.80144
759.044	36.71554
759.227	18.63676
759.41	18.10748
759.592	27.43434
759.775	22.41908
759.958	28.65534
760.141	12.62832
760.324	37.31018
760.506	32.53914
760.689	27.79313
760.872	39.26772
761.054	25.0943
761.237	20.12813
761.42	24.95443
761.602	29.41865
761.785	25.82446
761.968	31.1737
762.15	36.19404
762.333	21.81959
762.515	24.1857
762.698	18.37964
762.88	26.61239
763.063	23.165
763.245	27.98157
763.428	16.05975
763.61	16.7554
763.793	15.0815
763.975	24.03695
764.158	18.65828
764.34	17.8977
764.522	15.74992
764.705	20.07517
764.887	31.27286
765.069	13.41772
765.252	26.86765
765.434	27.15703
765.616	23.48544
765.799	17.08531
765.981	27.23491
766.163	17.08151
766.345	28.854
766.528	16.82256
766.71	8.10337
766.892	23.35219
767.074	30.99345
767.256	21.41291
767.438	35.23388
767.62	26.18184
767.802	39.67283
767.985	26.52663
768.167	39.47067
768.349	17.71138
768.531	27.80937
768.713	24.47706
768.895	32.25297
769.077	25.96046
769.259	43.23929
769.441	62.50244
769.623	34.32018
769.804	39.1508
769.986	38.28768
770.168	45.02268
770.35	54.92735
770.532	39.43598
770.714	42.07929
770.896	44.94912
771.077	16.98098
771.259	42.69868
771.441	37.28561
771.623	48.89465
771.804	63.04557
771.986	14.03262
772.168	30.01161
772.35	46.30935
772.531	60.30029
772.713	36.61141
772.894	48.58541
773.076	33.54608
773.258	25.76718
773.439	49.49186
773.621	53.46994
773.802	22.39391
773.984	29.58943
774.166	37.80671
774.347	56.40929
774.529	46.266
774.71	13.50419
774.891	32.42762
775.073	33.74333
775.254	53.49071
775.436	26.76863
775.617	59.35677
775.799	31.34124
775.98	53.63675
776.161	57.64959
776.343	53.72139
776.524	37.10055
776.705	32.15873
776.886	18.27479
777.068	40.91666
777.249	73.11362
777.43	61.7978
777.611	25.17297
777.793	33.1002
777.974	57.6802
778.155	32.46375
778.336	28.76563
778.517	64.59008
778.698	26.05003
778.879	14.31605
779.061	6.42284
779.242	40.16046
779.423	40.86879
779.604	28.88071
779.785	31.01905
779.966	39.19784
780.147	49.66392
780.328	50.35536
780.509	69.30919
780.69	45.30556
780.871	31.70429
781.051	19.49392
781.232	37.36446
781.413	38.54397
781.594	31.94872
781.775	29.71469
781.956	29.16243
782.137	14.95774
782.317	28.20375
782.498	42.15284
782.679	41.36873
782.86	38.80817
783.04	28.89965
783.221	40.23732
783.402	62.51499
783.583	38.91512
783.763	47.16428
783.944	31.6384
784.124	21.13831
784.305	61.92847
784.486	45.97058
784.666	34.2228
784.847	16.79575
785.027	76.96561
785.208	25.78551
785.388	31.73939
785.569	28.76827
785.749	32.01493
785.93	27.7169
786.11	21.53698
786.291	41.20641
786.471	38.3659
786.652	45.84346
786.832	36.24048
787.012	43.90135
787.193	24.83708
787.373	36.34416
787.553	31.31538
787.734	40.09664
787.914	29.73924
788.094	42.53772
788.275	42.60165
788.455	32.22749
788.635	20.78728
788.815	41.86993
788.995	22.955
789.176	19.32602
789.356	26.33991
789.536	33.35853
789.716	44.70125
789.896	25.6085
790.076	29.98891
790.256	41.11558
790.436	10.14893
790.616	23.80161
790.796	42.47747
790.976	30.47475
791.156	28.06438
791.336	44.83632
791.516	40.4793
791.696	33.55212
791.876	19.19712
792.056	37.70156
792.236	46.7222
792.416	47.95481
792.596	43.4395
792.776	40.22945
792.956	45.55859
793.135	60.35067
793.315	24.08168
793.495	52.13401
793.675	46.85799
793.854	49.81545
794.034	50.71439
794.214	22.67171
794.394	45.63542
794.573	50.22939
794.753	35.47159
794.933	28.12119
795.112	39.03346
795.292	48.81893
795.472	60.71852
795.651	23.32805
795.831	34.1225
796.01	32.51754
796.19	31.64284
796.369	32.1077
796.549	42.42719
796.728	31.54078
796.908	23.87845
797.087	23.1122
797.267	36.48307
797.446	23.92787
797.626	40.29438
797.805	41.55475
797.984	27.7227
798.164	42.26024
798.343	26.07836
798.522	40.13065
798.702	36.42191
798.881	22.70338
799.06	32.15777
799.239	13.92854
799.419	22.66278
799.598	57.22911
799.777	43.48257
799.956	49.6751
800.136	31.87042
800.315	26.0781
800.494	40.5322
800.673	47.86663
800.852	45.444
801.031	54.34145
801.21	45.84417
801.389	28.69447
801.568	39.50071
801.747	63.28011
801.926	35.90901
802.105	56.03919
802.284	32.51043
802.463	55.98024
802.642	42.05087
802.821	39.00559
803	53.61893
803.179	47.45566
803.358	50.25134
803.537	28.40468
803.716	42.20575
803.895	26.51126
804.073	33.28553
804.252	27.17011
804.431	41.38816
804.61	36.20758
804.789	53.42015
804.967	28.79809
805.146	31.19514
805.325	63.15629
805.503	43.01755
805.682	19.53847
805.861	73.68734
806.039	54.88552
806.218	28.55505
806.397	37.41044
806.575	35.60165
806.754	44.06089
806.932	24.50534
807.111	58.50013
807.289	48.58129
807.468	39.25323
807.646	49.94826
807.825	46.33706
808.003	42.10833
808.182	48.70078
808.36	35.48863
808.539	27.98655
808.717	59.73031
808.895	27.22135
809.074	43.78223
809.252	33.126
809.43	50.05865
809.609	57.87477
809.787	68.85432
809.965	35.91815
810.144	39.13934
810.322	37.9067
810.5	48.40054
810.678	32.90101
810.856	68.8639
811.035	54.50088
811.213	49.44084
811.391	53.77414
811.569	41.27189
811.747	83.68505
811.925	56.0334
812.103	29.93633
812.281	33.47017
812.459	68.88613
812.637	67.45096
812.816	52.94191
812.994	73.81622
813.171	57.51866
813.349	50.64767
813.527	60.05996
813.705	62.78555
813.883	73.95979
814.061	57.46065
814.239	67.79662
814.417	78.66471
814.595	46.28314
814.773	46.40453
814.95	42.95634
815.128	47.06204
815.306	38.62115
815.484	39.77318
815.662	29.35243
815.839	28.04655
816.017	33.41111
816.195	59.20532
816.372	39.42899
816.55	51.10574
816.728	66.5134
816.905	42.92207
817.083	68.28526
817.261	44.79224
817.438	83.5208
817.616	71.54366
817.793	37.85798
817.971	56.63545
818.148	52.16183
818.326	64.07925
818.503	46.72363
818.681	64.48197
818.858	37.12055
819.036	43.71575
819.213	43.88574
819.391	32.60705
819.568	32.51401
819.745	26.10973
819.923	50.94331
820.1	31.17687
820.277	30.47402
820.455	34.81968
820.632	35.13085
820.809	37.32449
820.986	22.7672
821.164	19.81865
821.341	17.04706
821.518	24.71488
821.695	18.73893
821.872	17.39985
822.05	15.30444
822.227	11.89958
822.404	13.38041
822.581	14.8314
822.758	13.42136
822.935	13.597
823.112	15.44051
823.289	13.01909
823.466	15.50889
823.643	14.49913
823.82	18.12996
823.997	16.36634
824.174	19.05872
824.351	25.63812
824.528	24.39147
824.705	20.69415
824.882	23.55368
825.059	30.24517
825.236	21.14631
825.412	20.77627
825.589	26.64149
825.766	37.22769
825.943	23.66554
826.12	28.11006
826.296	17.90473
826.473	23.15428
826.65	24.16203
826.827	29.2021
827.003	19.07185
827.18	22.77965
827.357	25.06393
827.533	21.83823
827.71	12.38255
827.887	19.2095
828.063	22.59405
828.24	19.14501
828.416	26.61077
828.593	21.69276
828.769	31.72097
828.946	34.17122
829.122	35.317
829.299	35.057
829.475	17.34819
829.652	32.89857
829.828	54.87421
830.005	34.88056
830.181	44.82956
830.357	33.30289
830.534	47.54269
830.71	36.82634
830.886	46.35321
831.063	46.93519
831.239	59.57288
831.415	26.63918
831.592	61.47517
831.768	34.79206
831.944	28.29153
832.12	60.42902
832.296	57.66927
832.473	48.48297
832.649	32.36789
832.825	46.84896
833.001	26.81017
833.177	41.37536
833.353	37.75963
833.529	20.51421
833.705	30.67773
833.881	22.14737
834.058	20.62304
834.234	23.27489
834.41	23.87148
834.586	17.44514
834.761	21.51966
834.937	24.96607
835.113	27.30169
835.289	22.20651
835.465	29.92099
835.641	24.68969
835.817	28.06955
835.993	50.44964
836.169	23.24658
836.344	36.45304
836.52	44.68673
836.696	45.47735
836.872	26.59895
837.048	91.7764
837.223	36.84926
837.399	72.07483
837.575	53.48563
837.75	50.47342
837.926	74.38742
838.102	121.13211
838.277	92.17176
838.453	124.45104
838.628	119.15676
838.804	39.01632
838.98	111.84015
839.155	57.3781
839.331	66.2258
839.506	54.6
839.682	50.51009
839.857	61.80329
840.033	78.09527
840.208	31.64601
840.384	17.3262
840.559	37.08462
840.734	58.2193
840.91	77.51897
841.085	51.09596
841.26	53.35181
841.436	46.2554
841.611	39.0973
841.786	65.69915
841.962	99.82306
842.137	62.36205
842.312	35.37246
842.487	55.25157
842.663	43.47934
842.838	53.59435
843.013	183.65628
843.188	83.89943
843.363	81.99725
843.538	165.84482
843.714	170.53424
843.889	156.61701
844.064	155.14726
844.239	131.73268
844.414	178.0165
844.589	118.0496
844.764	208.46787
844.939	187.17309
845.114	211.79303
845.289	229.53752
845.464	259.11906
845.639	183.07586
845.814	103.92522
845.989	129.37491
846.163	145.36955
846.338	153.3462
846.513	228.63779
846.688	161.4157
846.863	171.89556
847.038	144.03285
847.212	133.66606
847.387	149.87303
847.562	137.33295
847.737	198.318
847.911	99.86868
848.086	101.48125
848.261	250.15836
848.435	136.49959
848.61	208.08114
848.785	100.76839
848.959	208.199
849.134	240.16313
849.308	353.10161
849.483	189.49086
849.658	244.80892
849.832	139.83487
850.007	108.54528
850.181	338.05982
850.356	129.24803
850.53	305.59673
850.705	100.75667
850.879	73.65329
851.053	154.66156
851.228	143.94888
851.402	247.33667
851.577	216.17574
851.751	266.3415
851.925	147.83224
852.099	83.84755
852.274	135.96242
852.448	158.71815
852.622	242.35162
852.797	169.03412
852.971	155.2599
853.145	224.65576
853.319	309.16792
853.493	270.72297
853.668	174.50995
853.842	295.41814
854.016	223.81902
854.19	324.70778
854.364	179.50677
854.538	206.93997
854.712	275.50154
854.886	161.88651
855.06	156.67008
855.234	47.75737
855.408	290.63933
855.582	196.65646
855.756	293.30895
855.93	247.66905
856.104	201.62085
856.278	269.75813
856.452	142.0444
856.626	196.04964
856.8	380.03648
856.973	187.96018
857.147	248.00698
857.321	238.35903
857.495	244.73168
857.669	188.54826
857.842	168.32737
858.016	276.34145
858.19	116.08987
858.364	375.95643
858.537	186.24769
858.711	219.49249
858.885	168.46154
859.058	130.62306
859.232	88.33835
859.405	74.39486
859.579	243.76175
859.753	237.5261
859.926	129.52319
860.1	108.67988
860.273	186.80709
860.447	285.18195
860.62	156.39508
860.794	293.0736
860.967	225.79267
861.141	235.1925
861.314	370.47932
861.487	203.81231
861.661	267.56507
861.834	320.32141
862.008	256.87511
862.181	208.86407
862.354	201.97481
862.528	208.54206
862.701	160.25407
862.874	102.10372
863.047	167.88541
863.221	145.11237
863.394	74.05246
863.567	243.33938
863.74	55.63105
863.913	238.97115
864.087	234.1594
864.26	224.92043
864.433	171.63854
864.606	316.35067
864.779	207.34051
864.952	78.45796
865.125	193.89764
865.298	177.74176
865.471	192.61704
865.644	311.30147
865.817	238.65979
865.99	285.61554
866.163	278.73026
866.336	149.37577
866.509	158.21891
866.682	187.44422
866.855	305.38007
867.028	104.98505
867.2	191.30998
867.373	48.60822
867.546	175.02113
867.719	356.58498
867.892	199.66811
868.064	126.0911
868.237	177.93662
868.41	203.5785
868.583	86.99058
868.755	107.2081
868.928	167.29669
869.101	355.72103
869.273	291.80536
869.446	203.69234
869.619	265.44557
869.791	162.03616
869.964	240.15781
870.136	278.92045
870.309	165.32759
870.481	156.28779
870.654	99.04612
870.826	180.55408
870.999	149.68163
871.171	207.87239
871.344	123.55597
871.516	152.19399
871.689	115.4912
871.861	180.86455
872.033	131.39371
872.206	161.83091
872.378	225.96258
872.55	165.57049
872.723	95.37847
872.895	154.60704
873.067	243.10565
873.24	233.77073
873.412	138.36081
873.584	138.45135
873.756	161.61649
873.928	214.05929
874.101	167.43396
874.273	217.43911
874.445	73.31657
874.617	107.87884
874.789	177.34363
874.961	124.64351
875.133	195.35507
875.305	181.14133
875.477	117.23267
875.649	77.65191
875.821	97.99695
875.993	268.56518
876.165	126.49058
876.337	166.26035
876.509	189.94358
876.681	165.29784
876.853	164.19779
877.025	177.04327
877.197	123.53235
877.369	107.97373
877.541	185.61265
877.712	50.54124
877.884	88.57413
878.056	163.22035
878.228	87.83985
878.4	174.75174
878.571	92.78514
878.743	67.74165
878.915	136.63857
879.086	81.40631
879.258	100.90581
879.43	90.86552
879.601	74.79327
879.773	75.55156
879.945	17.28292
880.116	29.45029
880.288	18.21149
880.459	22.39268
880.631	16.33771
880.802	19.59802
880.974	18.90946
881.145	12.64828
881.317	18.65706
881.488	14.00954
881.66	14.98446
881.831	14.60763
882.002	19.62434
882.174	14.99089
882.345	18.82016
882.517	9.91812
882.688	22.92638
882.859	18.47091
883.03	31.35514
883.202	29.63897
883.373	23.40118
883.544	25.55006
883.715	42.32153
883.887	34.83352
884.058	29.04456
884.229	41.45404
884.4	41.73218
884.571	52.68993
884.742	41.69847
884.914	40.85416
885.085	65.50483
885.256	87.37664
885.427	76.1829
885.598	91.70359
885.769	78.00317
885.94	84.50265
886.111	50.44294
886.282	104.65441
886.453	89.59679
886.624	62.26261
886.795	105.48527
886.966	88.9067
887.136	114.11036
887.307	78.6329
887.478	174.85234
887.649	139.61923
887.82	162.30859
887.991	125.9142
888.161	176.22414
888.332	160.97331
888.503	92.395
888.674	211.09316
888.844	244.15727
889.015	187.27211
889.186	109.09098
889.356	244.87605
889.527	90.93435
889.698	330.96467
889.868	124.75442
890.039	191.68356
890.209	154.5731
890.38	246.63826
890.551	191.68808
890.721	257.76164
890.892	201.80915
891.062	179.01249
891.233	202.72688
891.403	154.40876
891.574	103.90718
891.744	137.38929
891.914	153.35363
892.085	176.31269
892.255	49.95094
892.425	233.06743
892.596	151.38578
892.766	182.25266
892.936	246.19117
893.107	197.2503
893.277	95.48754
893.447	68.27864
893.618	48.24705
893.788	105.68967
893.958	65.6748
894.128	54.63616
894.298	61.49548
894.468	80.95386
894.639	36.38254
894.809	21.80031
894.979	39.36269
895.149	49.8936
895.319	37.76618
895.489	57.51522
895.659	72.05288
895.829	48.51881
895.999	53.8495
896.169	42.19781
896.339	50.48947
896.509	111.55259
896.679	119.63314
896.849	126.11891
897.019	174.72185
897.189	151.73774
897.358	127.35046
897.528	194.2965
897.698	66.89628
897.868	215.27505
898.038	372.58096
898.208	283.53172
898.377	96.2896
898.547	383.3858
898.717	570.43737
898.886	247.9991
899.056	344.18145
899.226	416.21948
899.395	414.13881
899.565	571.38249
899.735	351.81843
899.904	492.85037
900.074	483.85774
900.244	239.26534
900.413	654.85903
900.583	172.40572
900.752	348.05543
900.922	446.12949
901.091	52.6246
901.261	685.12636
901.43	355.51403
901.599	391.01774
901.769	790.4197
901.938	457.88321
902.108	405.86127
902.277	443.91412
902.446	141.78357
902.616	157.3871
902.785	189.13262
902.954	353.80314
903.124	184.7409
903.293	136.74123
903.462	76.26604
903.631	101.11035
903.801	77.29244
903.97	36.29536
904.139	63.26373
904.308	44.94789
904.477	37.60917
904.646	20.8195
904.816	36.3395
904.985	51.56458
905.154	83.04534
