Data from WindowProjectSample3_Transmission__53__00053.txt Node

Date: Sun May 04 11:25:11 EDT 2025
User: jessi
Spectrometer: SR400872
Trigger mode: 0
Integration Time (sec): 5.000050E-1
Scans to average: 20
Electric dark correction enabled: true
Nonlinearity correction enabled: true
Boxcar width: 0
XAxis mode: Wavelengths
Number of Pixels in Spectrum: 3648
>>>>>Begin Spectral Data<<<<<
184.909	-1268.76227
185.132	-1455.65546
185.355	-1181.28324
185.578	-1078.08756
185.801	1214.28191
186.024	-983.34741
186.247	-4816.86543
186.47	-1653.36021
186.693	-179.88806
186.916	-482.7755
187.139	-788.09107
187.362	-2843.41548
187.585	-684.70724
187.808	-5158.48048
188.031	10815.08846
188.254	-2256.94859
188.476	-3573.35274
188.699	-1024.27643
188.922	627.64016
189.145	-1198.07349
189.368	3404.74525
189.591	-2238.24987
189.813	-1514.05533
190.036	-835.99373
190.259	-1125.0854
190.482	-1568.98034
190.705	-2351.2064
190.927	-717.50228
191.15	-1477.53412
191.373	-1123.37089
191.595	-1269.51577
191.818	-1325.36563
192.041	-663.39956
192.263	-1119.98562
192.486	-587.20419
192.709	-1492.52296
192.931	-3285.0555
193.154	-1172.56312
193.377	-1628.02493
193.599	-3084.05566
193.822	-3321.01168
194.044	-3264.29591
194.267	-1722.80484
194.489	-224.0637
194.712	-966.89781
194.934	-1729.39875
195.157	-731.18268
195.379	-1184.73759
195.602	-875.90522
195.824	-1290.82261
196.047	-2036.16072
196.269	-1057.97943
196.492	-1384.85599
196.714	-1226.5829
196.936	-1224.21217
197.159	-872.09544
197.381	-738.18775
197.604	-506.03768
197.826	-2001.69042
198.048	-1083.26796
198.271	-1535.51204
198.493	-1126.58831
198.715	-924.71745
198.938	-3274.22534
199.16	-4306.97236
199.382	-1231.6641
199.604	-1113.89495
199.827	-1830.46517
200.049	-1600.14611
200.271	-1210.19569
200.493	-1372.07241
200.715	-992.36966
200.938	-824.81171
201.16	-919.19232
201.382	-972.10487
201.604	-1216.66919
201.826	-709.13839
202.048	-810.04098
202.27	-1369.92738
202.492	-1407.07359
202.715	-1826.90943
202.937	-1927.15785
203.159	-1298.19906
203.381	-1481.48509
203.603	-983.39573
203.825	-5386.03043
204.047	-1627.65991
204.269	-1394.93926
204.491	-1237.21002
204.713	-1465.43719
204.935	-1402.83018
205.156	-2581.54842
205.378	-2712.91338
205.6	-1563.966
205.822	-1087.2066
206.044	1377.42307
206.266	-1292.6492
206.488	-867.33014
206.71	-1690.34832
206.932	-1729.78979
207.153	-1148.15088
207.375	-1328.36582
207.597	-1079.42869
207.819	-1108.84591
208.041	-1181.73502
208.262	-1561.86281
208.484	-834.14818
208.706	-2121.86407
208.927	-833.57068
209.149	-1245.00536
209.371	-1233.22269
209.593	-1381.68971
209.814	-645.77167
210.036	-967.47281
210.258	-724.17404
210.479	-997.52858
210.701	-1742.93297
210.922	-1206.56449
211.144	-1000.5801
211.366	-1064.9027
211.587	1415.79609
211.809	-1113.71741
212.03	-6387.58229
212.252	876.04111
212.473	-963.02832
212.695	-18371.71185
212.916	-3289.59557
213.138	-1596.41818
213.359	-906.00385
213.581	-1382.27718
213.802	-845.66195
214.024	-1331.15354
214.245	-11218.46906
214.466	-783.78017
214.688	-1417.13968
214.909	-1013.03053
215.131	-2690.99417
215.352	-3496.59229
215.573	-1056.09666
215.795	-1883.37379
216.016	-1464.55847
216.237	-2970.83998
216.459	-1426.28403
216.68	-1044.53553
216.901	-1489.31409
217.122	10767.76361
217.344	-959.12004
217.565	-1299.59983
217.786	-1321.97888
218.007	-897.09542
218.228	-1220.63442
218.45	-1152.58891
218.671	-1189.40547
218.892	-1035.66023
219.113	-1509.46814
219.334	-196.61599
219.555	-1384.19996
219.776	-1507.7108
219.997	-1241.02062
220.219	16755.26137
220.44	-1135.99372
220.661	-3107.62214
220.882	-948.57516
221.103	1583.619
221.324	-2728.72331
221.545	-1114.92203
221.766	-1291.88105
221.987	-1852.4155
222.208	-2079.35137
222.429	-770.52427
222.65	-738.86748
222.87	-1732.54222
223.091	-3442.28688
223.312	2909.4459
223.533	-1175.80736
223.754	-1544.2315
223.975	-2155.24356
224.196	8781.68867
224.417	-7740.25333
224.637	4385.32402
224.858	196.79931
225.079	-1845.11776
225.3	25941.77702
225.521	-1033.41105
225.741	-5476.50488
225.962	7126.88736
226.183	388.01239
226.404	-3586.08938
226.624	2416.7131
226.845	-81222.32755
227.066	-637141.71777
227.286	872.99097
227.507	311.09869
227.728	290.32147
227.948	664.62391
228.169	173.76062
228.389	168.32199
228.61	96.6138
228.831	132.57257
229.051	9.91419
229.272	70.44453
229.492	104.90315
229.713	30.92351
229.933	71.77259
230.154	59.25986
230.374	100.03273
230.595	72.64267
230.815	44.75046
231.036	72.71576
231.256	-10.10851
231.477	129.33494
231.697	71.21755
231.917	81.50685
232.138	116.86793
232.358	235.67666
232.579	189.87842
232.799	28.50411
233.019	191.50431
233.24	234.12747
233.46	80.53847
233.68	116.12874
233.901	79.58868
234.121	55.83543
234.341	27.61953
234.561	-8.09942
234.782	39.651
235.002	135.94632
235.222	0.2022
235.442	114.1403
235.662	56.06943
235.883	111.97406
236.103	95.68904
236.323	67.88738
236.543	52.47381
236.763	73.6803
236.983	84.08391
237.203	80.53493
237.423	112.6175
237.643	166.9276
237.864	148.30967
238.084	32.36066
238.304	44.97975
238.524	85.35008
238.744	75.17234
238.964	135.22393
239.184	114.55611
239.404	125.02709
239.624	61.63014
239.843	108.30736
240.063	62.85288
240.283	41.15468
240.503	45.09915
240.723	45.56204
240.943	28.49222
241.163	34.99608
241.383	25.97132
241.603	12.9008
241.822	15.27551
242.042	10.50267
242.262	14.09027
242.482	14.62582
242.702	16.71122
242.921	5.58415
243.141	11.21355
243.361	10.51884
243.581	15.16441
243.8	12.34456
244.02	8.46321
244.24	14.99931
244.459	14.39023
244.679	29.36201
244.899	19.20527
245.118	23.10026
245.338	20.7523
245.558	23.58853
245.777	13.51456
245.997	16.84553
246.216	17.59713
246.436	10.1922
246.655	7.46468
246.875	5.58528
247.094	10.04738
247.314	3.7055
247.533	6.0486
247.753	6.78617
247.972	5.5778
248.192	2.26818
248.411	3.16586
248.631	5.32665
248.85	6.87333
249.07	6.9783
249.289	9.94943
249.508	6.90889
249.728	11.41113
249.947	11.52502
250.166	14.05662
250.386	7.43607
250.605	10.99827
250.824	18.58987
251.044	12.61956
251.263	38.50365
251.482	22.92637
251.701	20.22411
251.921	0.46798
252.14	5.81146
252.359	7.52718
252.578	16.30259
252.798	6.03345
253.017	14.04546
253.236	7.44477
253.455	9.30442
253.674	18.47347
253.893	7.97656
254.112	12.69514
254.331	19.28114
254.551	15.75143
254.77	7.75403
254.989	23.40895
255.208	17.91789
255.427	25.65297
255.646	21.97395
255.865	34.01459
256.084	14.66835
256.303	18.95917
256.522	22.46903
256.741	5.59408
256.96	4.97752
257.179	13.928
257.397	18.31545
257.616	9.75805
257.835	10.18442
258.054	25.69681
258.273	16.91022
258.492	17.65061
258.711	10.24466
258.93	4.97107
259.148	7.60265
259.367	7.10261
259.586	9.17088
259.805	4.26154
260.023	7.6286
260.242	5.70944
260.461	4.37615
260.68	2.15143
260.898	6.47775
261.117	2.30667
261.336	1.57946
261.554	5.60923
261.773	5.52102
261.992	1.44046
262.21	5.25344
262.429	6.6379
262.648	11.09659
262.866	12.73601
263.085	9.44077
263.303	7.85128
263.522	14.03316
263.74	13.93893
263.959	23.85389
264.178	12.52612
264.396	10.84772
264.615	6.76384
264.833	17.97994
265.051	15.06695
265.27	17.6589
265.488	17.44603
265.707	10.61318
265.925	17.7815
266.144	8.19962
266.362	9.3317
266.58	9.56494
266.799	8.0015
267.017	9.71275
267.235	8.7274
267.454	6.27785
267.672	2.81785
267.89	7.07766
268.109	7.4998
268.327	7.19763
268.545	1.81378
268.763	6.75337
268.982	3.24049
269.2	7.52516
269.418	5.26656
269.636	3.84535
269.854	7.40483
270.073	5.12885
270.291	3.18714
270.509	3.08689
270.727	7.37436
270.945	11.94934
271.163	11.61553
271.381	2.85539
271.599	5.07302
271.817	7.97181
272.036	3.14918
272.254	5.49035
272.472	3.86428
272.69	4.06258
272.908	4.24929
273.126	6.34222
273.344	8.29596
273.562	3.09251
273.779	4.46356
273.997	6.76959
274.215	6.45724
274.433	4.55759
274.651	7.00444
274.869	7.32701
275.087	4.29932
275.305	6.63914
275.523	4.32234
275.74	4.76821
275.958	8.94484
276.176	12.87979
276.394	3.93011
276.612	5.24776
276.829	5.0779
277.047	4.6465
277.265	4.87409
277.483	5.79238
277.7	6.53323
277.918	5.6257
278.136	9.79843
278.353	4.82691
278.571	2.94327
278.789	7.68614
279.006	1.90036
279.224	4.91789
279.442	7.90761
279.659	5.72989
279.877	3.6341
280.094	8.3246
280.312	1.72194
280.529	5.62982
280.747	2.16655
280.964	4.97351
281.182	8.95125
281.399	4.88014
281.617	5.85402
281.834	4.27811
282.052	3.20293
282.269	5.39623
282.487	4.01437
282.704	3.77311
282.921	3.45515
283.139	5.40506
283.356	6.89446
283.574	6.50797
283.791	2.94136
284.008	8.26443
284.226	5.10896
284.443	5.58694
284.66	7.11201
284.877	5.96758
285.095	3.66421
285.312	3.04618
285.529	1.63331
285.746	1.43812
285.964	3.33988
286.181	2.24552
286.398	3.22047
286.615	4.34177
286.832	4.2017
287.05	1.0952
287.267	3.0992
287.484	3.09343
287.701	4.36886
287.918	4.11965
288.135	4.38399
288.352	1.84665
288.569	2.35307
288.786	4.25718
289.003	2.90138
289.22	5.07788
289.437	2.94058
289.654	4.66767
289.871	4.70651
290.088	4.9066
290.305	3.84895
290.522	3.181
290.739	3.41964
290.956	4.95569
291.173	5.7672
291.39	5.46432
291.607	3.79307
291.824	3.20965
292.04	2.19827
292.257	4.90665
292.474	5.31644
292.691	3.38912
292.908	1.67904
293.125	2.74752
293.341	1.8507
293.558	8.04567
293.775	3.55546
293.992	3.7594
294.208	1.39948
294.425	2.42532
294.642	3.12351
294.858	4.54354
295.075	1.39114
295.292	3.51117
295.508	4.15939
295.725	5.69486
295.942	2.91142
296.158	2.16347
296.375	3.53248
296.591	2.81432
296.808	2.70154
297.024	3.27768
297.241	3.57016
297.458	3.7863
297.674	0.48041
297.891	2.97512
298.107	2.43427
298.323	1.81584
298.54	4.31592
298.756	2.13295
298.973	1.05781
299.189	4.5929
299.406	2.15169
299.622	4.64512
299.838	4.73229
300.055	4.08955
300.271	1.11174
300.487	1.83932
300.704	2.0628
300.92	1.3495
301.136	6.25462
301.353	4.64663
301.569	3.43594
301.785	3.65765
302.001	4.18865
302.218	3.80436
302.434	3.89994
302.65	1.42058
302.866	2.53973
303.083	6.45841
303.299	6.44652
303.515	3.36534
303.731	3.67761
303.947	1.30488
304.163	2.3388
304.379	3.53667
304.595	3.94794
304.812	2.41402
305.028	1.96011
305.244	2.82928
305.46	4.39842
305.676	4.5048
305.892	5.22131
306.108	3.97628
306.324	2.98132
306.54	6.14025
306.756	4.19572
306.972	3.94576
307.187	2.91882
307.403	5.66902
307.619	2.54199
307.835	5.03198
308.051	5.23302
308.267	1.87156
308.483	4.88609
308.699	4.10445
308.914	3.26033
309.13	3.41576
309.346	0.90898
309.562	1.77156
309.778	1.05984
309.993	4.01498
310.209	3.15264
310.425	1.4188
310.641	2.80605
310.856	1.69928
311.072	1.64958
311.288	3.00455
311.503	3.2288
311.719	0.72925
311.935	0.53863
312.15	3.52975
312.366	3.28691
312.581	3.84259
312.797	3.12004
313.013	4.04806
313.228	2.40936
313.444	3.15532
313.659	1.96641
313.875	3.84238
314.09	3.18155
314.306	5.47136
314.521	4.39749
314.737	4.2667
314.952	3.64544
315.168	3.50023
315.383	3.86348
315.599	2.95126
315.814	2.95356
316.029	4.72332
316.245	1.48549
316.46	1.06783
316.675	5.22415
316.891	6.21811
317.106	7.64967
317.321	4.13402
317.537	4.07407
317.752	4.38948
317.967	4.77453
318.183	2.31434
318.398	2.83107
318.613	4.71213
318.828	5.54223
319.043	4.74147
319.259	2.99549
319.474	3.77163
319.689	5.23456
319.904	1.00989
320.119	4.75913
320.334	4.00341
320.549	2.99887
320.765	5.15111
320.98	3.88694
321.195	4.8032
321.41	3.30728
321.625	4.67284
321.84	6.21584
322.055	6.14869
322.27	2.3236
322.485	1.90208
322.7	3.89756
322.915	5.31979
323.13	2.34523
323.345	5.78028
323.56	4.33968
323.775	4.58865
323.989	4.27924
324.204	3.7049
324.419	4.76822
324.634	1.47923
324.849	3.30127
325.064	6.4136
325.279	4.97176
325.493	4.14112
325.708	4.97671
325.923	2.39906
326.138	2.444
326.352	5.8645
326.567	4.95174
326.782	2.93853
326.997	2.30057
327.211	4.30502
327.426	4.006
327.641	3.11912
327.855	1.28259
328.07	4.41846
328.285	6.14114
328.499	3.12079
328.714	3.89759
328.928	4.85847
329.143	3.69867
329.358	5.14306
329.572	5.04316
329.787	5.5622
330.001	7.67735
330.216	1.54616
330.43	6.36869
330.645	6.15089
330.859	5.06201
331.074	2.41646
331.288	3.80262
331.503	6.01598
331.717	2.15756
331.931	3.71508
332.146	3.81994
332.36	6.73573
332.575	4.35393
332.789	4.05661
333.003	3.4286
333.218	4.40631
333.432	2.60398
333.646	4.84518
333.86	6.03812
334.075	6.37293
334.289	2.95923
334.503	2.11737
334.717	4.52352
334.932	4.26126
335.146	5.12085
335.36	2.92864
335.574	4.29842
335.788	4.2822
336.003	5.16301
336.217	4.8177
336.431	4.41061
336.645	3.05989
336.859	2.12058
337.073	3.62525
337.287	4.07406
337.501	2.17142
337.715	4.1367
337.929	4.65265
338.143	1.96212
338.357	3.53397
338.571	2.50105
338.785	4.54454
338.999	2.72028
339.213	2.80568
339.427	1.67874
339.641	5.26824
339.855	3.09606
340.069	2.55822
340.283	4.99507
340.497	5.95999
340.711	4.24741
340.924	3.18928
341.138	2.33008
341.352	1.76129
341.566	3.77179
341.78	1.02724
341.993	2.70497
342.207	2.25341
342.421	3.95983
342.635	3.5799
342.848	2.6757
343.062	0.57181
343.276	2.50471
343.49	6.67
343.703	2.68659
343.917	4.64861
344.131	4.77978
344.344	2.49063
344.558	2.78496
344.771	2.22881
344.985	5.07073
345.199	5.84021
345.412	3.84528
345.626	3.98956
345.839	1.11996
346.053	1.95038
346.266	2.11735
346.48	4.34091
346.693	3.81097
346.907	3.98302
347.12	2.31547
347.334	3.68433
347.547	4.01714
347.76	3.08698
347.974	5.01025
348.187	4.03748
348.401	3.15866
348.614	2.55811
348.827	3.19353
349.041	4.21065
349.254	1.16902
349.467	3.25712
349.681	1.94696
349.894	2.58289
350.107	5.0822
350.32	6.04839
350.534	1.51821
350.747	3.18784
350.96	2.15235
351.173	2.35031
351.386	2.61751
351.6	2.8216
351.813	2.56148
352.026	3.41993
352.239	1.75859
352.452	3.04255
352.665	4.65529
352.878	3.09745
353.092	6.2888
353.305	4.39324
353.518	3.55308
353.731	2.23656
353.944	4.71573
354.157	2.62381
354.37	2.37155
354.583	1.88796
354.796	1.21591
355.009	4.87442
355.222	3.49334
355.435	3.42492
355.647	4.61599
355.86	1.92589
356.073	3.23095
356.286	2.50433
356.499	4.28274
356.712	3.84971
356.925	3.66291
357.138	4.45922
357.35	1.75104
357.563	2.64284
357.776	3.23848
357.989	2.88493
358.201	3.74175
358.414	3.46817
358.627	4.48042
358.84	2.79334
359.052	1.59141
359.265	1.82373
359.478	4.28833
359.69	-0.1551
359.903	4.10471
360.116	4.24999
360.328	1.07884
360.541	3.98297
360.753	1.81286
360.966	2.33359
361.179	2.45779
361.391	2.31492
361.604	1.73438
361.816	2.26406
362.029	2.10821
362.241	1.76698
362.454	2.19887
362.666	1.82037
362.879	2.84305
363.091	2.40354
363.304	1.90616
363.516	2.70353
363.728	1.37928
363.941	3.31361
364.153	2.34264
364.366	0.29967
364.578	1.58267
364.79	3.57433
365.003	2.81616
365.215	2.39983
365.427	3.46922
365.639	4.30167
365.852	3.24033
366.064	5.02564
366.276	2.19133
366.488	3.37792
366.701	2.49117
366.913	2.74615
367.125	2.69306
367.337	2.02973
367.549	2.29434
367.762	2.95268
367.974	2.90459
368.186	2.20155
368.398	4.18051
368.61	3.7281
368.822	3.8995
369.034	2.90305
369.246	3.79654
369.458	5.89912
369.67	1.7863
369.882	5.30599
370.094	0.55074
370.306	4.87356
370.518	2.54496
370.73	2.19581
370.942	2.08041
371.154	2.68206
371.366	2.46519
371.578	3.40265
371.79	2.13336
372.002	4.42556
372.214	5.04614
372.425	3.05912
372.637	4.53123
372.849	3.43589
373.061	0.36267
373.273	3.49062
373.484	3.6245
373.696	3.94392
373.908	0.26544
374.12	4.34506
374.331	3.40303
374.543	2.07326
374.755	1.92789
374.967	3.18499
375.178	3.96612
375.39	2.77218
375.602	3.08571
375.813	1.30133
376.025	1.50826
376.236	2.78318
376.448	3.14026
376.66	2.42452
376.871	2.28511
377.083	3.96496
377.294	4.22906
377.506	2.43999
377.717	4.30946
377.929	3.08688
378.14	1.97755
378.352	3.53267
378.563	3.4774
378.775	4.4326
378.986	1.99988
379.197	2.94594
379.409	2.23127
379.62	3.80181
379.832	3.21447
380.043	2.72498
380.254	3.2613
380.466	1.45318
380.677	6.16277
380.888	5.54528
381.1	5.90524
381.311	5.83889
381.522	2.96473
381.733	6.60686
381.945	2.76117
382.156	3.09218
382.367	2.26483
382.578	6.241
382.789	6.15087
383.001	2.35179
383.212	4.75252
383.423	4.86315
383.634	4.44964
383.845	3.66578
384.056	2.60564
384.267	2.9856
384.478	2.93062
384.69	1.73562
384.901	3.79116
385.112	3.5501
385.323	4.94161
385.534	3.53358
385.745	3.28385
385.956	3.69671
386.167	1.90529
386.378	3.80091
386.588	1.63142
386.799	2.18662
387.01	1.28416
387.221	4.06368
387.432	2.9266
387.643	5.32777
387.854	2.70282
388.065	2.70568
388.275	2.84268
388.486	2.662
388.697	2.88791
388.908	2.72056
389.119	4.49151
389.329	5.07132
389.54	3.12262
389.751	3.57642
389.962	4.6259
390.172	3.40542
390.383	2.55854
390.594	2.35656
390.804	2.4164
391.015	2.45714
391.226	3.13752
391.436	3.72265
391.647	3.40476
391.858	3.82074
392.068	1.12609
392.279	1.6698
392.489	3.05866
392.7	4.1916
392.91	1.79535
393.121	2.24769
393.331	3.54832
393.542	4.44773
393.752	3.38274
393.963	3.26335
394.173	3.0339
394.384	3.83239
394.594	3.01635
394.804	1.88807
395.015	3.23006
395.225	3.80253
395.436	1.80585
395.646	3.65147
395.856	2.30519
396.067	1.66945
396.277	4.25361
396.487	3.59767
396.697	3.14977
396.908	3.99392
397.118	3.93545
397.328	3.4781
397.538	4.28431
397.749	2.48166
397.959	4.20312
398.169	3.91341
398.379	1.62268
398.589	4.16938
398.8	3.32268
399.01	3.12845
399.22	2.81293
399.43	5.73307
399.64	2.86072
399.85	3.94534
400.06	3.06445
400.27	2.47985
400.48	3.30672
400.69	4.89028
400.9	2.65548
401.11	2.36659
401.32	4.1858
401.53	2.65371
401.74	5.12889
401.95	4.10106
402.16	2.16765
402.37	3.988
402.58	2.58179
402.79	4.08048
403	4.48123
403.209	2.60863
403.419	4.21455
403.629	2.73114
403.839	4.17222
404.049	4.06538
404.258	2.28316
404.468	2.13193
404.678	3.81948
404.888	3.94717
405.097	2.25571
405.307	3.05006
405.517	3.71483
405.727	3.46205
405.936	2.78034
406.146	3.30745
406.356	4.60833
406.565	3.22424
406.775	2.63109
406.984	2.79509
407.194	5.10836
407.404	3.43651
407.613	3.67927
407.823	4.31703
408.032	4.56467
408.242	4.44462
408.451	2.75736
408.661	3.13075
408.87	5.31307
409.08	2.76072
409.289	3.85517
409.499	3.52352
409.708	3.58083
409.918	1.34559
410.127	3.39979
410.336	5.1096
410.546	3.93268
410.755	3.07456
410.964	2.81301
411.174	2.68111
411.383	3.95754
411.592	3.90538
411.802	2.31616
412.011	4.50357
412.22	3.44368
412.429	4.97514
412.639	4.82017
412.848	4.94429
413.057	5.38053
413.266	4.83306
413.475	3.43871
413.685	4.35964
413.894	4.46677
414.103	4.77862
414.312	4.3875
414.521	3.48144
414.73	3.80591
414.939	5.52049
415.148	4.24594
415.357	3.84833
415.566	3.10751
415.776	3.22711
415.985	2.89463
416.194	4.1593
416.403	5.06969
416.611	2.17649
416.82	2.79422
417.029	3.27346
417.238	2.66236
417.447	2.45492
417.656	2.70975
417.865	2.49939
418.074	2.74643
418.283	3.00876
418.492	3.76231
418.7	3.66439
418.909	4.40247
419.118	3.17559
419.327	3.34124
419.536	3.09835
419.744	2.5052
419.953	3.79648
420.162	3.71727
420.371	2.32943
420.579	2.17539
420.788	3.28784
420.997	3.22184
421.205	3.23765
421.414	2.83069
421.623	2.82008
421.831	2.38908
422.04	3.28433
422.249	2.40264
422.457	3.16443
422.666	2.48825
422.874	3.65243
423.083	3.59865
423.291	3.45562
423.5	3.04376
423.708	3.2008
423.917	3.639
424.125	3.02846
424.334	2.66183
424.542	4.63471
424.751	3.75654
424.959	3.61374
425.167	4.00815
425.376	3.85482
425.584	3.28674
425.793	3.66633
426.001	2.65666
426.209	3.97397
426.418	2.75861
426.626	3.02393
426.834	2.76932
427.042	3.4705
427.251	3.02271
427.459	4.36827
427.667	3.78609
427.875	2.60932
428.084	3.13287
428.292	4.8423
428.5	3.91791
428.708	2.7235
428.916	2.75139
429.124	3.71736
429.333	3.34114
429.541	3.44175
429.749	3.62098
429.957	3.53381
430.165	5.66142
430.373	2.55593
430.581	3.87558
430.789	4.86338
430.997	3.05604
431.205	3.1087
431.413	3.72816
431.621	3.26038
431.829	4.18444
432.037	3.26887
432.245	4.08353
432.453	3.82107
432.661	3.26999
432.869	5.29886
433.076	2.66366
433.284	3.36852
433.492	3.96074
433.7	4.57117
433.908	3.03103
434.116	3.59352
434.323	3.64515
434.531	3.49725
434.739	3.93497
434.947	4.30968
435.154	4.19906
435.362	3.86283
435.57	3.5058
435.778	3.34973
435.985	4.05226
436.193	3.39216
436.401	4.87715
436.608	3.79908
436.816	3.31337
437.023	5.21548
437.231	5.35357
437.439	3.89351
437.646	4.21137
437.854	4.08913
438.061	4.31807
438.269	3.52225
438.476	4.28359
438.684	3.82447
438.891	3.31321
439.099	3.03048
439.306	2.37932
439.514	2.8156
439.721	3.93262
439.929	3.07976
440.136	3.96943
440.343	3.81628
440.551	3.24708
440.758	4.98314
440.965	4.04234
441.173	3.66539
441.38	3.01746
441.587	3.88796
441.795	3.14215
442.002	3.89118
442.209	3.86945
442.416	4.36456
442.624	4.22381
442.831	4.22758
443.038	3.32522
443.245	3.05143
443.452	3.47509
443.66	4.65458
443.867	3.14697
444.074	3.47836
444.281	3.28196
444.488	3.62279
444.695	3.64723
444.902	3.29658
445.109	4.08212
445.316	3.33635
445.523	3.25311
445.73	2.84009
445.937	3.61231
446.144	3.93718
446.351	3.7705
446.558	2.90667
446.765	4.11756
446.972	4.27635
447.179	3.37908
447.386	4.60537
447.593	3.33558
447.8	4.54694
448.007	3.47364
448.214	3.74425
448.42	3.27139
448.627	4.75835
448.834	3.67345
449.041	3.57142
449.248	3.62826
449.454	4.72367
449.661	5.81164
449.868	3.75472
450.075	3.55405
450.281	2.187
450.488	3.0163
450.695	3.50984
450.901	3.17704
451.108	3.84513
451.315	4.95332
451.521	3.84421
451.728	4.86075
451.935	3.45838
452.141	3.90833
452.348	3.98377
452.554	3.7727
452.761	3.62337
452.967	5.38126
453.174	4.19774
453.38	4.21389
453.587	2.94302
453.793	4.04027
454	4.88544
454.206	5.88835
454.413	5.29376
454.619	4.45514
454.825	3.37233
455.032	4.64705
455.238	4.99421
455.445	2.96358
455.651	4.30342
455.857	2.51551
456.064	3.89171
456.27	3.98228
456.476	4.11249
456.682	2.92335
456.889	4.5286
457.095	4.71385
457.301	6.27407
457.507	4.20268
457.714	4.38568
457.92	3.79692
458.126	3.4691
458.332	3.76295
458.538	3.50664
458.744	3.49302
458.951	3.52534
459.157	5.06096
459.363	3.88536
459.569	3.54893
459.775	4.38701
459.981	3.10036
460.187	3.65721
460.393	4.20519
460.599	4.78496
460.805	3.91162
461.011	3.94968
461.217	4.90389
461.423	5.05455
461.629	3.87339
461.835	4.79595
462.041	3.94247
462.247	5.67776
462.453	4.10438
462.658	4.26684
462.864	5.01728
463.07	4.60515
463.276	4.57171
463.482	4.85599
463.688	5.53807
463.893	4.06453
464.099	4.11089
464.305	5.94857
464.511	3.92938
464.716	4.44474
464.922	5.06346
465.128	3.79392
465.333	6.18759
465.539	4.84362
465.745	4.07562
465.95	4.782
466.156	7.03654
466.362	5.52949
466.567	4.33878
466.773	4.05667
466.978	5.90848
467.184	3.74752
467.389	2.53255
467.595	5.05188
467.8	3.65469
468.006	5.77559
468.211	5.40019
468.417	3.66802
468.622	5.09925
468.828	5.23187
469.033	4.77602
469.239	7.29928
469.444	4.12483
469.649	5.64423
469.855	4.48247
470.06	4.83247
470.266	3.7246
470.471	5.30077
470.676	4.8764
470.881	3.26388
471.087	5.79304
471.292	6.22894
471.497	3.54797
471.703	4.34094
471.908	4.09053
472.113	4.84539
472.318	5.54663
472.523	3.74032
472.729	5.10039
472.934	5.14873
473.139	4.27459
473.344	5.26751
473.549	5.76903
473.754	4.01906
473.959	6.46165
474.164	3.9571
474.369	4.68474
474.575	5.57827
474.78	4.8487
474.985	4.26355
475.19	3.1781
475.395	4.0512
475.6	4.57167
475.804	6.00241
476.009	4.64169
476.214	4.8725
476.419	4.26645
476.624	3.07367
476.829	3.94971
477.034	5.10559
477.239	3.77258
477.444	4.7327
477.648	5.01039
477.853	5.12823
478.058	4.20057
478.263	3.96611
478.468	3.4711
478.672	3.65448
478.877	5.5412
479.082	6.18846
479.287	4.8029
479.491	4.63252
479.696	3.53698
479.901	5.41285
480.105	5.08547
480.31	3.99848
480.515	4.30658
480.719	6.41876
480.924	3.86702
481.128	3.47686
481.333	4.39698
481.538	4.562
481.742	3.92304
481.947	4.41839
482.151	4.49479
482.356	3.96003
482.56	4.65952
482.765	4.85638
482.969	5.98254
483.174	6.83997
483.378	8.12099
483.582	7.79565
483.787	8.72892
483.991	8.62481
484.196	8.764
484.4	8.49169
484.604	8.81036
484.809	7.60727
485.013	7.41692
485.217	6.67522
485.422	5.80274
485.626	5.38179
485.83	5.06527
486.034	4.9472
486.239	5.16499
486.443	5.20378
486.647	5.12341
486.851	5.88193
487.055	6.4482
487.26	5.89481
487.464	6.41011
487.668	5.89693
487.872	5.81563
488.076	6.39481
488.28	5.99081
488.484	5.47808
488.688	5.45267
488.892	5.51363
489.096	5.15345
489.3	4.44204
489.504	4.36142
489.708	4.86218
489.912	4.89957
490.116	4.82165
490.32	3.94714
490.524	4.62013
490.728	4.74406
490.932	4.72639
491.136	4.68506
491.34	5.75986
491.544	5.87181
491.748	5.4373
491.951	5.50435
492.155	5.19192
492.359	5.31271
492.563	4.35871
492.767	4.17167
492.97	4.2365
493.174	4.01546
493.378	4.31176
493.582	3.96685
493.785	4.76502
493.989	4.76458
494.193	4.93408
494.396	4.56139
494.6	5.53007
494.804	4.79456
495.007	4.37684
495.211	4.12791
495.414	4.71196
495.618	4.83818
495.822	5.70271
496.025	4.73701
496.229	5.35706
496.432	3.9807
496.636	4.71523
496.839	4.44431
497.043	5.89658
497.246	4.90913
497.45	4.32807
497.653	4.43703
497.856	4.91529
498.06	3.69446
498.263	4.46491
498.467	4.07614
498.67	5.4979
498.873	5.10126
499.077	4.42276
499.28	4.45027
499.483	5.11353
499.686	5.41297
499.89	5.13718
500.093	5.48528
500.296	4.18105
500.499	6.14405
500.703	4.9853
500.906	4.95611
501.109	6.66414
501.312	4.88185
501.515	4.84011
501.719	5.37418
501.922	6.27968
502.125	5.31202
502.328	4.86708
502.531	3.94019
502.734	5.08778
502.937	3.33424
503.14	5.00502
503.343	4.01297
503.546	4.69281
503.749	4.3832
503.952	5.47889
504.155	4.04106
504.358	5.4533
504.561	4.93481
504.764	3.89237
504.967	4.86847
505.17	5.03739
505.373	6.2883
505.576	5.0207
505.778	5.53533
505.981	4.663
506.184	6.116
506.387	3.6892
506.59	6.58063
506.793	6.11197
506.995	5.50676
507.198	3.45255
507.401	5.14631
507.604	5.44803
507.806	4.17864
508.009	4.33599
508.212	5.36775
508.414	4.37124
508.617	4.33714
508.82	4.81531
509.022	5.85245
509.225	5.09691
509.427	3.54333
509.63	6.01207
509.833	4.78963
510.035	4.7364
510.238	3.69139
510.44	5.89656
510.643	3.14373
510.845	6.85909
511.048	5.38111
511.25	4.55115
511.453	4.8858
511.655	5.34995
511.858	4.58351
512.06	5.6412
512.262	4.91217
512.465	5.69553
512.667	4.48237
512.869	4.12232
513.072	5.19254
513.274	5.80463
513.476	5.47548
513.679	5.81808
513.881	4.10039
514.083	6.56486
514.286	4.49636
514.488	4.65565
514.69	4.16238
514.892	3.98248
515.094	5.6329
515.297	4.62056
515.499	5.33511
515.701	4.48342
515.903	6.60572
516.105	6.53679
516.307	5.88107
516.509	3.42695
516.711	4.00958
516.913	5.17968
517.116	4.94246
517.318	4.57555
517.52	5.91207
517.722	5.47625
517.924	3.87063
518.126	5.23686
518.328	4.20654
518.529	5.07003
518.731	6.0307
518.933	4.28021
519.135	4.72501
519.337	5.68227
519.539	5.07991
519.741	3.51184
519.943	4.70793
520.145	4.70246
520.346	5.40338
520.548	4.66822
520.75	5.3328
520.952	4.73819
521.153	5.15368
521.355	5.55649
521.557	4.17784
521.759	5.43751
521.96	5.25737
522.162	4.36769
522.364	6.14368
522.565	4.52197
522.767	5.83661
522.969	6.34072
523.17	5.63016
523.372	5.71049
523.573	4.55675
523.775	5.04969
523.977	4.26269
524.178	6.52323
524.38	4.49533
524.581	5.71893
524.783	4.85435
524.984	5.42085
525.186	4.85528
525.387	5.43565
525.589	4.88033
525.79	4.62225
525.991	4.27067
526.193	5.06968
526.394	3.77221
526.596	4.99316
526.797	4.83947
526.998	4.47957
527.2	3.82776
527.401	5.17091
527.602	5.11327
527.803	6.63595
528.005	6.49543
528.206	7.08161
528.407	7.55934
528.608	7.20263
528.81	7.3666
529.011	6.70406
529.212	7.67861
529.413	6.87546
529.614	6.38032
529.815	6.2656
530.017	5.7395
530.218	5.14442
530.419	4.77995
530.62	5.20987
530.821	5.38466
531.022	4.30469
531.223	5.69865
531.424	5.53562
531.625	5.34447
531.826	5.20066
532.027	5.14558
532.228	6.01767
532.429	5.13049
532.63	4.81285
532.831	5.13338
533.032	5.12541
533.233	5.62238
533.433	5.37695
533.634	5.56174
533.835	4.92037
534.036	4.59692
534.237	4.94776
534.438	4.76431
534.638	4.40816
534.839	4.69354
535.04	5.56136
535.241	4.93397
535.441	6.45775
535.642	5.54803
535.843	4.48078
536.043	4.47024
536.244	4.61822
536.445	4.59381
536.645	5.73539
536.846	5.10469
537.047	5.98746
537.247	4.53241
537.448	4.88121
537.648	5.10105
537.849	5.16513
538.049	5.19128
538.25	5.97162
538.451	5.61161
538.651	4.77002
538.851	5.78891
539.052	6.59496
539.252	6.17396
539.453	5.39706
539.653	5.48152
539.854	5.38618
540.054	5.24117
540.254	5.90587
540.455	5.8148
540.655	4.81401
540.855	5.48387
541.056	6.02969
541.256	5.53461
541.456	6.48821
541.657	5.62034
541.857	6.53445
542.057	5.10079
542.257	4.90771
542.458	5.58768
542.658	5.80706
542.858	4.61913
543.058	6.16171
543.258	5.74566
543.458	4.50634
543.659	4.35818
543.859	5.90936
544.059	5.91914
544.259	5.27231
544.459	6.08575
544.659	4.98103
544.859	5.97089
545.059	5.13849
545.259	5.95279
545.459	5.64285
545.659	6.26727
545.859	5.57273
546.059	5.80867
546.259	4.82292
546.459	4.22683
546.659	4.57078
546.859	5.88838
547.059	5.67305
547.258	5.92189
547.458	5.84539
547.658	4.55456
547.858	4.63324
548.058	5.88992
548.258	5.55279
548.457	4.81906
548.657	8.31201
548.857	5.62462
549.057	6.80854
549.256	6.50373
549.456	5.86502
549.656	4.14209
549.855	7.96134
550.055	5.87488
550.255	8.18261
550.454	6.79267
550.654	7.33197
550.853	7.68613
551.053	7.30236
551.253	6.55859
551.452	6.61625
551.652	4.89532
551.851	4.31546
552.051	5.82635
552.25	5.57064
552.45	5.29843
552.649	5.72039
552.849	4.98793
553.048	5.98093
553.248	6.60976
553.447	5.13748
553.646	7.0591
553.846	7.58104
554.045	7.32048
554.244	5.0857
554.444	8.14387
554.643	5.42361
554.842	7.97532
555.042	8.78759
555.241	5.62647
555.44	5.40859
555.64	6.59955
555.839	8.61538
556.038	7.07251
556.237	5.8958
556.436	6.18323
556.636	6.84834
556.835	5.36492
557.034	8.30346
557.233	6.36149
557.432	5.17422
557.631	7.8736
557.83	6.04912
558.029	5.77103
558.228	6.14992
558.427	5.49691
558.626	7.07698
558.825	5.63271
559.024	6.76995
559.223	8.59824
559.422	6.42563
559.621	7.11876
559.82	3.82563
560.019	6.60341
560.218	6.2264
560.417	3.47308
560.616	6.15049
560.815	10.37494
561.014	4.7283
561.212	7.77295
561.411	6.59275
561.61	4.64345
561.809	6.31486
562.008	8.35378
562.206	6.50377
562.405	7.24676
562.604	6.23267
562.803	6.60181
563.001	6.37462
563.2	4.84803
563.399	7.13506
563.597	5.28238
563.796	6.67828
563.995	5.04885
564.193	7.29672
564.392	5.75207
564.59	9.20681
564.789	4.28013
564.988	5.99093
565.186	6.45863
565.385	6.14129
565.583	5.57136
565.782	5.86631
565.98	5.55848
566.179	6.02173
566.377	4.62094
566.575	5.15913
566.774	7.35203
566.972	6.9691
567.171	8.42294
567.369	7.57026
567.567	6.26589
567.766	6.65824
567.964	3.88867
568.162	7.10398
568.361	7.56849
568.559	6.48521
568.757	6.65624
568.956	6.63542
569.154	6.21496
569.352	7.54708
569.55	6.14016
569.748	6.35116
569.947	5.48281
570.145	5.51816
570.343	4.99653
570.541	7.65375
570.739	4.64703
570.937	6.34776
571.135	6.76269
571.333	8.1572
571.532	7.82707
571.73	6.37585
571.928	7.29724
572.126	6.52291
572.324	5.63893
572.522	7.55101
572.72	9.11844
572.918	6.16257
573.116	6.47267
573.313	6.1632
573.511	5.94304
573.709	5.93076
573.907	6.92234
574.105	5.75568
574.303	4.39265
574.501	4.50493
574.699	6.60108
574.896	6.57481
575.094	6.99345
575.292	4.75831
575.49	7.19839
575.688	5.93421
575.885	7.93278
576.083	8.41547
576.281	6.83788
576.478	5.81123
576.676	6.96393
576.874	5.1224
577.071	6.35795
577.269	9.55178
577.467	6.65009
577.664	6.92389
577.862	7.80552
578.059	5.76265
578.257	8.08005
578.455	6.49637
578.652	6.73497
578.85	4.49654
579.047	6.97849
579.245	6.92937
579.442	6.89252
579.64	7.06544
579.837	4.43257
580.034	10.02808
580.232	6.61041
580.429	5.76495
580.627	7.90908
580.824	8.93157
581.021	7.8468
581.219	6.81045
581.416	5.84786
581.613	9.06184
581.811	8.9539
582.008	5.98649
582.205	8.49164
582.402	7.34051
582.6	10.20851
582.797	7.51502
582.994	7.99959
583.191	8.28573
583.388	7.41437
583.586	8.43505
583.783	8.98507
583.98	6.06334
584.177	7.90368
584.374	3.40756
584.571	7.27068
584.768	7.05294
584.965	7.17869
585.162	8.40674
585.359	9.87376
585.556	7.33625
585.753	8.05363
585.95	5.6872
586.147	6.23113
586.344	8.21972
586.541	6.88421
586.738	5.79308
586.935	7.35628
587.132	6.35808
587.329	9.19819
587.526	7.39646
587.722	14.77628
587.919	5.15122
588.116	7.86726
588.313	9.55704
588.51	10.66504
588.706	7.08832
588.903	7.97814
589.1	8.80301
589.297	11.65905
589.493	7.24272
589.69	8.31942
589.887	6.6564
590.083	5.57976
590.28	6.17495
590.477	8.81103
590.673	8.58035
590.87	9.25664
591.067	6.83335
591.263	8.15796
591.46	8.17008
591.656	7.48796
591.853	9.79128
592.049	6.27178
592.246	6.75363
592.442	9.56821
592.639	8.95479
592.835	5.66452
593.032	8.36489
593.228	5.34172
593.425	5.22875
593.621	5.17266
593.817	7.70253
594.014	6.30931
594.21	7.36474
594.406	8.82884
594.603	8.10756
594.799	6.75701
594.995	3.78374
595.192	8.97443
595.388	6.3649
595.584	6.42798
595.78	4.90326
595.977	9.91013
596.173	9.55817
596.369	6.64924
596.565	5.51637
596.761	4.69906
596.957	8.5821
597.154	5.48509
597.35	5.92049
597.546	5.51096
597.742	7.32942
597.938	7.14676
598.134	5.54887
598.33	7.19688
598.526	9.51733
598.722	8.1275
598.918	10.32147
599.114	8.55969
599.31	6.31126
599.506	8.08424
599.702	6.68111
599.898	8.47121
600.094	9.51531
600.29	9.33406
600.485	9.15982
600.681	7.07158
600.877	10.65834
601.073	8.30679
601.269	11.07435
601.465	10.0643
601.66	6.64881
601.856	4.795
602.052	10.06077
602.248	6.98675
602.443	4.21449
602.639	5.41618
602.835	5.72944
603.03	6.03288
603.226	8.42338
603.422	5.56719
603.617	6.46524
603.813	6.05381
604.009	5.78417
604.204	8.1321
604.4	4.04845
604.595	7.87601
604.791	5.11067
604.986	6.87874
605.182	5.48896
605.377	5.89299
605.573	5.89219
605.768	6.7286
605.964	7.64295
606.159	8.16878
606.355	9.31603
606.55	6.74182
606.746	8.97371
606.941	7.54762
607.136	10.81451
607.332	12.4853
607.527	5.79114
607.722	8.13034
607.918	7.6218
608.113	6.12532
608.308	8.55415
608.503	8.42735
608.699	7.99511
608.894	7.94095
609.089	5.76596
609.284	7.22847
609.479	6.14618
609.675	7.95268
609.87	6.35311
610.065	7.84238
610.26	8.56828
610.455	8.41324
610.65	6.86488
610.845	8.04195
611.04	8.91875
611.235	7.3746
611.43	6.96532
611.625	5.59026
611.82	10.33639
612.015	6.3195
612.21	10.6057
612.405	5.30491
612.6	11.5766
612.795	10.52042
612.99	9.57663
613.185	6.2955
613.38	6.74658
613.575	8.90699
613.77	13.52249
613.965	5.55646
614.159	6.95601
614.354	10.95858
614.549	10.40443
614.744	9.86743
614.938	6.65751
615.133	5.93341
615.328	11.0516
615.523	11.04309
615.717	14.21861
615.912	7.57757
616.107	8.90167
616.301	7.93987
616.496	7.26224
616.691	12.39005
616.885	9.78474
617.08	13.24754
617.274	11.2598
617.469	13.41663
617.664	10.1412
617.858	7.46714
618.053	9.19731
618.247	8.07028
618.442	4.63587
618.636	11.60805
618.831	7.61949
619.025	7.8887
619.219	14.39195
619.414	2.48098
619.608	9.06551
619.803	7.1094
619.997	13.09662
620.191	11.62073
620.386	10.19706
620.58	9.36477
620.774	5.39469
620.969	5.87572
621.163	9.48623
621.357	5.97821
621.551	8.33213
621.746	9.42241
621.94	8.90546
622.134	16.45247
622.328	13.14603
622.522	6.04418
622.716	11.50625
622.911	10.93462
623.105	11.08638
623.299	9.80369
623.493	16.25441
623.687	7.50948
623.881	8.53789
624.075	10.72934
624.269	11.44131
624.463	5.22829
624.657	6.01513
624.851	10.34655
625.045	11.01189
625.239	10.96096
625.433	7.29048
625.627	11.96662
625.821	7.47264
626.015	7.25849
626.209	8.72428
626.403	5.56539
626.596	9.18371
626.79	9.78338
626.984	5.74634
627.178	9.20356
627.372	9.29016
627.565	9.85456
627.759	5.26078
627.953	5.83642
628.147	9.26839
628.34	9.73267
628.534	13.04177
628.728	7.95846
628.921	11.0923
629.115	10.56097
629.309	11.11962
629.502	11.34137
629.696	9.80786
629.89	9.03616
630.083	9.51384
630.277	10.28949
630.47	13.56228
630.664	8.75634
630.857	6.54033
631.051	10.85864
631.244	12.33259
631.438	11.4976
631.631	7.48263
631.825	12.48267
632.018	11.16477
632.212	14.16348
632.405	12.29131
632.598	8.49303
632.792	10.19328
632.985	4.77932
633.178	8.64244
633.372	9.53734
633.565	9.46228
633.758	12.7543
633.952	7.7145
634.145	7.81331
634.338	9.37594
634.531	8.52927
634.724	7.93502
634.918	10.21005
635.111	9.06574
635.304	8.20166
635.497	14.77045
635.69	10.61096
635.883	12.73153
636.077	6.86701
636.27	10.84484
636.463	10.13334
636.656	11.36346
636.849	8.84221
637.042	10.67966
637.235	13.94033
637.428	12.27993
637.621	11.41297
637.814	13.85914
638.007	14.15896
638.2	14.66367
638.393	15.48938
638.586	7.32953
638.778	9.47642
638.971	10.89776
639.164	15.4546
639.357	12.11857
639.55	14.09442
639.743	12.93699
639.935	13.25582
640.128	16.26538
640.321	12.72654
640.514	11.70788
640.707	18.14502
640.899	13.1061
641.092	7.07441
641.285	31.13374
641.477	5.54492
641.67	17.82465
641.863	14.70023
642.055	12.2877
642.248	12.05226
642.441	10.74428
642.633	13.07467
642.826	16.38146
643.018	15.37
643.211	16.92413
643.403	16.14054
643.596	18.28103
643.788	17.55118
643.981	10.87681
644.173	14.49962
644.366	11.39262
644.558	7.09741
644.751	14.62113
644.943	8.1599
645.135	17.32369
645.328	17.5069
645.52	14.63915
645.712	14.98251
645.905	22.2686
646.097	9.30536
646.289	13.49098
646.482	17.77216
646.674	10.43119
646.866	15.82801
647.058	14.3493
647.251	9.24227
647.443	10.74903
647.635	12.20234
647.827	9.30824
648.019	9.33856
648.211	12.91596
648.404	12.62769
648.596	17.21317
648.788	13.60388
648.98	13.66352
649.172	13.88943
649.364	13.47004
649.556	7.0534
649.748	20.01357
649.94	9.45794
650.132	14.14127
650.324	9.83993
650.516	10.52001
650.708	16.24988
650.9	8.38005
651.092	7.56251
651.284	7.75646
651.476	8.98929
651.667	14.11412
651.859	15.88501
652.051	12.46606
652.243	12.83095
652.435	10.55886
652.627	13.56488
652.818	13.61534
653.01	7.68038
653.202	10.08271
653.394	11.62169
653.585	14.21035
653.777	27.71572
653.969	17.15523
654.16	16.97444
654.352	9.86525
654.544	13.16387
654.735	16.76864
654.927	13.31795
655.118	18.04872
655.31	16.46059
655.502	16.25754
655.693	11.47405
655.885	15.24665
656.076	18.32541
656.268	13.17241
656.459	17.66567
656.651	17.88266
656.842	11.08197
657.034	10.64394
657.225	15.6424
657.416	17.73045
657.608	17.68694
657.799	12.1292
657.99	15.88572
658.182	9.82163
658.373	10.59005
658.564	14.53594
658.756	12.14841
658.947	11.57436
659.138	8.7899
659.33	9.96636
659.521	9.27673
659.712	11.11913
659.903	11.05255
660.094	9.72701
660.286	7.0028
660.477	17.83404
660.668	14.21639
660.859	12.81956
661.05	8.33224
661.241	14.66538
661.432	14.95494
661.623	12.16018
661.814	11.15939
662.006	7.5634
662.197	15.27778
662.388	17.39448
662.579	14.68826
662.77	18.6818
662.96	23.87301
663.151	17.401
663.342	7.81438
663.533	15.69882
663.724	13.60409
663.915	19.99883
664.106	14.5136
664.297	21.54085
664.488	17.05947
664.678	13.23432
664.869	17.01098
665.06	18.13424
665.251	16.6327
665.442	17.03225
665.632	11.72419
665.823	21.96104
666.014	4.78098
666.204	16.8541
666.395	20.31308
666.586	25.67485
666.776	18.69247
666.967	21.76272
667.158	15.21192
667.348	21.35061
667.539	11.19446
667.729	18.33539
667.92	12.27806
668.111	19.20435
668.301	17.24259
668.492	13.87732
668.682	14.50234
668.873	13.87649
669.063	10.43074
669.253	15.06218
669.444	17.91864
669.634	14.63286
669.825	21.92056
670.015	18.85767
670.206	12.46426
670.396	23.82159
670.586	14.60101
670.777	17.56324
670.967	7.46803
671.157	15.27157
671.347	13.15116
671.538	21.94393
671.728	17.42156
671.918	23.07268
672.108	20.28275
672.299	15.89158
672.489	17.24366
672.679	13.84499
672.869	19.09089
673.059	23.33677
673.249	17.86704
673.44	12.72451
673.63	15.39505
673.82	19.77669
674.01	12.83697
674.2	17.86574
674.39	28.22664
674.58	18.3854
674.77	17.44926
674.96	16.51164
675.15	34.45964
675.34	21.35637
675.53	16.687
675.72	14.93702
675.91	10.9477
676.099	24.46749
676.289	25.67591
676.479	20.87684
676.669	15.43909
676.859	19.5372
677.049	12.50681
677.238	16.9269
677.428	24.19241
677.618	18.14394
677.808	20.41222
677.997	18.80872
678.187	11.12537
678.377	15.8235
678.567	14.29292
678.756	14.59482
678.946	14.73122
679.136	10.49638
679.325	11.86845
679.515	11.98768
679.704	9.79082
679.894	16.90073
680.084	15.4188
680.273	19.96859
680.463	11.33194
680.652	11.20195
680.842	14.36609
681.031	18.26365
681.221	11.52718
681.41	16.88305
681.6	14.55637
681.789	18.20187
681.978	21.2075
682.168	16.90327
682.357	17.68541
682.547	19.16987
682.736	16.37884
682.925	21.73978
683.115	21.33869
683.304	20.4347
683.493	18.6134
683.682	19.69334
683.872	18.35274
684.061	22.85942
684.25	21.44081
684.439	26.70444
684.629	20.30393
684.818	33.76871
685.007	17.03299
685.196	16.61033
685.385	25.25227
685.574	20.47083
685.763	20.17377
685.952	19.14629
686.142	13.43907
686.331	25.406
686.52	9.93833
686.709	25.5393
686.898	26.07297
687.087	21.16736
687.276	26.45154
687.465	23.12935
687.654	17.23276
687.842	26.5119
688.031	12.18105
688.22	24.24524
688.409	19.86052
688.598	20.11536
688.787	30.67459
688.976	19.44046
689.165	27.77884
689.353	16.97974
689.542	21.822
689.731	22.48427
689.92	28.96972
690.108	25.00971
690.297	16.9493
690.486	20.23784
690.675	23.45431
690.863	28.44401
691.052	28.80542
691.241	22.54349
691.429	21.55395
691.618	28.00628
691.806	14.84419
691.995	19.2158
692.184	20.97456
692.372	18.08081
692.561	20.88201
692.749	20.90165
692.938	33.37638
693.126	24.8473
693.315	19.03833
693.503	24.26123
693.692	24.80966
693.88	27.06074
694.068	33.80162
694.257	20.22736
694.445	23.65532
694.634	11.5778
694.822	28.00542
695.01	28.49794
695.199	29.16311
695.387	31.13843
695.575	28.88344
695.763	22.31599
695.952	20.86378
696.14	13.258
696.328	18.24144
696.516	22.32307
696.705	22.94255
696.893	22.67956
697.081	11.99507
697.269	24.33361
697.457	14.7884
697.645	13.31223
697.833	23.87004
698.021	14.85017
698.21	15.81179
698.398	17.31661
698.586	12.61982
698.774	11.29832
698.962	15.7895
699.15	12.25362
699.338	10.47618
699.526	18.73339
699.714	13.96351
699.901	14.27728
700.089	22.6453
700.277	14.68197
700.465	17.58001
700.653	23.48762
700.841	22.18851
701.029	15.92369
701.217	26.28629
701.404	21.55134
701.592	28.58993
701.78	32.57652
701.968	18.71633
702.155	20.31598
702.343	15.43826
702.531	29.94163
702.718	25.22013
702.906	21.56993
703.094	18.90305
703.281	30.55061
703.469	21.7702
703.657	30.33378
703.844	44.64078
704.032	33.72521
704.219	19.93682
704.407	26.20395
704.595	31.83378
704.782	25.28871
704.97	21.41361
705.157	21.46658
705.345	35.40619
705.532	40.57438
705.719	26.45101
705.907	33.94446
706.094	25.65717
706.282	36.32461
706.469	22.30232
706.656	25.43057
706.844	25.01774
707.031	30.85613
707.218	26.24334
707.406	35.83952
707.593	29.88148
707.78	29.43337
707.968	25.31832
708.155	19.52347
708.342	29.99496
708.529	29.7623
708.716	26.53905
708.904	37.58773
709.091	30.0505
709.278	17.98711
709.465	37.70428
709.652	38.11802
709.839	34.58119
710.026	28.62447
710.213	15.81079
710.4	28.35149
710.587	31.90703
710.774	34.65704
710.961	32.89417
711.148	26.72379
711.335	34.91455
711.522	25.36438
711.709	28.13675
711.896	42.0938
712.083	34.13388
712.27	20.20228
712.457	28.46011
712.644	17.49345
712.831	41.88111
713.017	27.8993
713.204	32.02932
713.391	23.38561
713.578	36.53733
713.765	36.30827
713.951	31.25576
714.138	51.05711
714.325	32.36233
714.512	28.18019
714.698	23.1072
714.885	40.36253
715.072	30.89491
715.258	29.88675
715.445	23.9953
715.631	37.79788
715.818	12.0152
716.005	24.1593
716.191	32.294
716.378	26.19162
716.564	34.92552
716.751	21.98092
716.937	24.39919
717.124	36.05539
717.31	24.02729
717.497	41.66344
717.683	23.81628
717.869	48.2664
718.056	26.97375
718.242	34.51169
718.429	31.20228
718.615	20.84633
718.801	31.36763
718.988	38.6437
719.174	35.81444
719.36	29.52789
719.547	42.61091
719.733	34.0407
719.919	35.22697
720.105	38.27829
720.291	32.02275
720.478	34.59836
720.664	29.91437
720.85	29.2775
721.036	57.59051
721.222	45.36116
721.408	30.78821
721.595	50.5503
721.781	48.61615
721.967	44.37981
722.153	48.42188
722.339	40.6508
722.525	38.44963
722.711	24.76882
722.897	22.4866
723.083	30.38975
723.269	43.60707
723.455	57.10367
723.641	60.83795
723.827	36.78583
724.012	39.11071
724.198	31.11712
724.384	44.82891
724.57	39.7031
724.756	22.61699
724.942	19.53116
725.127	44.19686
725.313	48.28277
725.499	47.09181
725.685	53.14572
725.87	39.66694
726.056	27.57986
726.242	46.87186
726.428	22.2795
726.613	43.6309
726.799	33.43988
726.985	27.10415
727.17	22.40204
727.356	50.29326
727.541	27.6197
727.727	34.62892
727.913	42.81654
728.098	30.56373
728.284	42.06341
728.469	23.50642
728.655	26.65231
728.84	42.05764
729.026	42.36549
729.211	44.74987
729.397	37.47862
729.582	40.77896
729.767	35.1979
729.953	38.73309
730.138	45.41646
730.323	15.12802
730.509	25.40039
730.694	49.46495
730.879	38.82114
731.065	36.78599
731.25	58.57422
731.435	41.31923
731.621	22.47382
731.806	30.18664
731.991	38.86994
732.176	23.03758
732.361	48.45081
732.547	37.0081
732.732	21.46779
732.917	58.46623
733.102	24.55224
733.287	29.80114
733.472	35.14065
733.657	35.5254
733.842	22.07354
734.027	34.33755
734.212	34.60189
734.397	28.6994
734.582	36.83578
734.767	43.42517
734.952	49.82148
735.137	15.35225
735.322	51.87486
735.507	40.32457
735.692	40.54762
735.877	61.18837
736.062	54.56064
736.247	41.20605
736.431	37.94604
736.616	52.44349
736.801	41.92603
736.986	38.68016
737.171	30.25881
737.355	28.11725
737.54	51.92516
737.725	38.80627
737.909	70.91066
738.094	33.56935
738.279	47.45493
738.463	36.79156
738.648	45.3738
738.833	43.0868
739.017	59.80054
739.202	35.04137
739.386	39.83586
739.571	23.08014
739.756	45.74394
739.94	39.0408
740.125	49.82277
740.309	32.08629
740.494	48.16645
740.678	40.851
740.863	45.08254
741.047	42.39213
741.231	53.77621
741.416	31.18374
741.6	57.8867
741.785	32.52759
741.969	51.32851
742.153	55.47722
742.338	18.71992
742.522	41.0826
742.706	52.64076
742.89	28.28736
743.075	43.1091
743.259	57.92603
743.443	52.57358
743.627	56.55134
743.812	69.99906
743.996	25.63311
744.18	40.06245
744.364	38.1337
744.548	75.78545
744.732	42.94856
744.916	53.42524
745.1	49.46999
745.285	41.13802
745.469	48.73727
745.653	66.63764
745.837	26.20621
746.021	75.63761
746.205	59.5957
746.389	45.59717
746.573	39.8949
746.757	63.42985
746.94	38.32496
747.124	56.68495
747.308	29.63689
747.492	61.13591
747.676	37.26715
747.86	72.48816
748.044	39.42555
748.227	23.60501
748.411	93.01761
748.595	48.74607
748.779	34.32869
748.963	48.60552
749.146	45.04621
749.33	36.11164
749.514	31.98498
749.697	58.51577
749.881	36.83844
750.065	31.58363
750.248	47.16835
750.432	76.40657
750.616	45.36425
750.799	28.42974
750.983	70.70251
751.166	86.47499
751.35	28.98368
751.533	59.2508
751.717	59.28471
751.9	66.89547
752.084	40.49939
752.267	31.33116
752.451	34.40646
752.634	47.64493
752.818	54.00788
753.001	56.05935
753.184	59.69817
753.368	50.33478
753.551	7.58787
753.734	35.01852
753.918	72.82101
754.101	35.46393
754.284	54.08578
754.467	41.1544
754.651	35.09229
754.834	36.80553
755.017	62.53061
755.2	57.40612
755.384	31.49544
755.567	55.73054
755.75	62.45555
755.933	43.34634
756.116	49.48588
756.299	39.47419
756.482	35.27409
756.665	55.52475
756.848	47.08962
757.032	54.23352
757.215	28.56368
757.398	37.17533
757.581	37.59013
757.764	86.35942
757.947	46.63619
758.129	64.29466
758.312	14.30715
758.495	45.93698
758.678	42.67259
758.861	42.29646
759.044	74.20154
759.227	37.06723
759.41	36.41073
759.592	54.96096
759.775	44.86239
759.958	59.42456
760.141	29.56924
760.324	76.90469
760.506	67.87774
760.689	60.88349
760.872	82.13787
761.054	54.75794
761.237	42.69916
761.42	52.64106
761.602	60.79095
761.785	50.97781
761.968	62.04434
762.15	75.84783
762.333	45.12187
762.515	53.7287
762.698	38.52526
762.88	56.14622
763.063	49.63797
763.245	53.86354
763.428	32.59111
763.61	34.98237
763.793	26.00196
763.975	43.49521
764.158	36.29061
764.34	34.07067
764.522	27.3562
764.705	36.76935
764.887	54.93576
765.069	22.41653
765.252	51.49026
765.434	53.16607
765.616	44.35415
765.799	36.88167
765.981	55.05727
766.163	33.80675
766.345	59.08458
766.528	38.99694
766.71	16.48731
766.892	49.39789
767.074	66.2716
767.256	43.59876
767.438	75.93498
767.62	53.16326
767.802	83.46161
767.985	60.47895
768.167	80.81379
768.349	38.82654
768.531	58.42765
768.713	56.18906
768.895	63.8392
769.077	56.36959
769.259	89.73356
769.441	138.85432
769.623	69.45025
769.804	82.90216
769.986	78.99353
770.168	95.25608
770.35	115.86175
770.532	82.91682
770.714	91.7621
770.896	99.8292
771.077	36.65708
771.259	96.97523
771.441	79.5825
771.623	106.22934
771.804	130.80247
771.986	38.04894
772.168	58.57884
772.35	100.78243
772.531	133.66062
772.713	77.45552
772.894	108.75657
773.076	71.48096
773.258	62.87286
773.439	103.11471
773.621	118.56515
773.802	52.67231
773.984	62.38667
774.166	84.38035
774.347	114.04255
774.529	102.98593
774.71	30.91643
774.891	73.31873
775.073	64.17943
775.254	115.50665
775.436	61.91597
775.617	132.55805
775.799	65.42615
775.98	118.52302
776.161	126.17711
776.343	124.32816
776.524	76.01381
776.705	67.0692
776.886	35.81056
777.068	87.48318
777.249	155.2022
777.43	139.5589
777.611	50.99278
777.793	70.47938
777.974	119.54523
778.155	68.1984
778.336	59.1223
778.517	142.11689
778.698	60.89654
778.879	32.8647
779.061	19.49799
779.242	90.67819
779.423	90.70425
779.604	63.93275
779.785	72.79323
779.966	84.29704
780.147	101.2106
780.328	112.10723
780.509	154.64561
780.69	100.78884
780.871	60.87925
781.051	45.40313
781.232	82.68023
781.413	79.92975
781.594	70.45272
781.775	67.74771
781.956	63.34375
782.137	32.61921
782.317	59.17293
782.498	90.86578
782.679	86.37864
782.86	84.06816
783.04	59.86171
783.221	91.86758
783.402	138.3526
783.583	81.55251
783.763	103.31964
783.944	68.03381
784.124	46.45551
784.305	132.36019
784.486	98.07048
784.666	72.95531
784.847	39.90279
785.027	162.61779
785.208	61.50698
785.388	59.61759
785.569	64.68429
785.749	71.81486
785.93	65.85025
786.11	43.40045
786.291	89.42829
786.471	84.15186
786.652	101.26788
786.832	76.31599
787.012	90.42254
787.193	49.43067
787.373	82.34846
787.553	66.97106
787.734	86.84115
787.914	68.47878
788.094	93.0951
788.275	88.33837
788.455	70.97717
788.635	45.24989
788.815	82.28775
788.995	50.5279
789.176	42.53274
789.356	57.3676
789.536	70.63968
789.716	93.99021
789.896	58.93379
790.076	67.44927
790.256	81.35524
790.436	24.81863
790.616	57.66725
790.796	82.73334
790.976	64.65646
791.156	58.29316
791.336	98.99068
791.516	89.59698
791.696	69.05965
791.876	41.54269
792.056	80.00579
792.236	102.34557
792.416	100.94963
792.596	88.2572
792.776	89.98857
792.956	93.6902
793.135	121.34474
793.315	51.75258
793.495	111.30563
793.675	94.45869
793.854	107.85115
794.034	103.22181
794.214	49.48066
794.394	104.97385
794.573	116.821
794.753	81.05085
794.933	55.4701
795.112	85.44486
795.292	105.99388
795.472	133.75129
795.651	48.84937
795.831	78.36189
796.01	71.24427
796.19	72.0545
796.369	75.10108
796.549	93.83057
796.728	73.36768
796.908	42.7712
797.087	50.99613
797.267	68.06616
797.446	48.06729
797.626	92.37165
797.805	93.33917
797.984	56.35786
798.164	91.88183
798.343	54.3323
798.522	83.41439
798.702	78.99571
798.881	48.0186
799.06	70.85545
799.239	29.42993
799.419	51.94685
799.598	123.0207
799.777	94.76122
799.956	111.7017
800.136	65.70222
800.315	58.66269
800.494	93.92544
800.673	108.19088
800.852	93.61099
801.031	103.07676
801.21	96.3936
801.389	67.67418
801.568	81.65287
801.747	135.41577
801.926	79.65537
802.105	128.77018
802.284	64.29102
802.463	123.51115
802.642	87.63237
802.821	87.81704
803	119.97949
803.179	107.59391
803.358	113.21969
803.537	65.99042
803.716	81.91783
803.895	63.31771
804.073	75.49549
804.252	62.6682
804.431	93.24186
804.61	80.05333
804.789	117.36704
804.967	68.56435
805.146	62.39488
805.325	141.87142
805.503	91.08726
805.682	43.88009
805.861	159.71029
806.039	117.45466
806.218	63.99787
806.397	87.83173
806.575	79.28797
806.754	89.29249
806.932	53.12028
807.111	130.07146
807.289	104.35451
807.468	85.22527
807.646	109.50772
807.825	95.16855
808.003	84.2014
808.182	102.83195
808.36	85.52649
808.539	59.24488
808.717	130.14034
808.895	58.02678
809.074	90.3298
809.252	79.84396
809.43	100.59551
809.609	122.16133
809.787	143.55416
809.965	73.03142
810.144	86.14493
810.322	76.2497
810.5	97.79524
810.678	75.76592
810.856	157.37084
811.035	114.82927
811.213	107.09437
811.391	124.97349
811.569	91.58499
811.747	189.37373
811.925	123.98519
812.103	61.76544
812.281	77.25492
812.459	140.00973
812.637	137.26145
812.816	118.3471
812.994	146.19668
813.171	119.99767
813.349	106.64256
813.527	123.64547
813.705	132.83415
813.883	169.43853
814.061	119.3471
814.239	151.56099
814.417	162.11268
814.595	97.09815
814.773	101.25185
814.95	89.78089
815.128	105.91255
815.306	71.31126
815.484	84.84753
815.662	62.57759
815.839	57.46029
816.017	66.13322
816.195	138.1373
816.372	81.01839
816.55	115.74092
816.728	141.33951
816.905	80.50384
817.083	138.94068
817.261	87.08361
817.438	163.88922
817.616	158.22249
817.793	74.99167
817.971	112.59766
818.148	122.23374
818.326	136.24953
818.503	102.65308
818.681	138.01813
818.858	77.76532
819.036	91.29018
819.213	97.49748
819.391	72.63687
819.568	64.96142
819.745	64.10152
819.923	109.39022
820.1	72.8864
820.277	61.26865
820.455	75.28255
820.632	75.25834
820.809	76.50566
820.986	47.87371
821.164	37.94036
821.341	32.28735
821.518	46.65434
821.695	30.6665
821.872	28.3254
822.05	23.36131
822.227	16.21756
822.404	17.32898
822.581	19.98311
822.758	15.7694
822.935	15.55975
823.112	19.00522
823.289	13.28751
823.466	18.72754
823.643	16.56052
823.82	21.38784
823.997	19.09339
824.174	23.16153
824.351	33.76927
824.528	32.86988
824.705	29.1581
824.882	34.78534
825.059	48.04571
825.236	31.21799
825.412	33.65594
825.589	45.07843
825.766	65.5779
825.943	41.12067
826.12	49.34056
826.296	29.93666
826.473	42.05336
826.65	42.45817
826.827	53.03948
827.003	33.25747
827.18	35.40684
827.357	42.91167
827.533	36.6656
827.71	18.02239
827.887	30.05546
828.063	35.14963
828.24	29.70639
828.416	44.15667
828.593	32.88499
828.769	50.02197
828.946	59.22772
829.122	58.30073
829.299	56.75063
829.475	31.07931
829.652	55.72408
829.828	105.34208
830.005	60.67608
830.181	92.24549
830.357	63.43485
830.534	93.70271
830.71	71.27532
830.886	95.79985
831.063	92.79473
831.239	127.19658
831.415	51.1736
831.592	125.63972
831.768	72.99495
831.944	62.26008
832.12	126.75225
832.296	113.99268
832.473	101.793
832.649	72.06838
832.825	96.49164
833.001	54.57094
833.177	87.17791
833.353	76.88777
833.529	39.69424
833.705	58.97818
833.881	40.7044
834.058	39.95436
834.234	42.71741
834.41	42.94999
834.586	31.80011
834.761	40.75859
834.937	44.16336
835.113	46.97952
835.289	41.37818
835.465	51.47817
835.641	42.96178
835.817	49.75034
835.993	97.79571
836.169	46.67069
836.344	71.5626
836.52	83.06213
836.696	79.472
836.872	58.84674
837.048	180.3426
837.223	68.64184
837.399	155.53471
837.575	114.41724
837.75	108.08784
837.926	150.82332
838.102	257.98955
838.277	190.00472
838.453	252.8182
838.628	232.22912
838.804	100.29087
838.98	229.68166
839.155	115.35049
839.331	155.45504
839.506	114.6129
839.682	108.71414
839.857	138.62394
840.033	167.36517
840.208	77.53223
840.384	38.89523
840.559	82.38087
840.734	126.43502
840.91	181.00411
841.085	109.30719
841.26	100.51107
841.436	93.97043
841.611	86.80065
841.786	134.7518
841.962	190.50422
842.137	112.64696
842.312	66.88144
842.487	96.34309
842.663	79.60746
842.838	105.92319
843.013	388.58232
843.188	178.47314
843.363	132.91938
843.538	332.25441
843.714	316.13614
843.889	330.47705
844.064	360.23856
844.239	290.77762
844.414	387.36706
844.589	236.75849
844.764	491.76215
844.939	428.14547
845.114	503.54635
845.289	537.08393
845.464	534.73337
845.639	417.87752
845.814	187.43737
845.989	242.36731
846.163	268.61493
846.338	313.81175
846.513	466.0342
846.688	297.46639
846.863	265.7898
847.038	229.25967
847.212	314.18499
847.387	310.24703
847.562	285.46941
847.737	409.85413
847.911	133.29802
848.086	165.96109
848.261	582.22721
848.435	251.1155
848.61	425.01948
848.785	173.4184
848.959	420.50435
849.134	582.35683
849.308	716.55179
849.483	340.07498
849.658	509.25679
849.832	232.57419
850.007	208.17039
850.181	949.58102
850.356	242.22808
850.53	761.02243
850.705	185.75344
850.879	109.14854
851.053	256.31484
851.228	247.93866
851.402	389.20194
851.577	443.79269
851.751	675.77785
851.925	300.05201
852.099	141.2234
852.274	181.95621
852.448	273.88159
852.622	438.79341
852.797	290.64854
852.971	300.11887
853.145	306.60091
853.319	1043.32238
853.493	458.1286
853.668	233.41522
853.842	715.94307
854.016	508.4035
854.19	625.86999
854.364	316.04507
854.538	362.75287
854.712	564.72102
854.886	285.05657
855.06	238.49698
855.234	95.58121
855.408	587.10706
855.582	553.93875
855.756	507.44871
855.93	622.67334
856.104	335.48656
856.278	482.39242
856.452	304.19161
856.626	391.85455
856.8	942.42676
856.973	394.06041
857.147	372.77078
857.321	426.22691
857.495	516.73176
857.669	339.5406
857.842	262.24557
858.016	492.83862
858.19	201.21272
858.364	1272.37026
858.537	267.31616
858.711	329.92656
858.885	262.37321
859.058	249.32965
859.232	115.1767
859.405	148.6268
859.579	458.49598
859.753	392.63104
859.926	242.08927
860.1	126.06515
860.273	303.65428
860.447	571.02404
860.62	302.64036
860.794	709.05309
860.967	327.82157
861.141	612.77008
861.314	1015.73055
861.487	428.38779
861.661	607.48572
861.834	657.69459
862.008	482.68165
862.181	356.00878
862.354	339.23466
862.528	372.29021
862.701	286.04338
862.874	152.48582
863.047	262.30049
863.221	279.29722
863.394	140.94386
863.567	558.56253
863.74	104.13222
863.913	449.18414
864.087	432.62675
864.26	545.75499
864.433	277.39748
864.606	882.92361
864.779	283.42833
864.952	144.18299
865.125	250.30889
865.298	290.64065
865.471	302.39744
865.644	769.61483
865.817	508.39727
865.99	519.52686
866.163	693.00376
866.336	270.82664
866.509	264.04371
866.682	256.99582
866.855	605.02307
867.028	161.56565
867.2	406.89176
867.373	118.23643
867.546	329.87641
867.719	811.17673
867.892	423.8498
868.064	242.80341
868.237	361.58794
868.41	376.41284
868.583	144.39227
868.755	205.84392
868.928	276.51134
869.101	904.25324
869.273	520.69074
869.446	379.51944
869.619	615.05887
869.791	307.1794
869.964	512.33932
870.136	498.52473
870.309	396.79288
870.481	314.02199
870.654	159.61907
870.826	413.90166
870.999	244.07878
871.171	407.98809
871.344	236.41145
871.516	276.3471
871.689	205.18131
871.861	364.39156
872.033	206.40077
872.206	256.41715
872.378	441.02078
872.55	273.92634
872.723	172.92988
872.895	303.98688
873.067	502.16563
873.24	498.37104
873.412	250.74345
873.584	282.06616
873.756	270.18461
873.928	322.56834
874.101	346.35651
874.273	386.91209
874.445	125.42142
874.617	163.37387
874.789	312.99293
874.961	260.83977
875.133	385.78863
875.305	305.28651
875.477	214.42658
875.649	145.54902
875.821	176.87086
875.993	580.13464
876.165	182.7295
876.337	331.28033
876.509	285.19624
876.681	321.38564
876.853	353.31657
877.025	370.46279
877.197	199.82042
877.369	180.19546
877.541	441.99607
877.712	99.67928
877.884	175.25098
878.056	358.55785
878.228	181.04717
878.4	390.67219
878.571	183.70683
878.743	119.78713
878.915	306.55787
879.086	181.77167
879.258	217.37198
879.43	189.19316
879.601	173.64328
879.773	181.54933
879.945	40.64283
880.116	68.56499
880.288	39.35961
880.459	45.58964
880.631	30.6874
880.802	39.16753
880.974	35.29013
881.145	22.60395
881.317	31.98978
881.488	21.59615
881.66	24.74584
881.831	22.27614
882.002	31.06729
882.174	20.55537
882.345	28.29314
882.517	12.60287
882.688	36.19597
882.859	26.59001
883.03	45.64104
883.202	45.01399
883.373	35.29496
883.544	37.0043
883.715	65.16629
883.887	56.79797
884.058	48.42484
884.229	71.16145
884.4	73.15075
884.571	87.23758
884.742	70.68018
884.914	77.93425
885.085	126.84805
885.256	172.98725
885.427	145.05427
885.598	157.24426
885.769	168.50191
885.94	169.10788
886.111	108.41138
886.282	217.17093
886.453	153.3108
886.624	117.79695
886.795	219.42545
886.966	171.61598
887.136	230.38109
887.307	156.6874
887.478	364.91513
887.649	289.57695
887.82	316.29967
887.991	239.85302
888.161	321.04792
888.332	284.00617
888.503	129.7061
888.674	479.79162
888.844	568.00763
889.015	361.96815
889.186	159.83511
889.356	518.70805
889.527	138.55992
889.698	1046.45426
889.868	246.96803
890.039	339.70738
890.209	288.44598
890.38	371.84469
890.551	325.62517
890.721	450.14932
890.892	441.34543
891.062	255.23104
891.233	319.86931
891.403	298.09029
891.574	208.29006
891.744	283.02597
891.914	327.35942
892.085	297.92487
892.255	88.09539
892.425	576.95962
892.596	369.07851
892.766	374.02289
892.936	463.60406
893.107	362.46701
893.277	192.74792
893.447	146.84782
893.618	106.55341
893.788	240.29784
893.958	124.01392
894.128	119.16767
894.298	146.68473
894.468	182.64331
894.639	80.88825
894.809	53.53072
894.979	92.27638
895.149	106.87977
895.319	81.42926
895.489	107.69488
895.659	160.90962
895.829	92.41937
895.999	95.76432
896.169	70.52627
896.339	96.44854
896.509	207.09215
896.679	224.72385
896.849	223.60094
897.019	351.00518
897.189	254.89548
897.358	246.87919
897.528	344.39719
897.698	118.85258
897.868	298.43348
898.038	882.26335
898.208	692.39931
898.377	125.01617
898.547	784.07035
898.717	1007.2994
898.886	375.23057
899.056	613.7706
899.226	1439.91464
899.395	437.11226
899.565	838.36456
899.735	428.37884
899.904	1021.02604
900.074	976.98828
900.244	239.64407
900.413	1164.04128
900.583	249.33945
900.752	416.95659
900.922	2048.96234
901.091	59.14787
901.261	610.5777
901.43	614.41284
901.599	586.41153
901.769	6930.49932
901.938	699.24714
902.108	762.00508
902.277	1533.99594
902.446	219.19459
902.616	221.59839
902.785	315.95434
902.954	665.5223
903.124	479.08772
903.293	308.84458
903.462	162.36888
903.631	231.57716
903.801	177.68594
903.97	79.76597
904.139	143.23606
904.308	103.10513
904.477	80.18847
904.646	47.84405
904.816	61.43158
904.985	113.08304
905.154	177.18148
