Data from WindowProjectSample_Transmission__61__00061.txt Node

Date: Sat May 03 17:00:45 EDT 2025
User: jessi
Spectrometer: SR400872
Trigger mode: 0
Integration Time (sec): 5.000010E-1
Scans to average: 6
Electric dark correction enabled: true
Nonlinearity correction enabled: true
Boxcar width: 0
XAxis mode: Wavelengths
Number of Pixels in Spectrum: 3648
>>>>>Begin Spectral Data<<<<<
184.909	178942.99667
185.132	1676.66218
185.355	-2012.32626
185.578	3288.55697
185.801	-774.67669
186.024	6059.37336
186.247	1031.32186
186.47	891.33895
186.693	-371.51512
186.916	257.49749
187.139	10472.59663
187.362	3451.23361
187.585	2720.82566
187.808	-1267.0268
188.031	-88.93331
188.254	8263.56044
188.476	618.05257
188.699	-4270.43975
188.922	-349.49305
189.145	-4150.20578
189.368	-523.19169
189.591	-1011.34693
189.813	-2166.53602
190.036	5288.72686
190.259	3096.43386
190.482	2297.12903
190.705	8493.32663
190.927	-1527.50491
191.15	-1595.01796
191.373	5041.84905
191.595	-1823.98669
191.818	9069.4007
192.041	-253.11881
192.263	-2396.86739
192.486	-887.21071
192.709	8911.42185
192.931	-2672.51308
193.154	-2019.49992
193.377	4615.49454
193.599	6024.44381
193.822	-1588.89421
194.044	-1950.91108
194.267	694.67538
194.489	302.16293
194.712	2101.51942
194.934	3476.31808
195.157	-7773.70992
195.379	2189.4289
195.602	5454.46029
195.824	5384.52724
196.047	-9944.84877
196.269	-10905.83079
196.492	-1145.4852
196.714	-5588.83007
196.936	4599.90886
197.159	-2595.67328
197.381	-559.11075
197.604	1115.27304
197.826	-3436.51886
198.048	-1385.13271
198.271	-12356.65617
198.493	9942.60133
198.715	-2592.73295
198.938	-771.98276
199.16	-3685.01733
199.382	1785.07428
199.604	-1582.17113
199.827	-1291.44318
200.049	-3887.74861
200.271	2453.92777
200.493	-25689.53108
200.715	4638.93048
200.938	12111.84387
201.16	-224267.82995
201.382	-5730.41173
201.604	-1126.50231
201.826	-6920.05679
202.048	-7138.09976
202.27	-4555.59873
202.492	-3671.6067
202.715	-1421.13066
202.937	-3636.89085
203.159	1116.59976
203.381	-85396.49002
203.603	-965.3277
203.825	-1363.7636
204.047	2344.21278
204.269	-770.93039
204.491	7341.68236
204.713	-8735.9953
204.935	41074.84899
205.156	2048.95361
205.378	-7434.80432
205.6	-1644.84711
205.822	6394.29708
206.044	-289.22425
206.266	-2013.04385
206.488	717.68705
206.71	-502248.80991
206.932	-15942.18419
207.153	11427.95155
207.375	-1988.95788
207.597	15641.10552
207.819	1695.47893
208.041	6185.20135
208.262	597.90426
208.484	-1011.88749
208.706	-852.82344
208.927	11024.68526
209.149	-7735.89332
209.371	-2745.78546
209.593	-1919.69433
209.814	-3943.33267
210.036	2114.77157
210.258	-645.31459
210.479	1915.88524
210.701	757.29905
210.922	4298.14049
211.144	-1551.29275
211.366	5982.1253
211.587	-658.52984
211.809	-3408.07574
212.03	-2294.33264
212.252	-409.42106
212.473	2728.34612
212.695	-854.0897
212.916	-914.43123
213.138	668.51711
213.359	-1225.66526
213.581	-3333.30096
213.802	-1192.59872
214.024	9689.94062
214.245	-1030.03795
214.466	-127.51547
214.688	-3680.38049
214.909	-788.17264
215.131	8966.74992
215.352	-1106.38859
215.573	-242694.0738
215.795	4595.72746
216.016	-3708.56221
216.237	-544.71834
216.459	-10815.57974
216.68	-1625.26556
216.901	-1695.66056
217.122	1915.58786
217.344	-8681.53198
217.565	-1631.88347
217.786	24167.42039
218.007	879.32329
218.228	-3278.99254
218.45	-5872.06963
218.671	-1456.22186
218.892	846.38469
219.113	1754.08672
219.334	466.31001
219.555	-6420.74564
219.776	33891.77897
219.997	-6670.51704
220.219	-9082.17564
220.44	-4859.9572
220.661	-1359.9366
220.882	12738.14159
221.103	-848.45713
221.324	2411.06751
221.545	-6254.38892
221.766	-1466.80086
221.987	-425.84936
222.208	1748.59096
222.429	6594.06575
222.65	-126.43079
222.87	-710.6859
223.091	39528.91711
223.312	760.23932
223.533	-2023.45346
223.754	3632.36178
223.975	1741.82154
224.196	-757.84172
224.417	-28519.76893
224.637	-2203.95627
224.858	312.24244
225.079	3781.40496
225.3	1661.73653
225.521	3640.94242
225.741	-2499.44951
225.962	1592.76073
226.183	892.58854
226.404	1897.47725
226.624	1644.03265
226.845	1388.99927
227.066	2350.71694
227.286	660.68116
227.507	403.88558
227.728	400.01114
227.948	528.24343
228.169	124.52768
228.389	121.14923
228.61	50.3675
228.831	82.85824
229.051	5.31276
229.272	46.01662
229.492	61.11981
229.713	21.99909
229.933	51.77137
230.154	39.91767
230.374	68.10835
230.595	51.80332
230.815	39.9973
231.036	50.69019
231.256	-13.29649
231.477	109.6471
231.697	61.94615
231.917	65.38588
232.138	77.79689
232.358	169.53137
232.579	174.13685
232.799	16.77996
233.019	172.43937
233.24	236.02218
233.46	71.13216
233.68	95.75849
233.901	106.57197
234.121	43.60348
234.341	18.37742
234.561	-3.49041
234.782	30.48556
235.002	120.9292
235.222	-3.72306
235.442	92.67565
235.662	47.69109
235.883	105.90072
236.103	92.90319
236.323	66.66756
236.543	50.6724
236.763	76.15659
236.983	66.89715
237.203	71.09554
237.423	106.46592
237.643	154.18506
237.864	139.31135
238.084	35.96195
238.304	49.4234
238.524	82.78715
238.744	70.64517
238.964	112.06697
239.184	105.08304
239.404	98.25003
239.624	50.41084
239.843	96.22355
240.063	52.6292
240.283	35.66599
240.503	37.18737
240.723	36.88821
240.943	19.70064
241.163	26.1071
241.383	18.96513
241.603	9.20285
241.822	11.84785
242.042	7.83647
242.262	9.93037
242.482	11.93809
242.702	14.01518
242.921	4.45679
243.141	10.88483
243.361	8.42213
243.581	13.12164
243.8	11.78915
244.02	8.1967
244.24	13.65118
244.459	13.74116
244.679	24.97679
244.899	17.77606
245.118	22.03618
245.338	16.99674
245.558	21.55119
245.777	12.96265
245.997	12.97522
246.216	13.41865
246.436	7.58241
246.655	5.41874
246.875	4.03704
247.094	7.92268
247.314	2.84018
247.533	4.60825
247.753	5.67023
247.972	4.38918
248.192	1.88656
248.411	2.77067
248.631	5.38886
248.85	6.56967
249.07	5.10099
249.289	7.96198
249.508	6.27212
249.728	9.20593
249.947	11.31021
250.166	12.1184
250.386	7.9881
250.605	9.92943
250.824	17.31243
251.044	12.22524
251.263	36.57642
251.482	18.38316
251.701	17.05426
251.921	0.2777
252.14	5.75384
252.359	5.6826
252.578	13.64225
252.798	4.72502
253.017	12.79581
253.236	7.05412
253.455	8.2137
253.674	16.76555
253.893	7.08669
254.112	10.98893
254.331	18.04526
254.551	13.47992
254.77	7.46681
254.989	22.75343
255.208	17.75007
255.427	22.02821
255.646	20.36766
255.865	31.65512
256.084	14.70735
256.303	15.54842
256.522	21.8816
256.741	2.38835
256.96	5.76708
257.179	12.51752
257.397	14.63578
257.616	7.71648
257.835	8.99384
258.054	21.8419
258.273	12.67138
258.492	15.30435
258.711	8.68157
258.93	3.82751
259.148	5.24878
259.367	5.46614
259.586	7.15498
259.805	3.29146
260.023	6.63815
260.242	5.26838
260.461	3.79515
260.68	2.11284
260.898	6.03282
261.117	2.11553
261.336	1.65322
261.554	5.19537
261.773	5.31303
261.992	1.06715
262.21	5.0722
262.429	6.91136
262.648	10.45673
262.866	11.70652
263.085	7.38048
263.303	7.33792
263.522	12.96944
263.74	12.46858
263.959	21.17847
264.178	10.64679
264.396	10.01755
264.615	6.98322
264.833	17.2496
265.051	13.95819
265.27	14.2677
265.488	15.128
265.707	9.54665
265.925	15.0649
266.144	7.01373
266.362	8.82801
266.58	9.1088
266.799	7.0459
267.017	8.14077
267.235	7.81922
267.454	4.01302
267.672	2.92835
267.89	6.43869
268.109	6.65509
268.327	5.93354
268.545	2.24386
268.763	6.0145
268.982	2.51755
269.2	7.76706
269.418	4.44227
269.636	3.19221
269.854	6.29552
270.073	4.93286
270.291	2.3952
270.509	2.47113
270.727	6.02609
270.945	10.06222
271.163	9.76592
271.381	2.62682
271.599	4.29992
271.817	7.41038
272.036	2.6844
272.254	4.58597
272.472	3.49558
272.69	3.57955
272.908	3.45063
273.126	6.05443
273.344	7.10768
273.562	2.66056
273.779	3.7998
273.997	5.34736
274.215	6.11197
274.433	4.51143
274.651	6.05873
274.869	6.31899
275.087	4.07697
275.305	5.77747
275.523	3.24387
275.74	4.49966
275.958	7.50208
276.176	11.08712
276.394	3.32245
276.612	4.43149
276.829	4.62248
277.047	3.6174
277.265	4.43349
277.483	5.22807
277.7	6.1556
277.918	4.88879
278.136	8.6901
278.353	4.20355
278.571	2.48105
278.789	7.04135
279.006	1.75492
279.224	4.2851
279.442	6.85213
279.659	4.84012
279.877	3.67837
280.094	8.0238
280.312	1.54535
280.529	4.61212
280.747	1.45636
280.964	3.91355
281.182	8.64559
281.399	3.59749
281.617	5.70338
281.834	3.9113
282.052	3.19014
282.269	4.48021
282.487	3.73867
282.704	2.56002
282.921	3.27593
283.139	4.55427
283.356	5.69804
283.574	4.77342
283.791	2.79211
284.008	7.15799
284.226	3.86958
284.443	4.7585
284.66	5.96923
284.877	4.64186
285.095	3.00675
285.312	1.93936
285.529	1.50698
285.746	1.28478
285.964	2.82688
286.181	1.71299
286.398	3.01315
286.615	3.87016
286.832	3.68959
287.05	1.08128
287.267	2.62864
287.484	2.72399
287.701	4.07431
287.918	3.7924
288.135	3.5457
288.352	1.84942
288.569	2.06471
288.786	3.30359
289.003	2.4762
289.22	4.0399
289.437	2.45729
289.654	4.0908
289.871	4.25478
290.088	4.00082
290.305	3.2875
290.522	2.55818
290.739	2.93071
290.956	4.06891
291.173	5.14006
291.39	4.91078
291.607	3.35975
291.824	2.28894
292.04	1.63348
292.257	4.17467
292.474	4.58831
292.691	2.76002
292.908	1.53593
293.125	2.7058
293.341	1.5159
293.558	7.12314
293.775	3.07957
293.992	2.87968
294.208	1.53179
294.425	1.84941
294.642	2.50091
294.858	3.79621
295.075	0.95547
295.292	2.68693
295.508	3.20213
295.725	5.16111
295.942	2.68158
296.158	1.9692
296.375	3.04561
296.591	2.22342
296.808	2.63553
297.024	3.27747
297.241	3.32588
297.458	3.67924
297.674	0.79005
297.891	2.86702
298.107	2.61661
298.323	1.92861
298.54	4.56759
298.756	2.34518
298.973	1.29037
299.189	4.76153
299.406	2.33098
299.622	4.24745
299.838	4.53693
300.055	3.84539
300.271	1.55707
300.487	1.75207
300.704	2.16728
300.92	1.58117
301.136	6.00169
301.353	4.21868
301.569	3.15392
301.785	3.52102
302.001	4.11573
302.218	3.72474
302.434	3.694
302.65	1.66726
302.866	2.88313
303.083	6.07216
303.299	6.09518
303.515	3.51366
303.731	3.76266
303.947	1.67782
304.163	2.63641
304.379	3.66281
304.595	3.83641
304.812	2.26203
305.028	2.3287
305.244	2.74523
305.46	4.19826
305.676	4.56774
305.892	5.08606
306.108	3.84521
306.324	2.72541
306.54	5.64243
306.756	3.9991
306.972	3.99364
307.187	3.38603
307.403	5.06835
307.619	2.52618
307.835	4.39163
308.051	5.11431
308.267	1.64946
308.483	4.90891
308.699	4.03395
308.914	3.69417
309.13	3.26813
309.346	1.6582
309.562	2.25721
309.778	1.64804
309.993	3.89241
310.209	3.71897
310.425	1.93173
310.641	3.28259
310.856	2.16602
311.072	2.07448
311.288	3.03622
311.503	3.69812
311.719	1.2819
311.935	1.62315
312.15	4.03303
312.366	3.79558
312.581	4.02898
312.797	3.61852
313.013	4.55682
313.228	2.75566
313.444	3.18625
313.659	2.63228
313.875	3.80219
314.09	3.37455
314.306	4.69061
314.521	4.37102
314.737	4.16645
314.952	3.53801
315.168	3.27936
315.383	4.05386
315.599	2.90027
315.814	3.02484
316.029	4.2207
316.245	1.99616
316.46	1.4247
316.675	4.82743
316.891	6.01039
317.106	6.77366
317.321	4.02879
317.537	4.07583
317.752	4.07655
317.967	4.35876
318.183	2.2614
318.398	3.06136
318.613	4.4444
318.828	5.11153
319.043	4.22394
319.259	2.78684
319.474	3.98291
319.689	4.68513
319.904	1.15154
320.119	4.53553
320.334	3.68782
320.549	2.97207
320.765	4.66683
320.98	3.59584
321.195	4.18452
321.41	3.40268
321.625	4.35107
321.84	5.46044
322.055	5.71459
322.27	2.2818
322.485	1.79433
322.7	3.90347
322.915	4.73589
323.13	2.762
323.345	5.42281
323.56	4.41483
323.775	4.11254
323.989	4.06744
324.204	3.53335
324.419	4.52102
324.634	1.74633
324.849	3.26525
325.064	6.65279
325.279	4.86374
325.493	4.25026
325.708	4.6623
325.923	2.53937
326.138	2.92997
326.352	5.34059
326.567	4.52759
326.782	2.69745
326.997	2.59862
327.211	4.35014
327.426	3.83988
327.641	3.08101
327.855	1.77109
328.07	4.52674
328.285	5.72285
328.499	3.02154
328.714	3.95132
328.928	4.18694
329.143	3.78834
329.358	5.00547
329.572	4.55045
329.787	5.55983
330.001	6.52069
330.216	1.663
330.43	5.93938
330.645	5.25696
330.859	4.5383
331.074	2.28527
331.288	3.6425
331.503	5.5415
331.717	1.90519
331.931	3.49954
332.146	3.77849
332.36	6.03294
332.575	4.19582
332.789	3.75546
333.003	3.72209
333.218	4.41044
333.432	3.17917
333.646	4.52207
333.86	5.79402
334.075	5.65848
334.289	2.92034
334.503	2.31445
334.717	4.61727
334.932	4.36253
335.146	5.28255
335.36	3.05336
335.574	4.807
335.788	3.94129
336.003	5.31602
336.217	5.31406
336.431	4.1577
336.645	2.99207
336.859	2.41754
337.073	3.45479
337.287	4.02296
337.501	2.03095
337.715	4.00345
337.929	4.2271
338.143	2.31451
338.357	3.22928
338.571	2.93959
338.785	4.65226
338.999	2.84504
339.213	3.41451
339.427	1.88772
339.641	5.21927
339.855	3.06126
340.069	2.95331
340.283	4.6685
340.497	5.7595
340.711	4.46842
340.924	3.74298
341.138	2.58868
341.352	2.0609
341.566	3.75453
341.78	2.2012
341.993	3.08718
342.207	2.63257
342.421	4.34516
342.635	3.63901
342.848	3.02221
343.062	0.62195
343.276	3.04302
343.49	6.18551
343.703	2.96336
343.917	4.73416
344.131	4.9791
344.344	2.77074
344.558	3.09491
344.771	2.35672
344.985	5.10799
345.199	5.72085
345.412	3.90687
345.626	4.25738
345.839	1.63366
346.053	2.3348
346.266	2.54762
346.48	4.53783
346.693	4.02954
346.907	4.33348
347.12	2.53693
347.334	3.75892
347.547	4.03553
347.76	3.68043
347.974	5.06975
348.187	4.15628
348.401	3.54428
348.614	2.84096
348.827	3.3904
349.041	4.36375
349.254	1.58285
349.467	3.35057
349.681	2.54182
349.894	2.52386
350.107	5.19159
350.32	6.05149
350.534	1.93508
350.747	3.50374
350.96	2.71863
351.173	2.898
351.386	3.42813
351.6	3.18886
351.813	2.99507
352.026	3.43904
352.239	2.62093
352.452	2.77397
352.665	4.93008
352.878	3.09556
353.092	6.079
353.305	4.40633
353.518	3.89347
353.731	2.3996
353.944	5.15756
354.157	2.97931
354.37	3.19542
354.583	2.1658
354.796	2.57663
355.009	4.82672
355.222	3.90361
355.435	3.86334
355.647	4.93182
355.86	2.96486
356.073	3.85607
356.286	3.25673
356.499	4.8128
356.712	4.39584
356.925	4.42556
357.138	5.03719
357.35	2.81236
357.563	3.2263
357.776	3.9726
357.989	3.83536
358.201	4.72704
358.414	4.21406
358.627	5.40091
358.84	3.89795
359.052	2.64618
359.265	3.14754
359.478	4.96824
359.69	1.36124
359.903	4.80861
360.116	5.11188
360.328	2.54402
360.541	4.8394
360.753	3.45462
360.966	3.71096
361.179	4.01661
361.391	3.69336
361.604	3.2709
361.816	3.63373
362.029	3.68732
362.241	3.5509
362.454	3.9629
362.666	3.13596
362.879	4.77248
363.091	3.94964
363.304	3.67259
363.516	3.9715
363.728	3.11024
363.941	4.64004
364.153	4.42003
364.366	2.12447
364.578	3.1135
364.79	4.58963
365.003	4.45084
365.215	3.72132
365.427	4.81435
365.639	5.15596
365.852	4.5591
366.064	5.903
366.276	3.84297
366.488	4.56088
366.701	3.97066
366.913	4.0248
367.125	3.8639
367.337	3.93203
367.549	3.98759
367.762	4.24343
367.974	4.36269
368.186	4.00336
368.398	5.39876
368.61	4.66163
368.822	5.04607
369.034	3.976
369.246	5.29326
369.458	7.14509
369.67	3.58981
369.882	6.15347
370.094	2.15095
370.306	5.74876
370.518	4.17516
370.73	3.82608
370.942	3.93802
371.154	4.46749
371.366	4.3068
371.578	5.11982
371.79	4.50577
372.002	5.78762
372.214	6.69391
372.425	4.74241
372.637	6.47492
372.849	5.08965
373.061	2.68319
373.273	5.41373
373.484	5.1899
373.696	5.86233
373.908	2.69912
374.12	5.6753
374.331	5.62227
374.543	4.09615
374.755	3.93606
374.967	5.08115
375.178	5.98636
375.39	4.6363
375.602	5.28837
375.813	3.9246
376.025	4.04635
376.236	5.09004
376.448	5.39294
376.66	5.24475
376.871	5.38466
377.083	6.36037
377.294	7.15555
377.506	5.24272
377.717	6.8176
377.929	5.88037
378.14	5.18016
378.352	6.08569
378.563	6.53004
378.775	7.33963
378.986	4.82605
379.197	5.58307
379.409	5.04412
379.62	6.35305
379.832	5.83867
380.043	5.66863
380.254	6.17808
380.466	4.57708
380.677	8.63642
380.888	8.05106
381.1	8.62007
381.311	8.58979
381.522	6.46714
381.733	9.02849
381.945	5.87925
382.156	5.7126
382.367	5.86648
382.578	9.11381
382.789	9.13823
383.001	5.55464
383.212	7.99669
383.423	8.11729
383.634	7.36499
383.845	7.12762
384.056	5.98975
384.267	6.73673
384.478	6.70677
384.69	5.55393
384.901	7.23932
385.112	6.91835
385.323	8.53634
385.534	7.5271
385.745	7.6003
385.956	7.09953
386.167	6.12119
386.378	7.63769
386.588	6.58414
386.799	6.31008
387.01	5.74724
387.221	8.22661
387.432	7.3922
387.643	8.98701
387.854	7.09415
388.065	6.93928
388.275	7.19265
388.486	6.57941
388.697	7.56729
388.908	6.94517
389.119	8.70711
389.329	9.02934
389.54	7.62616
389.751	8.11471
389.962	8.98759
390.172	7.68518
390.383	7.69525
390.594	7.03031
390.804	7.13767
391.015	7.43684
391.226	8.23467
391.436	8.8321
391.647	8.58327
391.858	8.64766
392.068	6.86033
392.279	7.33885
392.489	8.73912
392.7	9.16471
392.91	8.01225
393.121	7.98314
393.331	9.12357
393.542	9.68961
393.752	9.58266
393.963	9.1114
394.173	9.17555
394.384	9.3472
394.594	8.89037
394.804	8.01852
395.015	8.80227
395.225	9.36135
395.436	8.08903
395.646	9.67199
395.856	8.7696
396.067	7.65819
396.277	9.75687
396.487	9.58739
396.697	9.6564
396.908	10.05685
397.118	9.64182
397.328	9.39967
397.538	10.06172
397.749	8.85093
397.959	10.20325
398.169	9.77289
398.379	8.14524
398.589	9.79699
398.8	9.90621
399.01	9.85778
399.22	9.25345
399.43	11.54934
399.64	9.6299
399.85	10.25576
400.06	9.80084
400.27	9.10284
400.48	9.49939
400.69	10.75875
400.9	9.19968
401.11	9.02789
401.32	10.34654
401.53	9.35429
401.74	11.32627
401.95	10.37401
402.16	9.72088
402.37	10.37493
402.58	9.74059
402.79	10.60635
403	10.89372
403.209	9.67116
403.419	11.02118
403.629	9.62061
403.839	11.26428
404.049	11.42675
404.258	10.15376
404.468	10.07543
404.678	11.38379
404.888	11.91208
405.097	10.69512
405.307	10.47573
405.517	11.15122
405.727	11.36752
405.936	10.34184
406.146	11.08322
406.356	12.09857
406.565	10.69171
406.775	10.58549
406.984	10.09411
407.194	12.95359
407.404	10.97873
407.613	11.2237
407.823	11.77212
408.032	12.22249
408.242	11.59805
408.451	10.77663
408.661	10.78425
408.87	12.3297
409.08	10.42313
409.289	11.46938
409.499	11.15048
409.708	11.2546
409.918	9.49039
410.127	11.16781
410.336	12.49949
410.546	12.11628
410.755	11.05723
410.964	10.82526
411.174	10.17853
411.383	12.03464
411.592	11.45427
411.802	10.75626
412.011	12.01121
412.22	11.39119
412.429	12.41441
412.639	12.95513
412.848	12.18502
413.057	13.07238
413.266	12.33648
413.475	11.60458
413.685	12.03329
413.894	12.44906
414.103	12.48955
414.312	12.42146
414.521	11.46783
414.73	11.9792
414.939	13.30822
415.148	12.39997
415.357	11.92498
415.566	11.85609
415.776	11.70127
415.985	11.64806
416.194	12.74375
416.403	14.02408
416.611	11.15161
416.82	11.8097
417.029	12.39777
417.238	11.7839
417.447	11.6494
417.656	12.23519
417.865	11.79625
418.074	12.34221
418.283	12.65467
418.492	13.48798
418.7	13.25346
418.909	14.33085
419.118	12.79703
419.327	13.35437
419.536	13.01751
419.744	12.74989
419.953	14.40164
420.162	14.50672
420.371	13.90754
420.579	14.84817
420.788	15.41507
420.997	15.89641
421.205	16.13059
421.414	15.90519
421.623	16.27124
421.831	15.43515
422.04	16.19665
422.249	15.04092
422.457	15.34358
422.666	14.55769
422.874	15.44602
423.083	15.53835
423.291	15.55858
423.5	15.66709
423.708	15.92214
423.917	16.63297
424.125	15.9144
424.334	15.67646
424.542	17.82317
424.751	16.97866
424.959	16.49498
425.167	16.63303
425.376	16.42164
425.584	14.93041
425.793	14.84127
426.001	13.61273
426.209	14.64122
426.418	13.41224
426.626	13.44896
426.834	13.50733
427.042	13.86052
427.251	13.40432
427.459	14.31303
427.667	13.86954
427.875	12.54021
428.084	13.29189
428.292	14.59112
428.5	14.13561
428.708	12.79292
428.916	12.79596
429.124	13.72822
429.333	13.34415
429.541	13.46249
429.749	13.64702
429.957	13.43822
430.165	15.51794
430.373	12.30843
430.581	13.37278
430.789	14.78274
430.997	13.19267
431.205	12.83019
431.413	13.87238
431.621	13.25948
431.829	14.22991
432.037	13.50383
432.245	13.71886
432.453	14.2792
432.661	13.53257
432.869	15.1236
433.076	13.19063
433.284	13.51966
433.492	14.45445
433.7	14.80375
433.908	13.70286
434.116	14.16447
434.323	14.23923
434.531	13.96316
434.739	14.6041
434.947	14.60201
435.154	15.03541
435.362	14.02509
435.57	13.94544
435.778	13.43853
435.985	14.25513
436.193	13.52406
436.401	15.01803
436.608	14.05472
436.816	13.55205
437.023	14.97678
437.231	15.37596
437.439	14.14356
437.646	14.64941
437.854	14.41656
438.061	14.71201
438.269	14.15771
438.476	14.64409
438.684	14.22117
438.891	13.93643
439.099	13.85222
439.306	13.37372
439.514	13.63174
439.721	14.72332
439.929	13.83712
440.136	14.71865
440.343	14.69324
440.551	14.45529
440.758	16.24973
440.965	15.01365
441.173	14.84249
441.38	14.34943
441.587	15.03061
441.795	14.42564
442.002	14.70307
442.209	14.98673
442.416	15.22414
442.624	15.05893
442.831	14.93894
443.038	14.51469
443.245	14.01845
443.452	14.22051
443.66	15.06026
443.867	14.10523
444.074	13.9306
444.281	13.84246
444.488	14.14449
444.695	14.5247
444.902	14.00782
445.109	15.03536
445.316	14.2274
445.523	14.83806
445.73	14.85695
445.937	15.98443
446.144	16.78347
446.351	17.39515
446.558	15.84354
446.765	18.2348
446.972	17.20795
447.179	16.7529
447.386	17.37451
447.593	15.61452
447.8	16.44437
448.007	14.87805
448.214	14.84589
448.42	14.64705
448.627	15.69477
448.834	14.77006
449.041	14.80003
449.248	14.75588
449.454	15.45961
449.661	15.82001
449.868	14.4848
450.075	14.31594
450.281	13.57114
450.488	13.78875
450.695	14.07614
450.901	13.96248
451.108	14.29692
451.315	15.15174
451.521	14.05169
451.728	15.30923
451.935	14.1482
452.141	14.26372
452.348	14.47872
452.554	14.63105
452.761	14.32083
452.967	15.9755
453.174	14.72648
453.38	14.7107
453.587	13.84792
453.793	14.95398
454	15.06239
454.206	16.25515
454.413	15.50614
454.619	15.31254
454.825	14.14654
455.032	15.08904
455.238	15.23709
455.445	13.59416
455.651	14.7328
455.857	13.3397
456.064	14.57234
456.27	14.43916
456.476	14.29562
456.682	13.54273
456.889	14.93873
457.095	14.95612
457.301	16.11303
457.507	14.43114
457.714	14.54698
457.92	14.55166
458.126	13.95313
458.332	14.5594
458.538	14.23151
458.744	14.36675
458.951	14.31511
459.157	16.05791
459.363	15.21229
459.569	15.62555
459.775	16.41173
459.981	16.24838
460.187	16.79211
460.393	16.76253
460.599	16.88444
460.805	15.7828
461.011	15.62415
461.217	16.44628
461.423	16.39107
461.629	15.36302
461.835	15.80107
462.041	15.32326
462.247	16.36166
462.453	15.13316
462.658	14.76562
462.864	15.66674
463.07	15.19565
463.276	15.01019
463.482	14.97868
463.688	16.33294
463.893	14.227
464.099	14.56232
464.305	16.19887
464.511	14.51503
464.716	14.63492
464.922	15.5558
465.128	14.08219
465.333	16.09608
465.539	15.45693
465.745	15.31368
465.95	15.00306
466.156	17.33537
466.362	15.86007
466.567	15.07212
466.773	14.74512
466.978	16.2718
467.184	14.61955
467.389	13.5898
467.595	15.18776
467.8	14.42274
468.006	16.40271
468.211	16.21244
468.417	14.33861
468.622	15.36938
468.828	15.65251
469.033	15.42272
469.239	17.2718
469.444	14.7975
469.649	15.85639
469.855	15.17337
470.06	15.28784
470.266	14.02762
470.471	15.63518
470.676	15.46158
470.881	13.46685
471.087	16.71331
471.292	16.8156
471.497	14.07746
471.703	14.86572
471.908	14.8537
472.113	15.2942
472.318	15.84104
472.523	14.50095
472.729	15.61614
472.934	15.5102
473.139	14.96806
473.344	15.59642
473.549	16.22349
473.754	14.71973
473.959	17.17819
474.164	14.91367
474.369	15.09615
474.575	15.95637
474.78	15.19427
474.985	14.90475
475.19	14.0589
475.395	14.72686
475.6	14.97288
475.804	16.4821
476.009	15.31668
476.214	15.19951
476.419	14.90904
476.624	14.3104
476.829	14.91233
477.034	15.62798
477.239	14.89247
477.444	15.70106
477.648	15.96598
477.853	15.87736
478.058	15.14808
478.263	15.18254
478.468	15.09877
478.672	15.00601
478.877	16.80564
479.082	17.05895
479.287	15.89249
479.491	15.70138
479.696	15.20687
479.901	16.247
480.105	16.18987
480.31	14.79251
480.515	15.37593
480.719	17.38807
480.924	15.08946
481.128	14.6955
481.333	15.7232
481.538	15.84708
481.742	15.35588
481.947	16.49343
482.151	17.70081
482.356	19.0361
482.56	22.28217
482.765	24.7039
482.969	29.37087
483.174	32.98763
483.378	38.02955
483.582	39.8681
483.787	42.78415
483.991	43.55804
484.196	43.82249
484.4	43.13838
484.604	43.45618
484.809	39.60063
485.013	37.60735
485.217	34.07892
485.422	30.19421
485.626	27.32696
485.83	25.88711
486.034	24.83929
486.239	25.30589
486.443	26.12872
486.647	26.72473
486.851	28.19034
487.055	30.3885
487.26	30.87451
487.464	32.09421
487.668	31.83533
487.872	32.44853
488.076	32.67821
488.28	31.4336
488.484	29.38926
488.688	28.43199
488.892	26.9191
489.096	25.03933
489.3	23.21666
489.504	21.61832
489.708	20.43803
489.912	20.0064
490.116	19.3641
490.32	19.16754
490.524	20.77095
490.728	21.98863
490.932	23.35464
491.136	24.95034
491.34	26.47517
491.544	27.36851
491.748	27.37852
491.951	27.23249
492.155	26.47417
492.359	25.65152
492.563	23.36399
492.767	22.36748
492.97	20.00286
493.174	17.72635
493.378	17.12421
493.582	16.66466
493.785	16.82567
493.989	16.70714
494.193	16.82016
494.396	16.14579
494.6	16.5339
494.804	16.03913
495.007	15.73643
495.211	15.84677
495.414	15.57319
495.618	16.20346
495.822	16.78032
496.025	16.02727
496.229	16.40672
496.432	15.60845
496.636	16.05108
496.839	16.12329
497.043	16.79844
497.246	16.23783
497.45	16.0412
497.653	16.27287
497.856	16.4026
498.06	15.93171
498.263	16.22066
498.467	16.06026
498.67	16.87727
498.873	16.60742
499.077	16.12639
499.28	16.23123
499.483	16.58358
499.686	16.83991
499.89	16.32992
500.093	16.81251
500.296	15.80027
500.499	17.69993
500.703	16.12739
500.906	16.64334
501.109	17.37671
501.312	16.04187
501.515	15.94044
501.719	16.37909
501.922	16.76688
502.125	16.16048
502.328	16.05191
502.531	15.24012
502.734	16.14951
502.937	15.04431
503.14	16.00792
503.343	15.50892
503.546	15.92108
503.749	15.5616
503.952	16.37712
504.155	15.45667
504.358	16.38676
504.561	16.49184
504.764	15.09453
504.967	16.36851
505.17	16.25332
505.373	17.38831
505.576	16.05274
505.778	16.709
505.981	15.61368
506.184	17.1144
506.387	14.81973
506.59	17.59638
506.793	17.07695
506.995	16.35416
507.198	14.69712
507.401	16.61147
507.604	16.26967
507.806	15.24734
508.009	15.55724
508.212	16.65149
508.414	15.90352
508.617	15.6765
508.82	16.12501
509.022	17.36212
509.225	16.40376
509.427	15.34268
509.63	17.26975
509.833	16.28125
510.035	16.09428
510.238	15.39161
510.44	17.39459
510.643	15.02693
510.845	17.85105
511.048	16.73259
511.25	15.86569
511.453	16.08619
511.655	16.53044
511.858	15.94696
512.06	16.8108
512.262	16.43266
512.465	17.20647
512.667	16.29075
512.869	15.4357
513.072	16.82045
513.274	16.98548
513.476	16.89861
513.679	17.10324
513.881	15.60545
514.083	17.66806
514.286	15.88919
514.488	15.73481
514.69	15.61862
514.892	15.10256
515.094	17.12842
515.297	15.77999
515.499	16.40946
515.701	15.75849
515.903	17.36094
516.105	17.72464
516.307	16.87411
516.509	14.99379
516.711	15.30193
516.913	16.30612
517.116	16.51481
517.318	15.82192
517.52	16.95882
517.722	16.60501
517.924	15.70361
518.126	16.54501
518.328	15.9339
518.529	16.67667
518.731	17.74753
518.933	16.28635
519.135	16.53675
519.337	17.61147
519.539	17.20968
519.741	15.62684
519.943	16.60001
520.145	16.47812
520.346	17.51842
520.548	16.62107
520.75	16.94988
520.952	16.51895
521.153	16.94141
521.355	17.02381
521.557	15.73505
521.759	16.64792
521.96	16.52997
522.162	15.53222
522.364	17.19959
522.565	15.83875
522.767	16.97376
522.969	16.95221
523.17	16.82789
523.372	16.65111
523.573	16.34314
523.775	16.33648
523.977	15.51911
524.178	17.53493
524.38	15.87534
524.581	16.85257
524.783	15.85817
524.984	16.68619
525.186	16.23244
525.387	16.61937
525.589	16.51335
525.79	16.26676
525.991	16.11596
526.193	17.03616
526.394	16.35804
526.596	17.4671
526.797	17.81867
526.998	17.76074
527.2	18.84785
527.401	21.59888
527.602	23.38724
527.803	26.88832
528.005	29.07641
528.206	31.23877
528.407	33.09097
528.608	33.54887
528.81	33.93543
529.011	33.06817
529.212	33.9156
529.413	31.83222
529.614	29.9068
529.815	27.91367
530.017	25.44779
530.218	22.56225
530.419	20.12618
530.62	19.19333
530.821	18.23069
531.022	16.72192
531.223	17.53399
531.424	17.37544
531.625	17.39553
531.826	16.9875
532.027	17.88432
532.228	19.56335
532.429	20.12164
532.63	20.73111
532.831	22.31706
533.032	22.46273
533.233	23.73494
533.433	23.24032
533.634	23.47087
533.835	22.49454
534.036	21.46722
534.237	20.36331
534.438	19.25177
534.638	17.26077
534.839	17.40272
535.04	17.79438
535.241	17.01591
535.441	18.40762
535.642	17.16439
535.843	15.98729
536.043	16.12783
536.244	16.19075
536.445	16.38318
536.645	17.29515
536.846	17.18428
537.047	17.77768
537.247	16.40414
537.448	16.82313
537.648	17.20034
537.849	17.02589
538.049	17.02399
538.25	17.61641
538.451	17.60055
538.651	16.71563
538.851	17.41822
539.052	17.64061
539.252	17.28087
539.453	16.48986
539.653	16.84196
539.854	16.1909
540.054	16.41732
540.254	17.81534
540.455	19.73252
540.655	20.26538
540.855	22.66236
541.056	24.52879
541.256	24.58759
541.456	25.77843
541.657	25.0696
541.857	26.08956
542.057	24.2033
542.257	23.15673
542.458	23.06141
542.658	21.75928
542.858	19.16659
543.058	19.23469
543.258	18.11092
543.458	16.57902
543.659	16.49649
543.859	17.67512
544.059	17.63564
544.259	16.95358
544.459	17.79725
544.659	16.59554
544.859	17.32051
545.059	16.68453
545.259	17.35222
545.459	16.82219
545.659	17.46137
545.859	16.68699
546.059	16.61888
546.259	16.08764
546.459	15.95985
546.659	15.85598
546.859	17.34541
547.059	16.86907
547.258	17.38876
547.458	17.32746
547.658	16.27347
547.858	16.09013
548.058	17.44301
548.258	16.90269
548.457	16.14449
548.657	19.03915
548.857	16.44811
549.057	17.43309
549.256	17.30415
549.456	16.07882
549.656	14.65004
549.855	18.14491
550.055	15.85732
550.255	18.26235
550.454	16.95373
550.654	16.59982
550.853	17.51447
551.053	17.0838
551.253	16.5567
551.452	16.54042
551.652	15.22404
551.851	14.90563
552.051	16.04048
552.25	15.58454
552.45	15.43257
552.649	16.08111
552.849	15.95004
553.048	16.51279
553.248	16.77655
553.447	15.78013
553.646	17.21008
553.846	18.31732
554.045	17.40438
554.244	15.56137
554.444	18.08589
554.643	15.69528
554.842	18.00317
555.042	18.4891
555.241	15.79428
555.44	15.04613
555.64	17.05721
555.839	18.01526
556.038	16.75248
556.237	15.42391
556.436	16.77931
556.636	16.88065
556.835	15.49837
557.034	17.88306
557.233	16.50895
557.432	14.91149
557.631	17.44026
557.83	15.8279
558.029	15.74428
558.228	15.58584
558.427	15.52474
558.626	16.69214
558.825	15.24493
559.024	16.29756
559.223	17.75654
559.422	15.85232
559.621	16.73718
559.82	13.44164
560.019	16.31311
560.218	15.85411
560.417	13.63566
560.616	15.15098
560.815	19.38421
561.014	14.727
561.212	18.15677
561.411	16.27292
561.61	14.67517
561.809	15.92397
562.008	17.58492
562.206	15.7294
562.405	16.9576
562.604	15.82411
562.803	16.31086
563.001	15.9701
563.2	15.16911
563.399	16.73001
563.597	14.99848
563.796	16.12095
563.995	14.52502
564.193	16.93459
564.392	15.94625
564.59	18.02763
564.789	14.50312
564.988	15.21412
565.186	16.26468
565.385	15.84019
565.583	15.87974
565.782	15.918
565.98	16.00276
566.179	16.10932
566.377	15.22355
566.575	15.59506
566.774	17.67609
566.972	17.27193
567.171	18.396
567.369	17.76126
567.567	16.81765
567.766	16.77169
567.964	14.79521
568.162	17.26048
568.361	17.26068
568.559	15.96629
568.757	16.48735
568.956	16.08579
569.154	15.98883
569.352	16.65517
569.55	16.35601
569.748	15.99584
569.947	15.4369
570.145	15.30995
570.343	15.09687
570.541	17.20511
570.739	14.85358
570.937	16.07045
571.135	16.46394
571.333	18.00039
571.532	17.67229
571.73	16.48353
571.928	17.48737
572.126	16.71496
572.324	15.8056
572.522	17.54079
572.72	19.47574
572.918	16.46102
573.116	16.88567
573.313	16.53803
573.511	16.29264
573.709	15.82071
573.907	17.3421
574.105	16.03306
574.303	14.59143
574.501	14.62357
574.699	16.73126
574.896	16.77692
575.094	16.89472
575.292	14.84117
575.49	17.35252
575.688	15.77652
575.885	17.68294
576.083	18.84294
576.281	16.71281
576.478	15.56813
576.676	16.92623
576.874	14.7406
577.071	16.18636
577.269	18.67774
577.467	16.31904
577.664	16.18155
577.862	17.38998
578.059	14.79751
578.257	16.97171
578.455	15.55721
578.652	16.6045
578.85	13.80573
579.047	16.09937
579.245	15.60048
579.442	15.65495
579.64	16.16717
579.837	13.7151
580.034	19.06532
580.232	15.54761
580.429	14.22108
580.627	16.54706
580.824	17.27491
581.021	16.18281
581.219	15.15189
581.416	14.50845
581.613	17.34182
581.811	17.67567
582.008	14.89692
582.205	16.8262
582.402	16.05624
582.6	17.44763
582.797	16.02245
582.994	16.05603
583.191	16.65605
583.388	15.33322
583.586	16.8128
583.783	17.14657
583.98	14.84797
584.177	15.7857
584.374	12.16347
584.571	15.50101
584.768	15.73517
584.965	14.65391
585.162	16.63294
585.359	17.81171
585.556	15.88813
585.753	16.25983
585.95	13.7671
586.147	15.05232
586.344	16.55014
586.541	14.80225
586.738	13.9669
586.935	15.12964
587.132	14.66098
587.329	16.8959
587.526	15.59767
587.722	22.09498
587.919	14.15112
588.116	16.42055
588.313	17.48042
588.51	18.62105
588.706	15.15975
588.903	16.62216
589.1	17.00109
589.297	19.00592
589.493	16.15658
589.69	16.25949
589.887	15.26368
590.083	14.40802
590.28	15.16084
590.477	16.86875
590.673	16.98561
590.87	17.92361
591.067	16.12415
591.263	16.73778
591.46	16.2518
591.656	15.01461
591.853	17.5154
592.049	14.58033
592.246	14.86543
592.442	17.23663
592.639	17.00035
592.835	14.61685
593.032	16.08575
593.228	14.23243
593.425	13.85526
593.621	13.5944
593.817	15.80316
594.014	14.6137
594.21	15.62581
594.406	17.30597
594.603	16.47106
594.799	15.24389
594.995	12.81569
595.192	17.35831
595.388	15.34372
595.584	15.4919
595.78	14.05955
595.977	18.55539
596.173	17.55211
596.369	15.63772
596.565	14.60092
596.761	13.92736
596.957	17.57257
597.154	15.12418
597.35	15.7259
597.546	15.31826
597.742	17.38737
597.938	16.82133
598.134	15.45671
598.33	16.93311
598.526	18.30542
598.722	16.54375
598.918	18.31869
599.114	16.56734
599.31	14.26333
599.506	15.45484
599.702	14.87696
599.898	15.90267
600.094	16.69826
600.29	16.87128
600.485	16.71966
600.681	14.94128
600.877	18.12657
601.073	15.2454
601.269	18.63981
601.465	17.04773
601.66	14.14329
601.856	12.93525
602.052	18.04605
602.248	14.92122
602.443	13.27084
602.639	13.99365
602.835	14.71676
603.03	14.40661
603.226	17.0292
603.422	14.55437
603.617	15.19262
603.813	15.07276
604.009	15.69135
604.204	17.35546
604.4	14.56515
604.595	17.35932
604.791	14.91181
604.986	16.27885
605.182	15.2811
605.377	15.91485
605.573	15.62609
605.768	16.3904
605.964	17.25523
606.159	17.06087
606.355	17.60775
606.55	15.2594
606.746	17.48798
606.941	15.63014
607.136	18.73019
607.332	20.13645
607.527	13.91454
607.722	16.14103
607.918	15.48297
608.113	14.82482
608.308	16.88049
608.503	15.948
608.699	16.329
608.894	16.61991
609.089	14.92649
609.284	16.09641
609.479	15.61332
609.675	17.40916
609.87	15.45487
610.065	17.46785
610.26	17.37891
610.455	16.93733
610.65	16.20294
610.845	16.53093
611.04	18.01322
611.235	16.13057
611.43	15.73081
611.625	14.44132
611.82	18.35948
612.015	14.79227
612.21	17.58743
612.405	13.96029
612.6	18.49637
612.795	17.31845
612.99	16.75108
613.185	14.25718
613.38	14.46299
613.575	16.02625
613.77	20.47623
613.965	12.93269
614.159	14.23075
614.354	17.60312
614.549	17.53303
614.744	17.28451
614.938	14.07012
615.133	13.34527
615.328	18.21654
615.523	17.21382
615.717	20.59801
615.912	14.61557
616.107	16.29416
616.301	15.34686
616.496	15.27534
616.691	18.24662
616.885	16.73863
617.08	21.1651
617.274	17.56105
617.469	19.06234
617.664	16.91379
617.858	14.89691
618.053	16.59442
618.247	15.31797
618.442	11.5498
618.636	18.66125
618.831	15.14384
619.025	14.61653
619.219	20.65515
619.414	10.56841
619.608	15.99158
619.803	14.57935
619.997	20.0596
620.191	17.4015
620.386	16.28628
620.58	15.81953
620.774	13.07206
620.969	13.24726
621.163	15.77528
621.357	14.42593
621.551	14.93971
621.746	15.61994
621.94	15.55464
622.134	22.09371
622.328	20.15772
622.522	12.95537
622.716	17.17868
622.911	17.9136
623.105	18.36849
623.299	17.03246
623.493	21.59697
623.687	14.18735
623.881	14.88153
624.075	16.76201
624.269	18.44491
624.463	12.27044
624.657	13.39539
624.851	16.76371
625.045	17.87331
625.239	17.6668
625.433	15.60007
625.627	18.17372
625.821	14.64843
626.015	14.6227
626.209	16.45547
626.403	14.24018
626.596	16.97435
626.79	17.62197
626.984	14.2562
627.178	17.23573
627.372	16.99868
627.565	17.61191
627.759	13.99054
627.953	14.73293
628.147	17.92533
628.34	17.82524
628.534	19.79008
628.728	15.90019
628.921	17.51278
629.115	17.33474
629.309	18.00373
629.502	18.31152
629.696	16.08658
629.89	15.73973
630.083	16.46534
630.277	16.93965
630.47	19.31537
630.664	15.56699
630.857	13.0353
631.051	17.69934
631.244	18.56974
631.438	17.9055
631.631	14.98692
631.825	19.39085
632.018	18.18445
632.212	19.7758
632.405	18.331
632.598	15.36129
632.792	16.25788
632.985	11.71303
633.178	15.72639
633.372	15.80469
633.565	15.64673
633.758	19.18158
633.952	14.16391
634.145	14.41587
634.338	15.76438
634.531	15.29989
634.724	15.8463
634.918	16.46617
635.111	15.44253
635.304	15.85138
635.497	21.38331
635.69	16.93127
635.883	19.06768
636.077	14.30097
636.27	17.34958
636.463	16.65251
636.656	16.66367
636.849	16.24294
637.042	18.16315
637.235	19.85614
637.428	18.12988
637.621	18.6107
637.814	19.83875
638.007	19.93135
638.2	18.93712
638.393	20.3672
638.586	13.99344
638.778	15.29704
638.971	16.35837
639.164	20.49885
639.357	17.09414
639.55	19.38012
639.743	18.62361
639.935	17.51376
640.128	21.41946
640.321	18.45335
640.514	17.03288
640.707	22.01708
640.899	18.09948
641.092	12.49578
641.285	35.00279
641.477	11.52464
641.67	23.18589
641.863	20.27761
642.055	17.36191
642.248	16.47033
642.441	15.59286
642.633	18.18613
642.826	19.29696
643.018	20.09761
643.211	21.40038
643.403	21.10973
643.596	22.67966
643.788	21.5063
643.981	16.35489
644.173	19.49897
644.366	16.6428
644.558	12.96965
644.751	20.01907
644.943	13.06212
645.135	21.55674
645.328	21.26664
645.52	18.6013
645.712	20.21046
645.905	24.72273
646.097	14.48276
646.289	16.6474
646.482	23.07249
646.674	15.86475
646.866	20.90348
647.058	18.84881
647.251	14.65785
647.443	15.49269
647.635	17.69496
647.827	14.54688
648.019	16.05304
648.211	16.74973
648.404	17.39026
648.596	21.92071
648.788	17.21841
648.98	17.42301
649.172	18.73191
649.364	18.41605
649.556	13.24842
649.748	24.64022
649.94	15.25591
650.132	19.31286
650.324	14.59789
650.516	15.92857
650.708	20.44318
650.9	14.18485
651.092	16.74359
651.284	13.52408
651.476	14.5764
651.667	19.14946
651.859	21.01529
652.051	18.08305
652.243	17.56196
652.435	15.84095
652.627	20.18663
652.818	18.78952
653.01	13.39268
653.202	15.22817
653.394	16.86948
653.585	19.57264
653.777	30.19444
653.969	21.74646
654.16	21.53972
654.352	14.5665
654.544	16.94525
654.735	20.51771
654.927	18.48917
655.118	22.55004
655.31	19.24525
655.502	21.61671
655.693	16.61525
655.885	19.48829
656.076	21.57399
656.268	18.53618
656.459	22.35075
656.651	21.69851
656.842	17.3681
657.034	16.26893
657.225	20.52321
657.416	21.64857
657.608	22.30415
657.799	18.54177
657.99	21.31862
658.182	17.12692
658.373	16.34233
658.564	20.60165
658.756	18.62947
658.947	18.33641
659.138	15.90939
659.33	17.14689
659.521	16.54364
659.712	18.18051
659.903	17.40882
660.094	16.80557
660.286	14.80016
660.477	23.91318
660.668	20.16608
660.859	18.71054
661.05	14.40779
661.241	20.29794
661.432	20.67108
661.623	17.31407
661.814	17.81299
662.006	14.20907
662.197	18.99599
662.388	22.32521
662.579	19.19859
662.77	22.3069
662.96	27.3223
663.151	21.21901
663.342	13.09525
663.533	20.50631
663.724	19.12059
663.915	25.00476
664.106	18.66916
664.297	23.873
664.488	20.76192
664.678	16.53259
664.869	21.29496
665.06	21.33469
665.251	19.34275
665.442	20.70134
665.632	14.57662
665.823	24.87883
666.014	9.43967
666.204	21.27354
666.395	23.266
666.586	27.69033
666.776	22.16765
666.967	24.01396
667.158	19.78107
667.348	22.97888
667.539	15.50074
667.729	22.0295
667.92	15.98678
668.111	21.28206
668.301	21.40211
668.492	18.69713
668.682	19.63029
668.873	19.53086
669.063	16.39375
669.253	20.22129
669.444	22.47631
669.634	18.87442
669.825	26.26451
670.015	22.85533
670.206	16.92462
670.396	26.07815
670.586	19.52568
670.777	21.55389
670.967	12.43443
671.157	18.26331
671.347	16.92046
671.538	24.99655
671.728	21.18148
671.918	26.41057
672.108	23.33632
672.299	18.85057
672.489	20.93501
672.679	17.42931
672.869	21.93225
673.059	28.23358
673.249	21.67591
673.44	15.80129
673.63	19.29857
673.82	23.54281
674.01	17.29862
674.2	21.41005
674.39	30.72246
674.58	22.58045
674.77	20.32164
674.96	20.11007
675.15	35.02114
675.34	25.38532
675.53	20.36633
675.72	19.93095
675.91	15.02787
676.099	26.98702
676.289	29.08366
676.479	24.08774
676.669	18.37504
676.859	22.18194
677.049	17.34269
677.238	19.8349
677.428	28.56376
677.618	23.21319
677.808	25.60062
677.997	22.09007
678.187	16.20273
678.377	20.35219
678.567	18.75429
678.756	18.51791
678.946	19.85624
679.136	16.03894
679.325	18.38878
679.515	17.40185
679.704	16.68088
679.894	22.38543
680.084	21.27011
680.273	24.27015
680.463	18.2607
680.652	17.47718
680.842	20.83592
681.031	23.90134
681.221	17.8365
681.41	23.05445
681.6	20.2094
681.789	24.11976
681.978	25.81492
682.168	22.61662
682.357	21.06884
682.547	24.70705
682.736	21.51554
682.925	26.37029
683.115	25.82708
683.304	24.54827
683.493	23.04779
683.682	22.57259
683.872	23.49473
684.061	26.53589
684.25	23.92019
684.439	29.30306
684.629	23.94514
684.818	36.13846
685.007	22.16376
685.196	20.48639
685.385	28.11415
685.574	24.00062
685.763	24.28255
685.952	23.579
686.142	19.04636
686.331	27.32511
686.52	15.58629
686.709	30.26444
686.898	28.86428
687.087	25.46975
687.276	30.20396
687.465	26.64429
687.654	21.40546
687.842	29.48499
688.031	18.0512
688.22	28.46399
688.409	23.56038
688.598	23.94594
688.787	33.13923
688.976	22.56865
689.165	31.09982
689.353	21.2432
689.542	24.74982
689.731	26.78532
689.92	31.84387
690.108	26.87274
690.297	23.02518
690.486	22.86325
690.675	28.08805
690.863	31.6392
691.052	30.11887
691.241	23.94885
691.429	24.53952
691.618	31.17646
691.806	18.05887
691.995	22.88389
692.184	24.59304
692.372	22.7327
692.561	24.89357
692.749	25.47485
692.938	36.57058
693.126	27.53049
693.315	23.84903
693.503	28.31797
693.692	27.34761
693.88	29.71353
694.068	35.67412
694.257	24.32018
694.445	26.50695
694.634	16.18231
694.822	29.90493
695.01	31.94666
695.199	33.40442
695.387	32.64193
695.575	30.71303
695.763	24.1623
695.952	22.53297
696.14	18.6543
696.328	22.76628
696.516	24.32872
696.705	26.88776
696.893	25.91007
697.081	16.59153
697.269	28.2443
697.457	19.47203
697.645	19.20102
697.833	27.08999
698.021	20.0051
698.21	22.27584
698.398	23.08032
698.586	19.36704
698.774	20.05947
698.962	22.93815
699.15	20.65842
699.338	18.07948
699.526	26.58939
699.714	22.3967
699.901	22.6597
700.089	28.75386
700.277	21.4776
700.465	24.93746
700.653	27.62829
700.841	27.26855
701.029	21.93301
701.217	31.9574
701.404	27.87662
701.592	33.38948
701.78	35.881
701.968	24.85429
702.155	25.39576
702.343	17.76838
702.531	31.77957
702.718	27.93109
702.906	25.48839
703.094	22.80104
703.281	32.15061
703.469	26.12946
703.657	32.76128
703.844	44.47662
704.032	36.42956
704.219	24.03374
704.407	29.9045
704.595	33.9612
704.782	27.76915
704.97	23.38899
705.157	25.60307
705.345	34.84916
705.532	42.75583
705.719	30.05577
705.907	36.11362
706.094	28.29663
706.282	36.54408
706.469	25.51943
706.656	27.64186
706.844	26.85581
707.031	33.6932
707.218	28.91162
707.406	37.7396
707.593	32.26035
707.78	30.98056
707.968	27.45358
708.155	23.439
708.342	31.82269
708.529	31.67187
708.716	29.23888
708.904	36.94589
709.091	33.32727
709.278	21.44674
709.465	41.21255
709.652	39.09494
709.839	34.74397
710.026	30.81523
710.213	19.68442
710.4	31.06246
710.587	34.82507
710.774	36.82648
710.961	34.73506
711.148	28.45514
711.335	35.33015
711.522	27.17822
711.709	31.24774
711.896	42.41212
712.083	33.58962
712.27	24.04505
712.457	30.92511
712.644	22.16918
712.831	42.40461
713.017	29.93388
713.204	33.74572
713.391	26.3842
713.578	36.83824
713.765	40.10062
713.951	33.71818
714.138	50.354
714.325	35.02147
714.512	31.93675
714.698	26.51868
714.885	39.31973
715.072	33.46691
715.258	30.95758
715.445	27.66637
715.631	38.87628
715.818	15.75971
716.005	28.31504
716.191	35.50902
716.378	28.75398
716.564	37.94876
716.751	26.61407
716.937	29.77202
717.124	39.21977
717.31	27.24346
717.497	43.98704
717.683	28.75922
717.869	47.79346
718.056	31.02584
718.242	35.34062
718.429	31.98452
718.615	26.56192
718.801	32.75756
718.988	38.32416
719.174	36.3017
719.36	31.69956
719.547	39.80109
719.733	34.61674
719.919	34.70036
720.105	42.34749
720.291	33.57743
720.478	36.18381
720.664	33.87399
720.85	29.22083
721.036	55.31171
721.222	44.75552
721.408	33.28562
721.595	47.91155
721.781	46.25507
721.967	42.70266
722.153	43.80435
722.339	35.20436
722.525	37.37659
722.711	28.79435
722.897	24.76126
723.083	31.90353
723.269	43.5397
723.455	54.31818
723.641	60.6979
723.827	39.05711
724.012	38.1059
724.198	33.4017
724.384	45.67743
724.57	38.17142
724.756	24.54452
724.942	20.61449
725.127	41.8746
725.313	46.62127
725.499	44.73668
725.685	51.11777
725.87	37.64712
726.056	27.90184
726.242	44.74496
726.428	24.22306
726.613	42.62158
726.799	32.23179
726.985	27.13224
727.17	23.05256
727.356	49.06203
727.541	27.82056
727.727	33.7241
727.913	38.86869
728.098	31.39941
728.284	41.07082
728.469	25.44461
728.655	27.72282
728.84	42.87706
729.026	40.46733
729.211	42.20776
729.397	39.30294
729.582	40.58551
729.767	34.89408
729.953	38.9855
730.138	43.21877
730.323	19.58943
730.509	27.67232
730.694	50.71425
730.879	41.22045
731.065	36.91327
731.25	53.2384
731.435	42.03687
731.621	23.85778
731.806	31.06066
731.991	37.85978
732.176	24.37309
732.361	46.60235
732.547	41.50552
732.732	23.36045
732.917	55.33803
733.102	27.73772
733.287	31.22063
733.472	36.89101
733.657	40.00727
733.842	26.06971
734.027	33.45553
734.212	34.79658
734.397	29.28316
734.582	39.96638
734.767	45.73758
734.952	51.58633
735.137	17.09215
735.322	51.19837
735.507	40.68709
735.692	39.61257
735.877	57.92469
736.062	54.73107
736.247	41.79515
736.431	34.43256
736.616	49.26873
736.801	40.73476
736.986	36.69424
737.171	31.60013
737.355	24.33478
737.54	40.07235
737.725	39.88877
737.909	63.74642
738.094	34.38224
738.279	45.90567
738.463	35.86613
738.648	45.15839
738.833	42.21513
739.017	58.65332
739.202	37.60518
739.386	35.4558
739.571	28.57005
739.756	46.71924
739.94	40.27565
740.125	47.9457
740.309	32.55535
740.494	43.79887
740.678	39.45694
740.863	45.42066
741.047	41.23481
741.231	52.17091
741.416	30.87161
741.6	54.88057
741.785	28.17765
741.969	50.06156
742.153	51.48882
742.338	20.16776
742.522	39.00491
742.706	50.0559
742.89	25.60366
743.075	41.85137
743.259	54.45014
743.443	49.07533
743.627	54.77836
743.812	63.95272
743.996	16.35068
744.18	37.47727
744.364	34.62878
744.548	69.07285
744.732	39.80919
744.916	49.54168
745.1	48.17681
745.285	39.61264
745.469	44.91632
745.653	62.81788
745.837	27.59126
746.021	67.65608
746.205	54.23778
746.389	41.274
746.573	38.96652
746.757	57.13033
746.94	38.08654
747.124	53.78746
747.308	29.09026
747.492	52.64277
747.676	33.70076
747.86	68.86371
748.044	38.42924
748.227	22.87659
748.411	84.52055
748.595	46.63114
748.779	31.13139
748.963	48.73445
749.146	43.2157
749.33	33.85209
749.514	33.3514
749.697	53.74498
749.881	37.73017
750.065	28.39454
750.248	40.84771
750.432	70.1358
750.616	43.32962
750.799	27.63592
750.983	66.42653
751.166	71.87986
751.35	26.24117
751.533	47.90644
751.717	58.50771
751.9	61.15457
752.084	38.92392
752.267	28.70901
752.451	35.2646
752.634	44.40961
752.818	51.85743
753.001	52.79918
753.184	56.94081
753.368	47.21786
753.551	7.6266
753.734	35.23589
753.918	68.96699
754.101	35.66586
754.284	51.53835
754.467	38.57517
754.651	35.71821
754.834	34.15892
755.017	55.43718
755.2	55.14025
755.384	31.91412
755.567	52.28094
755.75	57.6866
755.933	42.65804
756.116	48.31412
756.299	39.72313
756.482	34.85896
756.665	51.12948
756.848	47.81117
757.032	49.69952
757.215	28.35329
757.398	32.66546
757.581	34.66015
757.764	78.13109
757.947	44.00528
758.129	56.00412
758.312	13.39856
758.495	40.8962
758.678	42.80433
758.861	43.29922
759.044	66.39942
759.227	32.36931
759.41	37.2
759.592	53.09781
759.775	43.58655
759.958	54.44269
760.141	27.00463
760.324	68.61168
760.506	65.66714
760.689	52.95232
760.872	76.52581
761.054	50.3217
761.237	39.789
761.42	52.94606
761.602	53.05737
761.785	47.3581
761.968	57.85237
762.15	69.99831
762.333	42.15249
762.515	47.39065
762.698	35.19121
762.88	50.09754
763.063	42.62488
763.245	50.77439
763.428	29.85986
763.61	31.16657
763.793	29.46655
763.975	42.57909
764.158	36.07221
764.34	34.72247
764.522	31.57626
764.705	39.23809
764.887	57.0816
765.069	29.5821
765.252	52.67528
765.434	49.16135
765.616	43.75091
765.799	35.6533
765.981	52.37229
766.163	35.16418
766.345	59.44293
766.528	38.23355
766.71	17.20842
766.892	46.81929
767.074	62.20084
767.256	41.39291
767.438	67.70328
767.62	52.49542
767.802	77.41551
767.985	55.67569
768.167	71.92244
768.349	39.97918
768.531	56.27693
768.713	48.96049
768.895	62.31375
769.077	50.99995
769.259	90.6443
769.441	125.07063
769.623	65.6732
769.804	75.35782
769.986	74.20767
770.168	87.82861
770.35	105.90098
770.532	78.94352
770.714	83.34736
770.896	89.47064
771.077	35.92656
771.259	93.94411
771.441	76.50207
771.623	101.69871
771.804	121.61318
771.986	32.56566
772.168	58.73782
772.35	90.45826
772.531	122.67229
772.713	76.22453
772.894	99.04611
773.076	69.98351
773.258	60.24697
773.439	96.72926
773.621	111.26664
773.802	45.67857
773.984	72.98295
774.166	82.18492
774.347	120.67557
774.529	95.67478
774.71	25.48116
774.891	74.06497
775.073	73.68185
775.254	121.6005
775.436	54.90619
775.617	123.5693
775.799	60.88506
775.98	116.20698
776.161	122.87048
776.343	114.29665
776.524	76.84411
776.705	69.10387
776.886	34.9607
777.068	72.69229
777.249	142.63753
777.43	117.11675
777.611	45.97172
777.793	71.45177
777.974	113.76068
778.155	67.30297
778.336	54.08788
778.517	123.27393
778.698	55.6258
778.879	28.22176
779.061	9.66045
779.242	89.97401
779.423	86.71032
779.604	61.93422
779.785	74.25022
779.966	87.13598
780.147	99.44154
780.328	105.27524
780.509	137.75085
780.69	99.85887
780.871	59.88874
781.051	36.30471
781.232	81.40078
781.413	86.33685
781.594	62.94034
781.775	67.74605
781.956	55.45131
782.137	30.00346
782.317	55.73649
782.498	79.03748
782.679	81.63436
782.86	81.22361
783.04	56.60319
783.221	88.08078
783.402	125.66752
783.583	78.75595
783.763	99.5706
783.944	64.08454
784.124	42.15919
784.305	116.79878
784.486	94.26845
784.666	69.75974
784.847	33.44782
785.027	168.82738
785.208	62.44693
785.388	53.23077
785.569	61.2578
785.749	67.20907
785.93	55.22179
786.11	41.24966
786.291	90.18181
786.471	84.3439
786.652	99.06838
786.832	66.85347
787.012	81.38633
787.193	42.7291
787.373	76.88233
787.553	65.08482
787.734	83.35307
787.914	62.23569
788.094	87.88964
788.275	84.14715
788.455	65.69406
788.635	44.24923
788.815	75.97053
788.995	45.25328
789.176	37.88699
789.356	54.48991
789.536	63.93964
789.716	84.4759
789.896	51.71519
790.076	61.31274
790.256	73.70962
790.436	26.06095
790.616	46.26756
790.796	80.96045
790.976	62.3518
791.156	62.43188
791.336	87.24942
791.516	78.89109
791.696	67.31586
791.876	34.93149
792.056	78.27233
792.236	98.30598
792.416	96.54039
792.596	84.88716
792.776	86.0051
792.956	90.18201
793.135	117.0791
793.315	47.10183
793.495	109.20281
793.675	93.26175
793.854	97.01393
794.034	98.53222
794.214	48.43804
794.394	94.17864
794.573	106.41115
794.753	77.36803
794.933	51.90138
795.112	77.1966
795.292	91.36784
795.472	121.3372
795.651	47.20949
795.831	75.44208
796.01	60.10118
796.19	63.2519
796.369	69.09808
796.549	85.84353
796.728	66.67703
796.908	48.78201
797.087	44.14301
797.267	69.20874
797.446	42.75342
797.626	82.55827
797.805	75.32624
797.984	56.71041
798.164	84.02084
798.343	50.5917
798.522	75.63462
798.702	72.93792
798.881	43.17434
799.06	68.62954
799.239	30.49729
799.419	48.13166
799.598	109.2105
799.777	85.37794
799.956	105.54362
800.136	60.22882
800.315	58.1571
800.494	84.20511
800.673	99.20976
800.852	96.74193
801.031	109.19316
801.21	88.05917
801.389	60.512
801.568	79.98272
801.747	130.63722
801.926	70.54129
802.105	109.26662
802.284	68.27399
802.463	109.07804
802.642	80.9676
802.821	76.26567
803	107.69159
803.179	93.01177
803.358	106.00277
803.537	60.27395
803.716	92.25021
803.895	54.76605
804.073	69.71832
804.252	63.47048
804.431	94.18027
804.61	76.97571
804.789	104.95237
804.967	61.6295
805.146	62.27526
805.325	145.24924
805.503	88.61051
805.682	37.48637
805.861	158.698
806.039	106.9077
806.218	60.85068
806.397	80.15856
806.575	78.11492
806.754	79.86475
806.932	57.32858
807.111	126.96451
807.289	97.52786
807.468	88.29348
807.646	102.52015
807.825	89.38268
808.003	91.27659
808.182	101.29347
808.36	74.77509
808.539	56.82458
808.717	116.94116
808.895	60.80827
809.074	90.78327
809.252	74.26058
809.43	108.07766
809.609	117.15177
809.787	130.87071
809.965	77.42027
810.144	80.34138
810.322	67.87301
810.5	95.69431
810.678	71.93084
810.856	148.09914
811.035	111.70855
811.213	115.70531
811.391	115.3797
811.569	82.24461
811.747	181.50989
811.925	130.29344
812.103	67.31812
812.281	63.42378
812.459	161.51285
812.637	134.89962
812.816	121.87681
812.994	141.19916
813.171	123.43281
813.349	104.10599
813.527	140.31696
813.705	124.82876
813.883	144.00771
814.061	127.17479
814.239	145.23226
814.417	164.35369
814.595	105.4031
814.773	99.63587
814.95	103.18589
815.128	101.15815
815.306	86.88707
815.484	80.47756
815.662	70.88659
815.839	55.3296
816.017	70.69474
816.195	119.05033
816.372	83.46353
816.55	126.39312
816.728	134.98527
816.905	80.54784
817.083	131.16375
817.261	93.22173
817.438	182.067
817.616	154.83159
817.793	75.0874
817.971	109.44743
818.148	106.23297
818.326	129.38523
818.503	99.55714
818.681	138.32353
818.858	70.1377
819.036	89.10792
819.213	99.55036
819.391	68.00358
819.568	60.87479
819.745	57.36339
819.923	95.49563
820.1	60.76896
820.277	54.77832
820.455	65.45556
820.632	69.60315
820.809	72.8093
820.986	44.36758
821.164	36.64677
821.341	31.49084
821.518	46.0516
821.695	32.63406
821.872	31.58322
822.05	27.20672
822.227	22.31968
822.404	24.8354
822.581	26.75371
822.758	25.19993
822.935	25.4183
823.112	28.79615
823.289	24.79624
823.466	29.61815
823.643	29.29762
823.82	34.51402
823.997	32.49036
824.174	37.48752
824.351	48.22707
824.528	46.16654
824.705	42.9767
824.882	47.82755
825.059	58.48892
825.236	40.88165
825.412	43.92282
825.589	54.46699
825.766	70.58564
825.943	44.78872
826.12	52.57007
826.296	36.56161
826.473	44.49761
826.65	44.47697
826.827	53.01794
827.003	36.10449
827.18	41.04835
827.357	45.03166
827.533	38.00734
827.71	25.00021
827.887	35.71642
828.063	43.09751
828.24	35.66698
828.416	49.41716
828.593	41.1354
828.769	58.65474
828.946	65.88593
829.122	66.74528
829.299	70.12192
829.475	38.09901
829.652	65.69652
829.828	109.33925
830.005	67.67366
830.181	91.75094
830.357	64.8422
830.534	93.00833
830.71	74.94713
830.886	97.32253
831.063	87.17452
831.239	127.1175
831.415	56.10108
831.592	116.05858
831.768	79.78473
831.944	56.79812
832.12	120.6791
832.296	118.88448
832.473	95.58927
832.649	66.13103
832.825	88.38375
833.001	51.04148
833.177	74.11554
833.353	62.96679
833.529	35.35334
833.705	53.79428
833.881	39.16466
834.058	38.32965
834.234	43.16573
834.41	43.42214
834.586	32.86364
834.761	39.56929
834.937	45.6759
835.113	49.32226
835.289	45.04745
835.465	56.14908
835.641	50.22008
835.817	52.6649
835.993	104.1546
836.169	47.25125
836.344	73.94783
836.52	87.05651
836.696	94.62352
836.872	62.01518
837.048	194.0523
837.223	72.08427
837.399	159.28707
837.575	137.11161
837.75	118.08131
837.926	171.94706
838.102	271.23574
838.277	195.78574
838.453	271.21873
838.628	269.97481
838.804	96.85996
838.98	243.40666
839.155	125.81979
839.331	159.68648
839.506	116.47418
839.682	101.94054
839.857	144.4196
840.033	160.72019
840.208	78.51071
840.384	38.87645
840.559	80.12529
840.734	124.88118
840.91	166.02092
841.085	111.55806
841.26	105.96307
841.436	121.09271
841.611	90.40401
841.786	144.07289
841.962	242.1142
842.137	153.98753
842.312	75.42444
842.487	140.70042
842.663	111.39006
842.838	105.47088
843.013	544.06867
843.188	303.05078
843.363	181.09981
843.538	489.67232
843.714	479.93777
843.889	461.91038
844.064	509.77564
844.239	277.59055
844.414	538.32382
844.589	326.9231
844.764	728.30459
844.939	485.43381
845.114	449.01874
845.289	658.08647
845.464	785.42757
845.639	723.24913
845.814	217.8129
845.989	456.4808
846.163	396.2468
846.338	702.00696
846.513	633.30236
846.688	373.46431
846.863	723.34884
847.038	379.96049
847.212	316.28987
847.387	689.1988
847.562	395.64623
847.737	597.49632
847.911	288.29893
848.086	281.10317
848.261	487.80911
848.435	346.97842
848.61	567.87134
848.785	283.95936
848.959	525.79168
849.134	645.97954
849.308	1124.12423
849.483	660.64685
849.658	684.01348
849.832	399.53686
850.007	260.80793
850.181	1039.11817
850.356	688.25084
850.53	962.30053
850.705	392.30971
850.879	245.02175
851.053	524.36051
851.228	441.07938
851.402	869.65893
851.577	667.83939
851.751	808.27188
851.925	445.32778
852.099	228.19811
852.274	311.1431
852.448	391.15186
852.622	991.28556
852.797	394.37599
852.971	448.25171
853.145	895.1157
853.319	1029.90335
853.493	1254.05831
853.668	500.80349
853.842	1572.71176
854.016	1169.78448
854.19	1580.51708
854.364	635.46593
854.538	631.82545
854.712	775.75324
854.886	399.03475
855.06	373.94899
855.234	177.68765
855.408	822.31169
855.582	567.4819
855.756	914.18121
855.93	583.69624
856.104	684.76182
856.278	770.65236
856.452	355.3982
856.626	639.21128
856.8	1092.55275
856.973	1195.62971
857.147	1174.09743
857.321	1504.16049
857.495	569.17493
857.669	787.53678
857.842	720.22368
858.016	513.35417
858.19	417.51611
858.364	1289.35226
858.537	579.17943
858.711	1072.99527
858.885	834.01432
859.058	323.92025
859.232	274.78585
859.405	407.37369
859.579	790.70003
859.753	674.71966
859.926	884.1362
860.1	565.46
860.273	997.68653
860.447	874.07748
860.62	637.40349
860.794	846.62465
860.967	646.0557
861.141	578.28313
861.314	729.96268
861.487	630.33865
861.661	536.18177
861.834	802.93594
862.008	1122.46631
862.181	846.25042
862.354	1428.89893
862.528	652.84342
862.701	423.36181
862.874	398.74519
863.047	493.61785
863.221	519.67862
863.394	344.35617
863.567	482.73991
863.74	179.99168
863.913	1065.96922
864.087	664.16033
864.26	653.55848
864.433	686.3754
864.606	1019.97914
864.779	1527.25708
864.952	320.52423
865.125	985.29534
865.298	597.51177
865.471	577.25484
865.644	1046.43692
865.817	578.94721
865.99	960.86669
866.163	817.3802
866.336	387.43927
866.509	413.11568
866.682	603.11096
866.855	1314.16783
867.028	226.03462
867.2	622.2074
867.373	109.05785
867.546	457.71897
867.719	1261.47383
867.892	662.01353
868.064	438.49116
868.237	461.64285
868.41	488.61346
868.583	307.49922
868.755	270.56753
868.928	645.75895
869.101	922.9059
869.273	1725.89113
869.446	520.25841
869.619	948.95685
869.791	498.28328
869.964	794.81157
870.136	1030.45131
870.309	432.36043
870.481	376.3587
870.654	352.86757
870.826	396.78058
870.999	333.61232
871.171	534.02631
871.344	288.85609
871.516	404.67064
871.689	417.19229
871.861	571.82851
872.033	356.85011
872.206	335.43445
872.378	488.35077
872.55	467.83658
872.723	374.76967
872.895	688.47434
873.067	590.48342
873.24	508.74345
873.412	447.10608
873.584	376.71298
873.756	648.42711
873.928	781.65357
874.101	371.92943
874.273	518.06875
874.445	176.65653
874.617	297.10583
874.789	365.89466
874.961	339.40858
875.133	446.10832
875.305	578.07424
875.477	408.2994
875.649	218.05511
875.821	293.89714
875.993	734.38554
876.165	368.76251
876.337	517.5183
876.509	499.78951
876.681	465.32787
876.853	445.68845
877.025	732.8249
877.197	255.04068
877.369	270.12478
877.541	395.37743
877.712	103.79352
877.884	201.76663
878.056	497.0916
878.228	229.56093
878.4	489.37504
878.571	225.88679
878.743	152.82114
878.915	312.60358
879.086	152.43523
879.258	190.09379
879.43	183.50819
879.601	165.47813
879.773	148.7703
879.945	38.04176
880.116	56.05103
880.288	33.78438
880.459	39.50026
880.631	30.13073
880.802	35.34624
880.974	34.38236
881.145	24.14007
881.317	32.37256
881.488	26.30478
881.66	28.66132
881.831	26.896
882.002	35.74033
882.174	28.0333
882.345	34.30177
882.517	21.51472
882.688	43.08821
882.859	34.55202
883.03	57.54076
883.202	54.1961
883.373	49.68861
883.544	48.73679
883.715	80.07457
883.887	71.09237
884.058	59.74518
884.229	86.00424
884.4	83.66004
884.571	106.43253
884.742	79.31857
884.914	90.51401
885.085	135.67985
885.256	177.55678
885.427	154.29214
885.598	166.15976
885.769	181.13031
885.94	181.86375
886.111	107.97314
886.282	197.03327
886.453	199.04768
886.624	162.68615
886.795	253.32502
886.966	208.67055
887.136	254.09676
887.307	177.65673
887.478	400.47043
887.649	317.46411
887.82	353.91838
887.991	255.21231
888.161	416.8004
888.332	396.20358
888.503	243.38737
888.674	448.53268
888.844	718.23341
889.015	659.00621
889.186	319.05488
889.356	620.51864
889.527	373.17137
889.698	1004.42607
889.868	294.48753
890.039	569.80548
890.209	374.20564
890.38	583.98563
890.551	459.48843
890.721	811.6048
890.892	506.96209
891.062	1247.37491
891.233	497.71825
891.403	774.1873
891.574	552.83785
891.744	353.78548
891.914	381.47785
892.085	477.56776
892.255	90.13769
892.425	516.777
892.596	425.24814
892.766	508.7269
892.936	758.9985
893.107	450.0574
893.277	230.82209
893.447	195.70489
893.618	124.01877
893.788	231.29784
893.958	124.68837
894.128	102.00582
894.298	123.58103
894.468	157.42005
894.639	72.32319
894.809	44.50489
894.979	75.6745
895.149	96.03974
895.319	72.18982
895.489	93.71364
895.659	152.18092
895.829	85.89413
895.999	105.27421
896.169	83.11358
896.339	122.85934
896.509	246.35224
896.679	232.43501
896.849	263.26258
897.019	344.8111
897.189	337.94779
897.358	272.66182
897.528	486.13046
897.698	237.62656
897.868	353.33599
898.038	827.63122
898.208	940.3288
898.377	262.79474
898.547	1856.33139
898.717	3254.01668
898.886	887.96419
899.056	753.89415
899.226	2065.28187
899.395	2228.20033
899.565	2392.60666
899.735	4499.87692
899.904	1620.92246
900.074	6150.67332
900.244	695.50408
900.413	3392.9162
900.583	696.01777
900.752	-1936.35204
900.922	1046.19995
901.091	415.24687
901.261	2208.6534
901.43	1106.44097
901.599	3118.77836
901.769	2773.26713
901.938	2870.1396
902.108	964.5151
902.277	1509.52369
902.446	493.7603
902.616	679.06882
902.785	608.41277
902.954	867.34425
903.124	495.89904
903.293	367.29992
903.462	142.4253
903.631	206.92268
903.801	155.40454
903.97	63.29997
904.139	116.43209
904.308	85.26306
904.477	76.30267
904.646	39.68728
904.816	65.21245
904.985	108.48002
905.154	167.36792
