Data from WindowProjectSample_Transmission__90__00090.txt Node

Date: Sat May 03 18:21:58 EDT 2025
User: jessi
Spectrometer: SR400872
Trigger mode: 0
Integration Time (sec): 5.000050E-1
Scans to average: 10
Electric dark correction enabled: true
Nonlinearity correction enabled: true
Boxcar width: 0
XAxis mode: Wavelengths
Number of Pixels in Spectrum: 3648
>>>>>Begin Spectral Data<<<<<
184.909	-5455.64681
185.132	12280.67946
185.355	-13338.671
185.578	81389.86068
185.801	-1276.71712
186.024	5860.45353
186.247	-9390.79454
186.47	-5588.61098
186.693	292.79163
186.916	-1658.92334
187.139	31082.74302
187.362	13656.30831
187.585	-3057.93933
187.808	-4651.11623
188.031	1480.92441
188.254	10657.43798
188.476	-636.64624
188.699	-4622.98966
188.922	584.1338
189.145	5760.02594
189.368	3334.3375
189.591	1262.09309
189.813	11626.4315
190.036	-64501.91077
190.259	1797.39572
190.482	2572.44249
190.705	6497.40593
190.927	4775.16087
191.15	3730.4844
191.373	6670.40032
191.595	1655.15239
191.818	3181.32609
192.041	504.25092
192.263	3677.37107
192.486	1372.76839
192.709	8389.14018
192.931	35877.57353
193.154	3446.47804
193.377	2320.09102
193.599	1901.25454
193.822	997.39331
194.044	1804.42078
194.267	1476.58555
194.489	39.4171
194.712	2907.93398
194.934	7337.96558
195.157	-10675.66066
195.379	2245.40327
195.602	18642.93949
195.824	3913.24825
196.047	1408.02422
196.269	4894.83422
196.492	26317.01227
196.714	3091.37163
196.936	3435.55949
197.159	5735.13116
197.381	3147.4779
197.604	676.66829
197.826	1847.02943
198.048	1273.10116
198.271	3302.14453
198.493	3894.79491
198.715	5943.73116
198.938	653.98
199.16	1534.83463
199.382	4823.80718
199.604	-33313.57005
199.827	2747.75105
200.049	1293.44402
200.271	2442.45968
200.493	8221.80663
200.715	3125.68364
200.938	69433.42447
201.16	1810.55842
201.382	2581.88975
201.604	2060.43824
201.826	5621.1797
202.048	1414.85897
202.27	4470.18704
202.492	1828.50725
202.715	1618.27012
202.937	-31364.72596
203.159	5088.09605
203.381	2297.38515
203.603	8910.31669
203.825	1464.97695
204.047	1670.97195
204.269	2393.05023
204.491	1735.62662
204.713	1433.69759
204.935	2070.4597
205.156	1234.63343
205.378	2157.50244
205.6	1428.51784
205.822	8046.94482
206.044	1110.61332
206.266	1384.82313
206.488	2941.48951
206.71	5280.26184
206.932	2033.28489
207.153	4877.72893
207.375	1194.9171
207.597	4451.84666
207.819	1517.50583
208.041	3317.60731
208.262	1035.11641
208.484	3407.48383
208.706	1193.2835
208.927	2441.36795
209.149	1643.16467
209.371	2422.93969
209.593	412.81682
209.814	5948.20561
210.036	13303.7132
210.258	809.2834
210.479	1452.50409
210.701	2302.7986
210.922	2208.1815
211.144	1578.48431
211.366	2756.13587
211.587	759.41746
211.809	2705.02827
212.03	1946.65682
212.252	714.88631
212.473	1501.16717
212.695	780.70117
212.916	1527.80542
213.138	703.91761
213.359	3469.05901
213.581	1831.7023
213.802	-3928.51788
214.024	3213.822
214.245	1348.4955
214.466	702.30362
214.688	1576.70776
214.909	2076.48504
215.131	3076.41797
215.352	1073.75176
215.573	3852.95633
215.795	2369.49285
216.016	3184.04274
216.237	816.26029
216.459	3512.49651
216.68	12519.8809
216.901	1586.48358
217.122	1089.65261
217.344	1544.69695
217.565	4086.5654
217.786	2292.89968
218.007	970.0538
218.228	3557.32536
218.45	2038.40614
218.671	827.08683
218.892	1319.49073
219.113	950.50746
219.334	-136.60186
219.555	1340.52521
219.776	1614.61631
219.997	4119.77673
220.219	2027.86722
220.44	769.66836
220.661	590.16857
220.882	1328.81225
221.103	808.6584
221.324	838.05033
221.545	1273.75227
221.766	1641.47548
221.987	591.82476
222.208	746.48999
222.429	1352.67993
222.65	205.93032
222.87	345.23077
223.091	608.319
223.312	480.52288
223.533	635.42966
223.754	1933.73224
223.975	1126.60041
224.196	601.12002
224.417	660.99648
224.637	316.01516
224.858	98.71444
225.079	464.54889
225.3	506.73573
225.521	1248.15149
225.741	305.83917
225.962	395.24211
226.183	105.81716
226.404	558.13902
226.624	348.78322
226.845	353.69522
227.066	302.27205
227.286	206.34266
227.507	105.36893
227.728	98.72213
227.948	179.52062
228.169	63.75475
228.389	69.61014
228.61	46.31624
228.831	55.77058
229.051	6.15777
229.272	36.86181
229.492	48.77657
229.713	14.43898
229.933	35.12025
230.154	32.65656
230.374	49.61346
230.595	37.58511
230.815	22.45636
231.036	37.1634
231.256	-7.92555
231.477	61.80561
231.697	37.2882
231.917	38.96164
232.138	57.69155
232.358	103.51738
232.579	91.86317
232.799	16.86745
233.019	82.39951
233.24	101.13758
233.46	40.15177
233.68	56.7746
233.901	42.67723
234.121	27.78678
234.341	12.57454
234.561	-2.63308
234.782	21.7569
235.002	65.34325
235.222	-4.22046
235.442	59.76061
235.662	29.888
235.883	58.14028
236.103	52.52344
236.323	33.08834
236.543	25.10747
236.763	41.51013
236.983	39.70687
237.203	39.65159
237.423	59.63788
237.643	86.78998
237.864	71.1762
238.084	21.17944
238.304	23.25533
238.524	44.03418
238.744	38.11268
238.964	69.72022
239.184	57.88611
239.404	65.75843
239.624	37.88646
239.843	58.44655
240.063	35.79353
240.283	23.02173
240.503	25.60391
240.723	24.71386
240.943	16.64082
241.163	19.97679
241.383	15.86096
241.603	9.84456
241.822	10.07476
242.042	7.45748
242.262	9.37841
242.482	9.71402
242.702	11.83433
242.921	3.55207
243.141	7.29107
243.361	7.16747
243.581	9.83945
243.8	9.7407
244.02	6.57496
244.24	9.57393
244.459	10.40945
244.679	19.75306
244.899	12.97157
245.118	14.39931
245.338	13.74129
245.558	14.49775
245.777	9.25671
245.997	10.73071
246.216	11.60444
246.436	6.75138
246.655	4.97003
246.875	4.11862
247.094	7.04564
247.314	2.8426
247.533	4.79407
247.753	4.8144
247.972	4.25924
248.192	1.66861
248.411	2.72299
248.631	3.98763
248.85	5.16026
249.07	4.86767
249.289	7.3329
249.508	5.4531
249.728	8.8732
249.947	7.82004
250.166	10.55589
250.386	5.38938
250.605	7.68874
250.824	13.13071
251.044	8.57957
251.263	26.23195
251.482	16.77461
251.701	11.95941
251.921	0.6543
252.14	4.79428
252.359	5.51795
252.578	11.16225
252.798	4.82392
253.017	9.47476
253.236	5.04716
253.455	6.96978
253.674	12.79268
253.893	6.09973
254.112	9.34797
254.331	12.80806
254.551	11.18006
254.77	6.56862
254.989	15.10138
255.208	11.79989
255.427	17.91928
255.646	14.93805
255.865	23.38642
256.084	11.30775
256.303	13.21609
256.522	14.55418
256.741	3.36941
256.96	4.41395
257.179	10.32704
257.397	12.17797
257.616	7.16177
257.835	7.12713
258.054	16.71418
258.273	12.30434
258.492	11.86701
258.711	7.82365
258.93	4.29029
259.148	5.56555
259.367	4.94676
259.586	6.35818
259.805	2.86855
260.023	5.50096
260.242	4.27091
260.461	3.38373
260.68	1.89278
260.898	4.99196
261.117	1.86996
261.336	1.15288
261.554	4.14927
261.773	4.36789
261.992	1.07504
262.21	4.18856
262.429	4.45883
262.648	7.8288
262.866	9.52954
263.085	7.55823
263.303	5.69455
263.522	10.75725
263.74	10.00862
263.959	17.2891
264.178	9.0374
264.396	7.31381
264.615	5.72023
264.833	11.73648
265.051	9.98184
265.27	13.05086
265.488	12.46267
265.707	7.47727
265.925	11.77046
266.144	5.39593
266.362	6.73017
266.58	6.51329
266.799	6.24196
267.017	7.12898
267.235	6.05325
267.454	3.83266
267.672	2.10789
267.89	4.8896
268.109	5.03803
268.327	5.7798
268.545	1.37495
268.763	4.55487
268.982	2.16354
269.2	5.58029
269.418	3.71156
269.636	3.33477
269.854	5.13809
270.073	3.83102
270.291	2.47877
270.509	2.38738
270.727	5.18392
270.945	8.18668
271.163	7.89776
271.381	2.25671
271.599	3.8517
271.817	5.81117
272.036	2.08498
272.254	4.01831
272.472	2.86434
272.69	2.90393
272.908	3.09363
273.126	4.65776
273.344	5.89538
273.562	2.23645
273.779	3.37528
273.997	5.30417
274.215	4.65127
274.433	3.49589
274.651	5.32034
274.869	5.39244
275.087	3.44924
275.305	4.65695
275.523	3.20015
275.74	3.63999
275.958	6.60459
276.176	8.82321
276.394	3.25708
276.612	3.868
276.829	3.88711
277.047	3.67106
277.265	3.27371
277.483	4.18154
277.7	4.9874
277.918	3.61393
278.136	6.88
278.353	3.25568
278.571	2.38047
278.789	5.34628
279.006	1.62704
279.224	3.4656
279.442	5.59461
279.659	4.20546
279.877	2.69434
280.094	5.96149
280.312	1.50608
280.529	4.15108
280.747	1.56617
280.964	3.36542
281.182	6.76116
281.399	3.27052
281.617	4.17973
281.834	2.97821
282.052	2.89356
282.269	3.78821
282.487	2.96819
282.704	2.66078
282.921	2.60844
283.139	3.76889
283.356	4.67847
283.574	4.62783
283.791	2.17528
284.008	5.9216
284.226	3.87011
284.443	3.92544
284.66	5.00724
284.877	4.2297
285.095	2.69944
285.312	2.00536
285.529	1.28058
285.746	1.06604
285.964	2.44128
286.181	1.65982
286.398	2.32525
286.615	3.09702
286.832	3.12274
287.05	0.76211
287.267	2.33393
287.484	2.19152
287.701	3.22804
287.918	2.88036
288.135	3.25621
288.352	1.44102
288.569	1.87716
288.786	2.76222
289.003	2.24699
289.22	3.57892
289.437	1.78085
289.654	3.16892
289.871	3.31321
290.088	3.38047
290.305	2.84753
290.522	2.33058
290.739	2.52435
290.956	3.57993
291.173	4.21483
291.39	4.02812
291.607	2.7359
291.824	2.51884
292.04	1.62911
292.257	3.57939
292.474	3.89847
292.691	2.57017
292.908	1.5412
293.125	1.91027
293.341	1.45209
293.558	5.57173
293.775	2.75857
293.992	2.64686
294.208	0.90692
294.425	2.05128
294.642	2.38663
294.858	3.98093
295.075	0.96729
295.292	2.74908
295.508	3.21083
295.725	4.56056
295.942	2.71751
296.158	2.44507
296.375	3.28508
296.591	2.77743
296.808	3.01017
297.024	3.43501
297.241	3.70038
297.458	3.95237
297.674	1.83832
297.891	3.53822
298.107	3.2563
298.323	2.68586
298.54	4.91903
298.756	3.4369
298.973	2.58563
299.189	5.38935
299.406	3.62874
299.622	5.5349
299.838	5.61115
300.055	5.35783
300.271	3.52655
300.487	3.98059
300.704	4.29025
300.92	3.88445
301.136	7.46462
301.353	6.19278
301.569	5.2065
301.785	5.51441
302.001	6.11637
302.218	5.85893
302.434	6.11655
302.65	4.53443
302.866	5.21633
303.083	8.10762
303.299	8.27077
303.515	6.13839
303.731	6.95911
303.947	4.91042
304.163	5.68861
304.379	6.23589
304.595	6.81444
304.812	5.75785
305.028	5.83073
305.244	6.07263
305.46	7.13846
305.676	7.38672
305.892	8.08101
306.108	7.18724
306.324	6.20592
306.54	8.56022
306.756	7.18509
306.972	7.04273
307.187	7.05522
307.403	8.09519
307.619	6.42735
307.835	7.87904
308.051	8.1992
308.267	5.84496
308.483	8.33608
308.699	7.69312
308.914	7.37685
309.13	7.11907
309.346	5.88502
309.562	6.5984
309.778	6.01175
309.993	7.75672
310.209	7.56642
310.425	6.36084
310.641	7.49304
310.856	6.70699
311.072	6.74658
311.288	7.67966
311.503	8.06657
311.719	6.26781
311.935	6.43063
312.15	8.28195
312.366	7.96849
312.581	8.4404
312.797	8.01283
313.013	8.51264
313.228	7.09602
313.444	7.53394
313.659	7.11449
313.875	8.32719
314.09	7.57759
314.306	8.97588
314.521	8.37725
314.737	8.59379
314.952	8.14314
315.168	7.93903
315.383	8.37991
315.599	7.35959
315.814	7.82384
316.029	8.70815
316.245	6.88915
316.46	6.3035
316.675	9.07221
316.891	9.75551
317.106	11.00492
317.321	8.4481
317.537	8.54594
317.752	8.96098
317.967	8.84183
318.183	7.29628
318.398	7.69857
318.613	9.12704
318.828	9.25546
319.043	8.88976
319.259	7.80494
319.474	8.49882
319.689	9.49505
319.904	6.47162
320.119	9.06008
320.334	8.41538
320.549	8.11727
320.765	9.42251
320.98	8.52589
321.195	8.74575
321.41	8.02631
321.625	8.95008
321.84	9.92596
322.055	9.87794
322.27	7.72783
322.485	7.19569
322.7	8.85651
322.915	9.22782
323.13	7.9433
323.345	10.14402
323.56	9.46549
323.775	9.18404
323.989	9.12791
324.204	8.98686
324.419	9.76377
324.634	7.55553
324.849	8.55341
325.064	10.91177
325.279	9.75909
325.493	9.22272
325.708	9.70512
325.923	8.17772
326.138	8.52823
326.352	10.3739
326.567	9.51946
326.782	8.39584
326.997	8.40585
327.211	9.37475
327.426	9.32868
327.641	8.86961
327.855	7.33914
328.07	9.42643
328.285	10.84083
328.499	8.51427
328.714	9.11416
328.928	9.24517
329.143	9.06502
329.358	10.1694
329.572	10.01099
329.787	10.46475
330.001	11.38299
330.216	7.55966
330.43	10.92681
330.645	10.40205
330.859	9.78783
331.074	8.18277
331.288	9.10652
331.503	10.74621
331.717	8.05128
331.931	9.12031
332.146	9.49768
332.36	11.37332
332.575	9.52453
332.789	9.12307
333.003	9.10841
333.218	9.7904
333.432	9.1304
333.646	10.00549
333.86	11.23712
334.075	11.08035
334.289	8.92315
334.503	8.14548
334.717	10.11071
334.932	9.59706
335.146	10.1904
335.36	8.43907
335.574	9.72068
335.788	9.23375
336.003	9.91905
336.217	9.78498
336.431	9.40523
336.645	8.46494
336.859	7.99215
337.073	9.15896
337.287	9.68853
337.501	8.35402
337.715	10.34308
337.929	10.44375
338.143	8.82138
338.357	9.66751
338.571	9.40756
338.785	10.44329
338.999	9.19799
339.213	9.23989
339.427	8.48737
339.641	10.75468
339.855	9.01557
340.069	8.90378
340.283	10.72209
340.497	11.02348
340.711	10.1751
340.924	9.72422
341.138	8.86067
341.352	8.43939
341.566	9.93751
341.78	8.23994
341.993	9.34988
342.207	9.04946
342.421	10.0005
342.635	9.80665
342.848	9.44719
343.062	7.72096
343.276	9.0457
343.49	11.63515
343.703	9.12314
343.917	10.8596
344.131	11.1254
344.344	9.17251
344.558	9.54471
344.771	8.85364
344.985	11.11219
345.199	11.48072
345.412	10.27159
345.626	10.35866
345.839	8.53785
346.053	8.9433
346.266	9.16654
346.48	10.53066
346.693	10.26433
346.907	10.31119
347.12	9.1328
347.334	10.10458
347.547	10.20677
347.76	9.83353
347.974	10.95818
348.187	10.07169
348.401	9.6998
348.614	9.14229
348.827	9.62082
349.041	10.41101
349.254	8.35182
349.467	9.86815
349.681	9.23336
349.894	9.37215
350.107	11.19551
350.32	11.78757
350.534	8.80735
350.747	9.77947
350.96	9.39755
351.173	9.42029
351.386	9.73824
351.6	9.54441
351.813	9.79127
352.026	9.83572
352.239	9.23394
352.452	9.95007
352.665	11.04354
352.878	9.95589
353.092	12.01585
353.305	10.8302
353.518	10.25946
353.731	9.19031
353.944	11.31192
354.157	9.98637
354.37	9.85362
354.583	9.20887
354.796	9.34593
355.009	11.23401
355.222	10.38165
355.435	10.29697
355.647	11.39582
355.86	9.75571
356.073	10.39144
356.286	9.96402
356.499	11.26873
356.712	11.04622
356.925	11.08843
357.138	11.3458
357.35	9.86218
357.563	10.35568
357.776	10.7737
357.989	10.73154
358.201	11.17253
358.414	10.90075
358.627	11.69908
358.84	10.5909
359.052	9.83377
359.265	9.75842
359.478	11.44729
359.69	8.74188
359.903	11.45493
360.116	11.73774
360.328	9.4657
360.541	11.47508
360.753	10.39879
360.966	10.57061
361.179	10.72116
361.391	10.82107
361.604	10.36917
361.816	10.62544
362.029	10.71549
362.241	10.37301
362.454	10.64255
362.666	10.36578
362.879	11.31464
363.091	10.77408
363.304	10.45318
363.516	10.56161
363.728	10.00586
363.941	11.08444
364.153	10.85646
364.366	9.32453
364.578	10.07724
364.79	11.22098
365.003	11.0372
365.215	10.44742
365.427	11.26097
365.639	11.74212
365.852	10.93505
366.064	12.26715
366.276	10.76647
366.488	11.12216
366.701	10.74061
366.913	10.67507
367.125	10.94789
367.337	10.35349
367.549	10.49667
367.762	10.95248
367.974	10.83231
368.186	10.64208
368.398	11.70893
368.61	11.045
368.822	11.37765
369.034	10.65925
369.246	11.52189
369.458	12.91871
369.67	10.38347
369.882	12.37068
370.094	9.36915
370.306	12.01521
370.518	10.83227
370.73	10.77923
370.942	10.76723
371.154	10.95806
371.366	10.98817
371.578	11.74586
371.79	10.93778
372.002	12.04584
372.214	12.98569
372.425	11.27322
372.637	12.33537
372.849	11.5592
373.061	9.68127
373.273	11.61544
373.484	11.63425
373.696	11.87608
373.908	9.50456
374.12	12.00076
374.331	11.74575
374.543	10.63009
374.755	10.52082
374.967	11.31452
375.178	12.12642
375.39	11.01496
375.602	11.40427
375.813	10.23384
376.025	10.74451
376.236	11.47383
376.448	11.71469
376.66	11.40957
376.871	11.33196
377.083	12.06495
377.294	12.82731
377.506	11.30779
377.717	12.65825
377.929	11.80538
378.14	11.2616
378.352	11.95946
378.563	12.10881
378.775	12.58007
378.986	10.79387
379.197	11.69837
379.409	11.00563
379.62	12.02075
379.832	11.79504
380.043	11.43505
380.254	11.96298
380.466	10.6982
380.677	13.84559
380.888	13.39043
381.1	13.68662
381.311	13.69478
381.522	11.87257
381.733	13.93029
381.945	11.78971
382.156	11.63308
382.367	11.46603
382.578	13.84876
382.789	13.94605
383.001	11.27888
383.212	13.07603
383.423	13.14959
383.634	12.6511
383.845	12.52897
384.056	11.77727
384.267	11.96715
384.478	11.93029
384.69	11.27878
384.901	12.60848
385.112	12.24472
385.323	13.30657
385.534	12.37244
385.745	12.36557
385.956	12.40575
386.167	11.56392
386.378	12.50771
386.588	11.56495
386.799	11.58482
387.01	11.00133
387.221	12.80655
387.432	12.3024
387.643	13.44318
387.854	12.00301
388.065	11.92182
388.275	12.11822
388.486	11.8096
388.697	12.21232
388.908	11.88472
389.119	13.00868
389.329	13.29508
389.54	12.27067
389.751	12.45182
389.962	13.22573
390.172	12.33558
390.383	12.02459
390.594	11.84961
390.804	12.14795
391.015	12.08155
391.226	12.52037
391.436	13.04363
391.647	12.72089
391.858	12.95923
392.068	11.39524
392.279	11.83334
392.489	12.77429
392.7	13.22092
392.91	11.94255
393.121	11.89074
393.331	12.85722
393.542	13.20079
393.752	13.16503
393.963	12.75356
394.173	12.76222
394.384	13.03451
394.594	12.69574
394.804	11.84556
395.015	12.72137
395.225	12.98357
395.436	11.83829
395.646	12.96642
395.856	12.32905
396.067	11.57082
396.277	13.21507
396.487	12.81622
396.697	12.85176
396.908	13.0753
397.118	13.06278
397.328	12.78965
397.538	13.15378
397.749	12.20648
397.959	13.30941
398.169	13.02168
398.379	11.80638
398.589	13.08328
398.8	12.93496
399.01	12.85508
399.22	12.65035
399.43	14.25572
399.64	12.72276
399.85	12.91741
400.06	13.0001
400.27	12.17786
400.48	12.61617
400.69	13.76208
400.9	12.47861
401.11	12.10948
401.32	13.36386
401.53	12.3703
401.74	13.9448
401.95	13.20523
402.16	12.44923
402.37	13.12541
402.58	12.45541
402.79	13.39147
403	13.64114
403.209	12.44252
403.419	13.65538
403.629	12.60246
403.839	13.52945
404.049	13.70348
404.258	12.6151
404.468	12.57966
404.678	13.47173
404.888	13.77006
405.097	12.89003
405.307	12.97548
405.517	13.50224
405.727	13.26649
405.936	12.87477
406.146	13.16758
406.356	14.02767
406.565	13.08752
406.775	12.76166
406.984	12.87349
407.194	14.44642
407.404	13.1069
407.613	13.42868
407.823	13.46364
408.032	13.96951
408.242	13.8896
408.451	12.77998
408.661	12.87299
408.87	14.328
409.08	12.71724
409.289	13.54702
409.499	13.38978
409.708	13.33869
409.918	11.83036
410.127	13.45826
410.336	14.2558
410.546	13.68746
410.755	13.00353
410.964	12.96285
411.174	12.66002
411.383	13.798
411.592	13.46464
411.802	12.72813
412.011	13.79582
412.22	13.22228
412.429	14.20335
412.639	14.3264
412.848	14.11317
413.057	14.52388
413.266	14.13944
413.475	13.56462
413.685	14.00965
413.894	13.98621
414.103	14.24737
414.312	14.02267
414.521	13.41066
414.73	13.83576
414.939	14.90396
415.148	14.16082
415.357	13.99817
415.566	13.67684
415.776	13.55114
415.985	13.48911
416.194	14.38076
416.403	15.05223
416.611	13.08779
416.82	13.55518
417.029	13.96643
417.238	13.73594
417.447	13.59269
417.656	14.20741
417.865	14.27571
418.074	14.76028
418.283	15.80596
418.492	17.09443
418.7	16.88697
418.909	18.75251
419.118	17.77799
419.327	18.35252
419.536	18.22447
419.744	18.47459
419.953	20.18696
420.162	20.70799
420.371	20.00678
420.579	20.98919
420.788	22.06377
420.997	22.11126
421.205	22.81491
421.414	22.35936
421.623	22.4149
421.831	21.9756
422.04	22.67417
422.249	21.15922
422.457	21.51108
422.666	20.43185
422.874	21.52743
423.083	21.72567
423.291	21.61184
423.5	21.80246
423.708	22.43972
423.917	23.16536
424.125	22.52616
424.334	22.50259
424.542	24.42726
424.751	23.87653
424.959	23.17165
425.167	23.00533
425.376	22.85171
425.584	20.7549
425.793	20.61393
426.001	19.27044
426.209	19.05163
426.418	17.55592
426.626	16.74046
426.834	15.87131
427.042	15.67111
427.251	15.1117
427.459	15.74606
427.667	14.76228
427.875	14.08215
428.084	14.37031
428.292	15.29024
428.5	15.0059
428.708	14.24324
428.916	14.27377
429.124	14.80851
429.333	14.61183
429.541	14.67027
429.749	14.9761
429.957	14.78916
430.165	16.25483
430.373	14.07298
430.581	15.04657
430.789	15.66057
430.997	14.67829
431.205	14.53049
431.413	15.13243
431.621	14.72879
431.829	15.49824
432.037	15.02128
432.245	15.45929
432.453	15.66707
432.661	15.65912
432.869	17.49746
433.076	16.24004
433.284	16.95098
433.492	17.66827
433.7	18.14236
433.908	17.11097
434.116	17.59051
434.323	16.89426
434.531	16.79499
434.739	16.48197
434.947	16.30128
435.154	16.12542
435.362	15.30609
435.57	15.11053
435.778	14.90892
435.985	15.35496
436.193	14.97595
436.401	15.9678
436.608	15.38158
436.816	15.06429
437.023	16.2567
437.231	16.37702
437.439	15.57551
437.646	15.93834
437.854	15.66569
438.061	16.01977
438.269	16.41293
438.476	16.76155
438.684	16.81683
438.891	17.49733
439.099	17.30898
439.306	17.44482
439.514	17.83105
439.721	19.65408
439.929	19.44588
440.136	20.8125
440.343	20.89539
440.551	20.80072
440.758	22.5119
440.965	20.81395
441.173	20.50992
441.38	20.25274
441.587	19.61958
441.795	19.16415
442.002	18.75422
442.209	18.2858
442.416	17.71487
442.624	17.2974
442.831	16.77881
443.038	15.97775
443.245	15.61397
443.452	15.61795
443.66	16.77379
443.867	16.19509
444.074	16.39853
444.281	16.98606
444.488	17.55462
444.695	18.13964
444.902	18.61295
445.109	20.62111
445.316	20.64949
445.523	21.41948
445.73	22.22277
445.937	23.16945
446.144	23.90735
446.351	24.40781
446.558	23.11046
446.765	25.57103
446.972	24.45713
447.179	23.84939
447.386	24.39533
447.593	21.99771
447.8	23.17783
448.007	20.87942
448.214	19.8666
448.42	18.99175
448.627	19.09004
448.834	18.09608
449.041	17.57907
449.248	16.81854
449.454	16.8072
449.661	16.85061
449.868	15.63751
450.075	15.51501
450.281	14.81455
450.488	15.33399
450.695	15.45994
450.901	15.49429
451.108	15.56329
451.315	16.57454
451.521	15.86269
451.728	16.52033
451.935	15.65706
452.141	16.14465
452.348	15.98217
452.554	16.02992
452.761	15.82319
452.967	16.85846
453.174	16.20837
453.38	16.24424
453.587	15.35519
453.793	16.18851
454	16.60228
454.206	17.04627
454.413	16.67687
454.619	16.38431
454.825	15.63298
455.032	16.46993
455.238	16.78247
455.445	15.52693
455.651	16.28045
455.857	15.18675
456.064	15.93787
456.27	15.9948
456.476	16.03367
456.682	15.49065
456.889	16.24103
457.095	16.62433
457.301	17.42878
457.507	16.20309
457.714	16.31572
457.92	16.17814
458.126	15.84998
458.332	16.59743
458.538	17.39886
458.744	18.42184
458.951	19.6063
459.157	22.24095
459.363	22.2326
459.569	22.81115
459.775	23.51043
459.981	23.34671
460.187	24.09401
460.393	23.88433
460.599	23.72622
460.805	22.3226
461.011	20.88057
461.217	20.13567
461.423	18.60165
461.629	17.30508
461.835	16.85008
462.041	16.20657
462.247	17.33133
462.453	16.18397
462.658	16.22988
462.864	16.84773
463.07	16.50664
463.276	16.65875
463.482	16.52204
463.688	17.07621
463.893	16.15294
464.099	16.40669
464.305	17.44163
464.511	16.2141
464.716	16.57291
464.922	17.05704
465.128	16.04444
465.333	17.67771
465.539	17.08704
465.745	16.37877
465.95	16.7619
466.156	18.11216
466.362	17.26563
466.567	16.54353
466.773	16.43937
466.978	17.59246
467.184	16.1588
467.389	15.62941
467.595	16.94298
467.8	16.1584
468.006	17.41281
468.211	17.57025
468.417	16.14889
468.622	17.04076
468.828	17.20832
469.033	16.86693
469.239	18.3997
469.444	16.49473
469.649	17.44809
469.855	16.79531
470.06	16.97481
470.266	16.23795
470.471	17.48631
470.676	17.17129
470.881	16.10419
471.087	17.70825
471.292	18.0093
471.497	16.20233
471.703	16.81975
471.908	16.72887
472.113	17.06174
472.318	17.45876
472.523	16.26025
472.729	17.11334
472.934	17.16579
473.139	16.7226
473.344	17.30338
473.549	17.60872
473.754	16.59316
473.959	18.04944
474.164	16.68635
474.369	17.0033
474.575	17.553
474.78	17.13126
474.985	16.68724
475.19	16.1946
475.395	16.67149
475.6	16.87642
475.804	17.8879
476.009	17.24819
476.214	17.13592
476.419	16.8585
476.624	16.16227
476.829	16.76192
477.034	17.58433
477.239	16.77626
477.444	17.29294
477.648	17.39954
477.853	17.3642
478.058	16.87733
478.263	16.85923
478.468	16.47579
478.672	16.67248
478.877	17.94087
479.082	18.12271
479.287	17.37978
479.491	17.27384
479.696	16.5574
479.901	17.57224
480.105	17.54518
480.31	16.82323
480.515	17.17865
480.719	19.09432
480.924	18.1213
481.128	18.55605
481.333	19.98611
481.538	20.56184
481.742	21.46411
481.947	23.14973
482.151	25.33255
482.356	27.41954
482.56	31.9503
482.765	35.80282
482.969	42.33379
483.174	47.69303
483.378	54.27435
483.582	56.99864
483.787	60.22089
483.991	61.41738
484.196	61.78879
484.4	60.58493
484.604	59.83399
484.809	54.90306
485.013	51.09944
485.217	45.89214
485.422	41.14245
485.626	37.27802
485.83	35.38052
486.034	34.53913
486.239	35.29193
486.443	36.48044
486.647	37.7885
486.851	40.22507
487.055	42.93251
487.26	43.59306
487.464	45.6968
487.668	45.1447
487.872	46.2886
488.076	45.93377
488.28	44.00676
488.484	41.27037
488.688	39.65097
488.892	37.46567
489.096	34.38513
489.3	31.74873
489.504	29.62851
489.708	28.15249
489.912	27.57111
490.116	27.01467
490.32	27.12439
490.524	29.72777
490.728	31.52604
490.932	33.78102
491.136	35.80738
491.34	37.86428
491.544	38.76087
491.748	38.84215
491.951	38.48881
492.155	37.66325
492.359	36.19984
492.563	33.29578
492.767	30.66124
492.97	27.76232
493.174	24.69782
493.378	22.67374
493.582	20.44229
493.785	19.44788
493.989	19.03356
494.193	18.06305
494.396	17.27043
494.6	17.66869
494.804	16.96908
495.007	16.73947
495.211	17.13125
495.414	17.30564
495.618	18.18244
495.822	19.00912
496.025	19.04797
496.229	19.89613
496.432	19.61422
496.636	20.23533
496.839	20.48151
497.043	21.66071
497.246	20.99323
497.45	20.41285
497.653	20.68202
497.856	20.49079
498.06	19.4249
498.263	19.31307
498.467	18.81119
498.67	19.42939
498.873	18.77857
499.077	17.96851
499.28	17.66473
499.483	17.88584
499.686	17.9791
499.89	17.76404
500.093	17.91984
500.296	17.16414
500.499	18.40686
500.703	17.39509
500.906	17.58112
501.109	18.36426
501.312	17.53266
501.515	17.39431
501.719	17.75988
501.922	18.23869
502.125	17.72958
502.328	17.67021
502.531	17.01678
502.734	17.69199
502.937	16.83884
503.14	17.62987
503.343	17.17384
503.546	17.61899
503.749	17.1997
503.952	17.90447
504.155	17.18706
504.358	18.03512
504.561	17.88453
504.764	17.03349
504.967	17.7481
505.17	17.65545
505.373	18.67344
505.576	17.71276
505.778	18.00142
505.981	17.49344
506.184	18.41431
506.387	16.87603
506.59	18.77104
506.793	18.31614
506.995	18.20476
507.198	16.76743
507.401	17.97001
507.604	18.06312
507.806	17.27613
508.009	17.44961
508.212	18.21841
508.414	17.55427
508.617	17.76816
508.82	18.20739
509.022	19.03388
509.225	18.29584
509.427	17.64758
509.63	18.69273
509.833	18.02062
510.035	17.84346
510.238	17.04873
510.44	18.4594
510.643	16.81961
510.845	19.07001
511.048	18.09856
511.25	17.70456
511.453	17.78517
511.655	18.15947
511.858	17.58228
512.06	18.20004
512.262	17.86898
512.465	18.33207
512.667	17.65761
512.869	17.17592
513.072	18.06853
513.274	18.3187
513.476	18.20123
513.679	18.38296
513.881	17.23778
514.083	18.65062
514.286	17.35038
514.488	17.45569
514.69	17.36269
514.892	17.11881
515.094	18.27856
515.297	17.45338
515.499	17.90588
515.701	17.52956
515.903	18.91049
516.105	18.70142
516.307	18.45166
516.509	17.07779
516.711	17.26884
516.913	17.99033
517.116	17.88029
517.318	17.9212
517.52	19.60036
517.722	20.24308
517.924	19.93264
518.126	21.57443
518.328	21.57128
518.529	22.65051
518.731	23.39689
518.933	21.6134
519.135	21.79026
519.337	22.22835
519.539	21.04722
519.741	19.32492
519.943	18.85928
520.145	18.12307
520.346	18.39085
520.548	17.82282
520.75	18.01784
520.952	17.75627
521.153	18.04858
521.355	18.37703
521.557	17.34108
521.759	18.05122
521.96	18.09484
522.162	17.40193
522.364	18.63692
522.565	17.37706
522.767	18.24301
522.969	18.78677
523.17	18.2694
523.372	18.28102
523.573	17.70508
523.775	17.94718
523.977	17.36513
524.178	19.02428
524.38	17.95739
524.581	19.53908
524.783	19.92112
524.984	21.38703
525.186	22.18781
525.387	23.44432
525.589	23.48416
525.79	23.93722
525.991	23.95085
526.193	24.76064
526.394	24.06508
526.596	25.12917
526.797	25.84616
526.998	25.85898
527.2	27.19816
527.401	31.02856
527.602	34.02222
527.803	39.15801
528.005	42.11921
528.206	45.39317
528.407	47.75532
528.608	48.27598
528.81	48.62505
529.011	47.60274
529.212	48.02786
529.413	45.20553
529.614	41.89488
529.815	38.73809
530.017	35.22656
530.218	31.28128
530.419	28.37998
530.62	26.86494
530.821	25.57374
531.022	23.67578
531.223	24.53059
531.424	24.01038
531.625	24.54612
531.826	24.64685
532.027	25.82699
532.228	28.19191
532.429	29.16347
532.63	30.48527
532.831	32.36199
533.032	32.87312
533.233	34.00429
533.433	33.31811
533.634	33.54591
533.835	32.11434
534.036	30.89641
534.237	29.2395
534.438	27.13617
534.638	24.51271
534.839	23.04902
535.04	22.41605
535.241	21.42166
535.441	22.71509
535.642	22.41669
535.843	22.28271
536.043	22.97711
536.244	23.5717
536.445	24.04352
536.645	24.99348
536.846	24.45007
537.047	24.67313
537.247	23.12225
537.448	22.44353
537.648	21.6157
537.849	20.2174
538.049	19.17587
538.25	18.56496
538.451	18.20009
538.651	17.60015
538.851	18.46042
539.052	18.89756
539.252	18.62916
539.453	18.41349
539.653	19.36737
539.854	20.78395
540.054	22.61077
540.254	25.99882
540.455	28.6362
540.655	29.88849
540.855	33.23223
541.056	35.14659
541.256	35.63375
541.456	37.01994
541.657	36.43844
541.857	36.79931
542.057	34.68866
542.257	33.24156
542.458	32.55328
542.658	30.63257
542.858	27.58051
543.058	26.91942
543.258	25.58874
543.458	23.38244
543.659	22.3028
543.859	22.87673
544.059	22.16371
544.259	20.857
544.459	20.60293
544.659	19.26727
544.859	19.49218
545.059	18.74646
545.259	19.46681
545.459	19.01277
545.659	19.90001
545.859	19.72211
546.059	20.12509
546.259	19.73839
546.459	19.74647
546.659	19.80528
546.859	20.18358
547.059	19.99852
547.258	19.53672
547.458	18.90962
547.658	17.67811
547.858	17.4788
548.058	18.3254
548.258	17.9695
548.457	17.48967
548.657	19.60116
548.857	18.07936
549.057	18.64779
549.256	18.60927
549.456	18.14495
549.656	17.10357
549.855	19.41196
550.055	18.0876
550.255	19.56856
550.454	18.71703
550.654	19.00494
550.853	19.26473
551.053	19.06135
551.253	18.7233
551.452	18.78783
551.652	17.76467
551.851	17.46554
552.051	18.1855
552.25	18.11942
552.45	18.10092
552.649	18.18309
552.849	17.99498
553.048	18.5136
553.248	18.76577
553.447	17.83624
553.646	19.04898
553.846	19.37563
554.045	19.1965
554.244	17.69083
554.444	19.61765
554.643	17.87909
554.842	19.36773
555.042	19.86174
555.241	18.0646
555.44	17.87064
555.64	18.64108
555.839	19.94049
556.038	18.87762
556.237	17.99438
556.436	18.60152
556.636	18.8485
556.835	18.00464
557.034	19.64298
557.233	18.38692
557.432	17.60672
557.631	19.30541
557.83	18.43671
558.029	18.03073
558.228	18.21519
558.427	17.96163
558.626	18.64534
558.825	17.94207
559.024	18.54414
559.223	19.76509
559.422	18.53586
559.621	18.89432
559.82	16.79805
560.019	18.64563
560.218	18.42737
560.417	16.8716
560.616	18.30573
560.815	21.03057
561.014	17.64929
561.212	19.54724
561.411	18.79884
561.61	17.63266
561.809	18.60811
562.008	19.43778
562.206	18.32323
562.405	18.97169
562.604	18.38889
562.803	18.637
563.001	18.31133
563.2	17.62054
563.399	19.08165
563.597	17.87019
563.796	18.56542
563.995	17.70521
564.193	18.85957
564.392	18.19436
564.59	20.11405
564.789	17.34736
564.988	18.35218
565.186	18.83282
565.385	18.43306
565.583	18.59284
565.782	18.53677
565.98	18.5395
566.179	18.50978
566.377	17.73179
566.575	18.16329
566.774	19.31766
566.972	19.25238
567.171	19.99585
567.369	19.22515
567.567	18.63952
567.766	18.70455
567.964	17.08826
568.162	18.82788
568.361	19.22687
568.559	18.59654
568.757	18.89318
568.956	18.71002
569.154	18.49339
569.352	19.15743
569.55	18.60271
569.748	18.75965
569.947	18.19303
570.145	17.97567
570.343	17.93493
570.541	19.47189
570.739	17.71017
570.937	18.73326
571.135	18.93795
571.333	19.86229
571.532	19.95437
571.73	18.69605
571.928	19.68172
572.126	18.95022
572.324	18.36711
572.522	19.54493
572.72	20.73318
572.918	18.40275
573.116	18.91643
573.313	18.48819
573.511	18.62765
573.709	18.17688
573.907	19.26565
574.105	18.5989
574.303	17.61317
574.501	17.6643
574.699	18.91474
574.896	18.70012
575.094	19.06345
575.292	17.65276
575.49	19.27718
575.688	18.64662
575.885	19.75627
576.083	20.08192
576.281	19.00339
576.478	18.31387
576.676	19.22592
576.874	17.82676
577.071	18.46633
577.269	20.74544
577.467	18.77707
577.664	18.45356
577.862	19.27859
578.059	18.16165
578.257	19.45634
578.455	18.51641
578.652	18.79108
578.85	17.14107
579.047	18.70313
579.245	18.74721
579.442	18.76785
579.64	18.62574
579.837	17.07791
580.034	20.97275
580.232	18.44752
580.429	17.57793
580.627	19.05706
580.824	19.78359
581.021	19.25055
581.219	18.46142
581.416	18.02063
581.613	19.72274
581.811	19.88379
582.008	18.11799
582.205	19.48304
582.402	18.82421
582.6	20.50232
582.797	18.47363
582.994	19.03848
583.191	19.31437
583.388	18.71972
583.586	19.54821
583.783	19.70162
583.98	18.22502
584.177	18.75258
584.374	16.29433
584.571	18.60109
584.768	18.40448
584.965	18.48546
585.162	19.36015
585.359	20.28553
585.556	18.51472
585.753	19.06081
585.95	17.75416
586.147	17.99489
586.344	19.27145
586.541	18.47865
586.738	17.95998
586.935	18.62587
587.132	18.20656
587.329	19.92962
587.526	18.75967
587.722	23.16349
587.919	17.69807
588.116	19.1193
588.313	20.16232
588.51	20.63648
588.706	18.76053
588.903	19.36566
589.1	19.84105
589.297	21.59374
589.493	18.85152
589.69	19.5956
589.887	18.41422
590.083	17.72266
590.28	18.24735
590.477	19.72944
590.673	19.77588
590.87	19.84974
591.067	18.55675
591.263	19.14171
591.46	19.20871
591.656	18.5686
591.853	20.23585
592.049	18.07813
592.246	18.12168
592.442	20.21676
592.639	19.81541
592.835	18.00199
593.032	19.23476
593.228	17.50296
593.425	17.44914
593.621	17.67557
593.817	19.04733
594.014	18.53114
594.21	19.12241
594.406	19.8096
594.603	19.15897
594.799	18.43686
594.995	16.98129
595.192	19.89329
595.388	18.41831
595.584	18.59791
595.78	17.70734
595.977	21.06419
596.173	20.67773
596.369	18.89132
596.565	18.27341
596.761	17.79317
596.957	20.19231
597.154	18.46567
597.35	18.61397
597.546	18.22355
597.742	19.27415
597.938	18.77855
598.134	18.00469
598.33	18.88762
598.526	20.24692
598.722	19.05645
598.918	20.45016
599.114	19.26835
599.31	18.0213
599.506	19.04714
599.702	17.9572
599.898	19.24413
600.094	20.02214
600.29	19.82261
600.485	19.92242
600.681	18.60668
600.877	20.76236
601.073	19.15552
601.269	20.8011
601.465	20.24144
601.66	18.00218
601.856	17.40327
602.052	20.68493
602.248	18.9261
602.443	17.45741
602.639	17.88104
602.835	18.29375
603.03	18.37599
603.226	19.9777
603.422	18.27752
603.617	18.87236
603.813	18.78613
604.009	18.60225
604.204	20.01306
604.4	17.56525
604.595	19.66532
604.791	17.92308
604.986	19.16196
605.182	18.25879
605.377	18.57923
605.573	18.48483
605.768	19.0619
605.964	19.4221
606.159	19.50471
606.355	20.06023
606.55	18.69295
606.746	19.88482
606.941	18.80062
607.136	21.33116
607.332	22.25452
607.527	17.65034
607.722	19.23109
607.918	19.06109
608.113	18.51561
608.308	20.00998
608.503	19.54818
608.699	19.74414
608.894	19.76287
609.089	18.57126
609.284	19.20834
609.479	18.56484
609.675	19.72912
609.87	18.71873
610.065	19.86159
610.26	19.9958
610.455	19.93405
610.65	18.85599
610.845	18.85319
611.04	19.79542
611.235	18.93418
611.43	18.44627
611.625	17.72049
611.82	20.70325
612.015	18.22944
612.21	20.65394
612.405	17.38956
612.6	21.08763
612.795	20.375
612.99	20.0668
613.185	18.0765
613.38	18.0775
613.575	19.42642
613.77	22.50868
613.965	17.30444
614.159	18.14298
614.354	20.52286
614.549	20.52836
614.744	20.20106
614.938	18.11476
615.133	17.61421
615.328	20.5212
615.523	20.40056
615.717	22.67827
615.912	18.26025
616.107	19.30289
616.301	18.77816
616.496	18.54649
616.691	21.16749
616.885	19.94478
617.08	22.67995
617.274	20.55136
617.469	21.73386
617.664	19.82387
617.858	18.40125
618.053	19.42403
618.247	18.90478
618.442	16.77655
618.636	20.81059
618.831	18.44586
619.025	18.31556
619.219	22.39477
619.414	15.42974
619.608	18.8548
619.803	18.41322
619.997	21.71693
620.191	20.62784
620.386	19.61363
620.58	19.11298
620.774	17.15777
620.969	17.54156
621.163	19.43056
621.357	17.66209
621.551	18.56772
621.746	19.32167
621.94	19.15947
622.134	23.93268
622.328	21.70455
622.522	17.32977
622.716	20.54026
622.911	20.51443
623.105	20.35918
623.299	19.88778
623.493	23.18654
623.687	18.27687
623.881	18.76778
624.075	20.12049
624.269	20.89994
624.463	17.1217
624.657	17.19476
624.851	20.3237
625.045	20.91664
625.239	20.57965
625.433	18.80789
625.627	21.52713
625.821	18.89308
626.015	18.74196
626.209	19.69583
626.403	17.66322
626.596	20.22474
626.79	20.49272
626.984	18.08017
627.178	20.31112
627.372	20.34102
627.565	20.41188
627.759	17.48302
627.953	17.90206
628.147	20.0982
628.34	20.2802
628.534	22.19866
628.728	19.17905
628.921	20.61185
629.115	20.37603
629.309	20.81358
629.502	20.60056
629.696	19.85962
629.89	19.40567
630.083	19.70969
630.277	20.03908
630.47	22.08728
630.664	19.0374
630.857	17.44971
631.051	20.45193
631.244	21.53882
631.438	20.77273
631.631	18.60623
631.825	21.78955
632.018	20.56016
632.212	22.38401
632.405	21.07084
632.598	18.72697
632.792	20.2291
632.985	16.59131
633.178	19.44465
633.372	19.81808
633.565	19.25834
633.758	21.64798
633.952	18.92335
634.145	18.65598
634.338	19.90306
634.531	19.15491
634.724	18.83873
634.918	19.83957
635.111	19.63977
635.304	19.09851
635.497	22.58907
635.69	20.15113
635.883	21.51112
636.077	18.02676
636.27	20.83913
636.463	20.08633
636.656	20.31484
636.849	19.1731
637.042	20.53355
637.235	22.07918
637.428	20.93128
637.621	21.03269
637.814	21.89428
638.007	22.10166
638.2	22.14392
638.393	22.84
638.586	17.55206
638.778	19.28308
638.971	19.75744
639.164	22.55011
639.357	20.59368
639.55	22.40905
639.743	21.09274
639.935	21.0656
640.128	23.15756
640.321	21.75129
640.514	19.74324
640.707	24.33284
640.899	21.80817
641.092	17.37655
641.285	31.74883
641.477	16.41861
641.67	24.11246
641.863	22.38519
642.055	20.62433
642.248	20.15167
642.441	19.39507
642.633	20.91199
642.826	22.00856
643.018	22.50197
643.211	23.08633
643.403	23.23981
643.596	24.30533
643.788	23.22458
643.981	19.61047
644.173	21.96311
644.366	20.20178
644.558	17.63328
644.751	22.15658
644.943	17.90833
645.135	23.37211
645.328	23.40903
645.52	21.75366
645.712	22.45696
645.905	25.63482
646.097	18.58265
646.289	20.86217
646.482	23.91835
646.674	19.33841
646.866	22.90267
647.058	21.48064
647.251	18.48458
647.443	19.75066
647.635	20.52618
647.827	18.59348
648.019	19.06677
648.211	20.45378
648.404	20.52479
648.596	23.79611
648.788	20.92851
648.98	21.33889
649.172	21.50581
649.364	21.41598
649.556	17.53688
649.748	25.4123
649.94	18.78842
650.132	21.95013
650.324	18.99586
650.516	19.37015
650.708	23.15142
650.9	18.24162
651.092	19.89218
651.284	18.51146
651.476	18.96566
651.667	22.03011
651.859	23.26226
652.051	21.0347
652.243	21.02466
652.435	19.88738
652.627	21.79367
652.818	21.8472
653.01	17.90936
653.202	19.13045
653.394	20.16848
653.585	21.67118
653.777	29.06605
653.969	22.97789
654.16	23.1031
654.352	19.17334
654.544	20.86164
654.735	22.94038
654.927	21.45678
655.118	24.14934
655.31	22.30421
655.502	23.27702
655.693	20.09302
655.885	22.67144
656.076	23.59454
656.268	21.25368
656.459	24.10924
656.651	23.91856
656.842	20.45423
657.034	19.5186
657.225	23.07363
657.416	23.89235
657.608	23.85045
657.799	20.94041
657.99	24.0205
658.182	19.80456
658.373	20.69309
658.564	23.02986
658.756	21.86796
658.947	21.41953
659.138	19.91455
659.33	20.59585
659.521	19.85843
659.712	20.90851
659.903	20.92366
660.094	19.94009
660.286	18.41146
660.477	24.42537
660.668	22.41003
660.859	21.07535
661.05	18.3527
661.241	22.18273
661.432	22.10522
661.623	20.957
661.814	20.05472
662.006	18.35752
662.197	22.34002
662.388	23.69319
662.579	21.56563
662.77	24.12811
662.96	27.12388
663.151	23.11033
663.342	17.90947
663.533	23.18731
663.724	21.92426
663.915	25.28218
664.106	21.507
664.297	25.41138
664.488	23.56334
664.678	20.43453
664.869	23.16634
665.06	23.63094
665.251	22.57965
665.442	22.28419
665.632	19.44219
665.823	26.06878
666.014	15.89818
666.204	22.90633
666.395	24.43085
666.586	27.87857
666.776	24.09019
666.967	25.55047
667.158	21.75328
667.348	25.08694
667.539	19.61004
667.729	23.50243
667.92	20.26182
668.111	24.18792
668.301	23.31907
668.492	21.37424
668.682	22.04232
668.873	21.38738
669.063	19.41554
669.253	22.26162
669.444	24.14486
669.634	21.45525
669.825	26.11153
670.015	24.53103
670.206	20.45068
670.396	26.76023
670.586	21.60238
670.777	23.27531
670.967	17.59683
671.157	22.04161
671.347	20.89193
671.538	25.75654
671.728	23.59026
671.918	26.75225
672.108	24.3895
672.299	22.01863
672.489	23.39576
672.679	21.23165
672.869	23.85196
673.059	27.37903
673.249	23.17576
673.44	20.15547
673.63	22.29235
673.82	24.47917
674.01	20.36223
674.2	23.35488
674.39	30.19033
674.58	24.32479
674.77	23.17135
674.96	22.56611
675.15	32.37329
675.34	25.50077
675.53	23.15001
675.72	22.30707
675.91	19.04538
676.099	27.20817
676.289	28.07297
676.479	25.68909
676.669	21.82692
676.859	23.96425
677.049	20.89145
677.238	22.5473
677.428	27.48261
677.618	24.13344
677.808	25.62716
677.997	23.83402
678.187	20.44529
678.377	22.77548
678.567	21.3767
678.756	22.53714
678.946	22.93452
679.136	19.74234
679.325	21.24451
679.515	20.91721
679.704	20.37145
679.894	24.33326
680.084	23.7415
680.273	25.52905
680.463	21.024
680.652	21.14968
680.842	22.49316
681.031	24.52557
681.221	20.81088
681.41	23.92859
681.6	22.45612
681.789	24.6518
681.978	25.87801
682.168	23.27326
682.357	23.34705
682.547	24.6569
682.736	23.23085
682.925	26.03118
683.115	26.02722
683.304	25.0691
683.493	24.02608
683.682	24.11523
683.872	24.28588
684.061	26.75811
684.25	24.94042
684.439	27.82569
684.629	25.51902
684.818	32.67367
685.007	23.58921
685.196	23.26241
685.385	28.41589
685.574	24.90307
685.763	24.31968
685.952	24.61384
686.142	20.70268
686.331	27.77383
686.52	19.26762
686.709	28.00041
686.898	27.93367
687.087	25.97709
687.276	28.84593
687.465	26.34033
687.654	23.45575
687.842	28.44267
688.031	21.09682
688.22	27.48955
688.409	25.07514
688.598	24.73574
688.787	31.95725
688.976	24.66059
689.165	29.81042
689.353	22.96195
689.542	25.59071
689.731	26.88606
689.92	30.28099
690.108	26.77059
690.297	23.19568
690.486	25.37399
690.675	26.96562
690.863	29.95383
691.052	28.7977
691.241	26.63104
691.429	26.36021
691.618	29.55555
691.806	22.46422
691.995	24.62155
692.184	25.32815
692.372	24.18148
692.561	26.06612
692.749	25.15528
692.938	32.02892
693.126	27.39968
693.315	25.28406
693.503	27.90593
693.692	27.43326
693.88	29.20857
694.068	32.05386
694.257	25.22593
694.445	27.63091
694.634	19.43788
694.822	28.61047
695.01	29.13203
695.199	30.1034
695.387	30.66846
695.575	29.85559
695.763	26.27312
695.952	25.21901
696.14	21.6755
696.328	24.47014
696.516	26.45329
696.705	27.09895
696.893	26.87232
697.081	21.15028
697.269	28.19737
697.457	22.94297
697.645	22.46161
697.833	28.34264
698.021	23.01996
698.21	24.0907
698.398	25.03787
698.586	22.03045
698.774	21.62241
698.962	24.51635
699.15	22.39184
699.338	20.46191
699.526	26.05261
699.714	23.39507
699.901	23.10788
700.089	27.34171
700.277	22.93273
700.465	24.58146
700.653	27.92157
700.841	26.84864
701.029	22.88852
701.217	29.49106
701.404	26.04055
701.592	31.11461
701.78	32.03658
701.968	25.29008
702.155	24.77869
702.343	22.01239
702.531	31.08606
702.718	28.42921
702.906	25.06272
703.094	25.29398
703.281	30.49001
703.469	26.87925
703.657	30.2712
703.844	37.19376
704.032	32.34691
704.219	25.43715
704.407	28.54936
704.595	31.02559
704.782	27.75431
704.97	26.21146
705.157	25.78321
705.345	32.83813
705.532	36.77918
705.719	28.64863
705.907	32.83803
706.094	28.71135
706.282	34.52728
706.469	26.48935
706.656	27.82802
706.844	25.86768
707.031	31.7162
707.218	28.45621
707.406	33.89033
707.593	30.66411
707.78	30.28469
707.968	27.69114
708.155	25.21624
708.342	29.90625
708.529	29.93279
708.716	28.90469
708.904	34.23009
709.091	30.76452
709.278	24.43173
709.465	35.72906
709.652	35.44254
709.839	33.37683
710.026	29.32728
710.213	23.11529
710.4	30.14464
710.587	32.12901
710.774	33.56698
710.961	32.56805
711.148	28.65427
711.335	32.50746
711.522	28.33921
711.709	30.09557
711.896	37.25379
712.083	32.56604
712.27	25.33431
712.457	29.70864
712.644	24.40612
712.831	36.46652
713.017	29.547
713.204	31.7123
713.391	27.61328
713.578	34.3143
713.765	34.73867
713.951	31.36631
714.138	41.87636
714.325	32.62864
714.512	30.58686
714.698	26.75312
714.885	36.19755
715.072	31.00626
715.258	30.74226
715.445	27.70782
715.631	36.1161
715.818	19.44323
716.005	26.91951
716.191	31.89029
716.378	28.32091
716.564	33.65193
716.751	26.75128
716.937	28.36958
717.124	34.46246
717.31	27.45502
717.497	35.75672
717.683	28.35357
717.869	39.40956
718.056	28.67331
718.242	32.50594
718.429	30.18315
718.615	26.42518
718.801	30.87976
718.988	34.99905
719.174	33.66161
719.36	30.60003
719.547	35.40436
719.733	32.62238
719.919	32.83403
720.105	34.18647
720.291	30.92027
720.478	31.42134
720.664	30.65725
720.85	28.94232
721.036	44.4797
721.222	38.35145
721.408	31.12598
721.595	40.58967
721.781	38.88926
721.967	37.02663
722.153	39.30342
722.339	35.43986
722.525	34.31989
722.711	27.40347
722.897	26.25406
723.083	30.54333
723.269	37.27443
723.455	43.51551
723.641	46.33272
723.827	33.07193
724.012	34.71901
724.198	30.70148
724.384	39.13729
724.57	33.73452
724.756	26.23016
724.942	24.14878
725.127	37.13946
725.313	39.6808
725.499	39.81559
725.685	41.44477
725.87	34.65003
726.056	28.847
726.242	40.09887
726.428	25.55488
726.613	37.05847
726.799	31.16611
726.985	27.96979
727.17	25.0338
727.356	39.97608
727.541	28.2491
727.727	32.08723
727.913	36.04581
728.098	30.44761
728.284	36.86557
728.469	26.80344
728.655	29.14721
728.84	36.57474
729.026	37.38253
729.211	37.41144
729.397	35.0859
729.582	36.00596
729.767	32.8041
729.953	34.89323
730.138	37.73079
730.323	23.1457
730.509	28.25122
730.694	41.51314
730.879	35.7104
731.065	33.94062
731.25	44.16685
731.435	37.00975
731.621	26.09417
731.806	30.70876
731.991	34.34755
732.176	27.58929
732.361	40.08623
732.547	36.51179
732.732	25.64182
732.917	44.51619
733.102	27.85562
733.287	29.71062
733.472	33.2109
733.657	33.91192
733.842	25.06657
734.027	30.68292
734.212	33.8051
734.397	29.11082
734.582	33.51065
734.767	37.90729
734.952	40.81317
735.137	21.38326
735.322	40.91037
735.507	36.01817
735.692	35.06557
735.877	45.18994
736.062	42.41658
736.247	36.8233
736.431	33.57646
736.616	40.48869
736.801	35.58905
736.986	34.09144
737.171	30.44148
737.355	26.52751
737.54	39.25981
737.725	34.85486
737.909	49.22508
738.094	30.396
738.279	40.69974
738.463	33.17139
738.648	38.38649
738.833	36.74784
739.017	44.74487
739.202	31.92805
739.386	34.40086
739.571	29.584
739.756	38.19948
739.94	34.51013
740.125	39.35594
740.309	29.80727
740.494	39.841
740.678	35.84215
740.863	37.13382
741.047	35.85601
741.231	41.86626
741.416	30.92025
741.6	44.4069
741.785	31.01987
741.969	39.61741
742.153	42.24392
742.338	23.79727
742.522	35.32109
742.706	40.20425
742.89	27.95349
743.075	37.65472
743.259	43.27484
743.443	40.9917
743.627	44.40188
743.812	50.12879
743.996	22.01825
744.18	35.35349
744.364	33.05256
744.548	50.50252
744.732	35.21997
744.916	42.09972
745.1	38.95889
745.285	35.26269
745.469	39.42355
745.653	46.49862
745.837	28.6059
746.021	51.60928
746.205	44.88072
746.389	36.82755
746.573	34.10756
746.757	46.67366
746.94	33.75184
747.124	44.24093
747.308	28.3367
747.492	42.78049
747.676	33.23702
747.86	52.52633
748.044	33.38427
748.227	25.34757
748.411	59.73995
748.595	36.37321
748.779	30.49271
748.963	39.89541
749.146	37.14939
749.33	33.08659
749.514	30.83917
749.697	45.82148
749.881	33.52961
750.065	30.97165
750.248	38.18707
750.432	53.28751
750.616	37.20297
750.799	29.57557
750.983	50.31789
751.166	54.38594
751.35	28.5182
751.533	43.07652
751.717	44.30912
751.9	47.31323
752.084	33.66211
752.267	31.53526
752.451	31.96369
752.634	35.80561
752.818	41.28513
753.001	43.03277
753.184	43.0029
753.368	39.88051
753.551	16.4531
753.734	32.15556
753.918	49.81312
754.101	32.76349
754.284	42.5282
754.467	35.01478
754.651	32.60543
754.834	31.3706
755.017	44.27014
755.2	45.72049
755.384	30.64775
755.567	41.97116
755.75	44.7963
755.933	35.16641
756.116	38.4227
756.299	34.16475
756.482	32.0146
756.665	42.44572
756.848	36.89815
757.032	41.52163
757.215	28.04824
757.398	31.48341
757.581	33.4222
757.764	57.22023
757.947	36.02679
758.129	45.38817
758.312	18.47725
758.495	36.9281
758.678	37.2676
758.861	34.05974
759.044	50.5544
759.227	31.19443
759.41	32.76382
759.592	41.76153
759.775	38.09525
759.958	44.19309
760.141	30.05621
760.324	54.30118
760.506	47.94876
760.689	44.18818
760.872	54.53921
761.054	41.47419
761.237	35.30792
761.42	39.89532
761.602	44.6606
761.785	41.38548
761.968	44.80312
762.15	50.69442
762.333	36.19533
762.515	40.90719
762.698	34.67328
762.88	43.81941
763.063	39.31355
763.245	42.34639
763.428	30.69819
763.61	30.77745
763.793	28.17405
763.975	38.0668
764.158	33.76649
764.34	33.16513
764.522	28.96364
764.705	34.33603
764.887	43.97399
765.069	27.36183
765.252	40.26386
765.434	40.99517
765.616	36.95263
765.799	34.61082
765.981	42.80171
766.163	31.92076
766.345	45.51995
766.528	33.09726
766.71	23.76017
766.892	38.38584
767.074	46.8763
767.256	36.79594
767.438	50.4703
767.62	40.11778
767.802	54.82278
767.985	43.9452
768.167	53.35601
768.349	34.47745
768.531	43.60295
768.713	41.53729
768.895	46.15124
769.077	43.71959
769.259	58.72324
769.441	78.1301
769.623	47.35993
769.804	54.53356
769.986	51.54073
770.168	59.56852
770.35	68.48131
770.532	54.50325
770.714	56.7759
770.896	58.87073
771.077	34.99119
771.259	63.05775
771.441	52.0016
771.623	66.38284
771.804	75.81162
771.986	32.85732
772.168	45.51469
772.35	61.14996
772.531	76.79357
772.713	51.09078
772.894	65.05649
773.076	49.53153
773.258	46.12209
773.439	64.61826
773.621	72.73879
773.802	40.65247
773.984	50.18044
774.166	53.02085
774.347	68.88164
774.529	64.27346
774.71	33.36905
774.891	48.61573
775.073	45.55103
775.254	67.54377
775.436	47.06913
775.617	74.3369
775.799	45.80563
775.98	68.38088
776.161	71.57929
776.343	72.6843
776.524	49.33674
776.705	48.95428
776.886	29.89656
777.068	57.12728
777.249	84.41395
777.43	77.24563
777.611	39.5156
777.793	51.35867
777.974	70.23014
778.155	47.76374
778.336	42.94204
778.517	79.09289
778.698	42.38718
778.879	32.00663
779.061	23.69544
779.242	56.53435
779.423	56.91121
779.604	46.58534
779.785	52.34225
779.966	54.401
780.147	65.41647
780.328	67.23997
780.509	87.49956
780.69	62.75292
780.871	42.81476
781.051	36.46554
781.232	55.96039
781.413	52.13487
781.594	48.58387
781.775	47.14539
781.956	45.07617
782.137	29.90115
782.317	44.94052
782.498	54.29207
782.679	55.40389
782.86	55.52794
783.04	44.90579
783.221	58.60391
783.402	76.47782
783.583	54.80622
783.763	60.58685
783.944	48.37931
784.124	36.65062
784.305	72.3611
784.486	58.24923
784.666	51.71002
784.847	36.01178
785.027	85.05268
785.208	46.08964
785.388	46.4728
785.569	44.674
785.749	51.25442
785.93	46.16554
786.11	36.88046
786.291	59.12868
786.471	53.26223
786.652	65.09431
786.832	51.37086
787.012	57.02713
787.193	40.6548
787.373	53.65638
787.553	45.71307
787.734	55.43637
787.914	47.17215
788.094	58.17771
788.275	54.64341
788.455	48.72808
788.635	37.9877
788.815	55.01423
788.995	39.26453
789.176	34.06632
789.356	42.78248
789.536	49.69308
789.716	58.86339
789.896	41.15606
790.076	45.8968
790.256	54.91023
790.436	26.99365
790.616	43.07646
790.796	54.51353
790.976	45.21826
791.156	43.03399
791.336	63.0825
791.516	56.43912
791.696	49.34263
791.876	35.79105
792.056	54.57505
792.236	61.90584
792.416	60.3967
792.596	55.35293
792.776	56.21496
792.956	56.34344
793.135	70.86751
793.315	39.99809
793.495	66.3537
793.675	60.71188
793.854	62.53019
794.034	63.29647
794.214	38.78803
794.394	62.27404
794.573	67.28979
794.753	52.83802
794.933	42.55554
795.112	55.50707
795.292	61.83102
795.472	75.79395
795.651	35.7203
795.831	50.73416
796.01	47.54225
796.19	47.97705
796.369	51.67515
796.549	57.09205
796.728	47.96391
796.908	38.07241
797.087	39.08439
797.267	49.36845
797.446	39.22898
797.626	58.82157
797.805	56.31164
797.984	41.30346
798.164	60.08853
798.343	38.45609
798.522	54.0751
798.702	51.87632
798.881	36.90599
799.06	49.37248
799.239	30.80981
799.419	40.93074
799.598	70.60032
799.777	57.70571
799.956	68.30542
800.136	47.02225
800.315	42.03034
800.494	56.59816
800.673	64.45285
800.852	59.44969
801.031	65.57799
801.21	57.64464
801.389	46.64316
801.568	53.40242
801.747	77.21096
801.926	52.13545
802.105	71.54385
802.284	47.27201
802.463	71.79564
802.642	53.18221
802.821	54.48912
803	69.58992
803.179	62.74
803.358	68.48623
803.537	45.4893
803.716	57.08855
803.895	46.06328
804.073	49.68846
804.252	44.73034
804.431	58.38815
804.61	50.6199
804.789	65.33326
804.967	46.93232
805.146	46.50439
805.325	77.26952
805.503	59.29961
805.682	35.33156
805.861	83.73169
806.039	67.75179
806.218	48.415
806.397	55.61323
806.575	52.9105
806.754	57.11966
806.932	42.1876
807.111	73.35439
807.289	64.93303
807.468	54.48862
807.646	66.58544
807.825	63.76666
808.003	54.62895
808.182	64.09625
808.36	55.41795
808.539	45.9918
808.717	72.93431
808.895	43.17527
809.074	59.14577
809.252	54.53113
809.43	62.65544
809.609	69.20691
809.787	73.7869
809.965	52.40833
810.144	54.92506
810.322	49.96335
810.5	60.58446
810.678	50.91273
810.856	85.40054
811.035	69.21641
811.213	63.82223
811.391	75.1827
811.569	58.94338
811.747	94.10668
811.925	71.4356
812.103	46.08388
812.281	52.27932
812.459	78.39641
812.637	80.37994
812.816	70.95619
812.994	84.69214
813.171	69.60771
813.349	63.83681
813.527	71.76012
813.705	77.62422
813.883	90.22358
814.061	71.87453
814.239	82.29936
814.417	87.67272
814.595	64.25963
814.773	62.06164
814.95	61.03399
815.128	62.92889
815.306	59.45888
815.484	57.35382
815.662	45.77947
815.839	43.43667
816.017	49.05523
816.195	77.75501
816.372	53.96493
816.55	68.1374
816.728	78.63787
816.905	54.38599
817.083	80.40204
817.261	53.11021
817.438	86.67039
817.616	82.79891
817.793	49.44793
817.971	69.94588
818.148	67.4675
818.326	76.84038
818.503	59.19358
818.681	75.52383
818.858	53.48575
819.036	56.63995
819.213	60.42293
819.391	49.9739
819.568	45.2445
819.745	45.56775
819.923	68.08179
820.1	49.0108
820.277	45.49375
820.455	50.55013
820.632	52.70309
820.809	52.44996
820.986	39.41078
821.164	34.74338
821.341	31.41454
821.518	39.70033
821.695	32.34014
821.872	31.26662
822.05	28.83449
822.227	25.04853
822.404	26.27961
822.581	27.60515
822.758	25.8041
822.935	25.69178
823.112	27.26927
823.289	24.3844
823.466	27.32887
823.643	26.48169
823.82	29.62872
823.997	27.97969
824.174	31.06919
824.351	36.7144
824.528	35.65172
824.705	33.61442
824.882	36.8395
825.059	44.20135
825.236	34.48092
825.412	37.08325
825.589	41.59749
825.766	52.63718
825.943	37.82282
826.12	43.312
826.296	32.74311
826.473	39.36722
826.65	39.50614
826.827	45.91588
827.003	33.45006
827.18	36.25455
827.357	39.44691
827.533	36.04218
827.71	25.43756
827.887	32.80448
828.063	35.83216
828.24	32.92251
828.416	39.31107
828.593	33.6274
828.769	42.96642
828.946	45.82728
829.122	47.10618
829.299	49.11484
829.475	33.40574
829.652	46.12794
829.828	68.18085
830.005	50.51263
830.181	60.9641
830.357	47.27388
830.534	66.33382
830.71	54.3393
830.886	63.92898
831.063	60.89268
831.239	74.52641
831.415	43.58809
831.592	75.41588
831.768	55.46588
831.944	46.75006
832.12	74.61005
832.296	70.77109
832.473	64.70619
832.649	49.65121
832.825	62.07688
833.001	42.2168
833.177	59.28039
833.353	53.06308
833.529	34.83186
833.705	46.35643
833.881	36.29686
834.058	35.78898
834.234	37.57786
834.41	37.58148
834.586	31.97443
834.761	36.80872
834.937	38.94983
835.113	39.14918
835.289	35.31675
835.465	41.25012
835.641	38.38536
835.817	41.64518
835.993	64.66468
836.169	38.84338
836.344	51.46839
836.52	58.75196
836.696	60.28159
836.872	45.57398
837.048	96.97308
837.223	51.76427
837.399	85.126
837.575	72.85352
837.75	68.76815
837.926	86.22795
838.102	126.08631
838.277	100.75413
838.453	118.60462
838.628	120.23118
838.804	63.71015
838.98	119.10275
839.155	70.18369
839.331	89.4887
839.506	68.7932
839.682	67.28252
839.857	82.69631
840.033	92.29543
840.208	52.45276
840.384	35.10298
840.559	54.49283
840.734	72.27436
840.91	96.31489
841.085	64.97801
841.26	65.51798
841.436	55.76875
841.611	61.3887
841.786	81.57108
841.962	97.16475
842.137	72.05205
842.312	50.19557
842.487	68.34533
842.663	60.63916
842.838	63.42475
843.013	168.36408
843.188	95.77216
843.363	97.89466
843.538	144.72604
843.714	153.48912
843.889	149.71687
844.064	147.12655
844.239	135.22773
844.414	155.45
844.589	113.49309
844.764	174.16817
844.939	164.94543
845.114	202.89132
845.289	187.30487
845.464	205.83403
845.639	176.39247
845.814	103.05344
845.989	116.73147
846.163	121.90136
846.338	143.78097
846.513	193.65195
846.688	130.48499
846.863	131.83181
847.038	122.0736
847.212	128.74395
847.387	141.7128
847.562	152.4156
847.737	162.62796
847.911	84.18693
848.086	94.94794
848.261	272.74654
848.435	121.80699
848.61	178.02973
848.785	103.14705
848.959	173.09874
849.134	217.68959
849.308	255.78769
849.483	139.06926
849.658	205.06777
849.832	119.34451
850.007	117.11978
850.181	270.58815
850.356	115.35263
850.53	214.76442
850.705	89.47064
850.879	75.98764
851.053	129.57286
851.228	112.69867
851.402	146.33496
851.577	180.45908
851.751	203.35991
851.925	139.63274
852.099	85.65667
852.274	110.86755
852.448	134.8527
852.622	160.82411
852.797	132.64501
852.971	141.89864
853.145	154.45242
853.319	255.75884
853.493	199.40152
853.668	121.88845
853.842	236.37681
854.016	181.67795
854.19	216.40218
854.364	158.1197
854.538	153.73585
854.712	191.52803
854.886	143.83311
855.06	131.93197
855.234	68.04967
855.408	206.13989
855.582	194.06598
855.756	203.97945
855.93	242.46004
856.104	150.96511
856.278	188.86871
856.452	138.92845
856.626	171.0277
856.8	241.85337
856.973	159.63374
857.147	159.71214
857.321	164.19465
857.495	183.09211
857.669	148.65427
857.842	132.76312
858.016	200.36039
858.19	109.46398
858.364	307.41868
858.537	130.8924
858.711	149.24905
858.885	134.07204
859.058	127.1505
859.232	78.27652
859.405	92.24844
859.579	195.33086
859.753	161.63231
859.926	106.77835
860.1	99.1208
860.273	133.06781
860.447	226.81953
860.62	125.86169
860.794	234.31612
860.967	159.58703
861.141	208.1227
861.314	268.87622
861.487	162.36899
861.661	218.58352
861.834	217.76045
862.008	212.63143
862.181	146.08228
862.354	151.20664
862.528	169.1627
862.701	120.54284
862.874	86.72596
863.047	132.52027
863.221	131.26593
863.394	83.2056
863.567	210.87253
863.74	75.52472
863.913	183.96422
864.087	160.73648
864.26	187.18911
864.433	136.12241
864.606	243.82324
864.779	145.41238
864.952	90.42864
865.125	123.01961
865.298	154.12913
865.471	147.25782
865.644	217.21718
865.817	198.85973
865.99	191.01437
866.163	225.31577
866.336	134.141
866.509	137.29692
866.682	129.99403
866.855	210.71207
867.028	101.12116
867.2	169.18935
867.373	82.59032
867.546	153.88091
867.719	252.37388
867.892	164.17084
868.064	112.09352
868.237	166.30325
868.41	148.44567
868.583	105.28238
868.755	108.14456
868.928	143.88298
869.101	280.06528
869.273	204.76232
869.446	173.28508
869.619	211.99785
869.791	141.75733
869.964	204.19407
870.136	184.65599
870.309	157.29411
870.481	151.77556
870.654	89.81362
870.826	162.64502
870.999	119.31007
871.171	179.0738
871.344	123.43106
871.516	149.78663
871.689	109.80938
871.861	160.43215
872.033	109.11669
872.206	137.00244
872.378	201.25093
872.55	124.70871
872.723	92.62732
872.895	133.63244
873.067	191.71192
873.24	197.21174
873.412	126.86744
873.584	136.21535
873.756	118.3693
873.928	155.83341
874.101	157.75464
874.273	165.69226
874.445	71.87013
874.617	98.87532
874.789	158.64404
874.961	136.05961
875.133	168.17544
875.305	147.97783
875.477	105.16405
875.649	90.87839
875.821	105.26199
875.993	219.09409
876.165	99.87353
876.337	165.73053
876.509	139.9067
876.681	162.32779
876.853	157.12498
877.025	155.3025
877.197	111.12681
877.369	96.25303
877.541	178.72808
877.712	70.20298
877.884	102.79989
878.056	160.2071
878.228	101.95298
878.4	161.53735
878.571	105.90308
878.743	78.80192
878.915	138.29028
879.086	96.65485
879.258	115.36254
879.43	99.7754
879.601	90.39532
879.773	98.7033
879.945	38.72228
880.116	50.80498
880.288	36.565
880.459	39.1845
880.631	32.15081
880.802	35.90903
880.974	35.83751
881.145	28.3603
881.317	34.03689
881.488	29.32836
881.66	30.21076
881.831	29.14292
882.002	35.24035
882.174	28.69753
882.345	34.18004
882.517	23.72242
882.688	38.22634
882.859	32.18693
883.03	44.34551
883.202	44.14052
883.373	39.50196
883.544	39.44019
883.715	54.50563
883.887	50.48416
884.058	44.952
884.229	58.6551
884.4	60.69711
884.571	68.46858
884.742	61.34282
884.914	64.26318
885.085	84.75821
885.256	108.01612
885.427	89.40044
885.598	101.49784
885.769	100.53995
885.94	108.49511
886.111	78.11648
886.282	121.95114
886.453	99.88845
886.624	86.10125
886.795	126.42635
886.966	109.02196
887.136	137.25652
887.307	108.87461
887.478	177.02117
887.649	139.98665
887.82	154.14639
887.991	123.97008
888.161	164.95297
888.332	152.91689
888.503	93.81768
888.674	201.077
888.844	224.77359
889.015	181.45019
889.186	103.39132
889.356	205.13231
889.527	92.85981
889.698	276.67721
889.868	120.68643
890.039	172.09881
890.209	147.37688
890.38	168.55817
890.551	152.43797
890.721	227.42299
890.892	179.30951
891.062	134.49156
891.233	161.01707
891.403	138.23844
891.574	111.24939
891.744	146.1081
891.914	162.72115
892.085	159.81229
892.255	70.89011
892.425	212.16742
892.596	167.66665
892.766	173.3421
892.936	205.9587
893.107	181.0484
893.277	115.41216
893.447	97.48279
893.618	69.87459
893.788	131.14789
893.958	83.72983
894.128	76.85009
894.298	90.19282
894.468	109.03479
894.639	61.34791
894.809	48.12164
894.979	64.53994
895.149	75.06969
895.319	61.20545
895.489	79.15679
895.659	92.05233
895.829	67.4862
895.999	68.82217
896.169	58.28852
896.339	66.01472
896.509	117.9532
896.679	123.18453
896.849	135.87139
897.019	165.71872
897.189	134.70142
897.358	130.54781
897.528	179.5647
897.698	80.00976
897.868	165.55057
898.038	248.0274
898.208	263.0608
898.377	90.19051
898.547	246.68095
898.717	302.36547
898.886	156.17689
899.056	258.65897
899.226	340.58349
899.395	233.20646
899.565	303.54197
899.735	211.95731
899.904	290.37865
900.074	262.26296
900.244	135.01847
900.413	410.92497
900.583	129.08427
900.752	214.24497
900.922	324.82938
901.091	49.4038
901.261	271.75424
901.43	249.59433
901.599	244.17256
901.769	519.124
901.938	323.98156
902.108	281.15431
902.277	345.83642
902.446	121.29668
902.616	130.5475
902.785	162.81874
902.954	269.7983
903.124	181.99078
903.293	152.51591
903.462	96.05379
903.631	131.34146
903.801	101.00189
903.97	61.56815
904.139	86.41429
904.308	73.64529
904.477	62.42641
904.646	44.2671
904.816	56.60485
904.985	76.63661
905.154	105.19354
