Data from WindowProjectSample_Transmission__74__00074.txt Node

Date: Sat May 03 17:58:15 EDT 2025
User: jessi
Spectrometer: SR400872
Trigger mode: 0
Integration Time (sec): 5.000010E-1
Scans to average: 6
Electric dark correction enabled: true
Nonlinearity correction enabled: true
Boxcar width: 0
XAxis mode: Wavelengths
Number of Pixels in Spectrum: 3648
>>>>>Begin Spectral Data<<<<<
184.909	3293.34301
185.132	4065.99951
185.355	-4298.55326
185.578	4258.55052
185.801	-323.37246
186.024	-4579.72472
186.247	1540.22535
186.47	556.35275
186.693	-66.38057
186.916	2822.63563
187.139	3263.54899
187.362	-2042.04211
187.585	5413.31738
187.808	28239.3617
188.031	-88.79871
188.254	-4049.10288
188.476	756.84432
188.699	3531.79019
188.922	-176.39809
189.145	-6912.87835
189.368	-408.14516
189.591	-637.27831
189.813	-3185.01097
190.036	930.41267
190.259	-9040.42488
190.482	1371.45085
190.705	3948.01934
190.927	-1954.0542
191.15	-6683.68338
191.373	5952.81285
191.595	-1078.49807
191.818	2022.28972
192.041	-317.21617
192.263	1871.17897
192.486	-2192.28706
192.709	-23324.97848
192.931	1711.51637
193.154	-3678.89363
193.377	-2321.98097
193.599	4536.08488
193.822	1827.21663
194.044	5741.35681
194.267	896.83802
194.489	-193.49093
194.712	2503.47924
194.934	8317.3902
195.157	-24911.90976
195.379	2081.91342
195.602	1784.41182
195.824	1527.42889
196.047	42368.30688
196.269	3082.33362
196.492	-1901.76156
196.714	-1350.25485
196.936	1805.44824
197.159	-11395.319
197.381	-393.08484
197.604	-5297.4622
197.826	-17152.53116
198.048	10710.46886
198.271	-8397.74699
198.493	4087.35674
198.715	3517.42484
198.938	-807.30733
199.16	-17903.13959
199.382	1158.16893
199.604	-1866.4235
199.827	-3616.68846
200.049	2310.64121
200.271	-7284.5744
200.493	-48322.47132
200.715	3520.70966
200.938	-2988.66441
201.16	-2665.8258
201.382	-1621.66419
201.604	-3152.78492
201.826	3493.60919
202.048	2835.70178
202.27	-1076.14482
202.492	-3488.14681
202.715	-1386.47806
202.937	-16934.02787
203.159	2460.92376
203.381	2358.26497
203.603	-3064.79812
203.825	-1036.82922
204.047	53451.28658
204.269	-1476.86189
204.491	-1134.07151
204.713	64992.47587
204.935	-3335.85792
205.156	-864.03892
205.378	-4335.30271
205.6	-1168.04524
205.822	2302.25242
206.044	-337.61576
206.266	6080.87399
206.488	888.83188
206.71	3299.14196
206.932	1643.82277
207.153	-1549.29529
207.375	-2677.9387
207.597	3834.08468
207.819	27233.24963
208.041	3997.1205
208.262	-1806.96867
208.484	-1044.96195
208.706	-1439.56187
208.927	2799.97307
209.149	4772.79141
209.371	-5152.38432
209.593	351.72882
209.814	-28051.74699
210.036	2242.01747
210.258	-770.19793
210.479	3860.21612
210.701	-3592.69906
210.922	-10566.18971
211.144	-983.8574
211.366	4958.67461
211.587	-2084.50136
211.809	-4747.86289
212.03	-866.20174
212.252	-619.21661
212.473	3170.07349
212.695	-766.9736
212.916	-855.61482
213.138	516.16153
213.359	-1392.3234
213.581	13020.69592
213.802	-2180.78527
214.024	-2421.45334
214.245	-6737.46385
214.466	-302.3809
214.688	-3074.65061
214.909	-19359.58337
215.131	-4497.72372
215.352	-2097.74315
215.573	11520.80458
215.795	1698.80896
216.016	6214.87061
216.237	-454.98898
216.459	6153.78258
216.68	-3613.24976
216.901	-2762.77788
217.122	-2012.45818
217.344	-6821.63964
217.565	-2798.86323
217.786	2334.38864
218.007	1622.39106
218.228	-473.0699
218.45	-4476.15047
218.671	1686.13593
218.892	3988.63801
219.113	1541.57634
219.334	208.73773
219.555	-7401.74684
219.776	11759.31327
219.997	4239.63243
220.219	1873.03049
220.44	1065.4127
220.661	1115.88761
220.882	-2557.31106
221.103	-1130.83399
221.324	2359.37174
221.545	2938.33207
221.766	-3511.34826
221.987	-578.22679
222.208	-10488.02392
222.429	171401.22364
222.65	-312.61199
222.87	-10091.45222
223.091	2440.3528
223.312	-1272.28174
223.533	2142.06538
223.754	2043.26392
223.975	2752.04838
224.196	-6041.27994
224.417	-2680.23382
224.637	7955.87673
224.858	1516.57999
225.079	1242.04948
225.3	1181.74949
225.521	4822.68376
225.741	891.21208
225.962	1178.10901
226.183	-672.54564
226.404	1435.6341
226.624	1043.20551
226.845	1607.61529
227.066	886.21526
227.286	544.78643
227.507	193.62952
227.728	195.87533
227.948	287.31767
228.169	86.38184
228.389	93.23748
228.61	45.30694
228.831	62.63488
229.051	5.85855
229.272	36.72887
229.492	50.89141
229.713	16.80507
229.933	36.70668
230.154	33.71862
230.374	55.30292
230.595	40.8459
230.815	30.60148
231.036	38.35335
231.256	-6.94538
231.477	76.2367
231.697	39.68428
231.917	45.89391
232.138	64.43922
232.358	129.03127
232.579	119.55576
232.799	15.9766
233.019	102.2644
233.24	136.02415
233.46	47.86941
233.68	74.70891
233.901	52.374
234.121	28.60979
234.341	13.87163
234.561	-4.2554
234.782	25.70555
235.002	84.2336
235.222	-1.96473
235.442	68.32907
235.662	32.61193
235.883	77.46763
236.103	65.24436
236.323	45.41594
236.543	31.84209
236.763	49.94072
236.983	48.77943
237.203	52.02631
237.423	79.30627
237.643	104.29049
237.864	90.58651
238.084	26.71136
238.304	35.78613
238.524	62.04758
238.744	45.05376
238.964	74.6879
239.184	68.70856
239.404	71.87762
239.624	37.11741
239.843	66.52411
240.063	37.14096
240.283	24.32558
240.503	26.40973
240.723	25.98481
240.943	12.98756
241.163	21.01048
241.383	15.56012
241.603	7.2962
241.822	8.91525
242.042	6.39597
242.262	8.84597
242.482	9.38425
242.702	11.06023
242.921	3.93614
243.141	7.7581
243.361	6.72997
243.581	10.64919
243.8	8.67345
244.02	5.91967
244.24	10.68295
244.459	9.56148
244.679	20.28383
244.899	13.5622
245.118	14.32247
245.338	13.37865
245.558	15.49304
245.777	8.26245
245.997	10.53311
246.216	10.42224
246.436	6.08618
246.655	4.4807
246.875	3.29872
247.094	6.83852
247.314	2.25162
247.533	3.37871
247.753	4.78953
247.972	3.84578
248.192	1.42026
248.411	2.42197
248.631	4.05205
248.85	5.40348
249.07	3.68178
249.289	7.02209
249.508	4.92815
249.728	8.22358
249.947	8.94146
250.166	9.44715
250.386	5.80873
250.605	7.57367
250.824	11.64476
251.044	9.13105
251.263	27.76558
251.482	14.63293
251.701	13.55317
251.921	0.25736
252.14	4.65988
252.359	4.15929
252.578	11.0854
252.798	3.33661
253.017	10.02013
253.236	5.42984
253.455	6.80196
253.674	12.54212
253.893	6.01353
254.112	8.7757
254.331	13.2804
254.551	10.40426
254.77	4.96116
254.989	15.32974
255.208	13.77672
255.427	15.90644
255.646	14.91346
255.865	23.97149
256.084	9.10756
256.303	11.3448
256.522	15.72836
256.741	3.82941
256.96	4.08208
257.179	10.44295
257.397	11.73855
257.616	6.53813
257.835	6.31108
258.054	16.55717
258.273	10.22295
258.492	12.12203
258.711	7.33115
258.93	3.04749
259.148	4.48823
259.367	4.57418
259.586	5.85609
259.805	2.48818
260.023	5.31282
260.242	3.90783
260.461	2.97835
260.68	1.61259
260.898	4.61403
261.117	1.60377
261.336	1.17685
261.554	4.00825
261.773	3.89367
261.992	0.71524
262.21	4.11614
262.429	4.98408
262.648	8.23331
262.866	9.61151
263.085	5.90156
263.303	5.47919
263.522	9.93791
263.74	9.99469
263.959	16.34189
264.178	8.40961
264.396	7.34935
264.615	5.41293
264.833	13.10449
265.051	11.41518
265.27	10.68948
265.488	12.10847
265.707	7.44062
265.925	11.9415
266.144	5.38896
266.362	6.99412
266.58	6.61541
266.799	5.16203
267.017	6.65996
267.235	6.23059
267.454	4.10359
267.672	2.14739
267.89	4.9929
268.109	5.18675
268.327	4.85132
268.545	1.32824
268.763	4.40184
268.982	1.70587
269.2	5.91412
269.418	3.34012
269.636	2.61579
269.854	4.86279
270.073	3.96345
270.291	2.11916
270.509	2.23381
270.727	5.25173
270.945	7.90308
271.163	7.97702
271.381	1.76227
271.599	3.36077
271.817	5.66176
272.036	2.23861
272.254	3.33724
272.472	2.81907
272.69	2.87617
272.908	2.66634
273.126	4.49807
273.344	5.84729
273.562	2.1666
273.779	3.04889
273.997	4.24192
274.215	4.73754
274.433	3.51759
274.651	5.24038
274.869	5.17848
275.087	3.34197
275.305	4.88903
275.523	2.46434
275.74	3.7168
275.958	5.92845
276.176	8.75213
276.394	2.52573
276.612	3.66235
276.829	3.59792
277.047	2.85227
277.265	3.36679
277.483	4.2889
277.7	4.80327
277.918	4.13493
278.136	6.92839
278.353	3.46312
278.571	1.913
278.789	5.62803
279.006	1.09209
279.224	3.52869
279.442	5.56421
279.659	3.39908
279.877	2.68205
280.094	6.40324
280.312	1.12448
280.529	3.75983
280.747	1.26527
280.964	2.72395
281.182	6.84469
281.399	3.08125
281.617	4.36969
281.834	3.2485
282.052	2.65484
282.269	3.25085
282.487	3.14097
282.704	2.33594
282.921	2.56862
283.139	3.68431
283.356	4.84987
283.574	3.83781
283.791	2.24471
284.008	5.96545
284.226	2.96567
284.443	3.6174
284.66	4.7222
284.877	3.80052
285.095	2.44904
285.312	1.80341
285.529	1.24793
285.746	0.99615
285.964	2.37733
286.181	1.43799
286.398	2.13136
286.615	2.8995
286.832	2.89784
287.05	0.8724
287.267	2.03096
287.484	2.15811
287.701	3.09378
287.918	2.87442
288.135	3.12266
288.352	1.45321
288.569	1.71313
288.786	2.86537
289.003	2.06346
289.22	3.27127
289.437	1.94483
289.654	3.22405
289.871	3.37991
290.088	3.26654
290.305	2.62051
290.522	2.06714
290.739	2.46484
290.956	3.42018
291.173	4.25502
291.39	3.85051
291.607	2.81842
291.824	2.22053
292.04	1.34047
292.257	3.14388
292.474	3.53686
292.691	2.1744
292.908	1.12708
293.125	2.09106
293.341	1.08296
293.558	5.52711
293.775	2.20157
293.992	2.31244
294.208	0.91406
294.425	1.39416
294.642	1.96254
294.858	3.48738
295.075	1.03023
295.292	2.13289
295.508	2.62737
295.725	4.05781
295.942	2.11681
296.158	1.50625
296.375	2.43491
296.591	1.72748
296.808	2.0398
297.024	2.30541
297.241	2.49071
297.458	2.58867
297.674	0.31534
297.891	2.13935
298.107	1.76386
298.323	1.28212
298.54	3.15574
298.756	1.64349
298.973	0.75326
299.189	3.35477
299.406	1.45115
299.622	3.27029
299.838	3.30153
300.055	3.03791
300.271	0.89608
300.487	1.18987
300.704	1.53559
300.92	0.83901
301.136	4.52844
301.353	3.00176
301.569	2.18971
301.785	2.50788
302.001	3.04139
302.218	2.65326
302.434	2.76539
302.65	0.89445
302.866	1.87598
303.083	4.60591
303.299	4.4215
303.515	2.18769
303.731	2.4634
303.947	1.11346
304.163	1.52962
304.379	2.63123
304.595	2.7092
304.812	1.74568
305.028	1.45778
305.244	2.0473
305.46	3.15062
305.676	3.2966
305.892	3.84879
306.108	2.7678
306.324	2.07799
306.54	4.35351
306.756	3.01086
306.972	2.81934
307.187	2.29705
307.403	3.76824
307.619	1.644
307.835	3.36445
308.051	3.92684
308.267	0.97533
308.483	3.53885
308.699	2.9007
308.914	2.49696
309.13	2.35956
309.346	0.83782
309.562	1.41751
309.778	0.85664
309.993	2.78787
310.209	2.33656
310.425	1.07103
310.641	2.15471
310.856	1.37584
311.072	1.14687
311.288	2.1923
311.503	2.55515
311.719	0.77074
311.935	0.70484
312.15	2.83497
312.366	2.5167
312.581	2.80887
312.797	2.51735
313.013	3.19928
313.228	1.77476
313.444	2.35139
313.659	1.68628
313.875	2.82919
314.09	2.18598
314.306	3.64308
314.521	3.22818
314.737	2.94539
314.952	2.50607
315.168	2.38469
315.383	2.94428
315.599	2.11017
315.814	2.06775
316.029	3.08046
316.245	1.15337
316.46	0.76697
316.675	3.55212
316.891	4.35551
317.106	5.07528
317.321	2.86543
317.537	3.05279
317.752	3.30149
317.967	3.2137
318.183	1.70649
318.398	2.02272
318.613	3.38383
318.828	3.8524
319.043	3.12336
319.259	1.99416
319.474	2.94136
319.689	3.59909
319.904	0.80277
320.119	3.30294
320.334	2.69966
320.549	2.38267
320.765	3.40922
320.98	2.60158
321.195	3.15948
321.41	2.30306
321.625	3.13819
321.84	4.22564
322.055	4.12475
322.27	1.67157
322.485	1.24932
322.7	2.6541
322.915	3.52973
323.13	1.77906
323.345	4.17188
323.56	3.49506
323.775	3.07209
323.989	2.93825
324.204	2.52313
324.419	3.2334
324.634	1.26702
324.849	2.23607
325.064	4.82475
325.279	3.532
325.493	3.00124
325.708	3.31817
325.923	1.54583
326.138	2.07629
326.352	4.09998
326.567	3.19564
326.782	1.9802
326.997	1.89996
327.211	3.05537
327.426	2.85283
327.641	2.31772
327.855	0.89136
328.07	3.14029
328.285	4.41878
328.499	2.12194
328.714	3.03079
328.928	3.16639
329.143	2.65144
329.358	3.65701
329.572	3.39039
329.787	4.09466
330.001	5.12939
330.216	0.986
330.43	4.63272
330.645	4.14397
330.859	3.33362
331.074	1.76612
331.288	2.60607
331.503	4.30271
331.717	1.32103
331.931	2.547
332.146	2.78624
332.36	4.45778
332.575	3.09477
332.789	2.76816
333.003	2.65807
333.218	3.29767
333.432	2.53622
333.646	3.55917
333.86	4.08587
334.075	4.46358
334.289	2.1915
334.503	1.65459
334.717	3.40263
334.932	3.22571
335.146	3.83224
335.36	1.98575
335.574	3.2612
335.788	2.84564
336.003	3.70755
336.217	3.69851
336.431	3.07032
336.645	2.04472
336.859	1.43528
337.073	2.43895
337.287	3.11836
337.501	1.47848
337.715	2.98535
337.929	3.35535
338.143	1.61561
338.357	2.70448
338.571	1.97778
338.785	3.39552
338.999	2.03866
339.213	2.41246
339.427	1.62865
339.641	3.70596
339.855	2.32598
340.069	2.09542
340.283	3.44097
340.497	4.3587
340.711	3.06503
340.924	2.44594
341.138	1.57436
341.352	1.45031
341.566	2.73188
341.78	1.26792
341.993	2.02913
342.207	1.83205
342.421	3.04975
342.635	2.81451
342.848	2.22366
343.062	0.40353
343.276	2.2261
343.49	4.68943
343.703	1.90181
343.917	3.43234
344.131	3.76069
344.344	1.92877
344.558	2.15124
344.771	1.63804
344.985	3.72789
345.199	4.32372
345.412	2.98003
345.626	3.12259
345.839	1.23667
346.053	1.71947
346.266	1.87341
346.48	3.21112
346.693	3.02276
346.907	3.29061
347.12	1.58586
347.334	2.7557
347.547	2.95814
347.76	2.72981
347.974	3.71236
348.187	2.9164
348.401	2.39831
348.614	1.88978
348.827	2.63666
349.041	3.06729
349.254	1.21919
349.467	2.60573
349.681	1.65209
349.894	1.87416
350.107	3.91571
350.32	4.43287
350.534	1.44533
350.747	2.42958
350.96	2.02729
351.173	1.90786
351.386	2.29664
351.6	2.21796
351.813	2.34491
352.026	2.61738
352.239	1.77231
352.452	2.26519
352.665	3.58319
352.878	2.31923
353.092	4.77251
353.305	3.40462
353.518	2.95728
353.731	1.71299
353.944	3.89112
354.157	2.10195
354.37	2.04917
354.583	1.36497
354.796	1.5802
355.009	3.74301
355.222	2.74802
355.435	2.83389
355.647	3.78864
355.86	2.00537
356.073	2.78673
356.286	2.31784
356.499	3.68333
356.712	3.2673
356.925	3.17023
357.138	3.67193
357.35	2.05471
357.563	2.50322
357.776	2.99303
357.989	2.83126
358.201	3.35733
358.414	2.98174
358.627	3.90793
358.84	2.64287
359.052	1.93472
359.265	2.089
359.478	3.7719
359.69	0.72397
359.903	3.60362
360.116	3.87741
360.328	1.63142
360.541	3.77332
360.753	2.44735
360.966	2.84177
361.179	2.94527
361.391	2.68021
361.604	2.33181
361.816	2.7262
362.029	2.66128
362.241	2.40097
362.454	2.91763
362.666	2.25575
362.879	3.4585
363.091	2.78139
363.304	2.53153
363.516	2.88194
363.728	2.1122
363.941	3.43721
364.153	2.92193
364.366	1.58811
364.578	2.29426
364.79	3.33009
365.003	3.33081
365.215	2.78272
365.427	3.63905
365.639	4.06715
365.852	3.40698
366.064	4.5159
366.276	2.81081
366.488	3.43964
366.701	2.93552
366.913	2.8359
367.125	2.92242
367.337	2.61369
367.549	2.77616
367.762	2.98562
367.974	3.08755
368.186	3.08252
368.398	4.05203
368.61	3.57078
368.822	3.81623
369.034	2.98312
369.246	4.16727
369.458	5.44565
369.67	2.76715
369.882	4.71827
370.094	1.55764
370.306	4.48285
370.518	3.00616
370.73	2.84083
370.942	2.91423
371.154	3.40834
371.366	3.25832
371.578	3.99223
371.79	3.26032
372.002	4.3308
372.214	5.09749
372.425	3.54767
372.637	4.95007
372.849	3.76919
373.061	1.91663
373.273	4.06723
373.484	4.01475
373.696	4.3165
373.908	1.83138
374.12	4.48496
374.331	4.33582
374.543	3.09612
374.755	2.91196
374.967	3.74474
375.178	4.69909
375.39	3.57563
375.602	3.9868
375.813	2.74213
376.025	3.15023
376.236	3.98193
376.448	4.21617
376.66	3.9309
376.871	3.86942
377.083	4.70848
377.294	5.69079
377.506	3.78049
377.717	5.06198
377.929	4.36954
378.14	3.73757
378.352	4.5803
378.563	4.90989
378.775	5.27881
378.986	3.56275
379.197	4.54713
379.409	3.62846
379.62	4.86567
379.832	4.52403
380.043	4.18765
380.254	4.65311
380.466	3.37584
380.677	6.50284
380.888	6.05267
381.1	6.48344
381.311	6.51837
381.522	4.90265
381.733	6.83966
381.945	4.64549
382.156	4.26244
382.367	4.40485
382.578	6.97923
382.789	7.00023
383.001	4.10201
383.212	6.14884
383.423	6.26956
383.634	5.64519
383.845	5.52145
384.056	4.53471
384.267	4.93576
384.478	5.06981
384.69	4.07919
384.901	5.49768
385.112	5.07426
385.323	6.56453
385.534	5.31774
385.745	5.76998
385.956	5.33975
386.167	4.41839
386.378	5.68789
386.588	4.88986
386.799	4.42347
387.01	4.20691
387.221	6.06738
387.432	5.47354
387.643	6.67171
387.854	5.13988
388.065	5.09104
388.275	5.24226
388.486	4.85086
388.697	5.60737
388.908	4.98859
389.119	6.38707
389.329	6.71959
389.54	5.4504
389.751	5.88603
389.962	6.49431
390.172	5.56234
390.383	5.58832
390.594	5.14628
390.804	5.29939
391.015	5.4913
391.226	5.95631
391.436	6.34896
391.647	6.12671
391.858	6.38045
392.068	4.86838
392.279	5.3052
392.489	6.38837
392.7	6.61633
392.91	5.59587
393.121	5.46225
393.331	6.43714
393.542	7.01158
393.752	6.79884
393.963	6.54588
394.173	6.58425
394.384	6.8036
394.594	6.26393
394.804	5.27068
395.015	6.17558
395.225	6.71651
395.436	5.65027
395.646	6.6798
395.856	6.0201
396.067	5.34376
396.277	6.94887
396.487	6.42853
396.697	6.76619
396.908	7.15575
397.118	6.74853
397.328	6.6175
397.538	7.20727
397.749	5.89282
397.959	7.14297
398.169	6.73799
398.379	5.36372
398.589	6.80998
398.8	6.81299
399.01	6.82965
399.22	6.39252
399.43	8.01622
399.64	6.62375
399.85	7.0147
400.06	6.88632
400.27	6.11453
400.48	6.48989
400.69	7.28678
400.9	6.43875
401.11	5.89079
401.32	7.12317
401.53	6.29883
401.74	7.71873
401.95	7.10293
402.16	6.52701
402.37	7.05678
402.58	6.57911
402.79	7.16221
403	7.29631
403.209	6.49739
403.419	7.76607
403.629	6.34867
403.839	7.73304
404.049	7.81492
404.258	6.98402
404.468	6.65279
404.678	7.81369
404.888	7.94276
405.097	7.27399
405.307	7.00891
405.517	7.80214
405.727	7.65343
405.936	6.93146
406.146	7.44193
406.356	8.20409
406.565	7.20384
406.775	6.95453
406.984	6.91468
407.194	8.89277
407.404	7.45794
407.613	7.72781
407.823	8.17614
408.032	8.38674
408.242	8.01975
408.451	7.10204
408.661	7.39701
408.87	8.62232
409.08	6.77445
409.289	7.80901
409.499	7.86113
409.708	7.572
409.918	6.25972
410.127	7.77707
410.336	8.79775
410.546	8.404
410.755	7.38342
410.964	7.32277
411.174	6.81434
411.383	7.96941
411.592	7.88683
411.802	7.0569
412.011	8.15676
412.22	7.50255
412.429	8.61657
412.639	8.78239
412.848	8.53028
413.057	8.97196
413.266	8.22211
413.475	7.9504
413.685	8.19862
413.894	8.53467
414.103	8.54641
414.312	8.3237
414.521	7.697
414.73	8.5101
414.939	9.13373
415.148	8.308
415.357	8.23522
415.566	8.09479
415.776	7.89836
415.985	8.02663
416.194	8.8321
416.403	9.52404
416.611	7.50109
416.82	8.08456
417.029	8.56373
417.238	8.07
417.447	8.07025
417.656	8.50447
417.865	8.29166
418.074	8.87933
418.283	9.4922
418.492	10.79325
418.7	10.35525
418.909	12.1394
419.118	10.72821
419.327	11.50415
419.536	11.31913
419.744	11.33364
419.953	12.96138
420.162	13.19671
420.371	12.47146
420.579	12.94095
420.788	13.92141
420.997	14.34252
421.205	14.42691
421.414	14.18392
421.623	14.56613
421.831	13.71541
422.04	14.32639
422.249	13.35418
422.457	13.69396
422.666	12.74961
422.874	13.87954
423.083	13.99007
423.291	14.00169
423.5	13.92669
423.708	14.27952
423.917	15.07075
424.125	14.28925
424.334	14.13873
424.542	16.16044
424.751	15.38237
424.959	14.90445
425.167	15.11848
425.376	14.71512
425.584	13.37129
425.793	13.21403
426.001	12.00305
426.209	12.26022
426.418	10.8985
426.626	10.36546
426.834	9.81421
427.042	9.66739
427.251	9.24572
427.459	10.03344
427.667	9.3372
427.875	8.72676
428.084	9.08008
428.292	10.31809
428.5	9.8216
428.708	8.67151
428.916	8.83361
429.124	9.53785
429.333	9.14192
429.541	9.37702
429.749	9.52729
429.957	9.40685
430.165	11.04607
430.373	8.77457
430.581	9.57209
430.789	10.33749
430.997	9.34201
431.205	8.94688
431.413	9.69414
431.621	9.33087
431.829	10.09918
432.037	9.53257
432.245	9.93533
432.453	9.94665
432.661	9.80832
432.869	11.36008
433.076	10.06807
433.284	10.46344
433.492	11.64378
433.7	11.6507
433.908	10.69423
434.116	10.96739
434.323	10.77971
434.531	10.58428
434.739	10.51367
434.947	10.31511
435.154	10.60528
435.362	9.87794
435.57	9.62141
435.778	9.38371
435.985	9.95855
436.193	9.57019
436.401	10.68795
436.608	9.92994
436.816	9.68542
437.023	10.92101
437.231	10.9681
437.439	10.13213
437.646	10.29072
437.854	10.45693
438.061	10.45544
438.269	10.34987
438.476	10.72076
438.684	10.8188
438.891	11.0325
439.099	11.14917
439.306	10.88632
439.514	11.07576
439.721	12.77149
439.929	12.38872
440.136	13.51784
440.343	13.61494
440.551	13.32066
440.758	15.15699
440.965	13.75458
441.173	13.42864
441.38	12.99967
441.587	12.80976
441.795	12.40738
442.002	11.9416
442.209	11.76175
442.416	11.51232
442.624	11.17695
442.831	10.84836
443.038	10.14774
443.245	9.85983
443.452	10.18984
443.66	10.88822
443.867	10.44243
444.074	10.30946
444.281	10.74387
444.488	11.04708
444.695	11.81571
444.902	11.88384
445.109	13.55516
445.316	13.3812
445.523	14.03672
445.73	14.16661
445.937	15.03105
446.144	15.73856
446.351	16.31136
446.558	15.08183
446.765	17.13332
446.972	16.32218
447.179	15.67863
447.386	16.31706
447.593	14.38877
447.8	15.37897
448.007	13.68899
448.214	12.79891
448.42	12.22284
448.627	12.64408
448.834	11.62465
449.041	11.21598
449.248	10.90639
449.454	11.0279
449.661	11.566
449.868	10.28095
450.075	10.06598
450.281	9.6736
450.488	10.07684
450.695	9.92408
450.901	10.08496
451.108	10.24367
451.315	11.20833
451.521	10.37204
451.728	11.08163
451.935	10.19495
452.141	10.56368
452.348	10.55134
452.554	10.72754
452.761	10.46809
452.967	11.81017
453.174	10.78598
453.38	10.70384
453.587	9.79781
453.793	10.80515
454	11.03479
454.206	11.89394
454.413	11.13752
454.619	10.98836
454.825	10.34424
455.032	11.06479
455.238	10.977
455.445	9.88603
455.651	10.80667
455.857	9.63725
456.064	10.52817
456.27	10.48783
456.476	10.33278
456.682	9.90855
456.889	10.68783
457.095	11.01959
457.301	12.16692
457.507	10.96714
457.714	10.72867
457.92	10.88517
458.126	10.48509
458.332	10.83668
458.538	11.27706
458.744	11.98738
458.951	12.86065
459.157	15.2335
459.363	14.7616
459.569	15.08019
459.775	15.8198
459.981	15.78144
460.187	16.10601
460.393	16.05348
460.599	16.24424
460.805	14.86098
461.011	13.64489
461.217	13.21456
461.423	12.12758
461.629	11.22563
461.835	11.27812
462.041	10.84681
462.247	11.9166
462.453	10.8077
462.658	10.71775
462.864	11.49
463.07	11.28798
463.276	11.13942
463.482	10.97162
463.688	12.07363
463.893	10.56032
464.099	10.85254
464.305	12.11892
464.511	10.89229
464.716	10.96004
464.922	11.75775
465.128	10.52575
465.333	12.07691
465.539	11.62921
465.745	11.36689
465.95	11.26371
466.156	13.02532
466.362	11.90982
466.567	11.22246
466.773	10.98715
466.978	12.24632
467.184	10.62741
467.389	10.17115
467.595	11.53397
467.8	10.69085
468.006	12.06841
468.211	12.02832
468.417	10.377
468.622	11.34432
468.828	11.70294
469.033	11.34471
469.239	13.07157
469.444	10.85428
469.649	11.78716
469.855	11.43094
470.06	11.46103
470.266	10.75569
470.471	11.79073
470.676	11.52693
470.881	10.25596
471.087	12.3577
471.292	12.53009
471.497	10.67517
471.703	11.11558
471.908	11.19805
472.113	11.56022
472.318	12.18295
472.523	10.9302
472.729	11.88905
472.934	11.81481
473.139	11.36715
473.344	11.93139
473.549	12.33047
473.754	10.99181
473.959	12.9442
474.164	11.08823
474.369	11.42579
474.575	12.09608
474.78	11.50336
474.985	11.20578
475.19	10.54842
475.395	11.27447
475.6	11.57453
475.804	12.43426
476.009	11.81736
476.214	11.57429
476.419	11.3505
476.624	10.78431
476.829	11.27868
477.034	12.12598
477.239	11.33741
477.444	11.78869
477.648	12.27122
477.853	12.16899
478.058	11.50942
478.263	11.39209
478.468	11.3153
478.672	11.41366
478.877	12.71121
479.082	12.83164
479.287	12.23638
479.491	11.8368
479.696	11.44913
479.901	12.37832
480.105	12.30537
480.31	11.56779
480.515	11.93834
480.719	13.4964
480.924	12.09098
481.128	12.26249
481.333	13.57959
481.538	14.08059
481.742	14.77631
481.947	16.45148
482.151	17.76607
482.356	19.25456
482.56	22.93786
482.765	25.55481
482.969	30.87206
483.174	34.31484
483.378	39.31283
483.582	40.86349
483.787	43.29052
483.991	43.86003
484.196	43.92129
484.4	43.11485
484.604	42.70299
484.809	38.65181
485.013	36.14108
485.217	32.08998
485.422	28.60739
485.626	25.86319
485.83	24.64747
486.034	23.91723
486.239	24.96934
486.443	25.77846
486.647	26.86073
486.851	28.81322
487.055	30.8754
487.26	31.12727
487.464	32.80607
487.668	31.82239
487.872	32.4092
488.076	32.58971
488.28	30.77921
488.484	28.97756
488.688	27.9482
488.892	26.16318
489.096	24.07998
489.3	22.24055
489.504	20.89932
489.708	19.7744
489.912	19.48338
490.116	19.15067
490.32	19.01211
490.524	21.02284
490.728	22.57185
490.932	24.00314
491.136	25.69794
491.34	27.17701
491.544	27.80969
491.748	27.78948
491.951	27.45966
492.155	26.58896
492.359	25.61852
492.563	23.10485
492.767	21.56139
492.97	18.96495
493.174	16.9589
493.378	15.4976
493.582	13.81194
493.785	13.14934
493.989	12.89584
494.193	12.34911
494.396	11.66434
494.6	12.00977
494.804	11.39653
495.007	11.28548
495.211	11.8144
495.414	11.93705
495.618	12.64139
495.822	13.30106
496.025	13.04943
496.229	13.82923
496.432	13.59699
496.636	13.96983
496.839	14.07335
497.043	14.96642
497.246	14.27239
497.45	13.9366
497.653	14.304
497.856	13.84362
498.06	13.24736
498.263	13.20436
498.467	12.97919
498.67	13.56657
498.873	12.81153
499.077	12.51203
499.28	12.45858
499.483	12.62599
499.686	13.04243
499.89	12.48745
500.093	12.82611
500.296	12.04294
500.499	13.38091
500.703	12.47569
500.906	12.6126
501.109	13.40871
501.312	12.58108
501.515	12.3147
501.719	12.82879
501.922	13.1873
502.125	12.5984
502.328	12.68054
502.531	12.08825
502.734	12.73727
502.937	11.62768
503.14	12.90477
503.343	12.04833
503.546	12.46567
503.749	12.31477
503.952	12.93307
504.155	12.15428
504.358	12.8751
504.561	12.99557
504.764	11.85929
504.967	12.64477
505.17	12.65184
505.373	13.56745
505.576	12.63848
505.778	12.87383
505.981	12.0918
506.184	13.47346
506.387	11.80952
506.59	13.76829
506.793	13.4648
506.995	12.87384
507.198	11.48484
507.401	12.9821
507.604	12.9557
507.806	12.19632
508.009	12.36363
508.212	13.34465
508.414	12.39019
508.617	12.59922
508.82	12.84507
509.022	13.75476
509.225	12.96755
509.427	12.08323
509.63	13.61657
509.833	12.67709
510.035	12.54985
510.238	11.8206
510.44	13.47767
510.643	11.88063
510.845	13.87454
511.048	13.05016
511.25	12.55021
511.453	12.72773
511.655	13.25637
511.858	12.84205
512.06	13.28771
512.262	13.09727
512.465	13.67864
512.667	13.00555
512.869	12.33955
513.072	13.15324
513.274	13.37831
513.476	13.1939
513.679	13.52801
513.881	12.14814
514.083	13.82433
514.286	12.48199
514.488	12.52684
514.69	12.2598
514.892	12.07308
515.094	13.44384
515.297	12.43491
515.499	13.14357
515.701	12.50382
515.903	14.01036
516.105	14.25791
516.307	13.55222
516.509	12.04836
516.711	12.3337
516.913	13.0879
517.116	13.0383
517.318	12.9508
517.52	14.10346
517.722	14.39307
517.924	14.03552
518.126	15.53137
518.328	15.36365
518.529	16.14253
518.731	16.95088
518.933	15.17157
519.135	15.33437
519.337	15.88101
519.539	14.84604
519.741	12.9687
519.943	13.18306
520.145	12.56162
520.346	13.55135
520.548	12.97627
520.75	13.23797
520.952	12.90884
521.153	13.44053
521.355	13.32334
521.557	12.63285
521.759	13.06717
521.96	13.04061
522.162	12.37232
522.364	13.6656
522.565	12.79376
522.767	13.39744
522.969	13.72368
523.17	13.5756
523.372	13.14422
523.573	13.11417
523.775	13.15019
523.977	12.52282
524.178	14.2895
524.38	12.9496
524.581	14.01228
524.783	14.02013
524.984	15.51156
525.186	15.83452
525.387	16.64702
525.589	16.91731
525.79	16.97877
525.991	17.00633
526.193	17.83543
526.394	17.13485
526.596	18.16841
526.797	18.82711
526.998	18.51859
527.2	19.62717
527.401	23.13997
527.602	25.49872
527.803	29.27587
528.005	31.74251
528.206	33.92059
528.407	35.63682
528.608	35.63128
528.81	36.29526
529.011	34.96641
529.212	35.55102
529.413	33.06046
529.614	30.46615
529.815	28.37412
530.017	25.48931
530.218	22.63297
530.419	20.30269
530.62	19.28582
530.821	18.462
531.022	16.78736
531.223	17.82074
531.424	17.34668
531.625	17.90964
531.826	17.7356
532.027	18.78594
532.228	20.93158
532.429	21.7013
532.63	22.62315
532.831	24.10115
533.032	24.11177
533.233	25.16173
533.433	24.63704
533.634	24.98402
533.835	23.63281
534.036	22.43407
534.237	21.29058
534.438	19.55737
534.638	17.34712
534.839	16.76663
535.04	16.17564
535.241	15.39696
535.441	16.81781
535.642	16.38683
535.843	16.15658
536.043	16.66568
536.244	16.99909
536.445	17.42147
536.645	18.48622
536.846	18.01318
537.047	18.18636
537.247	16.46303
537.448	16.18509
537.648	15.55603
537.849	14.39204
538.049	13.74921
538.25	13.89022
538.451	14.02515
538.651	13.10894
538.851	13.92732
539.052	14.49522
539.252	14.22982
539.453	13.65046
539.653	14.34246
539.854	15.18644
540.054	16.92005
540.254	19.55279
540.455	21.66952
540.655	22.71518
540.855	25.07617
541.056	26.75066
541.256	26.59517
541.456	28.04461
541.657	27.12136
541.857	27.70121
542.057	25.57591
542.257	24.4135
542.458	24.12097
542.658	22.66998
542.858	20.13421
543.058	19.95242
543.258	18.8113
543.458	16.65194
543.659	15.96058
543.859	16.58147
544.059	16.16355
544.259	15.04645
544.459	14.94149
544.659	13.88536
544.859	14.01531
545.059	13.44861
545.259	14.26906
545.459	13.63012
545.659	14.72585
545.859	14.08253
546.059	14.56241
546.259	13.9819
546.459	14.10418
546.659	13.88782
546.859	14.93095
547.059	14.3672
547.258	14.03798
547.458	14.1745
547.658	13.17126
547.858	13.13241
548.058	13.96129
548.258	13.50506
548.457	13.02857
548.657	15.07375
548.857	13.31098
549.057	14.16527
549.256	14.2802
549.456	13.19967
549.656	12.181
549.855	14.73981
550.055	13.44602
550.255	14.83228
550.454	13.80481
550.654	14.28794
550.853	14.62311
551.053	14.14682
551.253	13.95069
551.452	14.01296
551.652	13.14824
551.851	12.87876
552.051	13.52224
552.25	13.21207
552.45	13.189
552.649	13.64706
552.849	13.36516
553.048	13.69056
553.248	14.27828
553.447	13.17806
553.646	14.25989
553.846	15.16202
554.045	14.42168
554.244	12.88377
554.444	14.95211
554.643	12.83413
554.842	15.08892
555.042	15.20178
555.241	13.25572
555.44	12.86571
555.64	14.50141
555.839	15.16769
556.038	14.06016
556.237	13.30787
556.436	13.83394
556.636	14.40414
556.835	13.35609
557.034	15.17867
557.233	13.68089
557.432	12.50468
557.631	14.59996
557.83	13.63412
558.029	13.54076
558.228	13.2086
558.427	13.24531
558.626	13.98816
558.825	12.97922
559.024	13.76012
559.223	15.29764
559.422	13.66214
559.621	14.32486
559.82	11.89124
560.019	13.95995
560.218	13.64075
560.417	11.5315
560.616	13.4729
560.815	16.59198
561.014	12.69357
561.212	15.17433
561.411	13.97189
561.61	12.61098
561.809	13.42837
562.008	14.81951
562.206	13.55463
562.405	14.3502
562.604	13.567
562.803	14.14781
563.001	13.56784
563.2	12.89357
563.399	14.27151
563.597	12.74983
563.796	13.71867
563.995	12.88501
564.193	14.28495
564.392	13.67658
564.59	15.64993
564.789	12.38635
564.988	13.21097
565.186	13.8348
565.385	13.66331
565.583	13.72078
565.782	13.85804
565.98	13.93652
566.179	13.80775
566.377	13.23418
566.575	13.53119
566.774	14.95042
566.972	14.28229
567.171	15.28502
567.369	14.87125
567.567	13.92871
567.766	14.1365
567.964	12.53653
568.162	14.1978
568.361	14.53373
568.559	13.73741
568.757	14.34138
568.956	13.94048
569.154	13.73853
569.352	14.4727
569.55	13.81962
569.748	13.93175
569.947	13.38482
570.145	13.15106
570.343	13.11887
570.541	14.65388
570.739	12.9701
570.937	13.83844
571.135	14.18144
571.333	15.18919
571.532	15.35713
571.73	14.334
571.928	14.91706
572.126	14.34434
572.324	13.77305
572.522	14.95599
572.72	16.25812
572.918	14.07084
573.116	14.44337
573.313	13.96719
573.511	13.89005
573.709	13.44557
573.907	14.64292
574.105	13.82004
574.303	12.66486
574.501	12.89221
574.699	14.46599
574.896	14.45774
575.094	14.48111
575.292	12.93183
575.49	14.7446
575.688	13.71747
575.885	14.97708
576.083	15.86171
576.281	14.55797
576.478	13.40605
576.676	14.32416
576.874	12.65641
577.071	13.53472
577.269	16.1942
577.467	13.94362
577.664	13.85493
577.862	15.12902
578.059	12.83729
578.257	14.82595
578.455	13.40053
578.652	13.94116
578.85	12.05889
579.047	14.10018
579.245	13.75438
579.442	14.26516
579.64	13.95436
579.837	12.62652
580.034	16.47826
580.232	13.78284
580.429	12.56873
580.627	14.3881
580.824	15.11065
581.021	14.18532
581.219	13.49828
581.416	13.21749
581.613	15.1072
581.811	15.336
582.008	13.12666
582.205	14.99894
582.402	13.9807
582.6	15.95053
582.797	13.84719
582.994	14.08845
583.191	14.50641
583.388	13.94522
583.586	14.90789
583.783	14.98522
583.98	13.48794
584.177	14.21887
584.374	10.94388
584.571	13.79806
584.768	13.7571
584.965	13.52749
585.162	14.5517
585.359	15.97725
585.556	14.22892
585.753	14.15319
585.95	12.80748
586.147	13.15352
586.344	14.73172
586.541	13.2771
586.738	12.70848
586.935	13.95367
587.132	13.06769
587.329	15.12731
587.526	13.72496
587.722	19.10249
587.919	12.87538
588.116	14.42456
588.313	15.61619
588.51	16.54393
588.706	13.5179
588.903	14.69265
589.1	15.15812
589.297	16.56916
589.493	13.91259
589.69	14.46307
589.887	13.66613
590.083	12.97978
590.28	13.50934
590.477	14.85303
590.673	14.99058
590.87	15.61614
591.067	13.96134
591.263	14.75249
591.46	14.42113
591.656	13.49974
591.853	15.1439
592.049	13.12614
592.246	13.46847
592.442	15.58377
592.639	15.72556
592.835	13.23816
593.032	14.49714
593.228	12.46073
593.425	12.46109
593.621	12.46284
593.817	14.81045
594.014	13.5423
594.21	14.45138
594.406	15.39689
594.603	14.80807
594.799	13.6412
594.995	12.02049
595.192	15.68658
595.388	14.19238
595.584	14.10392
595.78	13.02139
595.977	16.60344
596.173	16.23222
596.369	14.31817
596.565	13.36591
596.761	13.18745
596.957	15.75667
597.154	13.86988
597.35	13.8788
597.546	13.75089
597.742	15.16326
597.938	14.26787
598.134	13.56701
598.33	14.47131
598.526	15.67493
598.722	14.55025
598.918	16.25152
599.114	14.67021
599.31	12.85288
599.506	14.03833
599.702	13.1703
599.898	14.12271
600.094	15.02441
600.29	14.29849
600.485	15.04402
600.681	13.58842
600.877	16.20624
601.073	14.13412
601.269	16.39749
601.465	15.68189
601.66	13.06538
601.856	12.31646
602.052	16.27547
602.248	14.17509
602.443	12.74582
602.639	13.30321
602.835	13.90041
603.03	13.60899
603.226	15.61598
603.422	13.41392
603.617	14.2684
603.813	14.01354
604.009	14.27628
604.204	15.88988
604.4	13.1799
604.595	15.31747
604.791	13.64518
604.986	14.75832
605.182	13.91724
605.377	14.23312
605.573	13.83232
605.768	14.3348
605.964	15.03121
606.159	14.87835
606.355	15.24712
606.55	13.68325
606.746	15.84687
606.941	13.8174
607.136	16.5735
607.332	17.83803
607.527	12.9481
607.722	14.29214
607.918	14.22931
608.113	14.05859
608.308	15.65091
608.503	15.36852
608.699	14.87805
608.894	15.3539
609.089	13.88315
609.284	14.94183
609.479	14.17513
609.675	15.59238
609.87	14.31161
610.065	15.57502
610.26	15.67673
610.455	15.14535
610.65	14.48496
610.845	14.743
611.04	15.8164
611.235	14.16503
611.43	13.88726
611.625	13.05435
611.82	16.26912
612.015	13.88919
612.21	16.3979
612.405	12.45724
612.6	16.56027
612.795	15.77257
612.99	15.05261
613.185	13.31047
613.38	13.37795
613.575	14.34231
613.77	17.87333
613.965	12.41933
614.159	13.09002
614.354	16.80789
614.549	15.65059
614.744	15.24747
614.938	13.33838
615.133	12.64684
615.328	16.28342
615.523	15.54389
615.717	18.67655
615.912	13.07139
616.107	14.47224
616.301	14.01524
616.496	14.04037
616.691	16.36302
616.885	15.56571
617.08	18.68095
617.274	15.80398
617.469	17.32245
617.664	15.24367
617.858	13.98546
618.053	15.24138
618.247	14.47272
618.442	11.52899
618.636	16.47687
618.831	13.82186
619.025	13.69603
619.219	18.13406
619.414	10.68882
619.608	14.21982
619.803	13.64184
619.997	17.48409
620.191	16.12406
620.386	15.04935
620.58	14.83538
620.774	12.18532
620.969	12.81617
621.163	14.44817
621.357	13.38542
621.551	13.77962
621.746	14.58712
621.94	13.80878
622.134	19.66675
622.328	17.37638
622.522	12.1884
622.716	16.09475
622.911	16.46948
623.105	15.98786
623.299	15.18398
623.493	19.36665
623.687	13.62237
623.881	13.94514
624.075	14.99743
624.269	17.08431
624.463	12.05544
624.657	12.69107
624.851	15.65173
625.045	16.43043
625.239	16.31176
625.433	14.70393
625.627	17.30554
625.821	13.83586
626.015	13.97844
626.209	15.22122
626.403	13.16023
626.596	15.69569
626.79	16.23992
626.984	13.36165
627.178	15.61375
627.372	15.91374
627.565	16.04027
627.759	12.9061
627.953	13.11172
628.147	15.4701
628.34	15.66391
628.534	17.66024
628.728	14.51425
628.921	15.96955
629.115	15.34922
629.309	16.23033
629.502	16.01582
629.696	15.10478
629.89	14.12182
630.083	15.22199
630.277	15.20428
630.47	17.57771
630.664	14.24809
630.857	12.6316
631.051	15.87749
631.244	16.99394
631.438	16.28025
631.631	13.75609
631.825	17.13376
632.018	16.00108
632.212	17.70514
632.405	16.7425
632.598	13.96048
632.792	15.36407
632.985	11.45495
633.178	15.08171
633.372	14.85972
633.565	14.54167
633.758	17.26114
633.952	13.54053
634.145	13.73407
634.338	14.54568
634.531	14.22759
634.724	14.27281
634.918	14.86483
635.111	14.77741
635.304	14.15848
635.497	18.79217
635.69	15.31545
635.883	16.9403
636.077	13.15713
636.27	15.77327
636.463	15.16393
636.656	15.23725
636.849	14.69851
637.042	16.33012
637.235	17.40111
637.428	16.44697
637.621	16.86568
637.814	17.47506
638.007	17.69161
638.2	17.04083
638.393	18.30669
638.586	12.84029
638.778	14.60305
638.971	14.8652
639.164	18.2752
639.357	15.61722
639.55	18.055
639.743	16.61174
639.935	15.90835
640.128	18.98396
640.321	16.81662
640.514	15.50205
640.707	19.24317
640.899	15.84139
641.092	12.01862
641.285	28.90528
641.477	11.76576
641.67	19.74491
641.863	17.57379
642.055	16.0316
642.248	15.26528
642.441	14.25707
642.633	16.11145
642.826	18.61569
643.018	17.11289
643.211	19.38669
643.403	18.49048
643.596	20.19154
643.788	19.1129
643.981	15.22807
644.173	17.08961
644.366	15.50839
644.558	12.38893
644.751	17.76215
644.943	12.16229
645.135	18.71637
645.328	18.956
645.52	16.41344
645.712	17.68267
645.905	21.70447
646.097	13.63276
646.289	15.61945
646.482	19.88785
646.674	14.26545
646.866	18.42224
647.058	17.03247
647.251	13.72773
647.443	14.72036
647.635	15.76638
647.827	13.42722
648.019	15.2928
648.211	15.47818
648.404	15.65125
648.596	19.24495
648.788	16.0541
648.98	16.37092
649.172	16.67477
649.364	17.00983
649.556	13.01599
649.748	22.17713
649.94	14.68669
650.132	16.71253
650.324	13.64432
650.516	15.59244
650.708	18.69161
650.9	13.29625
651.092	12.79581
651.284	13.2793
651.476	14.07479
651.667	17.09201
651.859	18.26024
652.051	15.81823
652.243	16.06737
652.435	15.60314
652.627	17.78179
652.818	16.99144
653.01	13.34962
653.202	13.96162
653.394	14.93458
653.585	17.10055
653.777	25.36944
653.969	18.54098
654.16	18.50584
654.352	14.16644
654.544	15.8344
654.735	18.88804
654.927	17.1239
655.118	19.67265
655.31	17.59963
655.502	18.87218
655.693	16.01729
655.885	17.50154
656.076	19.38611
656.268	16.92056
656.459	20.24887
656.651	19.02349
656.842	15.24932
657.034	15.88598
657.225	18.91176
657.416	19.75872
657.608	19.89703
657.799	16.85028
657.99	19.36934
658.182	16.13847
658.373	15.77401
658.564	18.67412
658.756	17.48584
658.947	16.6327
659.138	14.84138
659.33	16.0206
659.521	15.8665
659.712	16.66802
659.903	16.48431
660.094	15.64611
660.286	13.74471
660.477	20.24504
660.668	17.99086
660.859	16.31507
661.05	13.15293
661.241	18.11015
661.432	17.70243
661.623	15.52092
661.814	15.78618
662.006	13.16533
662.197	16.73295
662.388	19.95422
662.579	17.00769
662.77	18.91054
662.96	23.13401
663.151	18.28795
663.342	12.97026
663.533	19.14456
663.724	17.44376
663.915	21.12276
664.106	16.66807
664.297	21.62964
664.488	18.82944
664.678	15.33825
664.869	19.37218
665.06	20.47701
665.251	18.06189
665.442	18.29439
665.632	13.89526
665.823	21.75437
666.014	9.80688
666.204	18.9991
666.395	20.48342
666.586	23.82479
666.776	19.43534
666.967	21.17172
667.158	18.23985
667.348	20.66726
667.539	15.23929
667.729	19.91513
667.92	15.93735
668.111	20.31563
668.301	18.8022
668.492	17.35911
668.682	17.85694
668.873	17.2755
669.063	15.10287
669.253	18.18887
669.444	19.65427
669.634	17.22943
669.825	22.88455
670.015	20.29176
670.206	15.13347
670.396	22.58516
670.586	16.5952
670.777	18.87283
670.967	12.27187
671.157	16.27378
671.347	15.17091
671.538	21.27977
671.728	19.10917
671.918	23.38065
672.108	20.10651
672.299	16.23056
672.489	19.49064
672.679	16.03087
672.869	18.84175
673.059	23.42358
673.249	18.26209
673.44	14.75546
673.63	17.16011
673.82	21.26238
674.01	16.23978
674.2	18.54216
674.39	26.25721
674.58	19.42402
674.77	17.71033
674.96	18.14271
675.15	29.07254
675.34	21.83511
675.53	18.26322
675.72	17.48043
675.91	14.35588
676.099	23.49199
676.289	24.5418
676.479	21.37178
676.669	16.95655
676.859	18.76963
677.049	16.19757
677.238	18.47843
677.428	23.66573
677.618	19.76243
677.808	21.84345
677.997	20.65043
678.187	15.99995
678.377	18.59968
678.567	17.72861
678.756	16.98324
678.946	17.83049
679.136	14.50236
679.325	16.85116
679.515	16.01255
679.704	15.32342
679.894	20.02351
680.084	18.97602
680.273	20.93443
680.463	17.23419
680.652	16.82511
680.842	18.58242
681.031	20.98643
681.221	16.06697
681.41	19.7324
681.6	17.79732
681.789	20.28271
681.978	22.06034
682.168	19.59136
682.357	19.17073
682.547	20.03683
682.736	19.09079
682.925	21.55917
683.115	22.29998
683.304	21.92124
683.493	19.31937
683.682	19.58945
683.872	19.9167
684.061	22.47651
684.25	20.0818
684.439	24.25208
684.629	21.39151
684.818	29.8389
685.007	19.25817
685.196	18.19055
685.385	24.24971
685.574	20.25641
685.763	20.10095
685.952	20.18128
686.142	16.35821
686.331	23.59711
686.52	14.03414
686.709	25.11292
686.898	24.08874
687.087	21.14577
687.276	24.71306
687.465	22.9327
687.654	18.37195
687.842	24.68317
688.031	16.52474
688.22	24.20566
688.409	20.63665
688.598	20.71555
688.787	29.12567
688.976	20.53689
689.165	26.33891
689.353	18.50251
689.542	20.1799
689.731	23.37733
689.92	26.00031
690.108	22.97142
690.297	19.16495
690.486	19.92222
690.675	23.01247
690.863	26.07976
691.052	25.59153
691.241	21.2105
691.429	20.74726
691.618	26.2486
691.806	16.38015
691.995	19.28793
692.184	20.92149
692.372	19.04738
692.561	22.33894
692.749	20.78114
692.938	30.00809
693.126	22.70722
693.315	20.67431
693.503	23.04225
693.692	23.33574
693.88	24.94492
694.068	28.16257
694.257	21.27629
694.445	22.79696
694.634	13.09547
694.822	24.42646
695.01	24.90263
695.199	25.50591
695.387	26.99864
695.575	25.19733
695.763	20.43875
695.952	18.84606
696.14	16.94865
696.328	19.7843
696.516	21.00647
696.705	22.7405
696.893	22.09326
697.081	15.65027
697.269	23.78517
697.457	17.93342
697.645	17.96279
697.833	23.94523
698.021	19.35705
698.21	20.43475
698.398	20.65633
698.586	18.22133
698.774	18.22155
698.962	20.74764
699.15	18.85437
699.338	16.58461
699.526	22.46254
699.714	19.38962
699.901	19.00708
700.089	24.15653
700.277	19.13199
700.465	20.07341
700.653	23.42187
700.841	22.01481
701.029	18.10043
701.217	26.45844
701.404	21.71659
701.592	27.24812
701.78	28.76642
701.968	20.82409
702.155	20.88734
702.343	16.52172
702.531	27.75024
702.718	22.28237
702.906	20.91119
703.094	18.86516
703.281	27.13003
703.469	23.17094
703.657	26.65686
703.844	33.28745
704.032	29.6567
704.219	19.65737
704.407	23.64987
704.595	27.1268
704.782	21.69443
704.97	20.44148
705.157	20.48929
705.345	28.77051
705.532	33.50429
705.719	25.12634
705.907	28.6882
706.094	23.04949
706.282	29.80754
706.469	22.52769
706.656	23.41321
706.844	20.89133
707.031	27.28251
707.218	24.07714
707.406	29.41956
707.593	26.20264
707.78	26.26783
707.968	22.83375
708.155	20.32393
708.342	25.9153
708.529	25.21714
708.716	25.08895
708.904	31.15217
709.091	26.63882
709.278	19.14014
709.465	32.87558
709.652	31.49795
709.839	29.27705
710.026	24.94039
710.213	17.26006
710.4	25.74962
710.587	27.75362
710.774	28.90002
710.961	29.24595
711.148	24.24767
711.335	29.40145
711.522	22.63713
711.709	25.6342
711.896	34.14581
712.083	27.66259
712.27	21.04657
712.457	25.34922
712.644	18.39744
712.831	34.05089
713.017	25.40687
713.204	28.00248
713.391	22.86185
713.578	30.41334
713.765	31.33523
713.951	26.93142
714.138	39.66509
714.325	27.66879
714.512	25.43694
714.698	22.42292
714.885	33.43748
715.072	27.15206
715.258	25.39926
715.445	23.23913
715.631	31.66597
715.818	14.90306
716.005	22.54331
716.191	28.18829
716.378	24.93132
716.564	31.01786
716.751	22.19107
716.937	23.87104
717.124	31.50039
717.31	22.65072
717.497	33.05888
717.683	22.80032
717.869	36.54991
718.056	25.0164
718.242	28.50014
718.429	24.84151
718.615	20.66282
718.801	26.53801
718.988	31.30784
719.174	27.76213
719.36	26.4868
719.547	31.05042
719.733	28.43178
719.919	30.06779
720.105	29.32926
720.291	26.12175
720.478	27.0842
720.664	26.93727
720.85	25.38867
721.036	41.99642
721.222	34.99854
721.408	28.02938
721.595	36.02295
721.781	36.57365
721.967	33.10631
722.153	35.91713
722.339	30.1416
722.525	28.94047
722.711	22.02617
722.897	20.80495
723.083	24.75754
723.269	33.19058
723.455	42.1132
723.641	44.02275
723.827	27.97815
724.012	30.52431
724.198	25.60769
724.384	36.05891
724.57	30.08521
724.756	18.81203
724.942	17.40471
725.127	33.22457
725.313	36.2251
725.499	35.07776
725.685	37.85141
725.87	29.03883
726.056	23.89488
726.242	36.55073
726.428	19.40339
726.613	34.00023
726.799	24.41206
726.985	21.77516
727.17	19.35407
727.356	36.70275
727.541	23.15451
727.727	27.67204
727.913	33.46891
728.098	24.59934
728.284	33.59147
728.469	20.75647
728.655	24.31417
728.84	32.99885
729.026	33.74088
729.211	32.44414
729.397	31.1891
729.582	31.90325
729.767	28.97287
729.953	30.95982
730.138	33.90382
730.323	17.04884
730.509	23.43061
730.694	38.27747
730.879	31.83779
731.065	29.14511
731.25	41.58295
731.435	32.61966
731.621	19.95859
731.806	25.68455
731.991	30.10431
732.176	22.35884
732.361	36.93569
732.547	32.40657
732.732	20.61196
732.917	43.05104
733.102	22.81838
733.287	24.3619
733.472	28.31471
733.657	29.71688
733.842	19.91353
734.027	25.95373
734.212	27.85694
734.397	24.58969
734.582	30.09331
734.767	34.38184
734.952	36.79481
735.137	14.98334
735.322	36.98883
735.507	30.38876
735.692	29.98676
735.877	42.27883
736.062	40.94796
736.247	31.16719
736.431	27.34672
736.616	37.79773
736.801	31.31316
736.986	28.60398
737.171	23.58351
737.355	20.46169
737.54	36.66672
737.725	29.76725
737.909	46.21165
738.094	25.10204
738.279	35.32752
738.463	28.01458
738.648	33.2029
738.833	32.6829
739.017	42.76084
739.202	26.89155
739.386	28.02048
739.571	23.06596
739.756	33.13345
739.94	29.48037
740.125	35.13088
740.309	25.14092
740.494	34.96422
740.678	30.08406
740.863	33.64008
741.047	30.75626
741.231	39.29358
741.416	24.5286
741.6	41.27905
741.785	24.50398
741.969	36.14284
742.153	38.34168
742.338	15.68273
742.522	32.04886
742.706	35.42621
742.89	20.63304
743.075	32.09721
743.259	40.50252
743.443	37.20513
743.627	40.21155
743.812	46.47145
743.996	13.84064
744.18	28.67549
744.364	25.89395
744.548	50.76546
744.732	28.42207
744.916	35.27354
745.1	33.92826
745.285	30.55454
745.469	35.44947
745.653	44.23766
745.837	19.40544
746.021	49.04682
746.205	41.58792
746.389	31.72947
746.573	30.47314
746.757	44.37218
746.94	28.91797
747.124	40.52408
747.308	23.75338
747.492	41.67353
747.676	26.84238
747.86	51.42046
748.044	28.3636
748.227	18.24116
748.411	59.50431
748.595	33.51868
748.779	24.95759
748.963	34.93141
749.146	32.93528
749.33	26.20196
749.514	23.79716
749.697	40.31462
749.881	29.07265
750.065	23.70998
750.248	32.5832
750.432	51.06301
750.616	31.07174
750.799	22.36581
750.983	48.41284
751.166	54.47126
751.35	19.24831
751.533	35.86987
751.717	40.76264
751.9	43.87783
752.084	27.0098
752.267	24.20419
752.451	27.0038
752.634	33.20782
752.818	36.05516
753.001	39.46511
753.184	39.60099
753.368	35.13453
753.551	7.24614
753.734	24.50174
753.918	49.47773
754.101	26.0034
754.284	37.0562
754.467	29.05151
754.651	28.37469
754.834	24.57173
755.017	42.62724
755.2	42.32067
755.384	23.30425
755.567	40.64188
755.75	42.10799
755.933	31.7815
756.116	34.47522
756.299	26.48602
756.482	25.4865
756.665	35.0985
756.848	32.14459
757.032	33.65419
757.215	19.43946
757.398	25.0854
757.581	25.65491
757.764	55.31789
757.947	29.8916
758.129	42.22738
758.312	11.0985
758.495	30.95757
758.678	30.99017
758.861	31.73184
759.044	50.31659
759.227	24.84448
759.41	27.28352
759.592	39.67313
759.775	29.83029
759.958	40.47309
760.141	22.54957
760.324	51.46051
760.506	46.13999
760.689	41.35081
760.872	53.87551
761.054	37.88944
761.237	30.87531
761.42	35.56385
761.602	39.27261
761.785	37.60202
761.968	41.87968
762.15	48.38064
762.333	32.16587
762.515	37.21367
762.698	28.17482
762.88	40.60451
763.063	36.16366
763.245	39.12053
763.428	25.85732
763.61	26.60257
763.793	23.42039
763.975	34.96517
764.158	30.47624
764.34	28.78861
764.522	26.64584
764.705	32.52355
764.887	43.47281
765.069	21.52241
765.252	37.21096
765.434	37.42319
765.616	32.59989
765.799	29.85108
765.981	38.80169
766.163	27.03128
766.345	41.28276
766.528	27.12188
766.71	14.96203
766.892	33.20981
767.074	44.41904
767.256	30.55751
767.438	50.61364
767.62	37.21522
767.802	52.6884
767.985	39.09413
768.167	52.19991
768.349	27.63177
768.531	37.94296
768.713	35.02628
768.895	40.4845
769.077	34.53489
769.259	60.90214
769.441	83.74394
769.623	41.54457
769.804	49.3632
769.986	47.54251
770.168	58.5439
770.35	71.9307
770.532	53.14147
770.714	58
770.896	59.10646
771.077	24.96904
771.259	64.48006
771.441	49.31375
771.623	63.25151
771.804	79.15624
771.986	25.97467
772.168	42.06786
772.35	67.58117
772.531	79.4851
772.713	51.32299
772.894	68.86535
773.076	45.71649
773.258	37.25538
773.439	68.18747
773.621	75.69875
773.802	34.27715
773.984	37.55522
774.166	53.68549
774.347	71.76482
774.529	64.82404
774.71	22.363
774.891	45.71065
775.073	44.85848
775.254	71.42466
775.436	41.36185
775.617	74.60055
775.799	39.76963
775.98	75.86792
776.161	79.17853
776.343	78.92722
776.524	47.09282
776.705	43.41804
776.886	23.60937
777.068	54.1981
777.249	91.5886
777.43	82.24049
777.611	33.21702
777.793	50.28854
777.974	75.64924
778.155	42.26066
778.336	35.32236
778.517	85.76673
778.698	42.27812
778.879	26.44069
779.061	12.00892
779.242	57.18781
779.423	58.00586
779.604	40.58105
779.785	43.87353
779.966	51.11413
780.147	63.82519
780.328	63.76164
780.509	93.72119
780.69	64.12882
780.871	40.81957
781.051	27.08956
781.232	54.9987
781.413	50.94955
781.594	42.92012
781.775	47.38227
781.956	39.38994
782.137	18.23935
782.317	35.07478
782.498	51.90736
782.679	51.5799
782.86	52.61041
783.04	38.90667
783.221	55.10164
783.402	84.26257
783.583	50.28536
783.763	66.29382
783.944	41.91454
784.124	26.37166
784.305	78.19266
784.486	60.85215
784.666	47.33814
784.847	26.69627
785.027	96.47334
785.208	36.114
785.388	37.15056
785.569	40.69598
785.749	45.33496
785.93	43.21849
786.11	23.67219
786.291	56.6203
786.471	48.61101
786.652	60.85061
786.832	46.1204
787.012	56.58534
787.193	33.75936
787.373	51.46513
787.553	43.44402
787.734	55.20045
787.914	46.52237
788.094	60.38816
788.275	60.78018
788.455	45.47397
788.635	30.95022
788.815	52.75292
788.995	33.20261
789.176	26.6515
789.356	36.1925
789.536	43.85699
789.716	57.95155
789.896	35.27229
790.076	40.95452
790.256	50.43566
790.436	16.83757
790.616	32.11521
790.796	57.1266
790.976	40.93968
791.156	38.50569
791.336	63.34038
791.516	54.90279
791.696	47.66453
791.876	27.88804
792.056	52.60472
792.236	62.69278
792.416	62.64059
792.596	56.36534
792.776	57.84838
792.956	57.20728
793.135	71.6077
793.315	31.56777
793.495	71.03683
793.675	58.41533
793.854	61.68161
794.034	65.01214
794.214	32.15658
794.394	61.70794
794.573	69.42285
794.753	50.37927
794.933	32.75784
795.112	48.81665
795.292	62.40497
795.472	76.96383
795.651	32.36194
795.831	47.54464
796.01	45.16278
796.19	44.67816
796.369	46.42459
796.549	57.41941
796.728	47.0651
796.908	30.49275
797.087	32.50238
797.267	46.24376
797.446	31.48993
797.626	55.39278
797.805	54.02985
797.984	37.81227
798.164	57.81691
798.343	33.34597
798.522	54.38106
798.702	52.76974
798.881	29.32618
799.06	42.32116
799.239	22.51468
799.419	36.68846
799.598	77.84957
799.777	57.44238
799.956	64.24533
800.136	42.66323
800.315	38.77934
800.494	53.87778
800.673	61.65746
800.852	59.3066
801.031	69.9846
801.21	58.66518
801.389	42.42544
801.568	49.56778
801.747	83.43136
801.926	48.47405
802.105	74.9633
802.284	42.74945
802.463	75.98439
802.642	53.1567
802.821	55.13267
803	71.80682
803.179	61.03375
803.358	67.64177
803.537	37.4272
803.716	55.32996
803.895	37.03948
804.073	49.37345
804.252	33.90844
804.431	58.41128
804.61	50.751
804.789	64.66732
804.967	40.13537
805.146	40.24022
805.325	87.11195
805.503	61.00908
805.682	29.70476
805.861	93.98114
806.039	72.27669
806.218	40.05176
806.397	54.13776
806.575	52.5706
806.754	58.78167
806.932	35.22819
807.111	77.54539
807.289	65.10207
807.468	51.33395
807.646	67.79449
807.825	58.66379
808.003	51.57167
808.182	64.26767
808.36	52.25384
808.539	36.84939
808.717	74.56043
808.895	34.5438
809.074	58.39795
809.252	52.28415
809.43	63.20969
809.609	74.96825
809.787	80.1992
809.965	48.00683
810.144	51.49428
810.322	46.31736
810.5	57.63559
810.678	44.32869
810.856	93.89798
811.035	71.32724
811.213	68.67402
811.391	72.14323
811.569	55.88932
811.747	118.24464
811.925	75.72907
812.103	35.98044
812.281	50.05431
812.459	90.99498
812.637	93.14495
812.816	70.62066
812.994	97.73073
813.171	75.95841
813.349	68.73531
813.527	82.14456
813.705	80.16042
813.883	103.24375
814.061	72.45419
814.239	92.03799
814.417	99.67509
814.595	67.94354
814.773	59.93189
814.95	59.93574
815.128	67.1789
815.306	58.08048
815.484	53.38501
815.662	42.20359
815.839	39.45616
816.017	47.07222
816.195	78.05059
816.372	54.00967
816.55	74.43768
816.728	83.73873
816.905	56.88823
817.083	85.9183
817.261	61.17172
817.438	103.57483
817.616	93.45084
817.793	46.66602
817.971	74.06258
818.148	67.90724
818.326	80.81867
818.503	65.16593
818.681	84.01824
818.858	46.73216
819.036	57.79891
819.213	63.84533
819.391	44.37
819.568	43.54846
819.745	38.82644
819.923	67.64283
820.1	45.81157
820.277	42.51673
820.455	49.24839
820.632	51.24286
820.809	52.98736
820.986	36.17154
821.164	29.65608
821.341	28.48909
821.518	36.65328
821.695	30.37299
821.872	29.35496
822.05	26.60872
822.227	23.44562
822.404	24.29406
822.581	26.82685
822.758	23.9683
822.935	23.97347
823.112	26.46358
823.289	23.57335
823.466	26.23393
823.643	24.74985
823.82	28.13465
823.997	25.81791
824.174	29.49326
824.351	34.509
824.528	33.90239
824.705	31.11028
824.882	34.45936
825.059	42.36841
825.236	30.00291
825.412	31.73194
825.589	38.80467
825.766	51.77458
825.943	32.20648
826.12	38.88978
826.296	29.59538
826.473	36.07414
826.65	37.37782
826.827	42.93315
827.003	31.24987
827.18	34.0275
827.357	36.54779
827.533	33.3236
827.71	21.12294
827.887	30.06757
828.063	33.58798
828.24	29.60364
828.416	37.62941
828.593	32.04339
828.769	42.18646
828.946	46.57279
829.122	48.95873
829.299	46.25448
829.475	23.49987
829.652	43.10878
829.828	72.60793
830.005	46.66219
830.181	60.01017
830.357	44.51948
830.534	67.14435
830.71	53.37363
830.886	62.0311
831.063	60.32797
831.239	76.83545
831.415	33.66418
831.592	84.11078
831.768	50.17337
831.944	42.66201
832.12	80.86307
832.296	72.06232
832.473	62.19165
832.649	43.09599
832.825	62.89987
833.001	36.16088
833.177	57.17962
833.353	49.84753
833.529	29.77628
833.705	43.09822
833.881	33.2642
834.058	32.15076
834.234	35.56599
834.41	33.81298
834.586	28.23385
834.761	31.02656
834.937	35.25085
835.113	37.07163
835.289	32.05781
835.465	40.8759
835.641	33.17453
835.817	39.33344
835.993	67.25173
836.169	33.35206
836.344	48.22882
836.52	56.45671
836.696	53.06535
836.872	36.48074
837.048	115.07194
837.223	45.03994
837.399	91.35247
837.575	76.72864
837.75	70.54885
837.926	102.61935
838.102	157.78708
838.277	119.24096
838.453	166.08994
838.628	160.13784
838.804	52.27701
838.98	153.63418
839.155	74.25958
839.331	101.939
839.506	71.87552
839.682	61.90577
839.857	85.09256
840.033	100.03553
840.208	48.50838
840.384	24.39997
840.559	50.5663
840.734	75.57393
840.91	105.81079
841.085	65.55527
841.26	66.06322
841.436	56.04719
841.611	54.48623
841.786	94.38348
841.962	133.31838
842.137	78.88151
842.312	44.41191
842.487	67.72726
842.663	57.25746
842.838	77.64004
843.013	248.92663
843.188	130.00813
843.363	109.05459
843.538	230.5074
843.714	226.65367
843.889	230.25327
844.064	197.15698
844.239	161.10876
844.414	239.62019
844.589	160.16987
844.764	275.42115
844.939	290.33925
845.114	262.16033
845.289	309.23764
845.464	358.15098
845.639	259.55499
845.814	164.0406
845.989	187.71134
846.163	192.55792
846.338	241.23679
846.513	310.28956
846.688	219.50242
846.863	224.19746
847.038	148.10846
847.212	188.18309
847.387	245.71299
847.562	232.74611
847.737	320.05613
847.911	126.3287
848.086	144.30752
848.261	318.10074
848.435	186.12054
848.61	281.11971
848.785	173.51961
848.959	313.69762
849.134	301.59054
849.308	642.44443
849.483	239.72048
849.658	367.06238
849.832	205.30098
850.007	118.21013
850.181	484.37002
850.356	221.02288
850.53	409.36328
850.705	137.21852
850.879	90.88832
851.053	197.14881
851.228	198.12834
851.402	286.74347
851.577	277.95637
851.751	407.61842
851.925	200.62444
852.099	85.73483
852.274	178.35587
852.448	206.57515
852.622	301.09252
852.797	211.06418
852.971	223.013
853.145	267.34646
853.319	466.86676
853.493	454.35687
853.668	252.69214
853.842	509.56451
854.016	367.00664
854.19	455.65515
854.364	208.6766
854.538	305.81951
854.712	321.01448
854.886	214.39454
855.06	210.42142
855.234	73.78349
855.408	388.09839
855.582	339.57563
855.756	504.58734
855.93	378.58666
856.104	328.32829
856.278	338.82114
856.452	221.41461
856.626	257.98462
856.8	474.28229
856.973	361.42658
857.147	362.91071
857.321	315.1673
857.495	349.03138
857.669	268.38138
857.842	248.28485
858.016	388.58992
858.19	166.52244
858.364	510.09557
858.537	239.07371
858.711	334.79634
858.885	227.52702
859.058	174.85974
859.232	117.13596
859.405	113.10242
859.579	333.84439
859.753	397.61264
859.926	195.63185
860.1	152.44429
860.273	281.71363
860.447	407.90621
860.62	223.68415
860.794	508.44515
860.967	253.26013
861.141	298.73084
861.314	485.35296
861.487	298.44472
861.661	358.96901
861.834	539.40386
862.008	348.32327
862.181	316.80814
862.354	272.21473
862.528	399.20241
862.701	244.35584
862.874	135.50356
863.047	204.1261
863.221	185.48503
863.394	100.95806
863.567	296.40082
863.74	101.74846
863.913	331.82238
864.087	303.267
864.26	364.0911
864.433	244.11037
864.606	496.3708
864.779	321.01017
864.952	107.16115
865.125	266.88247
865.298	278.14905
865.471	286.17232
865.644	447.87765
865.817	349.91558
865.99	387.50936
866.163	412.05755
866.336	186.08942
866.509	285.39759
866.682	259.6676
866.855	435.6455
867.028	122.86098
867.2	245.62569
867.373	72.70224
867.546	260.55278
867.719	486.45858
867.892	350.22083
868.064	181.6766
868.237	266.4095
868.41	271.68147
868.583	160.82257
868.755	161.87132
868.928	211.82244
869.101	538.44441
869.273	388.61602
869.446	288.33755
869.619	411.15783
869.791	329.83866
869.964	416.6267
870.136	436.66187
870.309	230.93078
870.481	264.90969
870.654	116.24265
870.826	256.55412
870.999	208.4545
871.171	382.63658
871.344	176.62462
871.516	221.93142
871.689	175.52183
871.861	258.84429
872.033	175.63312
872.206	224.42145
872.378	269.69982
872.55	251.6017
872.723	148.31412
872.895	207.67725
873.067	340.31823
873.24	281.91259
873.412	188.17768
873.584	209.98391
873.756	240.16638
873.928	243.1685
874.101	235.21023
874.273	292.62501
874.445	90.43225
874.617	132.7072
874.789	202.47535
874.961	206.29163
875.133	268.45198
875.305	254.63239
875.477	155.4265
875.649	105.22326
875.821	163.39349
875.993	351.67512
876.165	206.59268
876.337	251.37144
876.509	217.99011
876.681	245.02681
876.853	224.64376
877.025	260.95588
877.197	171.01113
877.369	148.24932
877.541	277.5478
877.712	59.40411
877.884	143.27497
878.056	238.90497
878.228	129.71641
878.4	279.06797
878.571	122.57845
878.743	84.8741
878.915	187.73622
879.086	114.49992
879.258	136.54001
879.43	120.74
879.601	106.46717
879.773	102.61337
879.945	26.87708
880.116	45.28259
880.288	30.86985
880.459	32.54422
880.631	29.90313
880.802	32.64448
880.974	32.40623
881.145	25.04794
881.317	32.24552
881.488	25.60832
881.66	28.43115
881.831	26.1252
882.002	32.52065
882.174	26.21308
882.345	29.96283
882.517	19.38545
882.688	35.18731
882.859	27.38187
883.03	43.51743
883.202	39.82628
883.373	35.82164
883.544	31.93818
883.715	54.66517
883.887	46.68725
884.058	36.67254
884.229	59.60066
884.4	57.01682
884.571	65.21445
884.742	57.58835
884.914	57.61472
885.085	89.57667
885.256	125.10859
885.427	103.32073
885.598	113.78393
885.769	120.03173
885.94	121.44476
886.111	68.66909
886.282	135.93764
886.453	117.72365
886.624	88.226
886.795	157.51052
886.966	133.32075
887.136	160.99168
887.307	114.82333
887.478	209.93869
887.649	184.72711
887.82	201.87093
887.991	154.80095
888.161	233.26196
888.332	223.4554
888.503	131.22662
888.674	301.64591
888.844	346.44939
889.015	345.29443
889.186	153.29331
889.356	317.37166
889.527	149.57656
889.698	536.0944
889.868	173.06726
890.039	317.64006
890.209	203.60445
890.38	258.66934
890.551	267.16369
890.721	354.90467
890.892	347.62464
891.062	264.63798
891.233	344.63249
891.403	272.55061
891.574	168.76957
891.744	190.52769
891.914	245.14015
892.085	365.47511
892.255	80.88412
892.425	321.13495
892.596	209.63631
892.766	288.22032
892.936	328.24285
893.107	249.04546
893.277	134.26658
893.447	104.07263
893.618	65.82697
893.788	161.87912
893.958	86.45462
894.128	73.18532
894.298	90.89288
894.468	108.99576
894.639	56.29604
894.809	38.58361
894.979	60.39346
895.149	68.62665
895.319	52.15185
895.489	81.24431
895.659	98.80937
895.829	65.51924
895.999	67.76918
896.169	55.59335
896.339	69.07135
896.509	132.86184
896.679	153.719
896.849	175.36661
897.019	247.64534
897.189	232.93989
897.358	172.87071
897.528	268.10181
897.698	130.3367
897.868	278.85865
898.038	534.0821
898.208	468.89098
898.377	136.6666
898.547	780.8588
898.717	821.58379
898.886	350.07808
899.056	575.94355
899.226	904.39514
899.395	644.01206
899.565	754.40469
899.735	443.71399
899.904	620.86469
900.074	891.38789
900.244	271.45832
900.413	1725.84172
900.583	248.31227
900.752	3583.85509
900.922	609.95633
901.091	100.99759
901.261	711.42607
901.43	528.7817
901.599	653.74186
901.769	1418.39539
901.938	684.52006
902.108	616.5868
902.277	771.34612
902.446	223.50885
902.616	309.63857
902.785	387.95344
902.954	564.24067
903.124	300.9316
903.293	203.67278
903.462	96.28362
903.631	154.36615
903.801	98.49129
903.97	50.78637
904.139	87.53802
904.308	68.69061
904.477	58.17697
904.646	33.45991
904.816	53.08649
904.985	77.9644
905.154	114.97294
