Data from WindowProjectSample3_Transmission__50__00050.txt Node

Date: Sun May 04 11:20:34 EDT 2025
User: jessi
Spectrometer: SR400872
Trigger mode: 0
Integration Time (sec): 5.000050E-1
Scans to average: 20
Electric dark correction enabled: true
Nonlinearity correction enabled: true
Boxcar width: 0
XAxis mode: Wavelengths
Number of Pixels in Spectrum: 3648
>>>>>Begin Spectral Data<<<<<
184.909	-1263.17888
185.132	-1450.67539
185.355	-1159.91204
185.578	-1078.68741
185.801	1365.92885
186.024	-946.12463
186.247	-5190.87413
186.47	-1690.6309
186.693	-160.74926
186.916	-471.65133
187.139	-781.23688
187.362	-2748.96597
187.585	-681.00727
187.808	-5096.66311
188.031	10242.83714
188.254	-2306.74833
188.476	-8738.38419
188.699	-1045.00596
188.922	570.83416
189.145	-1201.44116
189.368	3415.03844
189.591	-2245.15771
189.813	-1544.3773
190.036	-906.13305
190.259	-1129.39776
190.482	-1558.65518
190.705	-2373.89032
190.927	-710.85471
191.15	-1506.55557
191.373	-1113.81079
191.595	-1256.6179
191.818	-1345.87092
192.041	-711.0428
192.263	-1100.26575
192.486	-547.1347
192.709	-1535.3246
192.931	-3225.09479
193.154	-1167.87771
193.377	-1636.67864
193.599	-2908.77163
193.822	-3315.58017
194.044	-3159.0394
194.267	-1769.66242
194.489	131.68098
194.712	-959.24982
194.934	-1732.27432
195.157	-734.3733
195.379	-1273.3193
195.602	-831.03297
195.824	-1350.64766
196.047	-2003.54444
196.269	-1082.73454
196.492	-1403.46557
196.714	-1239.66726
196.936	-1249.97239
197.159	-881.39231
197.381	-727.09534
197.604	-423.90602
197.826	-2081.96994
198.048	-1120.31896
198.271	-1612.16589
198.493	-1128.64339
198.715	-911.76453
198.938	-3152.63261
199.16	-4037.78405
199.382	-1238.56012
199.604	-1144.86197
199.827	-1935.99274
200.049	-1601.537
200.271	-1225.70547
200.493	-1411.15378
200.715	-954.1633
200.938	-845.2759
201.16	-943.92929
201.382	-1045.79513
201.604	-1274.55298
201.826	-734.89157
202.048	-879.33569
202.27	-1367.90787
202.492	-1382.37288
202.715	-1877.33748
202.937	-2079.33964
203.159	-1400.14499
203.381	-1562.73221
203.603	-1015.39559
203.825	-5173.89326
204.047	-1588.93406
204.269	-1350.12507
204.491	-1211.54499
204.713	-1488.62904
204.935	-1400.62559
205.156	-2488.89215
205.378	-2764.99605
205.6	-1459.64823
205.822	-1101.06218
206.044	1196.51476
206.266	-1304.05814
206.488	-868.25373
206.71	-1724.72817
206.932	-1698.01772
207.153	-1093.13151
207.375	-1254.13679
207.597	-1078.71992
207.819	-1108.85869
208.041	-1184.37439
208.262	-1685.63115
208.484	-882.66835
208.706	-2110.0828
208.927	-781.99773
209.149	-1353.18885
209.371	-1174.40686
209.593	-1753.91015
209.814	-580.83817
210.036	-897.57539
210.258	-731.73407
210.479	-1098.67514
210.701	-1690.95592
210.922	-1231.44916
211.144	-1005.37289
211.366	-1116.07803
211.587	1494.62844
211.809	-1109.3447
212.03	-6366.22133
212.252	903.03791
212.473	-957.48524
212.695	-18266.47382
212.916	-3385.05477
213.138	-1222.38172
213.359	-959.55689
213.581	-1470.13208
213.802	-900.09097
214.024	-1351.78844
214.245	-11704.00301
214.466	-859.1146
214.688	-1390.06111
214.909	-951.04782
215.131	-2757.34363
215.352	-3728.80607
215.573	-1085.67628
215.795	-1746.58116
216.016	-1482.09711
216.237	-3135.18706
216.459	-1443.8152
216.68	-1075.85573
216.901	-1515.04685
217.122	11090.57379
217.344	-954.7827
217.565	-1290.05188
217.786	-1295.23199
218.007	-993.75107
218.228	-1194.2813
218.45	-1104.43013
218.671	-1124.90802
218.892	-940.55533
219.113	-1609.36942
219.334	-91.83047
219.555	-1537.27627
219.776	-1525.42868
219.997	-1249.63055
220.219	16995.3492
220.44	-1155.74259
220.661	-3189.18653
220.882	-921.13928
221.103	1680.91068
221.324	-2626.08794
221.545	-1175.95684
221.766	-1296.12689
221.987	-1837.41832
222.208	-2022.71805
222.429	-757.71042
222.65	-811.53995
222.87	-1750.33958
223.091	-3433.73399
223.312	2968.00595
223.533	-1166.31605
223.754	-1563.60345
223.975	-2249.29689
224.196	8714.40196
224.417	-7730.05971
224.637	3966.05161
224.858	146.98131
225.079	-1891.30286
225.3	26301.02131
225.521	-1030.4691
225.741	-5034.81764
225.962	7326.19884
226.183	365.27886
226.404	-3622.09358
226.624	2424.32933
226.845	-84579.56551
227.066	-622443.52725
227.286	914.56311
227.507	312.72569
227.728	273.54923
227.948	670.08174
228.169	175.69511
228.389	171.50371
228.61	93.04975
228.831	134.78127
229.051	7.63944
229.272	70.83511
229.492	104.52179
229.713	27.15817
229.933	70.42354
230.154	62.94559
230.374	100.57492
230.595	70.34184
230.815	45.56742
231.036	75.23247
231.256	-6.64942
231.477	125.7503
231.697	75.9245
231.917	81.95385
232.138	117.57847
232.358	236.72477
232.579	187.8289
232.799	33.29713
233.019	194.92873
233.24	239.05555
233.46	78.49294
233.68	125.72095
233.901	72.90402
234.121	55.80905
234.341	20.59135
234.561	-7.87065
234.782	35.55942
235.002	132.09854
235.222	-4.83401
235.442	117.40273
235.662	58.32946
235.883	111.50857
236.103	96.94819
236.323	61.96921
236.543	54.16668
236.763	73.86669
236.983	79.53527
237.203	78.15066
237.423	112.61118
237.643	165.37446
237.864	146.40599
238.084	36.00173
238.304	47.50274
238.524	84.46666
238.744	76.92544
238.964	128.93708
239.184	113.14524
239.404	121.97661
239.624	64.14811
239.843	111.8446
240.063	61.36877
240.283	42.28708
240.503	43.99473
240.723	45.18919
240.943	27.67751
241.163	35.71046
241.383	24.38132
241.603	13.66739
241.822	15.08847
242.042	10.64227
242.262	14.07321
242.482	15.42563
242.702	17.3148
242.921	5.24743
243.141	11.04076
243.361	10.40142
243.581	14.9109
243.8	13.30415
244.02	8.59582
244.24	14.52585
244.459	14.10787
244.679	29.29228
244.899	18.62051
245.118	22.86794
245.338	19.91312
245.558	23.49933
245.777	14.32175
245.997	17.48009
246.216	17.57555
246.436	10.48714
246.655	7.26747
246.875	5.90251
247.094	10.07435
247.314	3.64818
247.533	6.45651
247.753	6.895
247.972	5.43859
248.192	2.3552
248.411	3.36447
248.631	5.50539
248.85	6.78286
249.07	6.63792
249.289	10.08923
249.508	7.28378
249.728	11.77106
249.947	11.52935
250.166	14.25851
250.386	7.70553
250.605	11.45134
250.824	19.04795
251.044	13.3826
251.263	38.65126
251.482	22.77064
251.701	18.64532
251.921	0.22992
252.14	6.27431
252.359	7.69967
252.578	16.57172
252.798	5.97471
253.017	14.36792
253.236	7.56268
253.455	9.59857
253.674	17.6926
253.893	8.56862
254.112	13.44849
254.331	19.52525
254.551	16.05324
254.77	7.75046
254.989	21.58493
255.208	17.61692
255.427	25.97809
255.646	22.42619
255.865	33.41485
256.084	15.44722
256.303	17.78273
256.522	22.73593
256.741	5.6478
256.96	5.20418
257.179	14.45096
257.397	18.33362
257.616	9.36215
257.835	9.40381
258.054	25.01913
258.273	17.50535
258.492	17.96661
258.711	11.3291
258.93	5.04937
259.148	7.67003
259.367	7.3711
259.586	9.35036
259.805	4.2675
260.023	7.73538
260.242	5.78107
260.461	4.34992
260.68	2.29457
260.898	6.60599
261.117	2.24891
261.336	1.46707
261.554	5.67628
261.773	5.68069
261.992	1.33168
262.21	5.20213
262.429	6.14832
262.648	10.73719
262.866	12.69402
263.085	9.14843
263.303	7.82092
263.522	14.18171
263.74	13.88172
263.959	23.64302
264.178	12.28959
264.396	11.06347
264.615	7.86618
264.833	17.86866
265.051	14.68495
265.27	17.60539
265.488	17.6749
265.707	10.91089
265.925	17.64422
266.144	8.57862
266.362	9.46663
266.58	10.2067
266.799	8.26936
267.017	9.4679
267.235	8.19659
267.454	5.89299
267.672	3.22843
267.89	7.24587
268.109	7.59922
268.327	7.36525
268.545	1.85115
268.763	6.55967
268.982	3.27085
269.2	7.90288
269.418	4.74569
269.636	4.04084
269.854	7.48703
270.073	5.53722
270.291	3.36071
270.509	2.99958
270.727	7.2725
270.945	11.72465
271.163	11.6049
271.381	2.82135
271.599	5.09963
271.817	8.19032
272.036	2.75554
272.254	5.82028
272.472	3.96555
272.69	4.09131
272.908	4.04749
273.126	6.50799
273.344	8.41528
273.562	3.04663
273.779	4.51994
273.997	6.76476
274.215	6.48164
274.433	4.72766
274.651	6.94584
274.869	7.16949
275.087	4.59001
275.305	6.55374
275.523	4.4818
275.74	5.1531
275.958	8.8811
276.176	13.0189
276.394	4.00421
276.612	5.38639
276.829	5.25379
277.047	4.74922
277.265	4.73514
277.483	5.89804
277.7	6.45667
277.918	5.61476
278.136	10.25937
278.353	5.08656
278.571	2.92521
278.789	7.84094
279.006	1.862
279.224	4.72413
279.442	7.93513
279.659	6.01308
279.877	3.97975
280.094	8.30856
280.312	1.86843
280.529	5.85947
280.747	2.00561
280.964	4.83871
281.182	9.0438
281.399	4.6495
281.617	5.96947
281.834	4.18907
282.052	2.95137
282.269	5.43742
282.487	4.33771
282.704	3.78924
282.921	3.52394
283.139	5.32857
283.356	6.88478
283.574	6.57548
283.791	3.21387
284.008	8.50817
284.226	4.86079
284.443	5.51497
284.66	6.95915
284.877	5.61262
285.095	3.62194
285.312	2.77242
285.529	1.67702
285.746	1.39853
285.964	3.4545
286.181	2.37915
286.398	3.17506
286.615	4.37421
286.832	4.25837
287.05	1.12418
287.267	3.09107
287.484	3.15206
287.701	4.50024
287.918	4.12297
288.135	4.37911
288.352	1.91844
288.569	2.48648
288.786	4.25034
289.003	3.2131
289.22	5.1084
289.437	2.9613
289.654	4.66614
289.871	4.84895
290.088	4.71395
290.305	3.77174
290.522	3.30889
290.739	3.36295
290.956	4.99397
291.173	5.82523
291.39	5.53939
291.607	3.82342
291.824	3.32156
292.04	2.30233
292.257	4.64795
292.474	5.28586
292.691	3.47189
292.908	1.74861
293.125	2.96371
293.341	1.98161
293.558	8.15947
293.775	3.74091
293.992	3.98925
294.208	1.50683
294.425	2.40612
294.642	3.04518
294.858	4.48303
295.075	1.27576
295.292	3.40397
295.508	4.16399
295.725	5.66872
295.942	2.94213
296.158	2.02767
296.375	3.3461
296.591	2.71798
296.808	2.60345
297.024	3.21304
297.241	3.58582
297.458	3.76266
297.674	0.39131
297.891	2.98286
298.107	2.39864
298.323	1.85794
298.54	4.16026
298.756	2.17086
298.973	0.94311
299.189	4.49075
299.406	2.05924
299.622	4.56346
299.838	4.69839
300.055	4.16847
300.271	0.9589
300.487	1.77344
300.704	2.08629
300.92	1.31328
301.136	6.19609
301.353	4.86317
301.569	3.35119
301.785	3.52552
302.001	4.19124
302.218	3.8808
302.434	3.99349
302.65	1.37361
302.866	2.48718
303.083	6.60182
303.299	6.27835
303.515	3.24191
303.731	3.56511
303.947	1.37769
304.163	2.43154
304.379	3.43573
304.595	3.97929
304.812	2.31831
305.028	2.09248
305.244	2.72049
305.46	4.31985
305.676	4.46665
305.892	5.34605
306.108	3.97783
306.324	2.78391
306.54	5.94197
306.756	4.09921
306.972	4.0633
307.187	2.83176
307.403	5.8231
307.619	2.48052
307.835	5.22782
308.051	5.23188
308.267	1.7715
308.483	4.73598
308.699	3.88079
308.914	3.20362
309.13	3.20195
309.346	0.80299
309.562	1.6076
309.778	0.96253
309.993	4.04713
310.209	3.00255
310.425	1.50968
310.641	2.72634
310.856	1.7114
311.072	1.53855
311.288	2.96715
311.503	3.24168
311.719	0.6754
311.935	0.46076
312.15	3.48614
312.366	3.09472
312.581	3.7613
312.797	2.6266
313.013	3.98048
313.228	2.29294
313.444	3.10529
313.659	2.01027
313.875	3.54229
314.09	3.1198
314.306	5.15949
314.521	4.46857
314.737	4.13985
314.952	3.60265
315.168	3.20433
315.383	3.90454
315.599	2.9767
315.814	2.94196
316.029	4.56273
316.245	1.52539
316.46	1.07474
316.675	5.13341
316.891	6.18377
317.106	7.70157
317.321	4.26285
317.537	3.96587
317.752	4.41359
317.967	4.49578
318.183	2.32496
318.398	2.72211
318.613	4.70227
318.828	5.42404
319.043	4.68571
319.259	3.12902
319.474	3.49376
319.689	5.10398
319.904	0.89045
320.119	4.56483
320.334	3.94415
320.549	3.05412
320.765	5.04389
320.98	3.82296
321.195	4.70945
321.41	3.12964
321.625	4.62455
321.84	6.15539
322.055	6.21323
322.27	2.45484
322.485	1.87217
322.7	3.97684
322.915	5.1749
323.13	2.1079
323.345	5.53502
323.56	4.11982
323.775	4.50311
323.989	4.36279
324.204	3.74861
324.419	4.64748
324.634	1.49008
324.849	3.31635
325.064	6.23798
325.279	4.76908
325.493	4.21384
325.708	4.97506
325.923	2.22697
326.138	2.31088
326.352	5.94714
326.567	4.73193
326.782	2.99909
326.997	2.34349
327.211	4.22818
327.426	4.18826
327.641	2.97408
327.855	1.05703
328.07	4.32834
328.285	5.99379
328.499	3.0708
328.714	3.92357
328.928	4.92451
329.143	3.46724
329.358	5.16072
329.572	4.86174
329.787	5.47346
330.001	7.5285
330.216	1.56504
330.43	6.14158
330.645	6.11976
330.859	4.8079
331.074	2.36373
331.288	3.91427
331.503	5.78782
331.717	1.98821
331.931	3.32897
332.146	3.82327
332.36	6.44626
332.575	4.2602
332.789	3.86665
333.003	3.20571
333.218	4.34453
333.432	2.59613
333.646	4.66661
333.86	5.87744
334.075	6.39128
334.289	2.75201
334.503	2.06694
334.717	4.14029
334.932	4.302
335.146	5.28548
335.36	2.8551
335.574	4.28785
335.788	4.2088
336.003	5.24798
336.217	4.61434
336.431	4.29102
336.645	2.75467
336.859	2.00675
337.073	3.43364
337.287	3.85457
337.501	2.24939
337.715	4.06057
337.929	4.42238
338.143	1.92853
338.357	3.45306
338.571	2.41029
338.785	4.29896
338.999	2.7386
339.213	2.71649
339.427	1.49953
339.641	5.32693
339.855	3.00269
340.069	2.45346
340.283	4.9758
340.497	5.64352
340.711	4.01861
340.924	3.08432
341.138	2.15729
341.352	1.64978
341.566	3.65062
341.78	0.90345
341.993	2.60865
342.207	2.02183
342.421	3.55471
342.635	3.23116
342.848	2.55786
343.062	0.53087
343.276	2.34105
343.49	6.43673
343.703	2.62001
343.917	4.4929
344.131	4.52986
344.344	2.34931
344.558	2.55051
344.771	2.07881
344.985	5.02357
345.199	5.6674
345.412	3.62376
345.626	3.65956
345.839	0.94043
346.053	1.76022
346.266	1.84345
346.48	4.22141
346.693	3.71308
346.907	3.83742
347.12	2.07658
347.334	3.55176
347.547	3.76118
347.76	2.78861
347.974	4.92385
348.187	3.70668
348.401	2.95764
348.614	2.53262
348.827	2.84482
349.041	3.89893
349.254	0.92904
349.467	2.98683
349.681	1.51541
349.894	2.7399
350.107	5.00338
350.32	5.72102
350.534	1.24142
350.747	2.77144
350.96	1.99078
351.173	2.14865
351.386	2.49558
351.6	2.57224
351.813	2.17762
352.026	3.28037
352.239	1.25976
352.452	2.84466
352.665	4.53798
352.878	2.73376
353.092	6.09216
353.305	3.97408
353.518	3.39058
353.731	2.06411
353.944	4.45693
354.157	2.2765
354.37	1.8786
354.583	1.69743
354.796	0.83404
355.009	4.82372
355.222	3.14613
355.435	3.00378
355.647	4.47675
355.86	1.71794
356.073	2.9162
356.286	2.35784
356.499	3.98677
356.712	3.71198
356.925	3.39169
357.138	4.29003
357.35	1.60725
357.563	2.46464
357.776	2.9993
357.989	2.52696
358.201	3.58472
358.414	3.00292
358.627	4.23688
358.84	2.40987
359.052	1.55933
359.265	1.45254
359.478	4.05065
359.69	-0.40327
359.903	3.78812
360.116	3.82919
360.328	0.73081
360.541	3.7761
360.753	1.53785
360.966	1.99358
361.179	1.95945
361.391	1.86677
361.604	1.3563
361.816	1.90479
362.029	1.625
362.241	1.42838
362.454	1.78565
362.666	1.52286
362.879	2.43229
363.091	2.11013
363.304	1.4732
363.516	2.38543
363.728	0.9835
363.941	3.34706
364.153	1.77572
364.366	-0.15874
364.578	1.25597
364.79	3.03138
365.003	2.30337
365.215	1.98538
365.427	3.18838
365.639	3.98
365.852	2.77851
366.064	4.80169
366.276	1.82058
366.488	3.07513
366.701	2.03573
366.913	2.18705
367.125	2.37623
367.337	1.70123
367.549	1.85408
367.762	2.63249
367.974	2.64488
368.186	1.58438
368.398	3.8299
368.61	3.34308
368.822	3.3823
369.034	2.4831
369.246	3.31619
369.458	5.42153
369.67	1.39806
369.882	4.9067
370.094	0.19893
370.306	4.6423
370.518	2.17863
370.73	1.8748
370.942	1.50624
371.154	2.28784
371.366	1.78482
371.578	2.8468
371.79	1.46987
372.002	4.04257
372.214	4.45997
372.425	2.80813
372.637	4.10583
372.849	2.80745
373.061	-0.05138
373.273	3.11139
373.484	3.2991
373.696	3.52172
373.908	-0.04511
374.12	3.94966
374.331	2.92643
374.543	1.52193
374.755	1.40023
374.967	2.74309
375.178	3.50204
375.39	2.24962
375.602	2.55427
375.813	0.85743
376.025	0.91536
376.236	2.2017
376.448	2.55312
376.66	1.94667
376.871	1.81952
377.083	3.4296
377.294	3.5778
377.506	1.83691
377.717	3.88987
377.929	2.59567
378.14	1.29815
378.352	2.98032
378.563	2.73853
378.775	3.85852
378.986	1.55177
379.197	2.35344
379.409	1.70324
379.62	3.40714
379.832	2.66152
380.043	2.19127
380.254	2.70684
380.466	0.96586
380.677	5.72365
380.888	5.16797
381.1	5.52549
381.311	5.26023
381.522	2.34324
381.733	6.03443
381.945	2.20992
382.156	2.75631
382.367	1.67649
382.578	5.64829
382.789	5.60385
383.001	1.8954
383.212	4.11608
383.423	4.19149
383.634	3.73241
383.845	2.9183
384.056	1.8154
384.267	2.34008
384.478	2.28051
384.69	1.20795
384.901	3.00937
385.112	2.87601
385.323	4.29232
385.534	2.92922
385.745	2.62042
385.956	2.894
386.167	1.20605
386.378	3.16982
386.588	0.97411
386.799	1.58883
387.01	0.52684
387.221	3.40757
387.432	2.33935
387.643	4.67413
387.854	2.19797
388.065	2.00731
388.275	2.16002
388.486	1.94902
388.697	2.4493
388.908	2.0338
389.119	3.88727
389.329	4.39663
389.54	2.64998
389.751	2.93069
389.962	3.93273
390.172	2.81176
390.383	1.83375
390.594	1.72172
390.804	1.64515
391.015	1.88726
391.226	2.57156
391.436	3.10236
391.647	2.72652
391.858	3.04746
392.068	0.58641
392.279	1.07096
392.489	2.40008
392.7	3.58037
392.91	1.24123
393.121	1.71999
393.331	2.97936
393.542	3.87602
393.752	2.61511
393.963	2.58262
394.173	2.49028
394.384	3.16987
394.594	2.43699
394.804	1.15601
395.015	2.58237
395.225	3.18406
395.436	1.22531
395.646	3.1996
395.856	1.64106
396.067	1.05238
396.277	3.72306
396.487	3.08031
396.697	2.5137
396.908	3.55072
397.118	3.50892
397.328	2.79343
397.538	3.81016
397.749	1.89856
397.959	3.62903
398.169	3.4402
398.379	1.15693
398.589	3.64386
398.8	2.69487
399.01	2.66244
399.22	2.45548
399.43	5.2101
399.64	2.35752
399.85	3.35448
400.06	2.67298
400.27	2.20689
400.48	2.91411
400.69	4.55156
400.9	2.2287
401.11	2.00407
401.32	3.81972
401.53	2.29851
401.74	4.67817
401.95	3.69326
402.16	1.87713
402.37	3.55761
402.58	2.23898
402.79	3.7162
403	3.8351
403.209	2.26554
403.419	3.82898
403.629	2.27695
403.839	3.68455
404.049	3.82389
404.258	2.0083
404.468	1.82214
404.678	3.5385
404.888	3.61181
405.097	1.84894
405.307	2.7585
405.517	3.45883
405.727	3.12505
405.936	2.50906
406.146	3.20842
406.356	4.41182
406.565	2.99011
406.775	2.43484
406.984	2.66128
407.194	4.8383
407.404	3.2552
407.613	3.47653
407.823	4.0031
408.032	4.58182
408.242	4.29724
408.451	2.53414
408.661	3.0873
408.87	5.20651
409.08	2.64732
409.289	3.55169
409.499	3.36968
409.708	3.31898
409.918	1.08868
410.127	3.26326
410.336	5.09122
410.546	3.90962
410.755	2.88761
410.964	2.76844
411.174	2.5894
411.383	3.87792
411.592	3.88486
411.802	2.33592
412.011	4.56954
412.22	3.53534
412.429	5.20503
412.639	4.90415
412.848	5.02428
413.057	5.27479
413.266	4.64251
413.475	3.42903
413.685	4.39867
413.894	4.43517
414.103	4.78022
414.312	4.44941
414.521	3.5495
414.73	3.77466
414.939	5.61365
415.148	4.27192
415.357	3.99353
415.566	3.35403
415.776	3.20187
415.985	2.98288
416.194	4.38182
416.403	5.19141
416.611	2.30318
416.82	2.98565
417.029	3.6725
417.238	2.75151
417.447	2.61908
417.656	3.01851
417.865	2.75118
418.074	3.02796
418.283	3.27173
418.492	4.06595
418.7	3.96667
418.909	4.81597
419.118	3.45231
419.327	3.68484
419.536	3.46158
419.744	2.84388
419.953	4.20103
420.162	4.15197
420.371	2.74116
420.579	2.53622
420.788	3.72298
420.997	3.69424
421.205	3.6909
421.414	3.30022
421.623	3.31566
421.831	2.90546
422.04	3.78552
422.249	2.89995
422.457	3.68505
422.666	3.08606
422.874	4.19253
423.083	4.16965
423.291	4.0549
423.5	3.65125
423.708	3.76774
423.917	4.20577
424.125	3.61738
424.334	3.27983
424.542	5.24239
424.751	4.36482
424.959	4.26139
425.167	4.66114
425.376	4.54161
425.584	4.00088
425.793	4.4063
426.001	3.37768
426.209	4.75037
426.418	3.51699
426.626	3.70561
426.834	3.48305
427.042	4.24343
427.251	3.68471
427.459	4.98305
427.667	4.49447
427.875	3.17586
428.084	3.82232
428.292	5.35647
428.5	4.6608
428.708	3.46905
428.916	3.45281
429.124	4.46814
429.333	4.09009
429.541	4.10921
429.749	4.37307
429.957	4.33627
430.165	6.46925
430.373	3.31003
430.581	4.59964
430.789	5.65357
430.997	4.11037
431.205	3.85222
431.413	4.45287
431.621	4.07937
431.829	5.07985
432.037	4.11256
432.245	4.89206
432.453	4.74222
432.661	4.17145
432.869	6.24533
433.076	3.46307
433.284	4.21011
433.492	4.79501
433.7	5.38909
433.908	4.02183
434.116	4.39844
434.323	4.58877
434.531	4.38796
434.739	4.90416
434.947	5.22252
435.154	5.13075
435.362	4.61156
435.57	4.30265
435.778	4.06725
435.985	4.95643
436.193	4.21575
436.401	5.62503
436.608	4.68107
436.816	4.31241
437.023	6.139
437.231	6.31364
437.439	4.87386
437.646	5.12981
437.854	5.0844
438.061	5.3425
438.269	4.52568
438.476	5.25847
438.684	4.7893
438.891	4.32838
439.099	4.09972
439.306	3.32895
439.514	3.75171
439.721	4.86047
439.929	3.99334
440.136	4.95668
440.343	4.7031
440.551	4.27515
440.758	6.03769
440.965	4.97685
441.173	4.61346
441.38	4.08656
441.587	4.97717
441.795	4.33686
442.002	4.90673
442.209	5.01766
442.416	5.31378
442.624	5.27589
442.831	5.19483
443.038	4.396
443.245	4.00544
443.452	4.49783
443.66	5.60881
443.867	4.25259
444.074	4.37647
444.281	4.25542
444.488	4.59416
444.695	4.68327
444.902	4.31998
445.109	5.20085
445.316	4.4644
445.523	4.2671
445.73	3.87906
445.937	4.6891
446.144	5.05104
446.351	4.88841
446.558	3.97498
446.765	5.19426
446.972	5.40678
447.179	4.54482
447.386	5.67763
447.593	4.41282
447.8	5.71109
448.007	4.53976
448.214	4.80931
448.42	4.50054
448.627	5.95514
448.834	4.76911
449.041	4.62277
449.248	4.65929
449.454	5.74212
449.661	6.66562
449.868	4.71652
450.075	4.47414
450.281	3.31087
450.488	4.10262
450.695	4.44223
450.901	4.25118
451.108	4.85578
451.315	5.92323
451.521	4.91809
451.728	5.81043
451.935	4.33239
452.141	4.91432
452.348	4.99044
452.554	4.73369
452.761	4.6189
452.967	6.4847
453.174	5.24611
453.38	5.30379
453.587	4.04183
453.793	5.10962
454	5.79172
454.206	6.86535
454.413	6.14903
454.619	5.57591
454.825	4.50275
455.032	5.60351
455.238	6.00852
455.445	4.04836
455.651	5.40794
455.857	3.43725
456.064	4.9431
456.27	5.03542
456.476	4.98394
456.682	3.88988
456.889	5.49126
457.095	5.63207
457.301	7.31618
457.507	5.22262
457.714	5.26547
457.92	4.91472
458.126	4.44837
458.332	4.85758
458.538	4.52586
458.744	4.56169
458.951	4.55355
459.157	6.17924
459.363	4.93838
459.569	4.61335
459.775	5.48839
459.981	4.23884
460.187	4.76251
460.393	5.408
460.599	5.96578
460.805	5.1288
461.011	5.02613
461.217	5.88663
461.423	6.2714
461.629	5.05815
461.835	5.90052
462.041	5.12842
462.247	6.72371
462.453	5.23431
462.658	5.3806
462.864	6.0737
463.07	5.74769
463.276	5.69001
463.482	5.70827
463.688	6.5727
463.893	4.95386
464.099	5.20476
464.305	6.9475
464.511	5.05848
464.716	5.38961
464.922	6.0367
465.128	4.90712
465.333	7.07015
465.539	6.03799
465.745	5.26313
465.95	5.78758
466.156	7.98603
466.362	6.56457
466.567	5.45464
466.773	5.13821
466.978	6.97979
467.184	4.62044
467.389	3.66075
467.595	6.09559
467.8	4.66643
468.006	6.62463
468.211	6.63825
468.417	4.56608
468.622	6.06766
468.828	6.3985
469.033	5.95305
469.239	8.30824
469.444	5.09933
469.649	6.60617
469.855	5.47843
470.06	5.83609
470.266	4.70784
470.471	6.14383
470.676	5.97505
470.881	4.13067
471.087	6.93244
471.292	7.29592
471.497	4.41877
471.703	5.50649
471.908	5.01878
472.113	5.87934
472.318	6.45185
472.523	4.58544
472.729	5.97206
472.934	6.15799
473.139	5.42893
473.344	6.32645
473.549	6.75456
473.754	4.98248
473.959	7.40657
474.164	5.08629
474.369	5.64574
474.575	6.6282
474.78	5.79964
474.985	5.18057
475.19	4.091
475.395	5.11025
475.6	5.46678
475.804	6.98146
476.009	5.66521
476.214	5.75898
476.419	5.1253
476.624	4.12124
476.829	4.79431
477.034	6.07073
477.239	4.74142
477.444	5.82993
477.648	6.02416
477.853	6.04767
478.058	5.24369
478.263	4.95153
478.468	4.49853
478.672	4.6763
478.877	6.56093
479.082	7.15109
479.287	5.91501
479.491	5.50515
479.696	4.41931
479.901	6.37271
480.105	6.05436
480.31	5.01773
480.515	5.3304
480.719	7.50562
480.924	4.77466
481.128	4.41807
481.333	5.49368
481.538	5.53731
481.742	4.92886
481.947	5.43889
482.151	5.55618
482.356	5.00452
482.56	5.70529
482.765	5.95743
482.969	7.32733
483.174	8.34813
483.378	9.73287
483.582	9.63115
483.787	10.68955
483.991	10.74996
484.196	10.81295
484.4	10.58238
484.604	10.94174
484.809	9.5463
485.013	9.33784
485.217	8.4022
485.422	7.49193
485.626	6.77146
485.83	6.39431
486.034	6.25861
486.239	6.48098
486.443	6.42395
486.647	6.43047
486.851	7.17248
487.055	7.83522
487.26	7.26679
487.464	7.89716
487.668	7.3756
487.872	7.30958
488.076	7.90883
488.28	7.4088
488.484	6.93344
488.688	6.9438
488.892	6.76492
489.096	6.37769
489.3	5.67385
489.504	5.44665
489.708	5.8792
489.912	5.97715
490.116	5.83403
490.32	4.94361
490.524	5.55745
490.728	5.60037
490.932	5.71283
491.136	5.77534
491.34	6.85802
491.544	6.9992
491.748	6.55009
491.951	6.60365
492.155	6.43617
492.359	6.37997
492.563	5.41317
492.767	5.23311
492.97	5.15374
493.174	4.95685
493.378	5.3754
493.582	4.89826
493.785	5.61176
493.989	5.79404
494.193	5.83396
494.396	5.42663
494.6	6.37573
494.804	5.65656
495.007	5.25778
495.211	5.15245
495.414	5.35748
495.618	5.60578
495.822	6.49048
496.025	5.46585
496.229	6.16864
496.432	4.68149
496.636	5.29199
496.839	5.21228
497.043	6.65562
497.246	5.50848
497.45	4.99391
497.653	5.21448
497.856	5.66022
498.06	4.50093
498.263	5.18956
498.467	4.91949
498.67	6.26919
498.873	5.89331
499.077	5.21009
499.28	5.07248
499.483	5.80345
499.686	6.10581
499.89	5.85846
500.093	6.10328
500.296	4.87368
500.499	6.78757
500.703	5.50042
500.906	5.67297
501.109	7.3186
501.312	5.57054
501.515	5.54759
501.719	5.9369
501.922	6.89221
502.125	5.78923
502.328	5.51908
502.531	4.55869
502.734	5.51319
502.937	3.93425
503.14	5.7176
503.343	4.56802
503.546	5.16708
503.749	4.82574
503.952	6.06257
504.155	4.66479
504.358	6.15585
504.561	5.50863
504.764	4.48844
504.967	5.41228
505.17	5.56891
505.373	6.96328
505.576	5.61002
505.778	6.11354
505.981	5.07876
506.184	6.63776
506.387	4.16546
506.59	7.03155
506.793	6.53501
506.995	6.05746
507.198	3.8159
507.401	5.78831
507.604	5.85717
507.806	4.55004
508.009	4.67962
508.212	5.79338
508.414	4.90446
508.617	4.81332
508.82	5.30994
509.022	6.30236
509.225	5.54212
509.427	3.95058
509.63	6.47551
509.833	5.30825
510.035	5.12487
510.238	4.09907
510.44	6.31523
510.643	3.45667
510.845	7.29887
511.048	5.74638
511.25	5.03233
511.453	5.26228
511.655	5.71898
511.858	4.97305
512.06	6.01453
512.262	5.39809
512.465	6.04184
512.667	4.83269
512.869	4.45328
513.072	5.59054
513.274	6.21383
513.476	5.87322
513.679	6.06751
513.881	4.43604
514.083	6.98846
514.286	4.81599
514.488	4.99376
514.69	4.6026
514.892	4.33
515.094	5.93078
515.297	4.98802
515.499	5.5081
515.701	4.87701
515.903	6.94111
516.105	6.90363
516.307	6.02907
516.509	3.79321
516.711	4.24806
516.913	5.47026
517.116	5.21095
517.318	4.86187
517.52	6.20762
517.722	5.65336
517.924	4.02767
518.126	5.42911
518.328	4.36356
518.529	5.26587
518.731	6.30766
518.933	4.57285
519.135	4.8378
519.337	5.85117
519.539	5.35381
519.741	3.72116
519.943	4.99694
520.145	4.88339
520.346	5.55608
520.548	4.90429
520.75	5.56676
520.952	4.95016
521.153	5.40233
521.355	5.71801
521.557	4.35627
521.759	5.66833
521.96	5.34985
522.162	4.46567
522.364	6.31718
522.565	4.65816
522.767	5.99746
522.969	6.52941
523.17	5.77498
523.372	5.81823
523.573	4.74381
523.775	5.17306
523.977	4.30686
524.178	6.57008
524.38	4.47658
524.581	5.68351
524.783	4.73057
524.984	5.46694
525.186	4.90146
525.387	5.3598
525.589	4.9196
525.79	4.49503
525.991	4.18068
526.193	5.1156
526.394	3.78658
526.596	4.97068
526.797	4.82424
526.998	4.43836
527.2	3.80581
527.401	5.05293
527.602	4.95116
527.803	6.4459
528.005	6.24631
528.206	6.90869
528.407	7.28607
528.608	7.00028
528.81	7.13892
529.011	6.53661
529.212	7.49178
529.413	6.768
529.614	6.28148
529.815	6.25293
530.017	5.70843
530.218	5.13045
530.419	4.75757
530.62	5.13774
530.821	5.23425
531.022	4.15055
531.223	5.60971
531.424	5.43374
531.625	5.26421
531.826	5.12028
532.027	4.997
532.228	5.85998
532.429	4.94088
532.63	4.58552
532.831	4.96781
533.032	4.95595
533.233	5.43114
533.433	5.15776
533.634	5.36662
533.835	4.77375
534.036	4.44819
534.237	4.74651
534.438	4.57584
534.638	4.34824
534.839	4.61156
535.04	5.48181
535.241	4.69848
535.441	6.34409
535.642	5.30263
535.843	4.2591
536.043	4.12414
536.244	4.36935
536.445	4.33369
536.645	5.53438
536.846	4.96306
537.047	5.72963
537.247	4.22974
537.448	4.68209
537.648	4.96281
537.849	4.97855
538.049	4.93088
538.25	5.74539
538.451	5.47346
538.651	4.55314
538.851	5.61758
539.052	6.32253
539.252	5.83686
539.453	5.11649
539.653	5.23685
539.854	5.09617
540.054	4.86909
540.254	5.59418
540.455	5.39342
540.655	4.3431
540.855	4.9734
541.056	5.5969
541.256	5.002
541.456	6.13424
541.657	5.15701
541.857	6.14088
542.057	4.61381
542.257	4.51142
542.458	5.2342
542.658	5.45211
542.858	4.23986
543.058	5.851
543.258	5.42056
543.458	4.19965
543.659	4.08225
543.859	5.62458
544.059	5.62367
544.259	4.89712
544.459	5.73697
544.659	4.66945
544.859	5.51046
545.059	4.74798
545.259	5.6182
545.459	5.29041
545.659	5.89855
545.859	5.11458
546.059	5.38916
546.259	4.47678
546.459	3.72367
546.659	4.23291
546.859	5.4909
547.059	5.45063
547.258	5.48629
547.458	5.52708
547.658	4.23918
547.858	4.36171
548.058	5.48486
548.258	5.22422
548.457	4.58473
548.657	8.12316
548.857	5.20499
549.057	6.35232
549.256	6.28102
549.456	5.52655
549.656	3.79383
549.855	7.76207
550.055	5.53166
550.255	7.67153
550.454	6.37902
550.654	7.07671
550.853	7.55697
551.053	6.9924
551.253	6.24325
551.452	6.37774
551.652	4.74138
551.851	3.9571
552.051	5.40117
552.25	5.2959
552.45	4.6645
552.649	5.35554
552.849	4.73089
553.048	5.61745
553.248	6.28913
553.447	4.84091
553.646	6.68395
553.846	7.37815
554.045	6.8931
554.244	4.77876
554.444	7.95962
554.643	5.14847
554.842	7.53031
555.042	8.52209
555.241	5.46017
555.44	5.08771
555.64	6.43016
555.839	8.25521
556.038	6.84031
556.237	5.60894
556.436	5.95659
556.636	6.47118
556.835	5.30937
557.034	7.98095
557.233	6.28968
557.432	4.88153
557.631	7.50052
557.83	5.99019
558.029	5.50356
558.228	5.81402
558.427	5.16989
558.626	6.80252
558.825	5.4254
559.024	6.51541
559.223	8.55045
559.422	6.25755
559.621	6.97813
559.82	3.56456
560.019	6.34557
560.218	5.71323
560.417	3.21895
560.616	5.99188
560.815	10.05312
561.014	4.50108
561.212	7.62696
561.411	6.4802
561.61	4.38448
561.809	5.88461
562.008	7.99551
562.206	6.34531
562.405	6.96653
562.604	6.1657
562.803	6.43749
563.001	6.16715
563.2	4.61208
563.399	6.86144
563.597	4.81074
563.796	6.49486
563.995	4.69896
564.193	7.16706
564.392	5.54495
564.59	8.87149
564.789	3.92102
564.988	5.75707
565.186	6.23929
565.385	5.7958
565.583	5.29855
565.782	5.73518
565.98	5.35604
566.179	5.65783
566.377	4.34473
566.575	4.87574
566.774	6.92003
566.972	6.80766
567.171	8.20743
567.369	7.211
567.567	6.16507
567.766	6.57448
567.964	3.62683
568.162	6.77013
568.361	7.21861
568.559	6.16799
568.757	6.77456
568.956	6.36187
569.154	6.04851
569.352	7.23792
569.55	5.98261
569.748	6.18283
569.947	5.11174
570.145	5.25173
570.343	4.72779
570.541	7.56554
570.739	4.46868
570.937	6.20593
571.135	6.38997
571.333	7.92354
571.532	7.53311
571.73	6.24381
571.928	7.07316
572.126	6.4692
572.324	5.19507
572.522	7.36893
572.72	8.97104
572.918	5.84323
573.116	6.38385
573.313	6.11389
573.511	5.73513
573.709	5.68667
573.907	6.78912
574.105	5.68114
574.303	4.09283
574.501	4.41396
574.699	6.23713
574.896	6.45366
575.094	6.71396
575.292	4.68068
575.49	7.12058
575.688	5.88751
575.885	7.75817
576.083	8.35302
576.281	6.77838
576.478	5.80016
576.676	6.99752
576.874	5.04892
577.071	6.16226
577.269	9.58901
577.467	6.41678
577.664	6.69385
577.862	7.69332
578.059	5.7548
578.257	7.96779
578.455	6.60263
578.652	6.67928
578.85	4.33751
579.047	6.98545
579.245	6.75838
579.442	6.80558
579.64	7.09895
579.837	4.54037
580.034	10.08528
580.232	6.5554
580.429	5.48355
580.627	7.62092
580.824	9.00057
581.021	7.8278
581.219	6.60381
581.416	5.76419
581.613	8.92408
581.811	8.86288
582.008	6.16225
582.205	8.55054
582.402	7.45071
582.6	10.09285
582.797	7.56627
582.994	8.12822
583.191	8.41777
583.388	7.64986
583.586	8.65405
583.783	8.95488
583.98	6.20067
584.177	7.85555
584.374	3.2618
584.571	7.12074
584.768	7.24425
584.965	7.0066
585.162	8.50423
585.359	10.00627
585.556	7.28373
585.753	7.95929
585.95	5.57952
586.147	6.25141
586.344	8.25016
586.541	6.94078
586.738	5.81918
586.935	7.228
587.132	6.47947
587.329	9.20161
587.526	7.198
587.722	14.98624
587.919	5.3703
588.116	8.0802
588.313	9.64249
588.51	10.7271
588.706	6.97449
588.903	8.16152
589.1	8.98273
589.297	11.75115
589.493	7.36352
589.69	8.28868
589.887	6.64976
590.083	5.69896
590.28	6.47657
590.477	8.91224
590.673	8.47972
590.87	9.6406
591.067	6.91519
591.263	8.36059
591.46	8.16465
591.656	7.38406
591.853	9.89864
592.049	6.21835
592.246	6.7942
592.442	9.68728
592.639	8.69405
592.835	5.85001
593.032	8.51621
593.228	5.56215
593.425	5.35029
593.621	5.30162
593.817	7.7555
594.014	6.36658
594.21	7.53855
594.406	9.03469
594.603	8.2523
594.799	6.53581
594.995	4.1845
595.192	9.07402
595.388	6.6093
595.584	6.65204
595.78	5.05771
595.977	10.19747
596.173	9.66968
596.369	6.76957
596.565	5.7168
596.761	4.83197
596.957	8.76369
597.154	5.58905
597.35	6.08496
597.546	5.52498
597.742	7.51494
597.938	7.4054
598.134	5.68091
598.33	7.34689
598.526	9.81117
598.722	8.31779
598.918	10.24597
599.114	8.78761
599.31	6.50794
599.506	8.1915
599.702	7.03434
599.898	8.44354
600.094	9.78882
600.29	9.62761
600.485	9.32003
600.681	7.26317
600.877	11.17619
601.073	8.34801
601.269	11.33411
601.465	10.29746
601.66	6.84291
601.856	5.13642
602.052	10.64139
602.248	7.07896
602.443	4.63947
602.639	5.67517
602.835	6.00599
603.03	6.12097
603.226	8.82973
603.422	5.89928
603.617	6.73183
603.813	6.49654
604.009	6.04775
604.204	8.55431
604.4	4.37077
604.595	8.10033
604.791	5.40117
604.986	7.26667
605.182	5.8009
605.377	6.19993
605.573	6.18818
605.768	7.26746
605.964	8.00884
606.159	8.30003
606.355	9.50904
606.55	7.3498
606.746	9.42987
606.941	7.76245
607.136	11.21238
607.332	12.94257
607.527	5.95215
607.722	8.49841
607.918	7.96897
608.113	6.48384
608.308	8.78031
608.503	8.36046
608.699	8.16819
608.894	8.15922
609.089	6.14897
609.284	7.59928
609.479	6.59481
609.675	8.42481
609.87	6.62469
610.065	8.22554
610.26	9.11611
610.455	8.8663
610.65	7.03672
610.845	8.11977
611.04	9.16643
611.235	7.80728
611.43	7.48477
611.625	5.88892
611.82	10.52158
612.015	6.84974
612.21	11.14369
612.405	5.74056
612.6	11.9861
612.795	11.01989
612.99	10.13862
613.185	6.72631
613.38	7.35479
613.575	9.26219
613.77	13.89559
613.965	6.55296
614.159	7.26259
614.354	11.19458
614.549	10.6996
614.744	10.18708
614.938	7.01436
615.133	6.27169
615.328	11.34493
615.523	11.35663
615.717	14.73595
615.912	7.97214
616.107	9.37162
616.301	8.26758
616.496	7.82984
616.691	12.59976
616.885	10.29264
617.08	14.10735
617.274	11.70852
617.469	13.66017
617.664	10.59836
617.858	7.98547
618.053	9.79808
618.247	8.53427
618.442	5.35776
618.636	11.47001
618.831	8.11017
619.025	8.0425
619.219	14.62256
619.414	2.7923
619.608	9.62973
619.803	7.67883
619.997	13.72903
620.191	12.01391
620.386	10.57242
620.58	9.88176
620.774	5.96883
620.969	6.55842
621.163	9.86587
621.357	6.68143
621.551	8.64849
621.746	9.70556
621.94	9.3235
622.134	17.16109
622.328	13.74276
622.522	6.40389
622.716	12.09234
622.911	11.48842
623.105	11.4022
623.299	10.16303
623.493	16.95152
623.687	7.95249
623.881	8.62627
624.075	11.20532
624.269	11.9877
624.463	5.82319
624.657	6.23727
624.851	10.68925
625.045	11.45847
625.239	11.42053
625.433	7.74936
625.627	12.77421
625.821	8.19944
626.015	7.46162
626.209	9.19139
626.403	6.38784
626.596	9.86257
626.79	10.4626
626.984	6.46565
627.178	9.69173
627.372	9.86533
627.565	10.35481
627.759	5.79229
627.953	6.54607
628.147	9.88908
628.34	10.63999
628.534	13.87741
628.728	8.92869
628.921	11.58259
629.115	10.98658
629.309	11.67261
629.502	11.91281
629.696	10.21171
629.89	9.79858
630.083	10.477
630.277	10.95752
630.47	14.46913
630.664	9.21159
630.857	7.10574
631.051	11.87229
631.244	12.888
631.438	12.43779
631.631	8.68836
631.825	12.92522
632.018	12.03472
632.212	14.74426
632.405	13.1253
632.598	8.5133
632.792	10.76288
632.985	4.79586
633.178	9.3317
633.372	9.935
633.565	10.08794
633.758	13.31158
633.952	8.27673
634.145	8.3541
634.338	10.17137
634.531	8.83103
634.724	8.95823
634.918	10.6303
635.111	9.37833
635.304	8.95698
635.497	15.35872
635.69	10.74475
635.883	13.25781
636.077	7.61264
636.27	11.48647
636.463	11.03937
636.656	12.05177
636.849	9.31508
637.042	11.31117
637.235	14.63735
637.428	12.4529
637.621	11.95478
637.814	14.23464
638.007	14.82351
638.2	15.58841
638.393	16.77646
638.586	7.98861
638.778	10.06512
638.971	11.34245
639.164	16.09649
639.357	12.4261
639.55	15.1325
639.743	13.96857
639.935	13.40198
640.128	16.94056
640.321	13.22173
640.514	11.89388
640.707	18.5109
640.899	13.76658
641.092	7.83635
641.285	32.04128
641.477	6.22405
641.67	18.43935
641.863	15.60226
642.055	13.08703
642.248	12.39689
642.441	11.10692
642.633	13.56814
642.826	15.40933
643.018	16.56908
643.211	17.36719
643.403	16.81459
643.596	18.70029
643.788	18.3151
643.981	11.66647
644.173	15.19303
644.366	12.06105
644.558	7.96997
644.751	15.32524
644.943	8.38326
645.135	18.37071
645.328	18.13852
645.52	15.65803
645.712	15.63334
645.905	22.76161
646.097	10.09703
646.289	13.99509
646.482	19.08105
646.674	11.55305
646.866	16.16899
647.058	15.18553
647.251	10.17114
647.443	11.46379
647.635	12.74481
647.827	9.86636
648.019	9.98197
648.211	13.14826
648.404	13.94861
648.596	17.94487
648.788	14.25504
648.98	13.96425
649.172	14.50624
649.364	14.79045
649.556	7.82984
649.748	20.65543
649.94	10.82179
650.132	14.87867
650.324	10.6064
650.516	11.28456
650.708	16.68846
650.9	9.38824
651.092	8.09231
651.284	8.52249
651.476	10.06698
651.667	15.37512
651.859	16.43313
652.051	14.42613
652.243	13.64398
652.435	11.27438
652.627	14.52436
652.818	14.56651
653.01	8.03543
653.202	11.07316
653.394	12.23905
653.585	15.09881
653.777	28.35447
653.969	17.61934
654.16	17.35876
654.352	10.83114
654.544	13.67668
654.735	17.35233
654.927	14.39352
655.118	19.01747
655.31	17.01563
655.502	17.03402
655.693	12.42187
655.885	15.81965
656.076	19.44425
656.268	14.47753
656.459	18.42908
656.651	18.41137
656.842	12.02019
657.034	10.98211
657.225	16.19902
657.416	19.12246
657.608	18.47416
657.799	13.08028
657.99	16.84402
658.182	10.57006
658.373	11.31866
658.564	15.30848
658.756	13.16834
658.947	12.34196
659.138	9.5021
659.33	10.4572
659.521	10.20953
659.712	12.04803
659.903	11.65703
660.094	10.71616
660.286	7.91415
660.477	18.85172
660.668	15.10309
660.859	13.26595
661.05	9.05721
661.241	15.76899
661.432	15.91081
661.623	12.73263
661.814	11.99795
662.006	8.37755
662.197	15.886
662.388	18.53806
662.579	15.94068
662.77	19.84598
662.96	24.85342
663.151	17.83084
663.342	8.75493
663.533	16.7177
663.724	15.09489
663.915	21.54158
664.106	14.90442
664.297	21.90633
664.488	18.23875
664.678	13.8276
664.869	17.89778
665.06	19.74859
665.251	17.06839
665.442	17.65233
665.632	11.71783
665.823	23.30109
666.014	4.93379
666.204	18.20036
666.395	20.75672
666.586	26.92451
666.776	19.02658
666.967	22.44205
667.158	16.74631
667.348	22.34798
667.539	11.62227
667.729	18.85659
667.92	12.79339
668.111	20.08076
668.301	18.47962
668.492	15.27698
668.682	15.30217
668.873	14.5654
669.063	11.31988
669.253	16.12416
669.444	18.99435
669.634	14.97272
669.825	23.04848
670.015	19.79338
670.206	13.36916
670.396	24.17631
670.586	15.39331
670.777	18.62041
670.967	8.52881
671.157	16.10071
671.347	14.21143
671.538	22.76657
671.728	18.19354
671.918	24.07575
672.108	21.92875
672.299	16.60959
672.489	17.94267
672.679	14.62947
672.869	18.78693
673.059	24.02366
673.249	18.27126
673.44	13.29676
673.63	16.21413
673.82	20.97145
674.01	13.61259
674.2	18.90315
674.39	29.94613
674.58	19.62702
674.77	18.17442
674.96	16.98519
675.15	35.65182
675.34	22.08005
675.53	18.4418
675.72	15.98735
675.91	11.78488
676.099	25.54434
676.289	26.73503
676.479	21.86088
676.669	16.43972
676.859	19.81486
677.049	14.13393
677.238	17.54456
677.428	25.80601
677.618	18.34654
677.808	21.57932
677.997	19.22104
678.187	12.23222
678.377	16.99688
678.567	15.43822
678.756	15.24543
678.946	16.07471
679.136	11.24283
679.325	13.0701
679.515	12.5397
679.704	10.81131
679.894	17.87066
680.084	16.31392
680.273	20.85969
680.463	12.35443
680.652	12.71494
680.842	15.51009
681.031	19.69627
681.221	12.56745
681.41	18.25815
681.6	15.65124
681.789	19.4621
681.978	21.87914
682.168	17.77465
682.357	18.56093
682.547	20.58797
682.736	17.91224
682.925	22.99707
683.115	21.87726
683.304	21.66734
683.493	19.9069
683.682	20.7763
683.872	19.61585
684.061	24.37846
684.25	21.98011
684.439	27.79115
684.629	21.60623
684.818	34.75863
685.007	18.39459
685.196	17.8893
685.385	26.0761
685.574	21.4957
685.763	21.32958
685.952	20.05328
686.142	13.8529
686.331	27.17305
686.52	11.13767
686.709	26.89811
686.898	26.69316
687.087	22.54628
687.276	27.73084
687.465	24.56985
687.654	18.1679
687.842	27.1584
688.031	12.85401
688.22	24.62705
688.409	20.8563
688.598	20.51773
688.787	32.7218
688.976	19.96622
689.165	28.94119
689.353	17.84584
689.542	22.26214
689.731	23.83193
689.92	29.96363
690.108	25.60236
690.297	19.07846
690.486	21.14477
690.675	24.88694
690.863	29.48772
691.052	29.21776
691.241	23.67972
691.429	22.90287
691.618	29.07116
691.806	15.42456
691.995	20.52491
692.184	21.29124
692.372	19.11289
692.561	21.88446
692.749	21.8827
692.938	34.53067
693.126	25.55803
693.315	19.80316
693.503	25.12118
693.692	25.88138
693.88	28.17895
694.068	33.61713
694.257	21.58801
694.445	24.93402
694.634	12.40523
694.822	28.74967
695.01	30.10928
695.199	29.94537
695.387	31.84709
695.575	29.97001
695.763	23.06925
695.952	20.8973
696.14	14.172
696.328	19.06088
696.516	23.32903
696.705	24.15235
696.893	23.56305
697.081	12.50792
697.269	24.61643
697.457	15.95354
697.645	14.38266
697.833	24.90321
698.021	15.84046
698.21	16.68082
698.398	18.09218
698.586	13.45971
698.774	12.41612
698.962	16.89419
699.15	13.51382
699.338	11.33309
699.526	20.24341
699.714	15.39273
699.901	15.53659
700.089	23.47106
700.277	15.72803
700.465	18.29563
700.653	24.73467
700.841	23.49037
701.029	16.85619
701.217	27.34181
701.404	22.65548
701.592	30.77284
701.78	33.34899
701.968	19.62026
702.155	21.68005
702.343	16.28613
702.531	31.0028
702.718	25.74006
702.906	21.76398
703.094	20.42139
703.281	32.11388
703.469	22.74154
703.657	31.76013
703.844	44.79285
704.032	35.14419
704.219	20.56455
704.407	27.2961
704.595	33.10783
704.782	26.24632
704.97	22.75472
705.157	22.99416
705.345	35.29814
705.532	41.80891
705.719	27.45509
705.907	35.26808
706.094	26.40991
706.282	36.60256
706.469	23.64549
706.656	26.36286
706.844	24.81146
707.031	32.02845
707.218	27.45266
707.406	36.98261
707.593	30.67062
707.78	30.64161
707.968	26.16722
708.155	20.97143
708.342	30.15869
708.529	29.24185
708.716	27.6002
708.904	38.17854
709.091	31.03774
709.278	19.14164
709.465	39.11951
709.652	39.51942
709.839	35.54725
710.026	29.15452
710.213	17.1152
710.4	28.94688
710.587	32.54384
710.774	34.07276
710.961	34.64316
711.148	27.62274
711.335	34.37239
711.522	26.88199
711.709	29.77499
711.896	42.88603
712.083	34.45777
712.27	21.363
712.457	28.82968
712.644	18.2484
712.831	42.04126
713.017	29.47869
713.204	32.91509
713.391	24.64962
713.578	37.3035
713.765	37.51016
713.951	32.81707
714.138	51.5768
714.325	34.001
714.512	28.42031
714.698	24.00959
714.885	40.79105
715.072	31.27081
715.258	30.51372
715.445	25.664
715.631	38.48178
715.818	12.42656
716.005	24.93598
716.191	33.84392
716.378	27.68189
716.564	36.23699
716.751	23.23914
716.937	25.36349
717.124	37.87305
717.31	24.88557
717.497	41.78843
717.683	24.55245
717.869	49.26964
718.056	26.67072
718.242	35.26509
718.429	31.97214
718.615	22.55872
718.801	31.80891
718.988	40.29396
719.174	35.22977
719.36	30.64512
719.547	43.61727
719.733	34.84894
719.919	33.49783
720.105	38.83277
720.291	32.27916
720.478	35.08695
720.664	33.03008
720.85	29.92364
721.036	58.57855
721.222	46.21991
721.408	33.24129
721.595	51.14916
721.781	49.81689
721.967	43.31434
722.153	49.93261
722.339	41.50414
722.525	39.61186
722.711	26.61226
722.897	23.82398
723.083	31.73475
723.269	45.05226
723.455	58.5223
723.641	62.28233
723.827	38.33923
724.012	41.16997
724.198	31.94752
724.384	46.85281
724.57	40.37374
724.756	23.18374
724.942	20.70878
725.127	44.4446
725.313	50.46775
725.499	50.00369
725.685	54.51016
725.87	40.977
726.056	26.95611
726.242	49.61945
726.428	22.95026
726.613	44.21195
726.799	35.10008
726.985	27.22832
727.17	22.81947
727.356	51.73101
727.541	28.34477
727.727	34.42798
727.913	43.17568
728.098	31.65007
728.284	43.06162
728.469	25.24805
728.655	29.20307
728.84	44.14016
729.026	45.19591
729.211	45.6125
729.397	39.02959
729.582	42.40319
729.767	35.81822
729.953	40.11111
730.138	45.57761
730.323	17.18945
730.509	25.90454
730.694	51.84568
730.879	40.71516
731.065	38.854
731.25	58.7869
731.435	42.58271
731.621	22.077
731.806	30.86705
731.991	39.02827
732.176	23.69796
732.361	48.0865
732.547	38.25709
732.732	22.17842
732.917	58.80408
733.102	25.85646
733.287	30.67134
733.472	36.11393
733.657	38.70877
733.842	22.66081
734.027	33.69917
734.212	36.49897
734.397	29.44994
734.582	38.19938
734.767	45.86309
734.952	51.88011
735.137	14.27333
735.322	53.21239
735.507	42.41098
735.692	41.73012
735.877	62.32199
736.062	56.87904
736.247	41.79932
736.431	37.75432
736.616	54.27182
736.801	42.7251
736.986	39.82571
737.171	33.30502
737.355	27.88158
737.54	51.53721
737.725	39.30385
737.909	71.94889
738.094	35.00202
738.279	49.9152
738.463	38.49008
738.648	45.95845
738.833	44.5581
739.017	61.20178
739.202	34.54421
739.386	39.35072
739.571	24.81611
739.756	46.51162
739.94	40.04804
740.125	51.079
740.309	31.8107
740.494	48.04556
740.678	43.25953
740.863	47.21033
741.047	41.95642
741.231	55.3528
741.416	31.94482
741.6	59.31286
741.785	32.80966
741.969	51.45918
742.153	55.8388
742.338	19.62915
742.522	42.50023
742.706	53.09047
742.89	29.46398
743.075	43.87508
743.259	60.65783
743.443	55.4197
743.627	56.48573
743.812	72.06348
743.996	24.99431
744.18	42.61822
744.364	38.4247
744.548	77.74808
744.732	43.45631
744.916	53.81823
745.1	50.60047
745.285	41.19452
745.469	52.73066
745.653	68.31046
745.837	28.38253
746.021	77.82379
746.205	60.28244
746.389	46.07604
746.573	42.05989
746.757	65.68733
746.94	39.46662
747.124	57.61481
747.308	30.75971
747.492	62.94304
747.676	37.30721
747.86	76.11268
748.044	39.19366
748.227	24.11829
748.411	95.4999
748.595	50.34763
748.779	33.73474
748.963	50.50579
749.146	47.36296
749.33	36.27214
749.514	32.86539
749.697	60.7485
749.881	37.6666
750.065	34.11287
750.248	47.73849
750.432	78.54094
750.616	45.09103
750.799	29.15726
750.983	72.96835
751.166	85.08744
751.35	28.98428
751.533	57.79727
751.717	60.44334
751.9	67.12099
752.084	40.83653
752.267	33.79037
752.451	34.77762
752.634	48.87169
752.818	55.42724
753.001	58.2146
753.184	61.65869
753.368	51.35912
753.551	7.99977
753.734	35.85733
753.918	74.24317
754.101	36.93248
754.284	57.38534
754.467	41.75904
754.651	37.53642
754.834	37.11692
755.017	62.77144
755.2	59.53722
755.384	32.13065
755.567	59.66393
755.75	64.30685
755.933	44.83115
756.116	50.92934
756.299	40.60466
756.482	36.17292
756.665	56.84395
756.848	48.06088
757.032	54.06273
757.215	30.75708
757.398	36.90493
757.581	37.94471
757.764	88.09707
757.947	46.31674
758.129	66.35596
758.312	13.00665
758.495	48.86263
758.678	45.68083
758.861	43.70024
759.044	75.06166
759.227	36.03882
759.41	38.2096
759.592	54.57669
759.775	45.29984
759.958	60.9347
760.141	31.48643
760.324	80.88255
760.506	69.08552
760.689	60.31564
760.872	84.77652
761.054	56.02525
761.237	44.42779
761.42	54.73911
761.602	62.93727
761.785	52.27499
761.968	63.51577
762.15	76.68165
762.333	44.73981
762.515	54.0027
762.698	41.48056
762.88	57.01946
763.063	50.22679
763.245	54.92865
763.428	33.30884
763.61	36.48687
763.793	27.15652
763.975	45.7262
764.158	36.41526
764.34	36.24519
764.522	29.82067
764.705	37.81192
764.887	58.3254
765.069	25.13086
765.252	53.83057
765.434	56.34917
765.616	46.461
765.799	37.21665
765.981	58.55153
766.163	37.19329
766.345	60.4301
766.528	40.9151
766.71	19.06927
766.892	52.16609
767.074	67.81753
767.256	45.17434
767.438	78.12313
767.62	54.77298
767.802	83.61584
767.985	62.33434
768.167	83.21717
768.349	43.16945
768.531	60.76284
768.713	57.69668
768.895	66.59927
769.077	60.57838
769.259	96.90791
769.441	141.77497
769.623	72.58423
769.804	80.61415
769.986	79.7105
770.168	98.13911
770.35	118.52429
770.532	86.65086
770.714	93.06354
770.896	99.46272
771.077	42.3769
771.259	96.16967
771.441	80.31902
771.623	107.8462
771.804	132.86378
771.986	35.29258
772.168	62.43396
772.35	104.08883
772.531	145.78505
772.713	77.1341
772.894	112.85952
773.076	73.7801
773.258	64.33779
773.439	104.39144
773.621	119.39485
773.802	50.32063
773.984	62.90458
774.166	86.01534
774.347	113.1228
774.529	103.58314
774.71	34.81324
774.891	72.14465
775.073	66.62098
775.254	116.03366
775.436	64.64592
775.617	132.03437
775.799	65.17365
775.98	122.23885
776.161	126.79308
776.343	124.75112
776.524	80.61213
776.705	67.83145
776.886	38.12566
777.068	86.92434
777.249	157.19545
777.43	137.33407
777.611	49.58241
777.793	74.3713
777.974	120.1995
778.155	66.66736
778.336	63.25497
778.517	142.41298
778.698	61.32843
778.879	33.03743
779.061	21.58447
779.242	90.79072
779.423	91.50352
779.604	65.87635
779.785	77.64673
779.966	84.26587
780.147	104.07589
780.328	110.43614
780.509	160.07389
780.69	103.88516
780.871	61.10673
781.051	46.55454
781.232	89.24554
781.413	81.29157
781.594	72.46495
781.775	68.4308
781.956	61.83329
782.137	36.38395
782.317	61.57407
782.498	87.71749
782.679	89.74849
782.86	84.14826
783.04	61.96372
783.221	93.44433
783.402	140.63851
783.583	85.12237
783.763	104.20563
783.944	69.08545
784.124	45.76271
784.305	133.79304
784.486	97.38807
784.666	76.45793
784.847	42.89217
785.027	160.33373
785.208	59.18679
785.388	55.95424
785.569	65.94859
785.749	71.37484
785.93	70.37491
786.11	44.28337
786.291	91.95059
786.471	85.64037
786.652	104.62759
786.832	78.92271
787.012	91.87941
787.193	51.05356
787.373	84.90465
787.553	72.4285
787.734	86.3658
787.914	70.34323
788.094	98.14496
788.275	91.53357
788.455	71.38368
788.635	46.61154
788.815	85.74571
788.995	54.71317
789.176	43.01077
789.356	57.38845
789.536	72.58608
789.716	95.51952
789.896	61.92718
790.076	67.78216
790.256	82.61314
790.436	26.82187
790.616	57.90845
790.796	85.9886
790.976	70.18851
791.156	59.54279
791.336	101.49289
791.516	87.88345
791.696	71.45291
791.876	44.18631
792.056	81.89965
792.236	105.33696
792.416	101.20082
792.596	92.26618
792.776	92.96833
792.956	94.67045
793.135	124.15279
793.315	52.27477
793.495	114.72019
793.675	96.61959
793.854	109.86705
794.034	105.33274
794.214	51.26867
794.394	108.23003
794.573	117.71241
794.753	84.50737
794.933	57.45913
795.112	88.78523
795.292	104.91343
795.472	135.13762
795.651	47.75623
795.831	80.26643
796.01	74.20201
796.19	72.09347
796.369	77.06776
796.549	94.68024
796.728	74.56391
796.908	46.40079
797.087	53.94319
797.267	68.81949
797.446	51.57809
797.626	97.10182
797.805	93.55399
797.984	57.15534
798.164	96.27207
798.343	57.73242
798.522	85.94872
798.702	81.57876
798.881	48.36195
799.06	73.16777
799.239	32.0322
799.419	53.56068
799.598	125.19141
799.777	94.68288
799.956	114.64148
800.136	69.13064
800.315	58.92946
800.494	96.07976
800.673	110.19897
800.852	96.36232
801.031	105.87256
801.21	94.89919
801.389	65.75806
801.568	82.72175
801.747	141.38284
801.926	81.03122
802.105	131.30723
802.284	71.82412
802.463	123.51818
802.642	86.1473
802.821	90.93333
803	121.49845
803.179	112.25576
803.358	115.18368
803.537	63.06696
803.716	82.14094
803.895	62.71459
804.073	76.98691
804.252	60.02561
804.431	97.48155
804.61	78.57657
804.789	119.8449
804.967	70.90256
805.146	63.25215
805.325	142.69757
805.503	93.60478
805.682	43.62484
805.861	164.72679
806.039	118.14543
806.218	69.05157
806.397	88.40337
806.575	80.23768
806.754	92.13396
806.932	53.57424
807.111	134.18837
807.289	109.25457
807.468	82.45159
807.646	111.84492
807.825	97.26258
808.003	86.62604
808.182	108.23133
808.36	86.53898
808.539	61.08151
808.717	133.02467
808.895	62.0734
809.074	91.515
809.252	82.65675
809.43	101.5497
809.609	118.87317
809.787	132.75517
809.965	76.2392
810.144	85.98109
810.322	77.62427
810.5	92.54309
810.678	77.83813
810.856	152.84584
811.035	116.42298
811.213	106.61122
811.391	123.79231
811.569	87.85165
811.747	190.71872
811.925	118.73828
812.103	62.63255
812.281	77.66307
812.459	139.65708
812.637	142.91443
812.816	117.46419
812.994	151.00458
813.171	125.04112
813.349	103.97039
813.527	122.07853
813.705	130.85308
813.883	176.75543
814.061	123.83214
814.239	156.3388
814.417	166.54416
814.595	100.15816
814.773	102.85378
814.95	93.25784
815.128	104.48842
815.306	73.22684
815.484	86.88889
815.662	67.46805
815.839	59.40374
816.017	70.82875
816.195	138.47132
816.372	83.31824
816.55	118.12956
816.728	143.78609
816.905	82.07844
817.083	146.3781
817.261	87.67741
817.438	171.87119
817.616	165.01443
817.793	79.00457
817.971	117.05808
818.148	122.02675
818.326	138.0437
818.503	100.10742
818.681	142.11266
818.858	78.40512
819.036	91.74515
819.213	102.31036
819.391	75.8697
819.568	68.11772
819.745	65.88445
819.923	112.44811
820.1	72.89156
820.277	63.48034
820.455	75.32458
820.632	78.66541
820.809	80.18364
820.986	51.90218
821.164	40.56351
821.341	34.70531
821.518	47.54129
821.695	33.87412
821.872	30.83668
822.05	25.83369
822.227	18.61236
822.404	19.83879
822.581	22.75194
822.758	18.23533
822.935	18.32461
823.112	21.82743
823.289	15.9771
823.466	21.77628
823.643	19.5406
823.82	24.42785
823.997	21.87044
824.174	26.93741
824.351	37.35098
824.528	36.57446
824.705	32.54921
824.882	38.25404
825.059	51.63095
825.236	33.00921
825.412	36.58889
825.589	49.68936
825.766	68.63696
825.943	43.77691
826.12	52.22827
826.296	33.9354
826.473	43.98134
826.65	45.59925
826.827	57.28716
827.003	36.1538
827.18	39.05969
827.357	45.61979
827.533	40.02499
827.71	19.6373
827.887	32.78667
828.063	38.30515
828.24	33.18617
828.416	45.86707
828.593	35.15671
828.769	52.70217
828.946	60.63951
829.122	62.88499
829.299	58.83563
829.475	32.16071
829.652	59.68318
829.828	106.077
830.005	65.50665
830.181	94.35279
830.357	65.80642
830.534	98.60786
830.71	74.77538
830.886	98.64884
831.063	91.14439
831.239	129.46504
831.415	53.53106
831.592	130.7954
831.768	76.51327
831.944	63.8728
832.12	126.53356
832.296	118.19558
832.473	105.21437
832.649	73.91207
832.825	101.24453
833.001	56.24468
833.177	89.56314
833.353	78.47876
833.529	41.12191
833.705	60.04338
833.881	43.77118
834.058	42.72648
834.234	44.6521
834.41	44.90021
834.586	33.77867
834.761	44.22242
834.937	47.25256
835.113	48.60773
835.289	42.63938
835.465	54.63312
835.641	45.12053
835.817	55.03555
835.993	101.60322
836.169	51.21887
836.344	75.91221
836.52	87.60422
836.696	85.63851
836.872	61.98361
837.048	185.76455
837.223	68.93037
837.399	150.98034
837.575	118.1054
837.75	111.98962
837.926	153.89311
838.102	263.0818
838.277	188.88119
838.453	261.53131
838.628	235.27048
838.804	102.15504
838.98	241.52877
839.155	113.32988
839.331	161.13983
839.506	118.80172
839.682	117.44048
839.857	143.49832
840.033	172.81438
840.208	78.76139
840.384	39.36827
840.559	81.00951
840.734	127.90955
840.91	191.3543
841.085	112.42423
841.26	103.00572
841.436	96.49631
841.611	96.35825
841.786	143.68902
841.962	199.80971
842.137	118.58431
842.312	79.0306
842.487	97.16939
842.663	82.30186
842.838	110.59566
843.013	396.17792
843.188	184.42812
843.363	132.28497
843.538	339.78125
843.714	328.27532
843.889	334.00519
844.064	366.66534
844.239	301.1008
844.414	394.27373
844.589	232.47514
844.764	489.5567
844.939	433.22012
845.114	531.13543
845.289	538.19547
845.464	538.33937
845.639	418.26781
845.814	195.10938
845.989	238.53543
846.163	272.17965
846.338	313.30641
846.513	475.85836
846.688	306.36147
846.863	265.79403
847.038	236.46284
847.212	313.69059
847.387	312.65467
847.562	299.3574
847.737	414.60405
847.911	137.46985
848.086	176.26037
848.261	549.86265
848.435	258.67334
848.61	426.94655
848.785	171.01308
848.959	419.59553
849.134	603.35144
849.308	720.19781
849.483	332.70188
849.658	525.75764
849.832	241.8813
850.007	209.84966
850.181	965.65377
850.356	231.93627
850.53	763.51311
850.705	177.34424
850.879	116.13863
851.053	269.42057
851.228	248.98808
851.402	394.75715
851.577	454.18603
851.751	679.33395
851.925	323.05665
852.099	128.43576
852.274	184.22319
852.448	276.12501
852.622	443.47368
852.797	289.26855
852.971	309.2598
853.145	321.2228
853.319	1061.34292
853.493	485.42745
853.668	241.00972
853.842	724.98561
854.016	505.12597
854.19	639.21038
854.364	313.12549
854.538	361.65131
854.712	559.26606
854.886	286.05139
855.06	241.93609
855.234	104.81595
855.408	590.34114
855.582	576.84838
855.756	525.86193
855.93	618.65704
856.104	331.70887
856.278	496.86852
856.452	302.4662
856.626	411.07649
856.8	949.17328
856.973	384.14085
857.147	378.50934
857.321	413.35571
857.495	533.20897
857.669	354.76405
857.842	258.44838
858.016	515.0447
858.19	204.38427
858.364	1301.07232
858.537	273.02311
858.711	326.72729
858.885	270.37836
859.058	246.48742
859.232	117.55627
859.405	155.45353
859.579	467.60005
859.753	399.02937
859.926	248.80479
860.1	153.14335
860.273	302.22355
860.447	570.46247
860.62	288.29131
860.794	702.8758
860.967	341.16937
861.141	616.16225
861.314	1034.20853
861.487	444.74504
861.661	610.21637
861.834	658.40808
862.008	477.70865
862.181	350.10292
862.354	335.048
862.528	396.20161
862.701	299.03379
862.874	171.19442
863.047	270.73784
863.221	300.22192
863.394	127.15508
863.567	561.45649
863.74	101.14553
863.913	474.4354
864.087	441.21385
864.26	548.8504
864.433	288.47036
864.606	888.29091
864.779	292.90859
864.952	149.85524
865.125	256.32102
865.298	293.03814
865.471	292.28848
865.644	790.43195
865.817	519.33739
865.99	524.64139
866.163	715.43607
866.336	287.90833
866.509	274.41318
866.682	262.36339
866.855	578.36662
867.028	169.33394
867.2	431.679
867.373	105.01125
867.546	329.78523
867.719	799.73255
867.892	427.7167
868.064	254.61578
868.237	368.50027
868.41	374.24643
868.583	179.11791
868.755	211.00674
868.928	281.98896
869.101	899.86792
869.273	520.61057
869.446	411.20784
869.619	616.74253
869.791	303.67604
869.964	517.28436
870.136	487.90919
870.309	395.33316
870.481	329.50578
870.654	170.70272
870.826	424.58096
870.999	258.56267
871.171	401.57779
871.344	245.8454
871.516	309.35569
871.689	214.68491
871.861	365.26417
872.033	219.58143
872.206	266.00045
872.378	454.50351
872.55	280.1556
872.723	182.51159
872.895	306.43364
873.067	498.23148
873.24	504.35178
873.412	251.97185
873.584	281.10344
873.756	270.98465
873.928	325.18157
874.101	356.22529
874.273	405.23263
874.445	131.84047
874.617	165.2935
874.789	308.04198
874.961	272.89123
875.133	400.24157
875.305	317.4685
875.477	210.5709
875.649	145.57069
875.821	177.36641
875.993	584.20458
876.165	189.27826
876.337	335.20648
876.509	299.65315
876.681	321.01798
876.853	350.30021
877.025	374.84412
877.197	211.81355
877.369	185.27599
877.541	440.22545
877.712	111.12836
877.884	180.64437
878.056	368.65242
878.228	181.45375
878.4	394.50204
878.571	194.15583
878.743	121.11977
878.915	307.04193
879.086	182.45352
879.258	217.93045
879.43	195.78426
879.601	177.46936
879.773	188.15995
879.945	43.81224
880.116	71.15365
880.288	43.47874
880.459	46.23026
880.631	33.61216
880.802	41.10741
880.974	37.7684
881.145	24.8754
881.317	33.98456
881.488	24.09703
881.66	26.88553
881.831	24.13504
882.002	33.59032
882.174	22.98074
882.345	31.19947
882.517	14.89334
882.688	39.01163
882.859	29.15856
883.03	48.90956
883.202	47.95401
883.373	39.58214
883.544	39.91551
883.715	69.01011
883.887	59.07828
884.058	51.14539
884.229	74.22138
884.4	77.55362
884.571	91.41363
884.742	77.1995
884.914	83.33596
885.085	132.97112
885.256	181.36381
885.427	148.47153
885.598	158.78133
885.769	179.29265
885.94	177.79486
886.111	113.92235
886.282	232.80969
886.453	161.34029
886.624	117.87359
886.795	229.8132
886.966	174.25327
887.136	240.1162
887.307	167.08096
887.478	372.18192
887.649	292.44915
887.82	318.32346
887.991	239.63734
888.161	325.25907
888.332	299.22214
888.503	133.7322
888.674	486.40109
888.844	569.12248
889.015	370.43041
889.186	149.75394
889.356	522.84842
889.527	145.48224
889.698	1049.44298
889.868	252.92992
890.039	343.68101
890.209	278.0124
890.38	379.24999
890.551	323.4762
890.721	460.81541
890.892	424.65949
891.062	259.45228
891.233	330.76894
891.403	294.23389
891.574	207.30286
891.744	284.65808
891.914	334.19384
892.085	290.04562
892.255	93.49927
892.425	574.46745
892.596	389.23899
892.766	383.62249
892.936	467.7468
893.107	386.31511
893.277	193.81741
893.447	160.07535
893.618	114.32406
893.788	254.31778
893.958	126.57666
894.128	127.99308
894.298	149.00322
894.468	182.07838
894.639	93.38038
894.809	55.18859
894.979	92.36818
895.149	108.96958
895.319	84.97623
895.489	119.51846
895.659	155.69617
895.829	91.44344
895.999	99.07593
896.169	77.01046
896.339	95.61476
896.509	210.50563
896.679	230.75909
896.849	241.52725
897.019	352.19736
897.189	265.93188
897.358	248.03419
897.528	354.22061
897.698	113.60357
897.868	306.5966
898.038	888.16929
898.208	723.52057
898.377	121.6902
898.547	785.68917
898.717	1009.36084
898.886	412.7285
899.056	603.36284
899.226	1466.9898
899.395	468.63283
899.565	835.28773
899.735	440.32962
899.904	1033.49829
900.074	984.19715
900.244	273.59106
900.413	1212.41763
900.583	252.37505
900.752	384.81608
900.922	2065.64267
901.091	39.8795
901.261	635.43612
901.43	646.15354
901.599	560.72198
901.769	7034.49833
901.938	708.79235
902.108	781.90759
902.277	1542.01149
902.446	247.04724
902.616	227.38332
902.785	318.58298
902.954	683.13777
903.124	476.79333
903.293	308.12868
903.462	167.20087
903.631	237.54689
903.801	178.3802
903.97	90.31486
904.139	143.14247
904.308	110.38942
904.477	87.03798
904.646	52.30976
904.816	62.89882
904.985	119.98884
905.154	185.21326
