Data from WindowProjectSample_Transmission__82__00082.txt Node

Date: Sat May 03 18:07:04 EDT 2025
User: jessi
Spectrometer: SR400872
Trigger mode: 0
Integration Time (sec): 5.000010E-1
Scans to average: 6
Electric dark correction enabled: true
Nonlinearity correction enabled: true
Boxcar width: 0
XAxis mode: Wavelengths
Number of Pixels in Spectrum: 3648
>>>>>Begin Spectral Data<<<<<
184.909	3487.50553
185.132	4016.21499
185.355	-4165.42261
185.578	4223.51134
185.801	-317.27426
186.024	-4983.66592
186.247	1854.41205
186.47	514.57948
186.693	-49.06124
186.916	4573.43229
187.139	3075.71872
187.362	-2118.45448
187.585	5393.98568
187.808	28496.86546
188.031	-36.01295
188.254	-4075.66037
188.476	801.66978
188.699	3391.629
188.922	-230.37917
189.145	-6987.40327
189.368	-328.03424
189.591	-745.81045
189.813	-3133.62602
190.036	970.63577
190.259	-8902.36189
190.482	1279.58999
190.705	3899.71576
190.927	-2026.51036
191.15	-6738.1342
191.373	6202.4333
191.595	-1201.85368
191.818	2034.04792
192.041	-594.7713
192.263	2014.62834
192.486	-2142.80484
192.709	-23205.21052
192.931	1761.24104
193.154	-3736.73031
193.377	-2435.90342
193.599	4309.9867
193.822	1817.03442
194.044	5320.82822
194.267	921.55632
194.489	-297.26488
194.712	2580.15299
194.934	8464.96858
195.157	-24481.33262
195.379	2439.51356
195.602	1713.29508
195.824	1415.87094
196.047	46109.74009
196.269	3259.65074
196.492	-1815.03261
196.714	-1277.17826
196.936	1802.08203
197.159	-11912.39834
197.381	-412.53281
197.604	-4346.39415
197.826	-16350.24323
198.048	9530.42573
198.271	-8380.28105
198.493	4100.57487
198.715	3729.21959
198.938	-718.4954
199.16	-18148.72741
199.382	1171.63811
199.604	-1687.06962
199.827	-3318.31556
200.049	2635.61602
200.271	-7445.98895
200.493	-48390.06606
200.715	3740.97861
200.938	-3036.92044
201.16	-2624.56266
201.382	-1662.73412
201.604	-3357.87024
201.826	3176.43725
202.048	3454.12324
202.27	-1188.70424
202.492	-3331.75014
202.715	-1386.30193
202.937	-17921.88412
203.159	2489.91149
203.381	2327.91101
203.603	-2878.69351
203.825	-967.28116
204.047	54304.86166
204.269	-1447.13594
204.491	-1231.12226
204.713	65088.43411
204.935	-3293.66825
205.156	-805.11001
205.378	-4459.11498
205.6	-1186.66879
205.822	2330.0303
206.044	-371.22284
206.266	6241.63017
206.488	822.18924
206.71	3439.72446
206.932	1753.84535
207.153	-1602.22551
207.375	-2639.79847
207.597	3742.59066
207.819	29299.82892
208.041	4135.37144
208.262	-1999.44143
208.484	-1033.57283
208.706	-1448.23671
208.927	3199.44772
209.149	5017.07891
209.371	-5171.67581
209.593	511.51175
209.814	-31471.17256
210.036	2278.16387
210.258	-714.94121
210.479	3903.37094
210.701	-3124.29841
210.922	-11365.40968
211.144	-932.41134
211.366	5062.44041
211.587	-2274.26711
211.809	-4524.32942
212.03	-842.6183
212.252	-557.71779
212.473	3959.48065
212.695	-712.54848
212.916	-918.55545
213.138	695.85359
213.359	-1402.47158
213.581	12269.73802
213.802	-2123.47191
214.024	-2355.91677
214.245	-6092.48705
214.466	-383.87245
214.688	-3029.87555
214.909	-19251.22269
215.131	-4353.28323
215.352	-2064.91683
215.573	11222.24488
215.795	1596.0665
216.016	6374.90266
216.237	-579.03258
216.459	6433.66578
216.68	-3259.2651
216.901	-2857.33041
217.122	-2056.5108
217.344	-7402.78269
217.565	-2978.59533
217.786	2243.72014
218.007	1649.30272
218.228	-532.46619
218.45	-4243.22867
218.671	1469.54916
218.892	3821.89771
219.113	1723.38828
219.334	195.36991
219.555	-7696.81655
219.776	11863.37564
219.997	3936.37383
220.219	1899.66587
220.44	1118.76496
220.661	1091.7494
220.882	-2717.38946
221.103	-1142.70829
221.324	2400.0241
221.545	3061.64343
221.766	-3535.71394
221.987	-576.29327
222.208	-10302.1474
222.429	175118.29066
222.65	-248.04799
222.87	-9870.54608
223.091	2416.59401
223.312	-1289.64019
223.533	2483.49834
223.754	2104.71302
223.975	2733.52138
224.196	-5949.71718
224.417	-2690.30684
224.637	7589.1953
224.858	1739.78526
225.079	1339.52123
225.3	1050.40134
225.521	4840.24416
225.741	903.25833
225.962	1200.24768
226.183	-412.2493
226.404	1468.23344
226.624	1127.88874
226.845	1722.67004
227.066	913.03877
227.286	578.11918
227.507	202.28891
227.728	192.2589
227.948	289.48939
228.169	94.67342
228.389	92.08122
228.61	45.8771
228.831	64.00175
229.051	7.34008
229.272	37.758
229.492	48.6961
229.713	16.75242
229.933	39.11239
230.154	33.15525
230.374	56.02473
230.595	39.95858
230.815	26.16744
231.036	36.11875
231.256	-2.30406
231.477	76.23048
231.697	44.31716
231.917	47.45922
232.138	67.20056
232.358	130.06956
232.579	121.27343
232.799	23.2617
233.019	111.59539
233.24	142.98892
233.46	47.65625
233.68	72.53876
233.901	50.89827
234.121	32.30207
234.341	10.54059
234.561	-7.14959
234.782	25.48599
235.002	79.52719
235.222	-1.18616
235.442	69.59987
235.662	34.63882
235.883	77.8429
236.103	63.80794
236.323	41.49928
236.543	34.2461
236.763	47.2724
236.983	46.13152
237.203	50.64619
237.423	72.81109
237.643	109.24632
237.864	91.70829
238.084	23.91986
238.304	38.60816
238.524	59.8098
238.744	46.49661
238.964	82.05702
239.184	71.45949
239.404	72.97518
239.624	38.48071
239.843	63.65131
240.063	39.41433
240.283	24.03551
240.503	27.59421
240.723	26.28837
240.943	13.68851
241.163	20.67322
241.383	16.09194
241.603	7.35466
241.822	9.34942
242.042	7.27325
242.262	8.41399
242.482	9.58561
242.702	11.16897
242.921	3.66167
243.141	8.11391
243.361	6.76494
243.581	9.21989
243.8	8.93567
244.02	5.97949
244.24	11.02131
244.459	11.43889
244.679	20.20975
244.899	14.09326
245.118	15.61165
245.338	12.26005
245.558	16.38128
245.777	9.17686
245.997	10.85384
246.216	10.95353
246.436	5.95074
246.655	4.48482
246.875	3.5011
247.094	6.98725
247.314	2.20449
247.533	3.50406
247.753	4.61772
247.972	3.93957
248.192	1.34155
248.411	2.25825
248.631	4.29353
248.85	5.2641
249.07	4.06832
249.289	6.66828
249.508	5.00736
249.728	8.1885
249.947	8.99613
250.166	9.32685
250.386	5.10231
250.605	7.94935
250.824	11.85138
251.044	7.72356
251.263	27.95661
251.482	14.49627
251.701	12.96581
251.921	-0.07782
252.14	4.62262
252.359	4.81403
252.578	11.26916
252.798	4.00462
253.017	10.14731
253.236	5.1375
253.455	6.20032
253.674	13.17091
253.893	5.87948
254.112	8.37922
254.331	13.17082
254.551	11.2946
254.77	4.81463
254.989	15.29611
255.208	14.28646
255.427	15.92695
255.646	15.28165
255.865	23.62426
256.084	9.48001
256.303	11.91683
256.522	15.66174
256.741	2.7673
256.96	4.49324
257.179	9.93777
257.397	12.44578
257.616	5.69751
257.835	6.36686
258.054	15.94973
258.273	10.07282
258.492	11.99719
258.711	7.40242
258.93	2.95865
259.148	4.09978
259.367	4.58848
259.586	6.16254
259.805	2.68912
260.023	5.27623
260.242	4.1181
260.461	2.99002
260.68	1.49259
260.898	4.75579
261.117	1.555
261.336	1.17736
261.554	4.23018
261.773	4.07735
261.992	0.75023
262.21	4.16361
262.429	5.02556
262.648	8.40431
262.866	9.24672
263.085	5.63958
263.303	5.17536
263.522	9.7587
263.74	10.11125
263.959	16.13676
264.178	8.52989
264.396	7.09878
264.615	5.42806
264.833	13.1515
265.051	11.01382
265.27	11.3582
265.488	11.87928
265.707	7.53544
265.925	12.2451
266.144	5.49509
266.362	6.96263
266.58	6.88626
266.799	5.58856
267.017	6.90475
267.235	6.03086
267.454	3.80241
267.672	2.08493
267.89	4.65898
268.109	5.45443
268.327	5.04316
268.545	1.04833
268.763	4.66246
268.982	1.92456
269.2	5.5095
269.418	3.58554
269.636	2.40688
269.854	5.03491
270.073	4.05497
270.291	1.86092
270.509	2.38313
270.727	4.90607
270.945	8.01152
271.163	7.87938
271.381	2.07884
271.599	3.25747
271.817	6.06497
272.036	2.37101
272.254	3.30189
272.472	2.77486
272.69	2.83272
272.908	2.58592
273.126	4.69668
273.344	5.8525
273.562	2.17978
273.779	2.7343
273.997	4.27789
274.215	5.26582
274.433	3.43977
274.651	5.00889
274.869	5.06048
275.087	2.94328
275.305	4.82917
275.523	2.63007
275.74	3.57081
275.958	6.18446
276.176	8.91306
276.394	2.78797
276.612	3.7026
276.829	3.93392
277.047	2.91879
277.265	3.63776
277.483	4.14012
277.7	4.82194
277.918	3.96122
278.136	7.04843
278.353	3.56911
278.571	1.81518
278.789	6.05975
279.006	1.39208
279.224	2.88213
279.442	5.75974
279.659	4.17225
279.877	2.62507
280.094	5.73204
280.312	1.27483
280.529	3.93787
280.747	0.97739
280.964	2.94541
281.182	6.36515
281.399	3.2641
281.617	4.57842
281.834	2.87758
282.052	2.92491
282.269	3.67672
282.487	2.9681
282.704	2.2297
282.921	2.78297
283.139	3.44341
283.356	4.72389
283.574	3.97809
283.791	2.15768
284.008	6.07584
284.226	3.1877
284.443	3.54009
284.66	4.74739
284.877	3.81468
285.095	2.43026
285.312	1.98153
285.529	1.21029
285.746	0.9273
285.964	2.23238
286.181	1.46815
286.398	2.22505
286.615	3.00954
286.832	2.98958
287.05	0.88928
287.267	1.93515
287.484	2.1761
287.701	3.2324
287.918	2.78181
288.135	3.21336
288.352	1.41374
288.569	1.67275
288.786	2.6733
289.003	2.03446
289.22	3.11479
289.437	1.83165
289.654	3.25913
289.871	3.40932
290.088	3.2108
290.305	2.61965
290.522	1.98255
290.739	2.50207
290.956	3.42177
291.173	4.35195
291.39	3.87701
291.607	2.64908
291.824	2.20917
292.04	1.31086
292.257	3.41407
292.474	3.6425
292.691	2.42474
292.908	1.14514
293.125	2.29107
293.341	1.27399
293.558	5.86061
293.775	2.48097
293.992	2.33871
294.208	0.85644
294.425	1.53966
294.642	2.10683
294.858	2.84651
295.075	0.91087
295.292	2.21694
295.508	2.96753
295.725	4.30609
295.942	2.44478
296.158	2.26342
296.375	3.11715
296.591	2.45985
296.808	2.95436
297.024	3.69143
297.241	3.67566
297.458	4.08055
297.674	1.78614
297.891	3.50024
298.107	3.71326
298.323	2.91124
298.54	5.17133
298.756	3.55852
298.973	2.78094
299.189	5.47904
299.406	3.94032
299.622	5.3623
299.838	5.549
300.055	5.05796
300.271	3.59812
300.487	3.57081
300.704	4.37838
300.92	3.55455
301.136	7.47827
301.353	5.96092
301.569	5.06151
301.785	5.45766
302.001	6.06709
302.218	5.76703
302.434	6.12431
302.65	4.28315
302.866	5.04733
303.083	8.02971
303.299	7.9917
303.515	5.99077
303.731	6.55424
303.947	4.74767
304.163	5.85373
304.379	6.41177
304.595	6.64447
304.812	5.6599
305.028	5.42333
305.244	5.73858
305.46	6.85458
305.676	7.48561
305.892	7.77756
306.108	7.21164
306.324	6.19378
306.54	8.68154
306.756	7.06783
306.972	6.71927
307.187	6.86287
307.403	7.73755
307.619	6.11806
307.835	7.50614
308.051	8.00281
308.267	5.8159
308.483	8.51966
308.699	7.49752
308.914	7.21461
309.13	7.0151
309.346	6.36379
309.562	6.51984
309.778	6.1724
309.993	8.01527
310.209	8.05145
310.425	6.54433
310.641	7.82196
310.856	7.17357
311.072	7.04925
311.288	7.59777
311.503	8.43287
311.719	6.27674
311.935	6.73592
312.15	8.93031
312.366	8.64876
312.581	8.49077
312.797	8.71929
313.013	8.83288
313.228	7.5985
313.444	7.4859
313.659	7.02253
313.875	8.06875
314.09	7.71715
314.306	8.76244
314.521	8.45692
314.737	8.23319
314.952	8.06452
315.168	8.15705
315.383	8.45477
315.599	7.18822
315.814	7.82895
316.029	8.19171
316.245	7.36153
316.46	5.87388
316.675	8.80404
316.891	9.81991
317.106	10.58248
317.321	8.00168
317.537	8.63137
317.752	9.10418
317.967	8.85578
318.183	7.19981
318.398	7.40544
318.613	9.00354
318.828	9.45187
319.043	8.63539
319.259	7.6546
319.474	8.17779
319.689	9.27338
319.904	5.9725
320.119	9.19368
320.334	7.88149
320.549	8.00568
320.765	9.53756
320.98	8.53124
321.195	8.30979
321.41	8.31224
321.625	8.69394
321.84	9.58257
322.055	9.31725
322.27	7.24186
322.485	6.51522
322.7	8.55432
322.915	9.25785
323.13	7.85215
323.345	10.14099
323.56	9.65756
323.775	9.13513
323.989	8.99848
324.204	8.6297
324.419	9.6067
324.634	7.30408
324.849	8.57286
325.064	10.93196
325.279	9.98967
325.493	9.22264
325.708	9.40353
325.923	7.96794
326.138	8.73696
326.352	10.10441
326.567	9.43715
326.782	8.40975
326.997	8.55334
327.211	9.29425
327.426	9.05862
327.641	8.50432
327.855	7.38392
328.07	9.53147
328.285	11.06546
328.499	8.00597
328.714	9.23399
328.928	8.95945
329.143	8.80815
329.358	10.03264
329.572	9.50982
329.787	10.67557
330.001	11.40659
330.216	6.78939
330.43	11.35868
330.645	9.96566
330.859	9.63197
331.074	7.70616
331.288	8.94573
331.503	10.87503
331.717	7.53544
331.931	8.94448
332.146	9.60001
332.36	11.05991
332.575	9.40797
332.789	8.88947
333.003	9.44634
333.218	9.84284
333.432	9.02894
333.646	10.03841
333.86	11.30095
334.075	10.98131
334.289	8.89189
334.503	7.82391
334.717	10.51361
334.932	9.48554
335.146	9.68824
335.36	8.12842
335.574	9.78533
335.788	8.80757
336.003	9.57279
336.217	9.73554
336.431	8.9413
336.645	8.34851
336.859	7.91098
337.073	9.12305
337.287	9.69699
337.501	8.30979
337.715	10.56425
337.929	10.23734
338.143	9.22326
338.357	9.51259
338.571	9.74573
338.785	10.89729
338.999	9.51668
339.213	9.36055
339.427	8.69932
339.641	10.77223
339.855	8.96497
340.069	8.57335
340.283	10.39205
340.497	11.10507
340.711	10.45119
340.924	9.81343
341.138	9.06161
341.352	8.27557
341.566	9.97175
341.78	8.59294
341.993	9.40704
342.207	9.20033
342.421	10.25006
342.635	9.8293
342.848	9.65511
343.062	7.3435
343.276	9.41022
343.49	11.61828
343.703	9.21791
343.917	10.84371
344.131	11.13637
344.344	9.23914
344.558	9.41012
344.771	8.46783
344.985	11.2056
345.199	11.85421
345.412	10.40332
345.626	10.62713
345.839	8.6445
346.053	9.08723
346.266	9.15428
346.48	10.62669
346.693	10.30594
346.907	10.56845
347.12	9.21288
347.334	9.92916
347.547	10.5225
347.76	10.09359
347.974	10.95603
348.187	10.2621
348.401	10.17425
348.614	8.8816
348.827	9.8824
349.041	10.20462
349.254	8.69859
349.467	9.73385
349.681	9.33145
349.894	9.09001
350.107	11.45376
350.32	12.0742
350.534	9.01432
350.747	9.77653
350.96	9.43486
351.173	9.50288
351.386	9.9955
351.6	9.53972
351.813	9.91187
352.026	9.98889
352.239	9.57784
352.452	9.60564
352.665	11.32395
352.878	9.77523
353.092	12.47813
353.305	10.86509
353.518	10.51296
353.731	9.2243
353.944	11.33535
354.157	9.90168
354.37	10.04059
354.583	8.91523
354.796	9.64795
355.009	11.12845
355.222	10.71358
355.435	10.71577
355.647	11.75633
355.86	10.07875
356.073	10.83861
356.286	9.97703
356.499	11.59189
356.712	11.65207
356.925	11.26715
357.138	11.55322
357.35	10.19277
357.563	10.27235
357.776	11.04373
357.989	10.96499
358.201	11.67554
358.414	11.1731
358.627	12.21543
358.84	10.88052
359.052	10.14752
359.265	10.25114
359.478	11.87432
359.69	8.91021
359.903	11.90432
360.116	12.08631
360.328	9.93482
360.541	11.76304
360.753	10.93145
360.966	11.01807
361.179	11.31722
361.391	11.1636
361.604	10.80156
361.816	10.88673
362.029	11.07122
362.241	10.80994
362.454	11.28256
362.666	10.63326
362.879	11.87924
363.091	11.13287
363.304	10.93055
363.516	11.01255
363.728	10.21405
363.941	11.7318
364.153	11.85781
364.366	9.87536
364.578	10.56262
364.79	11.8074
365.003	11.86515
365.215	11.00739
365.427	12.21282
365.639	12.17759
365.852	11.68666
366.064	12.65886
366.276	11.52206
366.488	11.8559
366.701	11.48818
366.913	11.19057
367.125	11.38351
367.337	10.95967
367.549	11.15988
367.762	11.16911
367.974	11.57378
368.186	11.40915
368.398	12.33354
368.61	11.65657
368.822	12.16634
369.034	11.21359
369.246	12.56217
369.458	13.56996
369.67	10.99208
369.882	12.91018
370.094	9.92992
370.306	12.47856
370.518	11.54525
370.73	11.39287
370.942	11.38856
371.154	11.52192
371.366	11.65257
371.578	12.25725
371.79	11.60203
372.002	12.77418
372.214	13.63148
372.425	11.65547
372.637	13.27193
372.849	12.16891
373.061	10.31521
373.273	12.2448
373.484	12.48436
373.696	12.60725
373.908	10.26505
374.12	12.4058
374.331	12.74051
374.543	11.14834
374.755	11.1776
374.967	11.94156
375.178	13.07701
375.39	11.60145
375.602	12.26315
375.813	10.88217
376.025	11.33442
376.236	12.17875
376.448	12.6609
376.66	12.23772
376.871	12.35063
377.083	12.74128
377.294	13.69109
377.506	12.04282
377.717	13.2915
377.929	12.42524
378.14	12.28341
378.352	12.76077
378.563	12.907
378.775	13.40536
378.986	11.60403
379.197	12.41461
379.409	11.79279
379.62	12.84529
379.832	12.98589
380.043	12.39555
380.254	12.74691
380.466	11.37563
380.677	14.73074
380.888	14.07274
381.1	14.681
381.311	14.75839
381.522	12.94255
381.733	14.66651
381.945	12.54577
382.156	12.26313
382.367	12.42075
382.578	14.85616
382.789	15.09752
383.001	11.99357
383.212	14.47954
383.423	14.49512
383.634	13.64911
383.845	13.532
384.056	12.60111
384.267	12.84828
384.478	13.01122
384.69	12.05225
384.901	13.43259
385.112	13.08903
385.323	14.64675
385.534	13.26191
385.745	13.53075
385.956	13.1261
386.167	12.38875
386.378	13.40966
386.588	12.72345
386.799	12.35588
387.01	11.89476
387.221	13.71718
387.432	13.45143
387.643	14.10966
387.854	12.78211
388.065	12.95308
388.275	12.91726
388.486	12.6863
388.697	13.57765
388.908	12.73178
389.119	13.96265
389.329	14.01798
389.54	13.0642
389.751	13.68024
389.962	14.15498
390.172	13.1283
390.383	13.09891
390.594	12.77411
390.804	12.6102
391.015	12.72085
391.226	13.47618
391.436	13.71349
391.647	13.59445
391.858	13.74639
392.068	12.13203
392.279	12.81365
392.489	13.88756
392.7	13.96669
392.91	13.11596
393.121	12.98176
393.331	13.77684
393.542	14.36757
393.752	14.20062
393.963	13.94889
394.173	14.00841
394.384	14.20774
394.594	13.47976
394.804	12.71812
395.015	13.57775
395.225	14.08898
395.436	12.98762
395.646	13.79633
395.856	13.35302
396.067	12.38742
396.277	14.49501
396.487	14.01996
396.697	14.1699
396.908	14.30855
397.118	13.87885
397.328	13.67875
397.538	14.0455
397.749	13.15228
397.959	14.33856
398.169	13.94374
398.379	12.64878
398.589	13.62599
398.8	14.07216
399.01	13.88335
399.22	13.35532
399.43	15.25309
399.64	13.66679
399.85	14.22691
400.06	13.80431
400.27	13.09944
400.48	13.47828
400.69	14.63241
400.9	13.51222
401.11	12.95243
401.32	14.20668
401.53	13.409
401.74	14.61626
401.95	14.106
402.16	13.81947
402.37	13.95463
402.58	13.50402
402.79	14.02425
403	14.32898
403.209	13.16764
403.419	14.73984
403.629	13.51428
403.839	14.64134
404.049	14.46522
404.258	13.58949
404.468	13.58113
404.678	14.50871
404.888	14.84549
405.097	13.87311
405.307	13.89676
405.517	14.35881
405.727	14.22485
405.936	13.5484
406.146	14.19226
406.356	14.81516
406.565	13.89932
406.775	13.6437
406.984	13.52631
407.194	15.40285
407.404	13.97583
407.613	14.40778
407.823	14.66834
408.032	15.08812
408.242	14.45333
408.451	13.63521
408.661	14.04424
408.87	15.31052
409.08	13.29506
409.289	14.28445
409.499	14.36088
409.708	14.03971
409.918	12.60083
410.127	14.52592
410.336	15.38791
410.546	14.8353
410.755	13.93435
410.964	13.70469
411.174	13.4551
411.383	14.60833
411.592	14.41059
411.802	13.68146
412.011	14.54359
412.22	13.96181
412.429	14.77891
412.639	15.38036
412.848	14.80368
413.057	15.54512
413.266	14.68888
413.475	14.28049
413.685	14.44652
413.894	14.99532
414.103	14.86909
414.312	14.6315
414.521	13.97062
414.73	14.55144
414.939	15.67987
415.148	14.72437
415.357	14.48393
415.566	14.44228
415.776	14.35987
415.985	14.24432
416.194	15.00908
416.403	16.04698
416.611	13.4567
416.82	14.24003
417.029	14.73248
417.238	14.19008
417.447	14.07167
417.656	14.57887
417.865	14.58334
418.074	15.35551
418.283	16.2959
418.492	17.84476
418.7	17.54162
418.909	19.63739
419.118	18.17972
419.327	19.03403
419.536	18.9003
419.744	19.28684
419.953	21.12619
420.162	21.56424
420.371	20.97915
420.579	22.2758
420.788	23.04604
420.997	23.4161
421.205	23.80252
421.414	23.42394
421.623	23.87102
421.831	23.19246
422.04	23.60433
422.249	22.28282
422.457	22.48225
422.666	21.41524
422.874	22.51695
423.083	22.70425
423.291	22.62193
423.5	22.98347
423.708	23.6422
423.917	24.1794
424.125	23.33598
424.334	23.60668
424.542	25.3502
424.751	24.65442
424.959	24.10207
425.167	24.09689
425.376	23.86742
425.584	21.71124
425.793	21.36653
426.001	19.87566
426.209	19.74312
426.418	18.00815
426.626	16.85337
426.834	16.36551
427.042	16.02404
427.251	15.37739
427.459	16.14976
427.667	15.53152
427.875	14.72276
428.084	14.96253
428.292	16.36477
428.5	15.76373
428.708	14.66782
428.916	14.78316
429.124	15.56194
429.333	15.30784
429.541	15.55022
429.749	15.51147
429.957	15.46352
430.165	17.04768
430.373	14.5861
430.581	15.43971
430.789	16.23138
430.997	15.26925
431.205	15.07432
431.413	15.78193
431.621	15.11982
431.829	15.93616
432.037	15.28279
432.245	15.80577
432.453	15.88419
432.661	15.91325
432.869	17.43968
433.076	16.20765
433.284	16.9492
433.492	18.03996
433.7	18.13245
433.908	17.20668
434.116	17.50614
434.323	17.02883
434.531	16.99835
434.739	16.75983
434.947	16.28676
435.154	16.44363
435.362	15.74385
435.57	15.63485
435.778	15.35928
435.985	15.83865
436.193	15.54417
436.401	16.58929
436.608	15.73996
436.816	15.40484
437.023	16.82112
437.231	17.01142
437.439	15.95339
437.646	16.40454
437.854	16.25194
438.061	16.54759
438.269	16.41147
438.476	16.8197
438.684	16.7849
438.891	17.5709
439.099	17.68263
439.306	17.51844
439.514	17.6344
439.721	19.83035
439.929	19.54027
440.136	20.71458
440.343	20.88142
440.551	20.74954
440.758	22.73664
440.965	21.00937
441.173	20.81562
441.38	20.55521
441.587	19.82733
441.795	19.43766
442.002	18.60595
442.209	18.07649
442.416	17.60072
442.624	17.27881
442.831	16.84807
443.038	15.9885
443.245	15.69313
443.452	15.97886
443.66	16.56624
443.867	16.28379
444.074	16.19531
444.281	16.83437
444.488	17.28796
444.695	18.05826
444.902	18.7568
445.109	20.65099
445.316	20.64552
445.523	21.61976
445.73	21.77435
445.937	22.91775
446.144	23.96605
446.351	24.84116
446.558	23.01142
446.765	25.78741
446.972	24.49716
447.179	24.08259
447.386	24.33442
447.593	22.02449
447.8	23.22561
448.007	21.0074
448.214	19.64883
448.42	18.86523
448.627	19.17001
448.834	17.92441
449.041	17.30253
449.248	16.61418
449.454	16.67246
449.661	17.33756
449.868	16.04804
450.075	15.7791
450.281	15.32123
450.488	15.70855
450.695	15.56288
450.901	15.8575
451.108	15.84154
451.315	17.00932
451.521	15.91745
451.728	16.97838
451.935	15.80445
452.141	16.15443
452.348	16.10874
452.554	16.20855
452.761	16.09346
452.967	17.39637
453.174	16.36889
453.38	16.33744
453.587	15.58852
453.793	16.4137
454	16.56627
454.206	17.39581
454.413	16.60612
454.619	16.56104
454.825	15.90026
455.032	16.59978
455.238	16.77954
455.445	15.56946
455.651	16.41198
455.857	15.16237
456.064	16.11837
456.27	16.13602
456.476	15.91185
456.682	15.50497
456.889	16.20422
457.095	16.579
457.301	17.42874
457.507	16.44048
457.714	16.26861
457.92	16.31817
458.126	15.94844
458.332	16.53506
458.538	17.04765
458.744	18.12942
458.951	19.22978
459.157	22.18151
459.363	22.00849
459.569	22.5419
459.775	23.15401
459.981	23.55146
460.187	24.12607
460.393	23.84797
460.599	23.5597
460.805	22.17714
461.011	20.40329
461.217	19.62805
461.423	17.97728
461.629	16.87693
461.835	16.99084
462.041	16.52294
462.247	17.5818
462.453	16.36813
462.658	16.38341
462.864	17.1628
463.07	16.82664
463.276	16.64154
463.482	16.72423
463.688	17.74079
463.893	16.18315
464.099	16.44028
464.305	17.49274
464.511	16.14891
464.716	16.5516
464.922	17.24106
465.128	15.96608
465.333	17.53329
465.539	17.17012
465.745	16.7861
465.95	16.84537
466.156	18.49712
466.362	17.49039
466.567	16.53002
466.773	16.51854
466.978	17.55905
467.184	16.07573
467.389	15.7521
467.595	16.91727
467.8	16.40174
468.006	17.56942
468.211	17.62026
468.417	16.08345
468.622	17.20823
468.828	16.95568
469.033	16.91057
469.239	18.68409
469.444	16.35892
469.649	17.25412
469.855	16.67276
470.06	16.93336
470.266	16.23093
470.471	17.14749
470.676	17.02068
470.881	15.54168
471.087	17.8467
471.292	18.01482
471.497	16.11877
471.703	16.72114
471.908	16.62626
472.113	16.98923
472.318	17.6523
472.523	16.3373
472.729	17.26905
472.934	17.27637
473.139	16.81979
473.344	17.34368
473.549	17.96148
473.754	16.65226
473.959	18.51625
474.164	16.86953
474.369	17.05704
474.575	17.41205
474.78	17.10836
474.985	16.7262
475.19	15.92005
475.395	16.84738
475.6	17.00726
475.804	17.96584
476.009	17.30284
476.214	16.94642
476.419	16.86864
476.624	16.30355
476.829	16.75585
477.034	17.58119
477.239	17.03459
477.444	17.18595
477.648	17.66134
477.853	17.51144
478.058	16.91465
478.263	16.93834
478.468	16.84328
478.672	16.7117
478.877	18.06003
479.082	18.39582
479.287	17.55432
479.491	17.33446
479.696	16.69689
479.901	17.7274
480.105	17.82255
480.31	16.88982
480.515	17.54355
480.719	18.95981
480.924	17.73347
481.128	18.08562
481.333	19.47226
481.538	20.19396
481.742	21.33687
481.947	23.3755
482.151	25.60014
482.356	27.72592
482.56	32.42279
482.765	36.55224
482.969	43.37868
483.174	48.4919
483.378	55.1677
483.582	57.65287
483.787	60.72962
483.991	61.63441
484.196	62.05407
484.4	60.54134
484.604	59.98366
484.809	54.82115
485.013	50.64107
485.217	45.36194
485.422	40.32589
485.626	36.82892
485.83	34.82001
486.034	34.07853
486.239	35.04173
486.443	36.41946
486.647	37.86133
486.851	40.30405
487.055	43.34046
487.26	43.68739
487.464	45.71213
487.668	45.18697
487.872	46.04708
488.076	45.87858
488.28	43.62996
488.484	40.77871
488.688	39.30462
488.892	36.77442
489.096	34.00066
489.3	31.54525
489.504	29.33053
489.708	27.817
489.912	27.46174
490.116	27.05868
490.32	27.07379
490.524	29.69147
490.728	31.82658
490.932	33.84438
491.136	36.3859
491.34	38.02675
491.544	38.84733
491.748	38.65724
491.951	38.43351
492.155	37.39686
492.359	36.01405
492.563	32.63045
492.767	30.255
492.97	27.05006
493.174	23.92286
493.378	21.98468
493.582	19.77788
493.785	18.79
493.989	18.324
494.193	17.44672
494.396	16.45688
494.6	16.86366
494.804	16.21906
495.007	16.09882
495.211	16.70594
495.414	16.79531
495.618	17.79529
495.822	18.57569
496.025	18.32216
496.229	19.23605
496.432	19.13099
496.636	19.57772
496.839	19.76555
497.043	20.75658
497.246	20.08564
497.45	19.80381
497.653	20.13916
497.856	19.36405
498.06	19.0031
498.263	18.412
498.467	18.15317
498.67	18.66359
498.873	17.99844
499.077	17.45588
499.28	17.71479
499.483	17.94356
499.686	18.04836
499.89	17.50055
500.093	18.11226
500.296	16.96231
500.499	18.44992
500.703	17.56879
500.906	17.76997
501.109	18.35803
501.312	17.79088
501.515	17.33759
501.719	18.00092
501.922	18.22593
502.125	17.59367
502.328	17.74552
502.531	17.32496
502.734	17.55243
502.937	16.84114
503.14	17.65002
503.343	17.43125
503.546	17.30112
503.749	17.25049
503.952	17.9466
504.155	17.09086
504.358	18.01099
504.561	17.80692
504.764	16.96041
504.967	17.7636
505.17	17.61435
505.373	18.56375
505.576	17.424
505.778	18.07543
505.981	17.12838
506.184	18.44024
506.387	16.72276
506.59	18.75243
506.793	18.3808
506.995	17.97404
507.198	16.47302
507.401	18.0276
507.604	17.96638
507.806	17.03348
508.009	17.25879
508.212	18.03303
508.414	17.30739
508.617	17.30302
508.82	17.74777
509.022	18.58376
509.225	17.88193
509.427	16.88977
509.63	18.30591
509.833	17.58513
510.035	17.45229
510.238	16.82164
510.44	18.48253
510.643	16.72562
510.845	18.76113
511.048	17.94828
511.25	17.18493
511.453	17.5716
511.655	17.95742
511.858	17.73221
512.06	18.0661
512.262	17.78769
512.465	18.41891
512.667	17.79119
512.869	17.08918
513.072	18.01051
513.274	18.14857
513.476	18.28445
513.679	18.3277
513.881	17.09398
514.083	18.96223
514.286	17.46461
514.488	17.36069
514.69	17.26554
514.892	16.98436
515.094	18.49783
515.297	17.47034
515.499	17.84284
515.701	17.37394
515.903	19.02664
516.105	18.97219
516.307	18.32039
516.509	16.69383
516.711	17.2642
516.913	17.76327
517.116	17.76068
517.318	17.63245
517.52	18.97766
517.722	19.42002
517.924	19.27966
518.126	20.92863
518.328	20.85096
518.529	21.70887
518.731	22.38952
518.933	20.84513
519.135	20.85753
519.337	21.39372
519.539	20.07044
519.741	18.14686
519.943	17.78797
520.145	17.38433
520.346	18.26096
520.548	17.57422
520.75	17.96219
520.952	17.73945
521.153	18.14456
521.355	18.17276
521.557	17.15812
521.759	17.83773
521.96	17.77663
522.162	17.13007
522.364	18.48653
522.565	17.38225
522.767	18.18558
522.969	18.66965
523.17	18.12629
523.372	17.93624
523.573	17.67062
523.775	17.81697
523.977	17.25068
524.178	18.77065
524.38	17.48019
524.581	18.66042
524.783	18.89085
524.984	20.76076
525.186	21.10461
525.387	22.35319
525.589	22.67826
525.79	22.68088
525.991	23.1093
526.193	23.80413
526.394	23.26592
526.596	24.22983
526.797	24.9799
526.998	25.09786
527.2	26.82357
527.401	30.59364
527.602	33.52524
527.803	38.72043
528.005	41.54721
528.206	44.57401
528.407	46.76829
528.608	47.17689
528.81	47.6547
529.011	46.37511
529.212	46.74156
529.413	43.73232
529.614	40.20082
529.815	37.12202
530.017	33.60237
530.218	29.77927
530.419	26.91123
530.62	25.65326
530.821	24.52472
531.022	22.14757
531.223	23.47563
531.424	22.84493
531.625	23.50694
531.826	23.48514
532.027	24.97175
532.228	27.22152
532.429	28.23242
532.63	29.61362
532.831	31.63806
533.032	31.75258
533.233	33.2311
533.433	32.33187
533.634	32.77542
533.835	31.08048
534.036	29.62719
534.237	28.08438
534.438	26.24524
534.638	23.13055
534.839	22.04419
535.04	21.3925
535.241	20.30545
535.441	21.91422
535.642	21.6397
535.843	21.33522
536.043	21.94547
536.244	22.48681
536.445	23.03632
536.645	24.10084
536.846	23.67349
537.047	23.79109
537.247	21.9488
537.448	21.16468
537.648	20.71669
537.849	19.16573
538.049	18.43
538.25	18.45688
538.451	18.28904
538.651	17.39114
538.851	18.16011
539.052	18.89722
539.252	18.64568
539.453	18.06551
539.653	18.64983
539.854	19.77467
540.054	22.14381
540.254	25.28558
540.455	28.23549
540.655	29.40247
540.855	32.67443
541.056	34.63159
541.256	34.66255
541.456	35.98251
541.657	35.47046
541.857	35.96733
542.057	33.70621
542.257	32.10259
542.458	31.50813
542.658	29.20262
542.858	26.37019
543.058	25.89461
543.258	24.56649
543.458	22.01711
543.659	21.30908
543.859	21.76777
544.059	21.13715
544.259	19.64324
544.459	19.62994
544.659	18.20354
544.859	18.35215
545.059	17.65158
545.259	18.50625
545.459	17.98422
545.659	18.97422
545.859	18.62917
546.059	19.01185
546.259	18.63526
546.459	18.59716
546.659	18.54862
546.859	19.25142
547.059	18.8589
547.258	18.49447
547.458	18.42281
547.658	17.49268
547.858	17.34624
548.058	18.19837
548.258	17.87584
548.457	17.45154
548.657	19.60541
548.857	17.66438
549.057	18.58698
549.256	18.69558
549.456	17.8074
549.656	16.62638
549.855	19.33612
550.055	17.78922
550.255	19.44102
550.454	18.1851
550.654	18.54493
550.853	19.11567
551.053	18.75666
551.253	18.44695
551.452	18.30762
551.652	17.36557
551.851	17.18476
552.051	17.97297
552.25	17.85435
552.45	17.68197
552.649	17.65976
552.849	17.58111
553.048	17.9589
553.248	18.34452
553.447	17.42383
553.646	18.48503
553.846	19.40409
554.045	18.65449
554.244	17.15842
554.444	19.34092
554.643	17.41612
554.842	19.38201
555.042	19.64123
555.241	17.89925
555.44	17.49887
555.64	18.84922
555.839	19.68274
556.038	18.57963
556.237	17.36094
556.436	18.56662
556.636	18.86867
556.835	17.76483
557.034	19.73418
557.233	18.15082
557.432	16.89522
557.631	19.17653
557.83	18.11958
558.029	17.91302
558.228	17.08063
558.427	17.50231
558.626	18.47254
558.825	17.38364
559.024	18.17694
559.223	19.60727
559.422	17.67313
559.621	18.54337
559.82	16.09628
560.019	18.11592
560.218	17.7358
560.417	15.9332
560.616	17.648
560.815	20.89013
561.014	17.00976
561.212	19.43174
561.411	18.35018
561.61	16.76743
561.809	17.7044
562.008	19.38925
562.206	17.86793
562.405	18.43626
562.604	17.6967
562.803	18.29841
563.001	17.66983
563.2	17.1176
563.399	18.42026
563.597	17.24018
563.796	17.97389
563.995	17.07816
564.193	18.57154
564.392	17.69788
564.59	19.68917
564.789	16.62241
564.988	17.37367
565.186	18.2756
565.385	18.09033
565.583	17.58148
565.782	18.00783
565.98	17.98066
566.179	17.89047
566.377	17.2651
566.575	17.72924
566.774	19.11017
566.972	18.77016
567.171	19.35561
567.369	18.78323
567.567	18.07773
567.766	18.54226
567.964	16.4602
568.162	18.42597
568.361	19.02181
568.559	18.0003
568.757	18.67234
568.956	17.98795
569.154	18.12225
569.352	18.64242
569.55	17.97807
569.748	17.83487
569.947	17.29909
570.145	17.42053
570.343	17.36316
570.541	18.92267
570.739	16.8265
570.937	18.19819
571.135	18.27489
571.333	19.48559
571.532	19.49573
571.73	18.40548
571.928	19.00121
572.126	18.24131
572.324	17.46897
572.522	19.17119
572.72	20.22163
572.918	18.15801
573.116	18.61538
573.313	17.94194
573.511	18.10434
573.709	17.59139
573.907	18.97371
574.105	17.91812
574.303	16.82405
574.501	16.93883
574.699	18.25545
574.896	18.67904
575.094	18.46145
575.292	16.82356
575.49	18.71878
575.688	17.82638
575.885	18.91229
576.083	19.6945
576.281	18.58649
576.478	17.12667
576.676	18.5549
576.874	16.92163
577.071	17.70747
577.269	19.92562
577.467	18.02626
577.664	17.85272
577.862	19.1718
578.059	17.51209
578.257	18.89297
578.455	17.67066
578.652	18.27287
578.85	16.02995
579.047	18.23646
579.245	17.66528
579.442	17.86413
579.64	18.33699
579.837	16.45758
580.034	20.7809
580.232	17.84624
580.429	16.81122
580.627	18.35761
580.824	19.48138
581.021	18.64434
581.219	17.86898
581.416	17.42366
581.613	19.36297
581.811	19.52018
582.008	17.25644
582.205	18.8566
582.402	18.44886
582.6	19.97455
582.797	18.27777
582.994	18.18497
583.191	19.10554
583.388	17.60995
583.586	19.00194
583.783	18.9631
583.98	17.56378
584.177	18.23404
584.374	15.43173
584.571	17.6375
584.768	17.90772
584.965	17.03939
585.162	18.74293
585.359	19.87356
585.556	17.85317
585.753	18.5261
585.95	17.10281
586.147	17.49073
586.344	19.12896
586.541	17.42501
586.738	16.30365
586.935	17.99475
587.132	17.36132
587.329	19.03216
587.526	18.01122
587.722	23.16732
587.919	16.48132
588.116	18.68463
588.313	19.38976
588.51	20.15132
588.706	17.92677
588.903	18.74459
589.1	19.14411
589.297	20.76694
589.493	18.34006
589.69	18.75512
589.887	17.35714
590.083	17.30308
590.28	17.42696
590.477	18.79226
590.673	19.13209
590.87	19.89366
591.067	17.93025
591.263	18.60729
591.46	18.1239
591.656	17.52413
591.853	19.19666
592.049	17.19786
592.246	17.57173
592.442	19.23011
592.639	19.3573
592.835	17.16253
593.032	18.73538
593.228	17.00378
593.425	16.60596
593.621	16.44439
593.817	18.4841
594.014	17.59924
594.21	18.55106
594.406	19.04985
594.603	18.68932
594.799	17.53267
594.995	15.78485
595.192	19.32437
595.388	17.77082
595.584	18.02921
595.78	16.94681
595.977	20.32154
596.173	20.1013
596.369	17.94361
596.565	17.35941
596.761	16.8277
596.957	19.52044
597.154	17.74316
597.35	17.7306
597.546	17.64073
597.742	18.86728
597.938	18.25757
598.134	17.22525
598.33	18.45713
598.526	19.26458
598.722	17.92028
598.918	19.99495
599.114	18.4182
599.31	16.91043
599.506	17.79557
599.702	17.24841
599.898	18.11443
600.094	18.94816
600.29	19.06894
600.485	19.35947
600.681	17.77973
600.877	20.67077
601.073	18.05835
601.269	20.25285
601.465	19.76084
601.66	17.25579
601.856	16.3709
602.052	19.78919
602.248	18.17082
602.443	16.79096
602.639	17.30724
602.835	17.5392
603.03	17.07516
603.226	19.2415
603.422	17.08102
603.617	17.98895
603.813	17.78679
604.009	17.91881
604.204	19.37315
604.4	16.81732
604.595	19.18446
604.791	17.20591
604.986	18.49597
605.182	17.47376
605.377	18.13435
605.573	17.78313
605.768	18.47194
605.964	18.84344
606.159	18.80573
606.355	19.29193
606.55	17.47111
606.746	19.815
606.941	17.94756
607.136	20.70047
607.332	21.62348
607.527	16.64084
607.722	18.26416
607.918	17.92397
608.113	17.46943
608.308	19.15846
608.503	18.88401
608.699	18.8507
608.894	19.15447
609.089	17.50556
609.284	18.45172
609.479	17.83399
609.675	19.37916
609.87	17.92355
610.065	19.01698
610.26	19.27193
610.455	18.90348
610.65	18.18035
610.845	18.30695
611.04	19.30334
611.235	18.01351
611.43	17.8051
611.625	16.72541
611.82	19.9121
612.015	17.68274
612.21	19.95433
612.405	16.58869
612.6	20.2608
612.795	19.62242
612.99	18.71317
613.185	17.27116
613.38	17.23395
613.575	18.51726
613.77	21.68064
613.965	16.12204
614.159	17.29493
614.354	20.37016
614.549	19.3826
614.744	19.60416
614.938	16.99625
615.133	16.48433
615.328	19.87156
615.523	18.45418
615.717	22.58165
615.912	16.96327
616.107	18.29955
616.301	17.72353
616.496	17.5199
616.691	20.26093
616.885	19.48547
617.08	22.4487
617.274	19.23673
617.469	20.92861
617.664	19.48391
617.858	17.4282
618.053	19.20789
618.247	18.21499
618.442	15.46639
618.636	20.40196
618.831	17.46445
619.025	17.72978
619.219	21.80604
619.414	14.53407
619.608	17.89456
619.803	17.84804
619.997	21.34135
620.191	19.74187
620.386	18.72689
620.58	18.33351
620.774	15.75548
620.969	16.29415
621.163	18.21124
621.357	16.73768
621.551	17.58235
621.746	18.52282
621.94	17.83428
622.134	22.91748
622.328	20.65903
622.522	16.02586
622.716	19.13372
622.911	20.0126
623.105	19.72067
623.299	19.08804
623.493	22.85142
623.687	17.28173
623.881	17.76768
624.075	19.01509
624.269	20.40179
624.463	15.65573
624.657	15.87553
624.851	19.22561
625.045	19.96493
625.239	19.93736
625.433	18.2861
625.627	20.27268
625.821	18.04325
626.015	17.68134
626.209	18.93405
626.403	16.62885
626.596	19.31649
626.79	19.71801
626.984	16.92841
627.178	19.30687
627.372	19.50869
627.565	19.91835
627.759	16.51769
627.953	17.02645
628.147	19.07275
628.34	19.27561
628.534	21.6087
628.728	18.2839
628.921	19.91709
629.115	18.76869
629.309	19.81424
629.502	20.05563
629.696	18.51179
629.89	18.48555
630.083	18.81863
630.277	19.06263
630.47	21.38234
630.664	18.27691
630.857	16.65213
631.051	19.3778
631.244	19.89186
631.438	19.6335
631.631	17.53816
631.825	20.9763
632.018	19.64524
632.212	22.13827
632.405	21.13982
632.598	17.56902
632.792	18.57413
632.985	15.23494
633.178	18.83751
633.372	18.21283
633.565	18.78242
633.758	21.03533
633.952	16.94676
634.145	17.12906
634.338	18.58894
634.531	17.88963
634.724	17.71982
634.918	18.56746
635.111	18.39346
635.304	18.19448
635.497	22.46065
635.69	19.01411
635.883	20.69035
636.077	17.74558
636.27	19.45388
636.463	18.97339
636.656	18.791
636.849	18.17304
637.042	19.75658
637.235	20.64848
637.428	20.27825
637.621	20.45831
637.814	20.84862
638.007	21.53767
638.2	21.0564
638.393	22.06697
638.586	16.38632
638.778	18.18889
638.971	18.60205
639.164	21.82888
639.357	19.02131
639.55	21.65042
639.743	20.35352
639.935	19.87538
640.128	22.16458
640.321	20.13902
640.514	19.10988
640.707	23.03213
640.899	20.15687
641.092	15.75815
641.285	31.93302
641.477	15.06975
641.67	23.14246
641.863	21.67199
642.055	19.33711
642.248	18.42788
642.441	17.95674
642.633	20.61089
642.826	20.51838
643.018	21.58063
643.211	22.87735
643.403	22.07926
643.596	23.54661
643.788	22.82442
643.981	19.47273
644.173	21.7105
644.366	19.02184
644.558	14.91236
644.751	21.44166
644.943	16.36264
645.135	21.18615
645.328	23.0105
645.52	19.89666
645.712	21.28913
645.905	25.54641
646.097	17.37844
646.289	18.83752
646.482	24.07922
646.674	18.24774
646.866	21.89926
647.058	20.39903
647.251	16.48362
647.443	18.23434
647.635	19.30032
647.827	16.91676
648.019	18.16081
648.211	19.21301
648.404	19.58007
648.596	22.77386
648.788	19.68301
648.98	19.63195
649.172	20.13075
649.364	19.67347
649.556	15.75314
649.748	25.76224
649.94	17.42259
650.132	20.43077
650.324	17.53065
650.516	18.81521
650.708	22.15158
650.9	16.40516
651.092	18.24285
651.284	16.94485
651.476	17.08877
651.667	20.54661
651.859	21.91844
652.051	19.45008
652.243	19.54201
652.435	18.54296
652.627	21.16795
652.818	20.23104
653.01	16.43503
653.202	17.32522
653.394	17.54266
653.585	20.54459
653.777	29.33629
653.969	22.24755
654.16	22.08033
654.352	17.27979
654.544	18.46627
654.735	21.51171
654.927	20.42284
655.118	23.02504
655.31	20.4969
655.502	22.82355
655.693	19.23502
655.885	21.24122
656.076	22.51141
656.268	20.05873
656.459	23.28876
656.651	22.52643
656.842	19.45332
657.034	18.27093
657.225	21.8073
657.416	22.67541
657.608	23.16545
657.799	20.23572
657.99	22.65851
658.182	19.66743
658.373	18.8948
658.564	22.1116
658.756	20.65523
658.947	20.20833
659.138	18.19563
659.33	19.26601
659.521	18.85007
659.712	19.93536
659.903	19.41131
660.094	18.98178
660.286	17.13354
660.477	23.36175
660.668	21.29123
660.859	20.01248
661.05	16.99556
661.241	21.83367
661.432	20.40165
661.623	18.75899
661.814	19.11525
662.006	16.99196
662.197	20.3537
662.388	23.14699
662.579	21.00451
662.77	25.7697
662.96	26.41029
663.151	21.47582
663.342	16.17882
663.533	21.65141
663.724	20.48879
663.915	24.31087
664.106	19.78443
664.297	24.66288
664.488	22.06548
664.678	18.4277
664.869	22.44015
665.06	21.79269
665.251	21.17445
665.442	20.91769
665.632	17.65838
665.823	24.47297
666.014	13.06674
666.204	22.64882
666.395	23.57061
666.586	26.79597
666.776	22.14274
666.967	24.93341
667.158	21.27404
667.348	23.76256
667.539	18.23982
667.729	22.68333
667.92	19.05401
668.111	23.43601
668.301	21.97651
668.492	20.12815
668.682	21.10045
668.873	20.60716
669.063	17.56248
669.253	21.44399
669.444	22.31949
669.634	20.81806
669.825	25.83935
670.015	23.51056
670.206	18.44131
670.396	25.60119
670.586	20.21785
670.777	21.38721
670.967	15.62357
671.157	19.48096
671.347	18.28164
671.538	24.80522
671.728	22.47549
671.918	26.02933
672.108	23.52264
672.299	19.97964
672.489	21.80824
672.679	19.23123
672.869	21.33592
673.059	26.3903
673.249	21.7855
673.44	18.12015
673.63	20.09246
673.82	24.25662
674.01	19.13204
674.2	21.98284
674.39	29.1085
674.58	23.00765
674.77	20.60996
674.96	19.53971
675.15	32.38979
675.34	24.90797
675.53	21.35528
675.72	20.70611
675.91	17.06249
676.099	26.88846
676.289	27.43082
676.479	24.10047
676.669	20.92047
676.859	22.25099
677.049	19.02646
677.238	21.84747
677.428	26.15576
677.618	22.69714
677.808	24.82827
677.997	23.95728
678.187	18.98236
678.377	21.87138
678.567	20.17395
678.756	19.85002
678.946	21.52346
679.136	17.67337
679.325	19.12086
679.515	18.72192
679.704	18.63886
679.894	23.23224
680.084	22.03532
680.273	24.47222
680.463	20.60337
680.652	19.27735
680.842	21.4946
681.031	23.91175
681.221	19.4371
681.41	23.99114
681.6	21.26201
681.789	23.81526
681.978	25.28981
682.168	22.30913
682.357	21.59686
682.547	23.17795
682.736	21.99548
682.925	24.79577
683.115	24.01922
683.304	24.36143
683.493	22.40653
683.682	22.79088
683.872	24.44115
684.061	26.04642
684.25	23.79436
684.439	26.99859
684.629	24.65587
684.818	33.23924
685.007	22.55153
685.196	21.74773
685.385	26.96689
685.574	23.17528
685.763	24.20088
685.952	24.55802
686.142	19.88358
686.331	26.99743
686.52	16.74889
686.709	27.44549
686.898	27.41117
687.087	24.5466
687.276	27.92617
687.465	26.00949
687.654	21.97752
687.842	27.96133
688.031	19.87447
688.22	27.19183
688.409	23.96152
688.598	23.58492
688.787	31.47573
688.976	24.24072
689.165	29.0635
689.353	21.99595
689.542	24.36667
689.731	25.60443
689.92	29.5004
690.108	26.38474
690.297	21.09925
690.486	22.80028
690.675	26.1387
690.863	29.53522
691.052	29.33247
691.241	24.49368
691.429	24.60599
691.618	29.78077
691.806	20.43695
691.995	22.50502
692.184	23.37939
692.372	22.08414
692.561	25.5018
692.749	23.04921
692.938	32.91144
693.126	26.54447
693.315	24.32199
693.503	25.93397
693.692	25.94092
693.88	27.0079
694.068	32.08339
694.257	24.74997
694.445	25.67184
694.634	16.21891
694.822	28.23368
695.01	28.60811
695.199	29.26932
695.387	29.15705
695.575	28.79334
695.763	24.29134
695.952	22.08369
696.14	20.55895
696.328	22.93114
696.516	24.89542
696.705	26.11912
696.893	26.12218
697.081	18.56973
697.269	27.04822
697.457	21.2364
697.645	21.2037
697.833	27.25529
698.021	21.86788
698.21	23.1013
698.398	23.72925
698.586	21.4019
698.774	21.39445
698.962	23.54158
699.15	21.6334
699.338	19.44636
699.526	24.95757
699.714	22.72453
699.901	21.94534
700.089	27.32551
700.277	22.1183
700.465	23.82959
700.653	27.12609
700.841	25.28339
701.029	21.65856
701.217	29.34249
701.404	24.59957
701.592	30.32236
701.78	31.69021
701.968	23.50323
702.155	23.9385
702.343	19.36013
702.531	30.10911
702.718	25.43955
702.906	24.24751
703.094	22.14901
703.281	30.02414
703.469	25.55792
703.657	29.29178
703.844	37.44478
704.032	31.44136
704.219	23.59507
704.407	26.51036
704.595	29.96287
704.782	24.67216
704.97	24.23546
705.157	23.40667
705.345	30.1129
705.532	35.76836
705.719	26.9342
705.907	31.22314
706.094	25.86277
706.282	32.38746
706.469	24.00902
706.656	26.49546
706.844	25.05755
707.031	30.55079
707.218	27.0543
707.406	33.01229
707.593	30.35521
707.78	28.76171
707.968	26.49933
708.155	23.80882
708.342	29.18564
708.529	27.03821
708.716	28.13911
708.904	33.38753
709.091	30.5938
709.278	22.98659
709.465	35.46723
709.652	34.68002
709.839	32.44197
710.026	28.00096
710.213	21.06762
710.4	29.09081
710.587	31.70112
710.774	31.63593
710.961	30.99185
711.148	27.06905
711.335	32.09291
711.522	25.97457
711.709	29.00416
711.896	37.27992
712.083	30.24275
712.27	24.67652
712.457	28.74655
712.644	22.39407
712.831	36.61845
713.017	28.08312
713.204	30.93584
713.391	25.6479
713.578	33.45812
713.765	34.24797
713.951	30.22713
714.138	42.52003
714.325	31.63586
714.512	29.65755
714.698	24.95712
714.885	36.0821
715.072	29.50817
715.258	29.57409
715.445	25.54614
715.631	35.51095
715.818	17.49954
716.005	26.2532
716.191	31.42292
716.378	26.66235
716.564	33.1976
716.751	24.4526
716.937	26.39241
717.124	34.68091
717.31	24.16181
717.497	35.98413
717.683	25.75511
717.869	39.06098
718.056	26.91736
718.242	31.36241
718.429	28.48423
718.615	24.2803
718.801	29.37733
718.988	33.60824
719.174	31.8442
719.36	29.89692
719.547	33.57969
719.733	32.20914
719.919	32.5482
720.105	33.2359
720.291	28.3288
720.478	29.30508
720.664	31.34296
720.85	27.65196
721.036	43.95423
721.222	38.60003
721.408	30.7158
721.595	40.41691
721.781	39.48646
721.967	35.88064
722.153	39.85634
722.339	33.71899
722.525	31.24732
722.711	26.2331
722.897	23.89718
723.083	27.76035
723.269	36.82707
723.455	44.8218
723.641	45.9427
723.827	32.2929
724.012	33.09638
724.198	28.53577
724.384	37.02173
724.57	33.83095
724.756	23.75166
724.942	20.53706
725.127	35.24326
725.313	38.61427
725.499	37.91071
725.685	41.86957
725.87	33.46056
726.056	25.97662
726.242	41.14826
726.428	22.82679
726.613	35.81725
726.799	29.22297
726.985	24.70981
727.17	22.77619
727.356	41.26375
727.541	25.78628
727.727	31.67051
727.913	36.01545
728.098	28.06706
728.284	36.94174
728.469	24.58902
728.655	26.83261
728.84	35.45688
729.026	37.76283
729.211	35.50622
729.397	34.26107
729.582	34.63321
729.767	31.60915
729.953	33.76842
730.138	36.58468
730.323	19.82901
730.509	26.57555
730.694	39.56203
730.879	35.11026
731.065	32.50253
731.25	45.67817
731.435	36.32514
731.621	23.62071
731.806	29.4583
731.991	32.58187
732.176	23.20078
732.361	39.4741
732.547	34.94925
732.732	23.63664
732.917	45.35262
733.102	25.33553
733.287	27.05789
733.472	31.96464
733.657	33.38327
733.842	23.4123
734.027	27.64372
734.212	30.35523
734.397	26.61294
734.582	32.31999
734.767	35.91578
734.952	39.73139
735.137	16.65191
735.322	41.20086
735.507	33.95144
735.692	33.27807
735.877	45.1984
736.062	43.51709
736.247	36.0917
736.431	31.54788
736.616	38.17765
736.801	34.44863
736.986	31.68837
737.171	26.88527
737.355	22.78981
737.54	40.47476
737.725	32.21203
737.909	50.45536
738.094	28.35144
738.279	38.88508
738.463	30.16217
738.648	37.07458
738.833	36.29042
739.017	45.24284
739.202	29.86242
739.386	30.81648
739.571	25.23667
739.756	37.17876
739.94	31.68175
740.125	37.37891
740.309	27.20591
740.494	39.16294
740.678	31.49101
740.863	37.6269
741.047	34.18105
741.231	40.5927
741.416	28.9668
741.6	44.09064
741.785	26.91905
741.969	39.48827
742.153	40.78933
742.338	19.47176
742.522	34.75823
742.706	38.10951
742.89	25.14155
743.075	34.50544
743.259	43.06231
743.443	40.68496
743.627	43.90896
743.812	49.30874
743.996	17.08864
744.18	31.58138
744.364	30.2254
744.548	52.14354
744.732	31.4358
744.916	39.78541
745.1	37.66048
745.285	31.24383
745.469	37.89257
745.653	46.75606
745.837	24.00543
746.021	51.73632
746.205	43.6643
746.389	33.97655
746.573	33.69055
746.757	47.51944
746.94	30.74887
747.124	43.93219
747.308	25.35573
747.492	42.61782
747.676	28.89488
747.86	54.32721
748.044	30.16531
748.227	21.02131
748.411	61.40259
748.595	34.82311
748.779	25.62402
748.963	38.57894
749.146	35.26561
749.33	29.66914
749.514	26.47741
749.697	41.75377
749.881	29.41173
750.065	26.09217
750.248	35.09242
750.432	54.06963
750.616	34.60707
750.799	23.97818
750.983	50.14721
751.166	55.92881
751.35	21.11036
751.533	39.8732
751.717	43.42404
751.9	46.37203
752.084	29.96868
752.267	25.9034
752.451	29.84312
752.634	35.50984
752.818	38.84843
753.001	41.66278
753.184	43.01071
753.368	40.68742
753.551	9.26345
753.734	29.28943
753.918	50.59199
754.101	27.56825
754.284	40.60047
754.467	31.02926
754.651	32.62969
754.834	27.37642
755.017	44.93139
755.2	45.75935
755.384	25.98166
755.567	42.85268
755.75	43.48069
755.933	33.33343
756.116	37.73867
756.299	29.07113
756.482	30.47377
756.665	39.90622
756.848	34.70681
757.032	39.13741
757.215	20.82553
757.398	27.03772
757.581	25.59227
757.764	59.80515
757.947	33.93955
758.129	45.22604
758.312	12.68387
758.495	33.2011
758.678	34.78213
758.861	32.43796
759.044	51.29698
759.227	28.27348
759.41	29.90464
759.592	40.20966
759.775	33.57133
759.958	44.41669
760.141	25.56597
760.324	54.59694
760.506	49.29145
760.689	41.16073
760.872	56.41257
761.054	38.63325
761.237	32.51838
761.42	38.15868
761.602	44.53655
761.785	39.37522
761.968	44.91681
762.15	50.83528
762.333	32.60407
762.515	38.56239
762.698	31.79559
762.88	41.80372
763.063	37.40927
763.245	40.65251
763.428	27.41187
763.61	28.31481
763.793	25.51428
763.975	37.24818
764.158	33.30951
764.34	31.64152
764.522	27.75665
764.705	32.67899
764.887	45.46623
765.069	22.57771
765.252	39.22309
765.434	39.86056
765.616	34.70744
765.799	30.54473
765.981	39.46348
766.163	29.43383
766.345	42.3132
766.528	29.03152
766.71	17.43981
766.892	35.00523
767.074	44.5892
767.256	34.51079
767.438	50.67955
767.62	36.97941
767.802	54.40124
767.985	39.82787
768.167	55.71047
768.349	33.04987
768.531	38.96537
768.713	36.11465
768.895	43.66793
769.077	38.42531
769.259	59.2135
769.441	86.83036
769.623	43.61866
769.804	52.21886
769.986	50.66962
770.168	61.21789
770.35	75.38348
770.532	54.03312
770.714	59.51328
770.896	59.78167
771.077	28.53693
771.259	64.60262
771.441	50.69179
771.623	68.18786
771.804	81.048
771.986	26.05855
772.168	39.0393
772.35	66.38383
772.531	83.8642
772.713	54.54954
772.894	71.15678
773.076	52.06129
773.258	45.86557
773.439	70.47043
773.621	75.33175
773.802	35.99907
773.984	50.60215
774.166	52.82558
774.347	77.79883
774.529	64.32099
774.71	22.72779
774.891	48.65026
775.073	45.05276
775.254	70.73983
775.436	39.36248
775.617	80.81028
775.799	40.43089
775.98	77.75987
776.161	81.67959
776.343	74.82879
776.524	51.87556
776.705	45.97433
776.886	29.15553
777.068	55.99771
777.249	94.59395
777.43	86.79622
777.611	38.789
777.793	52.78236
777.974	79.34003
778.155	44.96438
778.336	34.86844
778.517	86.18706
778.698	39.81017
778.879	25.36128
779.061	11.95153
779.242	59.1168
779.423	60.16399
779.604	44.67302
779.785	48.06988
779.966	57.8429
780.147	67.22146
780.328	74.22399
780.509	100.3705
780.69	61.61505
780.871	42.21315
781.051	32.39793
781.232	57.60413
781.413	54.18149
781.594	47.66917
781.775	45.77418
781.956	39.63255
782.137	23.20276
782.317	40.61481
782.498	56.41101
782.679	55.06643
782.86	55.19055
783.04	43.95679
783.221	55.80202
783.402	86.27889
783.583	51.86166
783.763	62.54736
783.944	44.46945
784.124	28.90904
784.305	80.8514
784.486	58.5618
784.666	52.62895
784.847	25.04457
785.027	92.62711
785.208	39.58742
785.388	44.93018
785.569	41.88844
785.749	47.9058
785.93	43.74751
786.11	26.49662
786.291	62.05983
786.471	53.45285
786.652	65.73098
786.832	49.06595
787.012	59.1706
787.193	31.82267
787.373	55.66079
787.553	47.25842
787.734	55.00056
787.914	46.52769
788.094	61.68979
788.275	61.77621
788.455	45.9904
788.635	33.57636
788.815	55.23232
788.995	37.44125
789.176	30.53783
789.356	39.92008
789.536	47.87659
789.716	60.15404
789.896	40.55452
790.076	42.83834
790.256	55.23946
790.436	17.68919
790.616	37.5249
790.796	53.48034
790.976	47.47365
791.156	41.25195
791.336	60.95339
791.516	56.92785
791.696	48.63601
791.876	32.83188
792.056	51.39396
792.236	64.71264
792.416	61.55762
792.596	60.87618
792.776	58.4743
792.956	57.18041
793.135	78.1045
793.315	33.79525
793.495	69.7913
793.675	62.2357
793.854	63.48862
794.034	65.41479
794.214	32.65929
794.394	63.80106
794.573	70.78882
794.753	53.35109
794.933	37.67457
795.112	53.9941
795.292	63.19436
795.472	80.53769
795.651	33.71621
795.831	51.78644
796.01	47.30521
796.19	47.48585
796.369	53.95477
796.549	58.57241
796.728	49.32965
796.908	33.28077
797.087	36.63558
797.267	46.13458
797.446	31.57609
797.626	57.76262
797.805	58.6185
797.984	40.99549
798.164	62.86672
798.343	39.97534
798.522	56.06009
798.702	56.20697
798.881	31.62654
799.06	45.54974
799.239	22.54829
799.419	36.43628
799.598	79.01656
799.777	60.30517
799.956	69.82585
800.136	45.07043
800.315	43.16893
800.494	57.6898
800.673	66.27468
800.852	61.14692
801.031	69.64402
801.21	58.31888
801.389	46.41986
801.568	52.8041
801.747	80.594
801.926	50.93011
802.105	78.0029
802.284	40.74369
802.463	79.81089
802.642	56.058
802.821	55.78208
803	72.90214
803.179	65.60116
803.358	70.65626
803.537	41.78704
803.716	58.52494
803.895	40.35933
804.073	51.21072
804.252	35.71705
804.431	61.04579
804.61	48.41032
804.789	69.64913
804.967	46.21978
805.146	47.28239
805.325	89.34451
805.503	61.85725
805.682	31.48271
805.861	94.58158
806.039	74.39048
806.218	44.40177
806.397	54.24255
806.575	52.12562
806.754	59.91906
806.932	36.67717
807.111	81.40578
807.289	69.22616
807.468	54.84962
807.646	71.18298
807.825	62.19258
808.003	53.88416
808.182	69.9793
808.36	54.80856
808.539	39.19934
808.717	78.41329
808.895	35.89553
809.074	63.62236
809.252	52.9673
809.43	66.06187
809.609	81.6708
809.787	89.66251
809.965	50.23369
810.144	55.10629
810.322	51.64421
810.5	63.56929
810.678	51.27187
810.856	97.61257
811.035	73.48879
811.213	71.05441
811.391	76.03042
811.569	57.39705
811.747	120.02012
811.925	73.64435
812.103	40.31712
812.281	55.94936
812.459	91.52829
812.637	96.57042
812.816	73.31103
812.994	98.56621
813.171	80.59375
813.349	68.77538
813.527	75.88449
813.705	84.27824
813.883	104.71584
814.061	77.50128
814.239	94.9444
814.417	106.49498
814.595	68.60922
814.773	65.62929
814.95	62.43911
815.128	69.82631
815.306	59.42743
815.484	58.42291
815.662	43.89671
815.839	38.53942
816.017	47.57311
816.195	79.77326
816.372	52.12743
816.55	74.33279
816.728	86.86385
816.905	57.61294
817.083	88.65657
817.261	67.13016
817.438	107.67894
817.616	99.76175
817.793	47.54299
817.971	81.26115
818.148	72.92684
818.326	80.57428
818.503	67.58353
818.681	88.11538
818.858	52.14409
819.036	57.91792
819.213	62.53214
819.391	48.6418
819.568	48.00111
819.745	41.95698
819.923	71.31046
820.1	48.82325
820.277	43.87901
820.455	51.99923
820.632	55.09305
820.809	56.12945
820.986	37.17971
821.164	32.78269
821.341	30.21577
821.518	38.49443
821.695	32.05483
821.872	31.67938
822.05	28.66415
822.227	25.44557
822.404	26.47966
822.581	28.69302
822.758	25.55999
822.935	25.87592
823.112	28.92171
823.289	25.84826
823.466	29.23166
823.643	27.51918
823.82	30.40037
823.997	29.03059
824.174	32.24332
824.351	37.17947
824.528	37.39184
824.705	34.51631
824.882	37.81745
825.059	45.75177
825.236	33.37464
825.412	36.19924
825.589	40.67459
825.766	55.42374
825.943	35.36525
826.12	42.53438
826.296	33.21264
826.473	37.28324
826.65	39.32883
826.827	46.15247
827.003	33.57085
827.18	35.89851
827.357	39.28565
827.533	36.365
827.71	24.09702
827.887	32.18243
828.063	35.87029
828.24	32.98442
828.416	41.46397
828.593	33.12742
828.769	45.91612
828.946	49.25504
829.122	53.17806
829.299	49.05173
829.475	26.92212
829.652	46.81447
829.828	74.17076
830.005	49.55943
830.181	62.46499
830.357	47.75598
830.534	72.2604
830.71	53.29365
830.886	70.09948
831.063	63.58695
831.239	79.66058
831.415	37.4951
831.592	86.24501
831.768	57.20074
831.944	45.3473
832.12	82.05552
832.296	75.32084
832.473	63.59507
832.649	46.97209
832.825	63.44317
833.001	38.7578
833.177	57.22259
833.353	52.18769
833.529	31.06031
833.705	45.63688
833.881	35.03221
834.058	34.4465
834.234	37.06398
834.41	36.4582
834.586	29.95469
834.761	34.98013
834.937	39.77281
835.113	38.93447
835.289	34.86522
835.465	41.2971
835.641	34.36697
835.817	41.20848
835.993	73.19243
836.169	36.15208
836.344	49.70991
836.52	60.30459
836.696	57.2998
836.872	43.83642
837.048	120.97973
837.223	44.39521
837.399	94.68582
837.575	77.83175
837.75	76.12978
837.926	100.85796
838.102	154.53342
838.277	117.00034
838.453	168.17745
838.628	159.45993
838.804	60.08208
838.98	158.70372
839.155	75.77395
839.331	104.97828
839.506	73.75669
839.682	70.20106
839.857	85.65939
840.033	105.19396
840.208	56.65614
840.384	26.31977
840.559	56.73009
840.734	74.72451
840.91	110.54868
841.085	69.27912
841.26	66.89751
841.436	60.0191
841.611	58.94966
841.786	98.72474
841.962	126.524
842.137	86.13481
842.312	49.18167
842.487	71.39722
842.663	61.03898
842.838	93.7489
843.013	260.93199
843.188	121.01643
843.363	119.14802
843.538	220.75922
843.714	241.76744
843.889	232.85955
844.064	192.55527
844.239	160.2329
844.414	246.64661
844.589	169.82659
844.764	271.84319
844.939	287.94108
845.114	270.29195
845.289	321.59322
845.464	357.03694
845.639	262.46987
845.814	154.61578
845.989	187.57565
846.163	190.8134
846.338	274.21473
846.513	310.26801
846.688	200.75898
846.863	221.38484
847.038	153.66483
847.212	212.50201
847.387	247.09392
847.562	241.24721
847.737	304.71501
847.911	115.68639
848.086	132.83734
848.261	383.39193
848.435	181.01733
848.61	284.8631
848.785	166.77957
848.959	309.44566
849.134	305.80174
849.308	619.8192
849.483	246.0017
849.658	364.02088
849.832	190.55369
850.007	122.20815
850.181	486.99117
850.356	231.836
850.53	425.29499
850.705	143.25479
850.879	93.97667
851.053	180.8683
851.228	217.15596
851.402	327.26861
851.577	305.42141
851.751	398.68849
851.925	190.96228
852.099	91.16989
852.274	162.80018
852.448	223.07514
852.622	312.07551
852.797	224.09041
852.971	236.39138
853.145	269.30776
853.319	458.92707
853.493	440.32669
853.668	253.32289
853.842	518.45295
854.016	367.39467
854.19	472.09169
854.364	225.62722
854.538	310.84057
854.712	331.92306
854.886	218.37879
855.06	230.14482
855.234	72.43278
855.408	394.46429
855.582	326.11595
855.756	513.48991
855.93	375.46182
856.104	333.0355
856.278	333.77025
856.452	234.39839
856.626	255.64585
856.8	465.88457
856.973	379.33903
857.147	356.49702
857.321	309.36626
857.495	344.74874
857.669	270.41487
857.842	243.41461
858.016	402.86177
858.19	174.78606
858.364	520.99352
858.537	228.73814
858.711	313.41917
858.885	244.64946
859.058	187.79349
859.232	148.81782
859.405	123.82914
859.579	322.16046
859.753	384.09571
859.926	176.77612
860.1	148.14269
860.273	289.44768
860.447	395.33053
860.62	225.25119
860.794	512.93356
860.967	246.65062
861.141	310.73144
861.314	475.08515
861.487	278.13759
861.661	366.29904
861.834	566.77847
862.008	347.25373
862.181	339.513
862.354	267.51087
862.528	412.76419
862.701	241.8807
862.874	121.94649
863.047	210.55382
863.221	197.80504
863.394	88.70925
863.567	304.1309
863.74	119.90208
863.913	354.31835
864.087	322.52339
864.26	362.90433
864.433	246.40611
864.606	499.80013
864.779	298.11384
864.952	99.60019
865.125	269.06407
865.298	285.58816
865.471	288.17474
865.644	445.42493
865.817	352.03762
865.99	362.64295
866.163	419.07005
866.336	194.05642
866.509	294.76497
866.682	279.78437
866.855	432.34799
867.028	131.66856
867.2	270.86446
867.373	70.90005
867.546	271.29618
867.719	492.33632
867.892	350.90404
868.064	196.14313
868.237	252.06805
868.41	267.73809
868.583	186.56872
868.755	166.34853
868.928	225.6561
869.101	542.76573
869.273	403.90894
869.446	279.47827
869.619	399.56415
869.791	342.18002
869.964	414.67723
870.136	455.15615
870.309	227.66341
870.481	274.46029
870.654	114.55533
870.826	252.30167
870.999	207.29211
871.171	377.86086
871.344	178.02985
871.516	220.82826
871.689	162.58564
871.861	254.02562
872.033	175.61155
872.206	211.9329
872.378	272.59441
872.55	253.33448
872.723	151.58695
872.895	220.69226
873.067	363.50763
873.24	286.39551
873.412	198.6282
873.584	226.2352
873.756	211.58673
873.928	244.38437
874.101	224.47466
874.273	263.60464
874.445	95.86398
874.617	118.105
874.789	211.81396
874.961	210.66623
875.133	271.67668
875.305	234.21976
875.477	153.01322
875.649	114.21712
875.821	158.95457
875.993	344.38602
876.165	205.92925
876.337	256.251
876.509	222.04105
876.681	241.27338
876.853	230.34208
877.025	256.78917
877.197	177.27946
877.369	142.45425
877.541	275.4892
877.712	79.52116
877.884	147.43592
878.056	249.4023
878.228	139.41343
878.4	277.46855
878.571	141.04552
878.743	91.33986
878.915	190.41591
879.086	113.06741
879.258	137.49762
879.43	119.50408
879.601	108.7509
879.773	107.23669
879.945	30.17144
880.116	46.10613
880.288	29.80466
880.459	35.02079
880.631	30.32339
880.802	34.82404
880.974	33.28548
881.145	25.4901
881.317	32.5549
881.488	27.09647
881.66	29.63844
881.831	27.19559
882.002	33.40839
882.174	28.49816
882.345	32.4431
882.517	22.09317
882.688	36.45976
882.859	30.02761
883.03	45.73819
883.202	44.38734
883.373	38.00693
883.544	36.19493
883.715	58.70786
883.887	51.17686
884.058	43.73403
884.229	62.28765
884.4	63.06535
884.571	72.83212
884.742	58.557
884.914	60.46063
885.085	90.66378
885.256	132.02088
885.427	105.85598
885.598	128.51548
885.769	120.18045
885.94	126.10141
886.111	78.37202
886.282	144.64322
886.453	119.76626
886.624	91.85093
886.795	155.26412
886.966	124.23351
887.136	163.29262
887.307	122.84192
887.478	209.89758
887.649	188.51948
887.82	197.7477
887.991	156.53328
888.161	241.25387
888.332	222.30116
888.503	115.09175
888.674	295.45981
888.844	347.25276
889.015	358.60494
889.186	155.38184
889.356	335.03305
889.527	151.63436
889.698	545.01179
889.868	211.66591
890.039	343.39928
890.209	211.47294
890.38	288.22179
890.551	256.55321
890.721	353.8593
890.892	322.42824
891.062	302.6777
891.233	352.57991
891.403	264.46305
891.574	167.46452
891.744	198.98016
891.914	251.34713
892.085	354.72592
892.255	68.91263
892.425	342.53586
892.596	218.49321
892.766	289.60363
892.936	302.41426
893.107	259.93963
893.277	120.89443
893.447	116.44338
893.618	79.21056
893.788	162.25458
893.958	96.5423
894.128	77.40837
894.298	89.65947
894.468	117.40954
894.639	51.29296
894.809	37.82851
894.979	60.10938
895.149	73.15945
895.319	52.33568
895.489	80.82
895.659	103.30756
895.829	67.70796
895.999	68.8827
896.169	59.20023
896.339	69.70869
896.509	138.95583
896.679	162.40468
896.849	180.24476
897.019	251.25742
897.189	229.88384
897.358	163.30026
897.528	303.95838
897.698	124.45347
897.868	283.83593
898.038	550.86872
898.208	488.8203
898.377	143.20084
898.547	814.10981
898.717	836.52448
898.886	339.80851
899.056	585.06712
899.226	886.95037
899.395	607.01872
899.565	752.71861
899.735	455.27072
899.904	636.54064
900.074	840.47687
900.244	289.1312
900.413	1711.93647
900.583	318.44262
900.752	3366.19122
900.922	588.2424
901.091	102.72066
901.261	683.93339
901.43	553.94451
901.599	701.733
901.769	1430.3432
901.938	691.73723
902.108	648.57832
902.277	723.40706
902.446	261.41333
902.616	284.5762
902.785	454.38795
902.954	552.76646
903.124	299.11927
903.293	203.27017
903.462	90.94753
903.631	152.94869
903.801	104.13187
903.97	56.81982
904.139	89.22671
904.308	71.10372
904.477	64.25564
904.646	31.42218
904.816	52.56534
904.985	80.81681
905.154	114.99468
