Data from WindowProjectSample_Transmission__69__00069__09720792984545783.txt Node

Date: Mon May 05 18:38:01 EDT 2025
User: jessi
Spectrometer: SR400872
Trigger mode: 0
Integration Time (sec): 5.000010E-1
Scans to average: 20
Electric dark correction enabled: true
Nonlinearity correction enabled: true
Boxcar width: 0
XAxis mode: Wavelengths
Number of Pixels in Spectrum: 3648
>>>>>Begin Spectral Data<<<<<
184.909	21187.15447
185.132	-5104.75065
185.355	-3124.73205
185.578	-18229.29238
185.801	1204.80551
186.024	10932.44735
186.247	-1626.60696
186.47	1135.2625
186.693	361.09373
186.916	305.12347
187.139	-3825.92538
187.362	3562.63536
187.585	4138.9172
187.808	3533.29526
188.031	-45.86647
188.254	-49915.02182
188.476	-744.1129
188.699	6485.54775
188.922	669.78673
189.145	-15632.32658
189.368	-660.32431
189.591	-1305.88589
189.813	3140.60871
190.036	-50322.2049
190.259	-877.98431
190.482	-4484.09894
190.705	7306.03812
190.927	-2498.51461
191.15	13320.58455
191.373	3420.86033
191.595	-9073.3574
191.818	-4089.98119
192.041	-7242.35449
192.263	-3462.3291
192.486	-962.58234
192.709	-3946.50172
192.931	8294.32174
193.154	-28346.42871
193.377	-2860.44984
193.599	-2618.17826
193.822	-10100.99133
194.044	-2009.48654
194.267	1238.2492
194.489	243.10913
194.712	-44449.70134
194.934	-32579.32075
195.157	1340.32076
195.379	1339.91483
195.602	-7112.56422
195.824	-1338.80027
196.047	-9263.16557
196.269	2815.18787
196.492	-6575.03896
196.714	29607.18073
196.936	-8621.92517
197.159	-1151.02252
197.381	1152.22991
197.604	519.85187
197.826	12185.11638
198.048	-11196.1261
198.271	-2886.90205
198.493	7754.57096
198.715	2285.12254
198.938	-519.167
199.16	7036.08418
199.382	-103050.00138
199.604	2530.84167
199.827	-1081.41035
200.049	-3163.84855
200.271	13939.59872
200.493	1238.16575
200.715	-38834.08416
200.938	-6195.21633
201.16	-4236.44843
201.382	20807.98075
201.604	2267.94617
201.826	2288.04551
202.048	-1999.25017
202.27	-2044.75638
202.492	-38156.21539
202.715	3089.9277
202.937	-4372.17392
203.159	-6469.44866
203.381	1647.05929
203.603	6666.39748
203.825	6993.29331
204.047	2263.83255
204.269	-3047.57405
204.491	2127.72009
204.713	6038.29094
204.935	-489802.89002
205.156	1234.35057
205.378	-2953.38525
205.6	1611.82843
205.822	159623.77257
206.044	-1204.85174
206.266	1606.24647
206.488	4258.91374
206.71	-5206.20138
206.932	1142.16521
207.153	12476.4102
207.375	-7034.18484
207.597	-38252.30626
207.819	-2887.73511
208.041	2549.22841
208.262	497.29481
208.484	730.62071
208.706	-818.35335
208.927	-881.89781
209.149	595.7853
209.371	-3027.13688
209.593	-346.13477
209.814	-824.13245
210.036	560.46783
210.258	-669.48937
210.479	1805.29905
210.701	1683.3227
210.922	3356.21028
211.144	-4242.75422
211.366	2106.22002
211.587	8860.98836
211.809	-8109.5925
212.03	2240.88483
212.252	457.53529
212.473	2030.8002
212.695	-6362.26128
212.916	3048.90733
213.138	-609.23285
213.359	3694.77602
213.581	5461.00123
213.802	-813.02172
214.024	1128.67493
214.245	2001.78963
214.466	3582.83843
214.688	-3189.6194
214.909	-1329.35628
215.131	-1780.57237
215.352	-3283.87764
215.573	14998.25842
215.795	5376.05195
216.016	5401.84796
216.237	762.38742
216.459	3570.00789
216.68	1869.02852
216.901	4985.33323
217.122	-3254.8586
217.344	-11913.23559
217.565	3499.89547
217.786	9098.03952
218.007	16350.72747
218.228	-972.29449
218.45	5989.90507
218.671	881.54347
218.892	40695.31114
219.113	1539.62566
219.334	-214.46948
219.555	10386.60012
219.776	3117.85555
219.997	22996.99591
220.219	2960.83842
220.44	-12305.92171
220.661	445.04681
220.882	1554.9763
221.103	-1123.33697
221.324	2349.09544
221.545	2324.08677
221.766	-9075.07709
221.987	1013.51299
222.208	1806.42262
222.429	4463.61554
222.65	284.98275
222.87	18103.64161
223.091	758.65991
223.312	565.39554
223.533	1322.80562
223.754	1522.21714
223.975	1399.01027
224.196	1969.456
224.417	1419.99558
224.637	636.70376
224.858	75.70155
225.079	1203.72176
225.3	665.88605
225.521	3816.61198
225.741	490.16466
225.962	544.24079
226.183	145.53523
226.404	663.96551
226.624	433.04018
226.845	664.90768
227.066	411.0072
227.286	251.76119
227.507	123.40297
227.728	123.02559
227.948	247.31758
228.169	78.04574
228.389	88.17918
228.61	47.91112
228.831	66.75772
229.051	4.00462
229.272	39.95024
229.492	59.48081
229.713	13.82629
229.933	36.99047
230.154	33.51158
230.374	55.9975
230.595	40.6787
230.815	23.90538
231.036	40.3274
231.256	-8.43981
231.477	71.82995
231.697	37.77434
231.917	40.03668
232.138	55.67984
232.358	115.87145
232.579	104.87922
232.799	18.02194
233.019	103.69887
233.24	116.11087
233.46	39.88073
233.68	65.40313
233.901	43.90988
234.121	28.07422
234.341	14.70944
234.561	-4.49436
234.782	22.89826
235.002	71.63246
235.222	-2.9462
235.442	67.52881
235.662	32.83008
235.883	64.79932
236.103	52.93749
236.323	34.07808
236.543	29.06102
236.763	40.71158
236.983	46.19458
237.203	41.32072
237.423	64.42505
237.643	88.21859
237.864	73.41352
238.084	19.21931
238.304	24.66548
238.524	48.3296
238.744	41.43246
238.964	75.25166
239.184	61.6453
239.404	65.00007
239.624	36.83195
239.843	60.3902
240.063	36.81351
240.283	22.13655
240.503	25.80423
240.723	25.71767
240.943	15.86983
241.163	19.84756
241.383	14.70437
241.603	8.27538
241.822	9.60418
242.042	6.18569
242.262	8.31897
242.482	9.74239
242.702	10.77387
242.921	2.85461
243.141	6.76564
243.361	6.62528
243.581	9.2635
243.8	7.75434
244.02	5.45106
244.24	9.75601
244.459	9.00404
244.679	17.53635
244.899	11.3439
245.118	13.03423
245.338	11.71356
245.558	13.92118
245.777	8.93392
245.997	11.07891
246.216	10.8835
246.436	6.49757
246.655	5.00146
246.875	3.3087
247.094	6.31328
247.314	2.27105
247.533	3.70473
247.753	4.38528
247.972	3.47755
248.192	1.13279
248.411	1.76661
248.631	3.84256
248.85	4.68248
249.07	4.01742
249.289	5.99346
249.508	5.17036
249.728	7.02181
249.947	7.29622
250.166	9.26732
250.386	4.25941
250.605	6.63334
250.824	11.55158
251.044	7.7984
251.263	29.45844
251.482	15.10487
251.701	11.41499
251.921	-0.35356
252.14	3.81399
252.359	3.85793
252.578	10.13827
252.798	3.29075
253.017	8.83609
253.236	4.0754
253.455	6.02596
253.674	10.67892
253.893	5.44914
254.112	7.96629
254.331	11.59765
254.551	8.69447
254.77	3.89475
254.989	13.76791
255.208	10.51061
255.427	15.55745
255.646	11.1684
255.865	21.78409
256.084	8.58175
256.303	10.85489
256.522	13.75921
256.741	3.61601
256.96	2.65813
257.179	7.63114
257.397	11.30552
257.616	5.89052
257.835	6.24562
258.054	15.14753
258.273	10.43805
258.492	11.41414
258.711	6.95804
258.93	3.29469
259.148	4.6742
259.367	4.69134
259.586	5.6213
259.805	2.344
260.023	5.43474
260.242	4.066
260.461	2.90665
260.68	1.40123
260.898	4.48528
261.117	1.30206
261.336	1.00704
261.554	3.65063
261.773	3.52167
261.992	0.66609
262.21	3.51271
262.429	3.73745
262.648	7.43182
262.866	8.07689
263.085	5.56227
263.303	4.94264
263.522	8.68736
263.74	9.134
263.959	15.61223
264.178	7.3113
264.396	6.80099
264.615	4.67691
264.833	10.61649
265.051	9.0471
265.27	10.96367
265.488	11.24026
265.707	6.24177
265.925	11.34036
266.144	4.95606
266.362	5.94263
266.58	5.67262
266.799	4.93161
267.017	5.9106
267.235	5.4751
267.454	3.39611
267.672	1.87447
267.89	4.27713
268.109	4.42986
268.327	4.50792
268.545	1.04331
268.763	4.1015
268.982	1.48925
269.2	4.1629
269.418	3.02182
269.636	1.65794
269.854	4.7624
270.073	3.21548
270.291	2.21029
270.509	1.97563
270.727	4.53027
270.945	7.58976
271.163	7.3163
271.381	1.47329
271.599	3.22588
271.817	5.49537
272.036	1.89599
272.254	3.25106
272.472	2.49835
272.69	2.74635
272.908	2.31921
273.126	4.71655
273.344	5.47122
273.562	1.83587
273.779	2.76255
273.997	4.06305
274.215	4.31606
274.433	3.08615
274.651	4.55621
274.869	4.6474
275.087	2.83733
275.305	3.99859
275.523	2.65518
275.74	2.93078
275.958	5.59672
276.176	8.50686
276.394	2.56348
276.612	3.37727
276.829	3.32533
277.047	2.70436
277.265	2.7884
277.483	3.86563
277.7	4.35148
277.918	3.49676
278.136	6.51279
278.353	3.17353
278.571	1.86662
278.789	4.41315
279.006	1.0089
279.224	3.20844
279.442	5.24846
279.659	3.60654
279.877	2.62056
280.094	6.0425
280.312	1.15908
280.529	3.53242
280.747	0.99203
280.964	2.68883
281.182	6.24165
281.399	2.71855
281.617	3.90514
281.834	2.58797
282.052	1.98557
282.269	3.37086
282.487	2.53943
282.704	2.19366
282.921	2.14553
283.139	3.52439
283.356	4.01861
283.574	3.9642
283.791	1.72593
284.008	5.7505
284.226	3.10481
284.443	3.15941
284.66	4.38551
284.877	3.55055
285.095	2.12209
285.312	1.6812
285.529	0.95126
285.746	0.80081
285.964	2.13868
286.181	1.53591
286.398	1.93224
286.615	2.75482
286.832	2.56803
287.05	0.5792
287.267	1.92729
287.484	1.79693
287.701	2.80317
287.918	2.55957
288.135	2.73674
288.352	1.26642
288.569	1.51647
288.786	2.31667
289.003	2.01709
289.22	3.11843
289.437	1.71905
289.654	2.88995
289.871	3.04649
290.088	3.02426
290.305	2.24488
290.522	1.71525
290.739	1.99573
290.956	3.1262
291.173	3.60491
291.39	3.55364
291.607	2.42705
291.824	1.83324
292.04	1.24693
292.257	2.98453
292.474	3.30371
292.691	1.97604
292.908	0.97972
293.125	1.70922
293.341	1.09815
293.558	5.12895
293.775	1.92456
293.992	2.07828
294.208	0.86807
294.425	1.33945
294.642	1.95985
294.858	2.51074
295.075	0.62888
295.292	1.89015
295.508	2.40797
295.725	4.10788
295.942	1.64516
296.158	1.20704
296.375	2.00639
296.591	1.53561
296.808	1.72797
297.024	1.9367
297.241	2.22137
297.458	2.40304
297.674	0.20665
297.891	1.77784
298.107	1.47089
298.323	1.0673
298.54	3.00864
298.756	1.29464
298.973	0.69631
299.189	3.14316
299.406	1.17592
299.622	2.76407
299.838	2.75157
300.055	2.65146
300.271	0.61109
300.487	1.01118
300.704	1.28385
300.92	0.54821
301.136	4.26556
301.353	2.64501
301.569	1.93913
301.785	2.31509
302.001	2.72603
302.218	2.17788
302.434	2.29781
302.65	0.71027
302.866	1.57719
303.083	4.03467
303.299	3.79661
303.515	2.00485
303.731	2.0505
303.947	0.55327
304.163	1.16001
304.379	2.0978
304.595	2.47465
304.812	1.23105
305.028	1.15797
305.244	1.80307
305.46	2.81485
305.676	2.65619
305.892	3.16532
306.108	2.29668
306.324	1.51155
306.54	3.66307
306.756	2.5098
306.972	2.46463
307.187	1.60648
307.403	3.38615
307.619	1.63758
307.835	3.16644
308.051	3.51029
308.267	0.96504
308.483	2.85959
308.699	2.48008
308.914	1.97312
309.13	1.76322
309.346	0.56292
309.562	0.93897
309.778	0.75788
309.993	2.47133
310.209	1.83663
310.425	0.88841
310.641	1.68947
310.856	0.98583
311.072	0.96704
311.288	1.77862
311.503	1.91793
311.719	0.29744
311.935	0.16228
312.15	2.23429
312.366	1.81714
312.581	2.26887
312.797	1.87749
313.013	2.58875
313.228	1.2802
313.444	1.78859
313.659	1.32475
313.875	2.32235
314.09	1.72764
314.306	3.14431
314.521	2.70454
314.737	2.54139
314.952	1.82173
315.168	1.82141
315.383	2.32042
315.599	1.72369
315.814	1.62517
316.029	2.63238
316.245	0.69011
316.46	0.52021
316.675	3.03884
316.891	3.57336
317.106	4.39457
317.321	2.23206
317.537	2.48496
317.752	2.66461
317.967	2.77661
318.183	1.22228
318.398	1.55524
318.613	2.81818
318.828	3.31488
319.043	2.78153
319.259	1.74009
319.474	2.1801
319.689	3.09239
319.904	0.45574
320.119	2.6265
320.334	2.22839
320.549	1.66971
320.765	2.90335
320.98	2.08023
321.195	2.6151
321.41	1.89144
321.625	2.63648
321.84	3.68962
322.055	3.67655
322.27	1.45256
322.485	1.01134
322.7	2.1605
322.915	2.97428
323.13	1.16638
323.345	3.35347
323.56	2.98002
323.775	2.42433
323.989	2.34098
324.204	2.30932
324.419	3.00329
324.634	0.88342
324.849	1.79063
325.064	4.99016
325.279	2.72676
325.493	2.38752
325.708	2.91019
325.923	1.31877
326.138	1.41507
326.352	3.49307
326.567	2.84523
326.782	1.60374
326.997	1.35429
327.211	2.45935
327.426	2.25834
327.641	1.69591
327.855	0.5917
328.07	2.22509
328.285	3.55735
328.499	1.59922
328.714	2.25717
328.928	2.74153
329.143	1.79332
329.358	2.92204
329.572	2.9229
329.787	3.18336
330.001	4.32178
330.216	0.9285
330.43	3.72774
330.645	3.73773
330.859	2.79705
331.074	1.53509
331.288	2.15135
331.503	3.11427
331.717	1.14691
331.931	2.17091
332.146	2.08178
332.36	3.57813
332.575	2.45403
332.789	2.33397
333.003	2.17902
333.218	2.50478
333.432	1.38506
333.646	2.69901
333.86	3.47484
334.075	3.51975
334.289	1.5233
334.503	1.19342
334.717	2.40666
334.932	2.32782
335.146	3.12235
335.36	1.69177
335.574	2.57986
335.788	2.43095
336.003	2.93277
336.217	2.43836
336.431	2.5888
336.645	1.40052
336.859	0.98595
337.073	1.7631
337.287	2.23858
337.501	1.05304
337.715	2.20085
337.929	2.77997
338.143	0.93723
338.357	1.78713
338.571	1.18548
338.785	2.25283
338.999	1.6009
339.213	1.49468
339.427	0.73243
339.641	3.23969
339.855	1.71564
340.069	1.52393
340.283	2.91173
340.497	3.6589
340.711	2.31304
340.924	1.64031
341.138	1.07473
341.352	0.86126
341.566	2.17132
341.78	0.48339
341.993	1.56544
342.207	1.03548
342.421	2.09805
342.635	1.79472
342.848	1.48644
343.062	0.20645
343.276	1.36286
343.49	3.74205
343.703	1.36142
343.917	2.6779
344.131	2.75876
344.344	1.38273
344.558	1.66078
344.771	0.91679
344.985	3.39073
345.199	3.15639
345.412	2.17386
345.626	2.13629
345.839	0.58859
346.053	1.08109
346.266	0.97208
346.48	2.54222
346.693	2.22631
346.907	2.05506
347.12	1.11575
347.334	2.20535
347.547	2.15297
347.76	1.51119
347.974	2.94181
348.187	2.1748
348.401	1.46607
348.614	1.36531
348.827	1.61536
349.041	2.27035
349.254	0.50108
349.467	1.63133
349.681	0.79937
349.894	1.34904
350.107	2.93256
350.32	3.22031
350.534	0.62603
350.747	1.50051
350.96	1.02275
351.173	1.18887
351.386	1.5074
351.6	1.35243
351.813	1.24063
352.026	1.76042
352.239	0.7238
352.452	1.52433
352.665	2.45673
352.878	1.73989
353.092	3.43888
353.305	2.32415
353.518	1.85888
353.731	1.14218
353.944	2.76536
354.157	1.26945
354.37	0.91963
354.583	1.11446
354.796	0.35719
355.009	2.62497
355.222	1.88951
355.435	1.77439
355.647	2.41402
355.86	0.92478
356.073	1.74996
356.286	1.31671
356.499	2.20927
356.712	1.87849
356.925	2.13259
357.138	2.33591
357.35	0.99469
357.563	1.40136
357.776	1.77462
357.989	1.33675
358.201	1.98513
358.414	1.67121
358.627	2.65887
358.84	1.42294
359.052	0.68268
359.265	0.96127
359.478	2.47199
359.69	-0.26671
359.903	2.00295
360.116	2.25428
360.328	0.399
360.541	2.21069
360.753	0.71079
360.966	1.13487
361.179	1.2341
361.391	1.10325
361.604	0.80333
361.816	1.15067
362.029	0.93211
362.241	0.80046
362.454	0.98149
362.666	0.75901
362.879	1.4638
363.091	1.17647
363.304	0.86174
363.516	1.35262
363.728	0.64722
363.941	1.78387
364.153	1.08514
364.366	-0.10983
364.578	0.73461
364.79	1.67832
365.003	1.38899
365.215	1.02119
365.427	1.84203
365.639	2.25635
365.852	1.49472
366.064	3.17436
366.276	1.21872
366.488	1.85234
366.701	1.16777
366.913	1.35881
367.125	1.23239
367.337	0.85488
367.549	1.11525
367.762	1.56885
367.974	1.54642
368.186	0.89253
368.398	2.09548
368.61	1.92718
368.822	2.00371
369.034	1.45975
369.246	1.95254
369.458	3.69187
369.67	0.8533
369.882	2.83586
370.094	0.1763
370.306	2.75255
370.518	1.25824
370.73	0.9723
370.942	1.01775
371.154	1.37816
371.366	1.09256
371.578	1.71034
371.79	0.9704
372.002	2.23825
372.214	2.75638
372.425	1.50963
372.637	2.40493
372.849	1.7856
373.061	0.05151
373.273	1.8144
373.484	1.73242
373.696	2.15099
373.908	0.02524
374.12	2.40137
374.331	1.76296
374.543	1.03889
374.755	0.9536
374.967	1.6097
375.178	1.97712
375.39	1.29438
375.602	1.68767
375.813	0.52168
376.025	0.73537
376.236	1.65769
376.448	1.77025
376.66	1.27695
376.871	1.14171
377.083	2.42948
377.294	2.44419
377.506	1.22033
377.717	2.41701
377.929	1.73548
378.14	1.08242
378.352	1.8702
378.563	1.71692
378.775	2.47017
378.986	0.90586
379.197	1.57233
379.409	1.12448
379.62	2.14397
379.832	1.95994
380.043	1.43031
380.254	1.71784
380.466	0.89392
380.677	3.60924
380.888	3.02747
381.1	3.3721
381.311	3.38016
381.522	1.6498
381.733	3.6901
381.945	1.53743
382.156	1.77346
382.367	1.30387
382.578	3.67653
382.789	3.56736
383.001	1.46117
383.212	2.49546
383.423	2.83981
383.634	2.57804
383.845	2.30612
384.056	1.42765
384.267	1.92357
384.478	1.73359
384.69	1.09423
384.901	2.06705
385.112	2.07231
385.323	2.95819
385.534	2.17349
385.745	2.06433
385.956	2.1325
386.167	1.26042
386.378	2.25894
386.588	1.21384
386.799	1.53367
387.01	0.8814
387.221	2.55034
387.432	1.91306
387.643	3.15198
387.854	1.80127
388.065	1.68727
388.275	1.8427
388.486	1.77723
388.697	1.85537
388.908	1.75821
389.119	2.81117
389.329	3.17041
389.54	2.0827
389.751	2.36764
389.962	3.0173
390.172	2.26704
390.383	1.97862
390.594	1.72864
390.804	1.71385
391.015	1.80247
391.226	2.23505
391.436	2.52477
391.647	2.44565
391.858	2.70018
392.068	1.21329
392.279	1.47945
392.489	2.37461
392.7	3.08955
392.91	1.72313
393.121	1.89926
393.331	2.68227
393.542	3.16615
393.752	2.78247
393.963	2.79409
394.173	2.58584
394.384	2.79764
394.594	2.58362
394.804	1.81314
395.015	2.60296
395.225	2.89259
395.436	1.94935
395.646	2.95546
395.856	2.1112
396.067	1.80068
396.277	3.25851
396.487	2.96286
396.697	2.91389
396.908	3.1549
397.118	3.16726
397.328	2.99015
397.538	3.45965
397.749	2.29636
397.959	3.34879
398.169	3.34087
398.379	2.03657
398.589	3.3553
398.8	3.00601
399.01	3.04509
399.22	2.86299
399.43	4.4347
399.64	2.96217
399.85	3.56708
400.06	3.22134
400.27	2.5986
400.48	3.11523
400.69	4.19372
400.9	2.86225
401.11	2.63904
401.32	3.78298
401.53	2.99222
401.74	4.35176
401.95	3.80576
402.16	2.94784
402.37	3.62636
402.58	3.13997
402.79	3.8862
403	4.23262
403.209	3.2407
403.419	4.2844
403.629	3.11472
403.839	4.21458
404.049	4.22901
404.258	3.31924
404.468	3.31116
404.678	3.91987
404.888	4.45583
405.097	3.45865
405.307	3.71229
405.517	4.1553
405.727	4.05079
405.936	3.71254
406.146	4.03092
406.356	4.71321
406.565	3.80972
406.775	3.6105
406.984	3.60699
407.194	5.02812
407.404	4.00166
407.613	4.39874
407.823	4.58526
408.032	4.81949
408.242	4.7914
408.451	3.79702
408.661	4.07021
408.87	5.40928
409.08	3.79968
409.289	4.5428
409.499	4.51318
409.708	4.42296
409.918	3.20991
410.127	4.57381
410.336	5.47976
410.546	4.95375
410.755	4.17375
410.964	4.34364
411.174	3.89338
411.383	4.87075
411.592	4.74616
411.802	3.99406
412.011	4.98766
412.22	4.43407
412.429	5.64488
412.639	5.47128
412.848	5.26394
413.057	5.46433
413.266	5.53453
413.475	4.92617
413.685	5.21588
413.894	5.48793
414.103	5.68715
414.312	5.46087
414.521	4.76801
414.73	5.0788
414.939	6.41446
415.148	5.51979
415.357	5.34804
415.566	5.03329
415.776	5.02572
415.985	5.11253
416.194	5.82677
416.403	6.46718
416.611	4.57221
416.82	5.18064
417.029	5.63875
417.238	5.21631
417.447	5.12814
417.656	5.49755
417.865	5.18138
418.074	5.64335
418.283	5.73119
418.492	6.30735
418.7	6.1107
418.909	7.02542
419.118	6.15672
419.327	6.51349
419.536	6.31262
419.744	6.32907
419.953	7.46071
420.162	7.61731
420.371	6.98562
420.579	7.27772
420.788	8.15306
420.997	8.15354
421.205	8.41356
421.414	8.18764
421.623	8.19658
421.831	7.80029
422.04	8.38157
422.249	7.51785
422.457	7.93902
422.666	7.24373
422.874	8.07305
423.083	8.23598
423.291	8.32212
423.5	8.21395
423.708	8.56003
423.917	8.91573
424.125	8.44658
424.334	8.34163
424.542	9.81314
424.751	9.18773
424.959	8.90491
425.167	8.95022
425.376	8.82213
425.584	7.79725
425.793	7.79724
426.001	7.04793
426.209	7.23949
426.418	6.39278
426.626	6.21276
426.834	6.09749
427.042	6.40579
427.251	6.09095
427.459	6.92875
427.667	6.40575
427.875	5.80712
428.084	6.14438
428.292	7.2086
428.5	6.7938
428.708	5.98519
428.916	6.00929
429.124	6.54375
429.333	6.31787
429.541	6.53098
429.749	6.68883
429.957	6.64315
430.165	8.2498
430.373	5.69365
430.581	6.75214
430.789	7.52693
430.997	6.49259
431.205	6.32685
431.413	6.93868
431.621	6.57097
431.829	7.23769
432.037	6.74491
432.245	7.14363
432.453	7.15711
432.661	6.95178
432.869	8.01382
433.076	6.61217
433.284	6.97106
433.492	7.40976
433.7	7.60951
433.908	6.86437
434.116	7.04251
434.323	7.13117
434.531	6.89341
434.739	7.22691
434.947	7.4365
435.154	7.40024
435.362	6.95223
435.57	6.82538
435.778	6.57286
435.985	7.24504
436.193	6.85394
436.401	7.77272
436.608	7.10285
436.816	6.89238
437.023	7.91095
437.231	8.11131
437.439	7.2809
437.646	7.54796
437.854	7.34088
438.061	7.66232
438.269	7.23976
438.476	7.65091
438.684	7.39936
438.891	7.22865
439.099	7.04569
439.306	6.84834
439.514	6.93257
439.721	7.85575
439.929	7.48462
440.136	8.31644
440.343	8.32313
440.551	8.1654
440.758	9.61697
440.965	8.41261
441.173	8.10981
441.38	7.93025
441.587	7.81312
441.795	7.56102
442.002	7.44878
442.209	7.41589
442.416	7.51018
442.624	7.53353
442.831	7.46554
443.038	6.99773
443.245	6.76837
443.452	7.15935
443.66	7.68683
443.867	7.15203
444.074	7.18775
444.281	7.19212
444.488	7.40712
444.695	7.62128
444.902	7.45667
445.109	8.40794
445.316	8.14255
445.523	8.47861
445.73	8.58446
445.937	9.36382
446.144	9.72793
446.351	9.95849
446.558	9.07983
446.765	10.55227
446.972	10.10277
447.179	9.50838
447.386	10.12354
447.593	8.77431
447.8	9.46559
448.007	8.18266
448.214	7.91923
448.42	7.42865
448.627	7.95055
448.834	7.3647
449.041	7.27608
449.248	7.15202
449.454	7.72098
449.661	8.28879
449.868	7.10115
450.075	7.03507
450.281	6.26808
450.488	6.88136
450.695	6.9024
450.901	7.14429
451.108	7.21502
451.315	8.04968
451.521	7.52926
451.728	8.16684
451.935	7.12201
452.141	7.50629
452.348	7.52625
452.554	7.45921
452.761	7.2536
452.967	8.39962
453.174	7.65879
453.38	7.71921
453.587	6.82336
453.793	7.5548
454	7.919
454.206	8.57498
454.413	7.96204
454.619	7.77055
454.825	7.19132
455.032	7.88912
455.238	7.95758
455.445	6.85482
455.651	7.55629
455.857	6.5747
456.064	7.26207
456.27	7.22359
456.476	7.33368
456.682	6.90124
456.889	7.76042
457.095	7.75681
457.301	9.01779
457.507	7.66149
457.714	7.77607
457.92	7.86549
458.126	7.41301
458.332	7.84171
458.538	7.64579
458.744	7.90819
458.951	7.86817
459.157	9.77288
459.363	8.91751
459.569	9.19515
459.775	9.7648
459.981	9.37559
460.187	9.67258
460.393	9.77846
460.599	10.04148
460.805	9.07607
461.011	8.31276
461.217	8.26198
461.423	8.10823
461.629	7.52841
461.835	7.86792
462.041	7.4327
462.247	8.36151
462.453	7.49522
462.658	7.53878
462.864	8.01765
463.07	7.7364
463.276	7.76548
463.482	7.7881
463.688	8.46297
463.893	7.44584
464.099	7.70052
464.305	8.6819
464.511	7.645
464.716	7.73133
464.922	8.17528
465.128	7.4187
465.333	8.65607
465.539	8.19527
465.745	7.80178
465.95	7.77967
466.156	9.41522
466.362	8.50991
466.567	7.86863
466.773	7.64087
466.978	8.71888
467.184	7.44541
467.389	6.82077
467.595	8.11587
467.8	7.50545
468.006	8.66861
468.211	8.48627
468.417	7.18385
468.622	8.0712
468.828	8.18322
469.033	8.17093
469.239	9.30816
469.444	7.63645
469.649	8.39141
469.855	7.89631
470.06	7.9797
470.266	7.54049
470.471	8.24029
470.676	8.11285
470.881	7.03447
471.087	8.71733
471.292	9.41192
471.497	7.37195
471.703	7.87198
471.908	7.68211
472.113	8.09606
472.318	8.47073
472.523	7.46948
472.729	8.16969
472.934	8.30388
473.139	7.80868
473.344	8.18193
473.549	8.6524
473.754	7.64748
473.959	9.49966
474.164	7.60828
474.369	7.85296
474.575	8.3913
474.78	7.98562
474.985	7.62765
475.19	7.10727
475.395	7.69849
475.6	8.03513
475.804	8.88931
476.009	8.14322
476.214	8.08703
476.419	7.89698
476.624	7.29451
476.829	7.6445
477.034	8.51511
477.239	7.76562
477.444	8.48364
477.648	8.38731
477.853	8.51389
478.058	8.03239
478.263	7.64953
478.468	7.594
478.672	7.63052
478.877	8.85762
479.082	8.89772
479.287	8.34256
479.491	8.11409
479.696	7.70789
479.901	8.4527
480.105	8.62574
480.31	7.92043
480.515	8.31627
480.719	9.47127
480.924	8.18017
481.128	7.8688
481.333	8.603
481.538	8.62563
481.742	8.84621
481.947	9.83889
482.151	10.78994
482.356	11.58566
482.56	13.78144
482.765	15.30651
482.969	18.16128
483.174	20.36739
483.378	23.35149
483.582	24.06364
483.787	25.75171
483.991	26.03167
484.196	26.18408
484.4	25.5651
484.604	25.66803
484.809	22.93656
485.013	21.54021
485.217	19.33659
485.422	17.34843
485.626	15.8193
485.83	14.9955
486.034	14.6746
486.239	15.02116
486.443	15.59521
486.647	15.99618
486.851	17.16507
487.055	18.43495
487.26	18.33115
487.464	19.28559
487.668	18.86844
487.872	19.17782
488.076	19.23954
488.28	18.37668
488.484	17.13671
488.688	16.63898
488.892	15.70165
489.096	14.55537
489.3	13.24216
489.504	12.53183
489.708	11.99528
489.912	11.89559
490.116	11.62344
490.32	11.35681
490.524	12.58165
490.728	13.43489
490.932	14.20409
491.136	14.99687
491.34	16.12745
491.544	16.32562
491.748	16.11003
491.951	16.19539
492.155	15.55407
492.359	15.04986
492.563	13.67287
492.767	12.69941
492.97	11.4258
493.174	10.20391
493.378	9.32997
493.582	8.2304
493.785	8.06394
493.989	8.2178
494.193	8.19349
494.396	8.05998
494.6	8.58502
494.804	8.31222
495.007	7.96727
495.211	8.16056
495.414	8.26349
495.618	8.61692
495.822	9.19228
496.025	8.6487
496.229	8.88636
496.432	8.26555
496.636	8.5656
496.839	8.46363
497.043	9.17727
497.246	8.68742
497.45	8.31378
497.653	8.52745
497.856	8.52895
498.06	7.95488
498.263	8.29216
498.467	8.15473
498.67	8.75168
498.873	8.57514
499.077	8.22555
499.28	8.29294
499.483	8.40917
499.686	8.69281
499.89	8.3801
500.093	8.75424
500.296	7.87876
500.499	9.04679
500.703	8.18257
500.906	8.5195
501.109	9.06925
501.312	8.31368
501.515	8.22677
501.719	8.44259
501.922	8.95662
502.125	8.47202
502.328	8.34031
502.531	7.89401
502.734	8.33986
502.937	7.66801
503.14	8.54987
503.343	8.08774
503.546	8.31251
503.749	8.03294
503.952	8.75505
504.155	8.09698
504.358	8.60444
504.561	8.37631
504.764	7.74268
504.967	8.42726
505.17	8.2723
505.373	9.12701
505.576	8.39941
505.778	8.77766
505.981	7.98544
506.184	8.98866
506.387	7.66018
506.59	9.4269
506.793	8.95024
506.995	8.7299
507.198	7.60057
507.401	8.72215
507.604	8.70975
507.806	8.04336
508.009	8.17973
508.212	8.94959
508.414	8.20363
508.617	8.38065
508.82	8.4101
509.022	9.16504
509.225	8.62733
509.427	7.81581
509.63	9.10534
509.833	8.48226
510.035	8.18797
510.238	7.71762
510.44	9.09262
510.643	7.51424
510.845	9.41088
511.048	8.63777
511.25	8.17069
511.453	8.32754
511.655	8.61005
511.858	8.44019
512.06	8.87282
512.262	8.52048
512.465	8.85524
512.667	8.11268
512.869	7.85412
513.072	8.5577
513.274	8.70972
513.476	8.58236
513.679	8.78203
513.881	7.78112
514.083	9.16817
514.286	7.87202
514.488	7.99404
514.69	7.8944
514.892	7.67909
515.094	8.70777
515.297	8.0281
515.499	8.44141
515.701	8.0334
515.903	9.29037
516.105	9.35436
516.307	8.94366
516.509	7.72377
516.711	8.12984
516.913	8.62083
517.116	8.68479
517.318	8.48052
517.52	9.35179
517.722	9.0158
517.924	8.25805
518.126	9.03943
518.328	8.62269
518.529	9.20909
518.731	9.92683
518.933	8.52379
519.135	8.75212
519.337	9.24442
519.539	8.6652
519.741	7.60903
519.943	8.15772
520.145	8.09116
520.346	8.56631
520.548	8.10722
520.75	8.40167
520.952	8.13592
521.153	8.41558
521.355	8.49747
521.557	7.85241
521.759	8.47159
521.96	8.37909
522.162	7.77947
522.364	9.02605
522.565	8.16183
522.767	8.75641
522.969	8.91606
523.17	8.79913
523.372	8.62326
523.573	8.26872
523.775	8.50131
523.977	8.21454
524.178	9.5837
524.38	8.48495
524.581	8.98816
524.783	8.69646
524.984	9.0728
525.186	8.9151
525.387	9.47489
525.589	9.42326
525.79	9.42983
525.991	9.39077
526.193	9.96138
526.394	9.46401
526.596	10.26346
526.797	10.49722
526.998	10.31095
527.2	10.82857
527.401	12.81861
527.602	13.96985
527.803	16.26786
528.005	17.39075
528.206	18.6077
528.407	19.63807
528.608	19.62639
528.81	19.82836
529.011	19.18084
529.212	19.7988
529.413	18.3436
529.614	17.00756
529.815	15.90966
530.017	14.49955
530.218	12.68609
530.419	11.38852
530.62	10.96295
530.821	10.46597
531.022	9.36868
531.223	10.06934
531.424	9.94807
531.625	9.98681
531.826	9.8319
532.027	10.50707
532.228	11.76308
532.429	11.89204
532.63	12.30578
532.831	13.22359
533.032	13.29924
533.233	13.98832
533.433	13.62052
533.634	13.72722
533.835	12.98268
534.036	12.28849
534.237	11.6331
534.438	10.91887
534.638	9.59273
534.839	9.17747
535.04	9.13896
535.241	8.51165
535.441	9.47962
535.642	9.20694
535.843	8.75555
536.043	9.02989
536.244	9.32814
536.445	9.58174
536.645	10.26983
536.846	9.84945
537.047	10.25676
537.247	9.15214
537.448	8.77928
537.648	8.62117
537.849	8.28294
538.049	8.28534
538.25	8.58791
538.451	8.52522
538.651	7.94693
538.851	8.71992
539.052	9.22523
539.252	9.02008
539.453	8.81528
539.653	9.11025
539.854	9.09071
540.054	9.2879
540.254	10.88614
540.455	12.02763
540.655	12.24165
540.855	13.72502
541.056	14.69756
541.256	14.63593
541.456	15.38785
541.657	14.94936
541.857	15.4664
542.057	14.14857
542.257	13.53495
542.458	13.65552
542.658	13.24043
542.858	11.42346
543.058	11.43051
543.258	10.80871
543.458	9.45449
543.659	9.1912
543.859	9.55058
544.059	9.34079
544.259	8.6867
544.459	9.35284
544.659	8.55098
544.859	8.97785
545.059	8.63663
545.259	9.29788
545.459	9.06375
545.659	9.49742
545.859	9.09938
546.059	9.30265
546.259	8.63773
546.459	8.35289
546.659	8.48234
546.859	9.27115
547.059	9.03341
547.258	8.95824
547.458	8.86867
547.658	8.18301
547.858	7.99426
548.058	8.50911
548.258	8.30498
548.457	7.94718
548.657	9.65228
548.857	8.26982
549.057	8.94017
549.256	8.72519
549.456	8.27227
549.656	7.50951
549.855	9.80739
550.055	8.34255
550.255	9.60785
550.454	8.81797
550.654	9.05303
550.853	9.58149
551.053	9.12433
551.253	8.85882
551.452	9.05626
551.652	8.02752
551.851	7.95098
552.051	8.58467
552.25	8.41272
552.45	8.31293
552.649	8.504
552.849	8.28038
553.048	8.62156
553.248	8.92807
553.447	7.89012
553.646	8.92791
553.846	9.85811
554.045	9.22759
554.244	7.61162
554.444	9.27171
554.643	7.75402
554.842	9.37701
555.042	9.72048
555.241	8.07098
555.44	7.93025
555.64	8.84832
555.839	9.51261
556.038	8.87972
556.237	7.94771
556.436	8.6252
556.636	8.72916
556.835	8.07461
557.034	9.47119
557.233	8.529
557.432	7.56216
557.631	9.06055
557.83	8.35011
558.029	8.22117
558.228	8.06545
558.427	7.9271
558.626	8.69646
558.825	7.8217
559.024	8.23834
559.223	9.86498
559.422	8.35112
559.621	8.79796
559.82	7.05385
560.019	8.57048
560.218	8.09674
560.417	6.97214
560.616	8.30468
560.815	10.79404
561.014	7.65874
561.212	9.58216
561.411	8.61566
561.61	7.63491
561.809	8.36834
562.008	9.66265
562.206	8.3843
562.405	8.9113
562.604	8.39241
562.803	8.66629
563.001	8.34415
563.2	7.63677
563.399	8.81909
563.597	7.78868
563.796	8.48474
563.995	7.86316
564.193	8.98729
564.392	8.4352
564.59	10.05808
564.789	7.42034
564.988	8.50028
565.186	8.90898
565.385	8.70489
565.583	8.53867
565.782	8.75185
565.98	8.65322
566.179	8.54842
566.377	8.11966
566.575	8.0605
566.774	9.48305
566.972	9.04531
567.171	9.78542
567.369	9.37057
567.567	8.58585
567.766	8.7688
567.964	7.21402
568.162	8.90341
568.361	9.34035
568.559	8.30786
568.757	8.66847
568.956	8.61069
569.154	8.51136
569.352	9.06273
569.55	8.58895
569.748	8.57899
569.947	8.12175
570.145	8.0582
570.343	8.08726
570.541	9.75156
570.739	7.99505
570.937	8.8462
571.135	9.14012
571.333	10.38209
571.532	10.15633
571.73	8.90419
571.928	9.54573
572.126	9.19023
572.324	8.54071
572.522	9.31684
572.72	10.36084
572.918	8.62264
573.116	8.7978
573.313	8.44622
573.511	8.64467
573.709	8.26801
573.907	9.2696
574.105	8.45914
574.303	7.78493
574.501	7.7048
574.699	9.25167
574.896	9.00628
575.094	9.22842
575.292	7.79346
575.49	9.31812
575.688	8.518
575.885	9.53627
576.083	10.33141
576.281	9.02103
576.478	8.03386
576.676	9.00194
576.874	7.6893
577.071	8.5282
577.269	10.2302
577.467	8.37908
577.664	8.55076
577.862	9.26403
578.059	7.97369
578.257	9.23843
578.455	8.49818
578.652	8.53021
578.85	7.1921
579.047	8.86189
579.245	8.38751
579.442	8.6361
579.64	8.41478
579.837	7.37775
580.034	10.70934
580.232	8.33163
580.429	7.89161
580.627	9.13204
580.824	9.7679
581.021	8.97974
581.219	8.48077
581.416	8.30274
581.613	9.83901
581.811	9.76546
582.008	8.11604
582.205	9.62757
582.402	9.01414
582.6	10.03746
582.797	8.75267
582.994	9.28176
583.191	9.48743
583.388	8.63033
583.586	9.48203
583.783	9.74407
583.98	8.05847
584.177	9.05039
584.374	6.90024
584.571	8.59191
584.768	8.98569
584.965	8.3832
585.162	9.4237
585.359	10.1156
585.556	8.92434
585.753	9.17988
585.95	7.80958
586.147	8.11977
586.344	9.30097
586.541	8.77008
586.738	7.93151
586.935	8.85327
587.132	8.29882
587.329	9.95125
587.526	8.99246
587.722	13.33496
587.919	7.8183
588.116	9.34401
588.313	9.94224
588.51	10.85198
588.706	8.83096
588.903	9.45334
589.1	9.91983
589.297	11.52073
589.493	8.99609
589.69	9.39737
589.887	8.50957
590.083	8.02097
590.28	8.4849
590.477	9.71017
590.673	9.41851
590.87	10.11155
591.067	8.49945
591.263	9.25722
591.46	9.18261
591.656	8.59528
591.853	10.35619
592.049	8.32912
592.246	8.36053
592.442	9.87566
592.639	9.92056
592.835	8.16944
593.032	9.31553
593.228	7.95222
593.425	7.9536
593.621	7.88694
593.817	9.20128
594.014	8.49571
594.21	9.43315
594.406	10.18858
594.603	9.46626
594.799	8.51713
594.995	7.19803
595.192	10.00187
595.388	8.75158
595.584	8.8483
595.78	8.00467
595.977	11.61207
596.173	10.64027
596.369	9.16748
596.565	8.57102
596.761	8.61694
596.957	10.23305
597.154	8.62601
597.35	8.60818
597.546	8.39054
597.742	9.36562
597.938	9.05461
598.134	8.06919
598.33	8.80121
598.526	9.74107
598.722	8.95658
598.918	10.39887
599.114	9.44024
599.31	7.72307
599.506	9.07364
599.702	8.3431
599.898	9.20641
600.094	9.864
600.29	9.7459
600.485	9.90534
600.681	8.43424
600.877	10.47922
601.073	9.31759
601.269	11.07226
601.465	10.45602
601.66	8.45233
601.856	7.45786
602.052	11.3872
602.248	9.0688
602.443	7.80091
602.639	8.22407
602.835	8.64967
603.03	8.67185
603.226	10.12356
603.422	8.62499
603.617	9.21965
603.813	9.10701
604.009	9.0294
604.204	10.29409
604.4	8.10186
604.595	10.15328
604.791	8.39596
604.986	9.45935
605.182	8.47202
605.377	8.69281
605.573	8.58381
605.768	8.85584
605.964	9.34606
606.159	9.28961
606.355	9.65646
606.55	8.56551
606.746	9.89605
606.941	8.91122
607.136	10.73253
607.332	11.70892
607.527	8.10873
607.722	9.52412
607.918	9.1878
608.113	8.56432
608.308	10.26106
608.503	10.05129
608.699	9.9697
608.894	10.1994
609.089	8.87028
609.284	10.1064
609.479	9.19844
609.675	10.18071
609.87	9.39814
610.065	10.11837
610.26	10.24391
610.455	10.15388
610.65	9.56492
610.845	9.84184
611.04	10.41988
611.235	9.57016
611.43	9.43542
611.625	8.73706
611.82	11.2046
612.015	9.08778
612.21	11.63296
612.405	8.37762
612.6	11.6548
612.795	11.35006
612.99	10.3888
613.185	8.67739
613.38	9.15264
613.575	9.99414
613.77	12.80254
613.965	8.15041
614.159	9.04431
614.354	10.99124
614.549	10.73952
614.744	10.37117
614.938	8.53141
615.133	8.15889
615.328	11.2279
615.523	11.127
615.717	12.83624
615.912	9.15584
616.107	9.56722
616.301	9.313
616.496	8.93342
616.691	11.4672
616.885	10.31567
617.08	12.73858
617.274	10.73196
617.469	11.89314
617.664	10.40384
617.858	9.31102
618.053	10.02699
618.247	9.3556
618.442	7.36518
618.636	11.31516
618.831	8.89838
619.025	9.01671
619.219	13.15585
619.414	6.4081
619.608	9.40143
619.803	8.92795
619.997	12.12504
620.191	10.86999
620.386	10.13646
620.58	9.61733
620.774	7.7702
620.969	7.94274
621.163	9.837
621.357	8.45106
621.551	9.51397
621.746	9.90733
621.94	9.37474
622.134	13.68295
622.328	12.2956
622.522	7.97379
622.716	11.03091
622.911	10.95149
623.105	10.78416
623.299	10.22862
623.493	13.51312
623.687	8.97503
623.881	9.03373
624.075	10.5042
624.269	11.31346
624.463	7.7344
624.657	7.92515
624.851	10.53329
625.045	11.03677
625.239	10.82381
625.433	9.32265
625.627	11.99485
625.821	9.48186
626.015	9.00513
626.209	9.99288
626.403	8.12925
626.596	10.40466
626.79	10.71887
626.984	8.38058
627.178	10.39291
627.372	10.28968
627.565	10.43878
627.759	8.19115
627.953	8.42184
628.147	9.99897
628.34	10.43416
628.534	12.21326
628.728	9.34351
628.921	10.79748
629.115	10.47604
629.309	10.79174
629.502	11.21211
629.696	9.95657
629.89	9.70109
630.083	10.27519
630.277	10.33866
630.47	11.98299
630.664	9.29457
630.857	8.14073
631.051	10.86999
631.244	11.29154
631.438	11.09575
631.631	9.09625
631.825	11.74509
632.018	10.45093
632.212	12.45256
632.405	11.59986
632.598	9.06902
632.792	10.2917
632.985	7.21138
633.178	9.70371
633.372	9.95767
633.565	9.8872
633.758	11.63526
633.952	8.81516
634.145	8.86405
634.338	9.33624
634.531	9.32274
634.724	8.8377
634.918	10.0186
635.111	9.38049
635.304	9.36993
635.497	13.00326
635.69	10.20005
635.883	11.60218
636.077	8.65635
636.27	10.50044
636.463	10.3885
636.656	10.40242
636.849	9.68259
637.042	10.7016
637.235	12.81248
637.428	10.96635
637.621	10.71853
637.814	11.98781
638.007	12.26228
638.2	12.24289
638.393	12.99647
638.586	8.13951
638.778	9.67714
638.971	10.1278
639.164	12.28931
639.357	10.55609
639.55	12.40242
639.743	11.31779
639.935	11.07425
640.128	13.67296
640.321	11.671
640.514	10.39293
640.707	13.86022
640.899	11.24974
641.092	8.17607
641.285	26.25667
641.477	7.32957
641.67	14.41278
641.863	12.54661
642.055	11.10615
642.248	10.4022
642.441	9.97573
642.633	11.33406
642.826	12.67001
643.018	12.70249
643.211	13.81428
643.403	13.97451
643.596	14.24333
643.788	13.26259
643.981	10.01794
644.173	11.70995
644.366	10.17067
644.558	7.87858
644.751	12.31041
644.943	9.16357
645.135	13.27579
645.328	13.47934
645.52	11.85246
645.712	12.90368
645.905	16.10931
646.097	9.26977
646.289	11.29322
646.482	14.70328
646.674	9.60257
646.866	13.03635
647.058	12.01197
647.251	9.64567
647.443	10.17699
647.635	10.62856
647.827	9.52507
648.019	9.40294
648.211	10.82517
648.404	11.446
648.596	14.22352
648.788	11.81646
648.98	11.31588
649.172	11.84673
649.364	11.94039
649.556	8.53759
649.748	15.785
649.94	9.68191
650.132	12.44917
650.324	9.72679
650.516	10.0826
650.708	13.14229
650.9	8.9526
651.092	8.56435
651.284	9.07692
651.476	9.40592
651.667	12.41684
651.859	13.73223
652.051	10.72211
652.243	11.42159
652.435	10.39722
652.627	12.32855
652.818	11.96693
653.01	8.59672
653.202	9.94118
653.394	10.38659
653.585	11.9793
653.777	18.75939
653.969	14.15953
654.16	13.25047
654.352	9.5606
654.544	11.31791
654.735	13.47733
654.927	11.64897
655.118	13.81539
655.31	12.81046
655.502	13.59685
655.693	11.05986
655.885	12.61119
656.076	14.42164
656.268	12.18086
656.459	14.18824
656.651	14.08918
656.842	10.83401
657.034	10.39215
657.225	13.26431
657.416	14.30317
657.608	14.2422
657.799	11.95429
657.99	14.07831
658.182	10.70159
658.373	10.81346
658.564	13.86578
658.756	12.52642
658.947	11.55812
659.138	10.30712
659.33	10.92214
659.521	10.31031
659.712	11.33316
659.903	11.13976
660.094	10.46681
660.286	8.92374
660.477	14.26179
660.668	12.32779
660.859	11.07739
661.05	9.28056
661.241	12.29168
661.432	12.19932
661.623	10.98964
661.814	10.74538
662.006	9.06685
662.197	11.3881
662.388	13.88781
662.579	12.3045
662.77	14.03962
662.96	17.08628
663.151	13.85426
663.342	8.64788
663.533	13.1723
663.724	12.01869
663.915	15.95159
664.106	12.23015
664.297	15.64908
664.488	13.32607
664.678	10.78979
664.869	13.6237
665.06	13.67882
665.251	12.25416
665.442	13.78714
665.632	10.43043
665.823	16.15138
666.014	7.21809
666.204	13.17209
666.395	15.22523
666.586	17.16185
666.776	14.07165
666.967	15.78879
667.158	12.51165
667.348	15.68397
667.539	10.8839
667.729	14.50634
667.92	11.15676
668.111	14.60283
668.301	14.19165
668.492	12.01448
668.682	13.15779
668.873	12.36255
669.063	10.39318
669.253	13.31864
669.444	15.49012
669.634	12.56264
669.825	16.00431
670.015	14.93687
670.206	11.35227
670.396	16.62679
670.586	12.03431
670.777	13.7475
670.967	8.46559
671.157	12.2526
671.347	11.39666
671.538	15.75478
671.728	14.10556
671.918	16.78098
672.108	14.58572
672.299	12.27883
672.489	13.431
672.679	11.39787
672.869	14.53929
673.059	18.20585
673.249	14.41211
673.44	10.66387
673.63	12.34593
673.82	15.13085
674.01	11.11773
674.2	14.1828
674.39	19.08616
674.58	14.5936
674.77	13.74159
674.96	12.59251
675.15	22.57702
675.34	15.56545
675.53	13.12406
675.72	12.0325
675.91	9.7804
676.099	17.50238
676.289	18.98529
676.479	15.65599
676.669	12.27834
676.859	14.71472
677.049	11.55365
677.238	13.49388
677.428	17.29453
677.618	14.70124
677.808	17.89399
677.997	14.55642
678.187	11.7169
678.377	13.57231
678.567	12.18742
678.756	12.48801
678.946	13.32124
679.136	10.8572
679.325	12.396
679.515	11.75791
679.704	10.69061
679.894	15.57023
680.084	14.21079
680.273	16.14746
680.463	11.69029
680.652	11.57498
680.842	13.09317
681.031	15.52437
681.221	11.4999
681.41	14.60399
681.6	12.79321
681.789	15.17011
681.978	16.13538
682.168	14.06717
682.357	13.686
682.547	14.61702
682.736	14.02721
682.925	16.59045
683.115	16.18548
683.304	15.40593
683.493	14.11325
683.682	15.31901
683.872	15.15962
684.061	16.83328
684.25	15.14676
684.439	20.05411
684.629	16.21018
684.818	22.58967
685.007	14.66126
685.196	13.38486
685.385	19.18954
685.574	15.2505
685.763	15.11975
685.952	15.62718
686.142	11.80896
686.331	17.83286
686.52	10.93601
686.709	19.64058
686.898	19.56501
687.087	16.53705
687.276	19.24769
687.465	18.11213
687.654	14.50435
687.842	18.69796
688.031	12.10633
688.22	18.63581
688.409	15.34244
688.598	15.77752
688.787	21.85185
688.976	15.46008
689.165	20.34648
689.353	13.9068
689.542	17.01129
689.731	18.38723
689.92	21.20149
690.108	17.13718
690.297	14.51292
690.486	16.12086
690.675	17.30179
690.863	20.16051
691.052	19.73937
691.241	16.35395
691.429	16.52047
691.618	19.28286
691.806	12.26687
691.995	15.25915
692.184	15.96359
692.372	14.79285
692.561	15.70369
692.749	16.88141
692.938	25.70572
693.126	17.30435
693.315	15.41189
693.503	17.70089
693.692	18.91613
693.88	18.76225
694.068	22.27047
694.257	16.84341
694.445	18.34381
694.634	11.35213
694.822	18.96794
695.01	19.97669
695.199	22.42448
695.387	21.42646
695.575	20.04017
695.763	16.1099
695.952	15.93171
696.14	11.89984
696.328	15.00355
696.516	16.96578
696.705	17.5879
696.893	17.02424
697.081	12.09385
697.269	19.23979
697.457	13.74501
697.645	13.17871
697.833	18.84285
698.021	14.40913
698.21	14.97336
698.398	15.55437
698.586	12.98032
698.774	12.66687
698.962	15.43887
699.15	13.01406
699.338	11.61411
699.526	16.33199
699.714	13.12572
699.901	13.16008
700.089	16.87193
700.277	13.11206
700.465	14.61301
700.653	16.63678
700.841	16.52665
701.029	13.85105
701.217	19.94211
701.404	16.03501
701.592	20.32923
701.78	23.03646
701.968	15.36589
702.155	15.23766
702.343	12.98712
702.531	20.8725
702.718	18.09939
702.906	15.60399
703.094	15.45766
703.281	21.35351
703.469	16.13551
703.657	20.49866
703.844	27.95909
704.032	23.85082
704.219	16.64488
704.407	19.39127
704.595	22.55285
704.782	19.20246
704.97	17.80051
705.157	17.01586
705.345	24.99983
705.532	30.67094
705.719	21.92476
705.907	25.61
706.094	21.4536
706.282	28.27071
706.469	21.68324
706.656	23.19076
706.844	21.55274
707.031	26.51198
707.218	25.20349
707.406	28.95081
707.593	26.51865
707.78	26.33652
707.968	24.14045
708.155	21.65139
708.342	27.3387
708.529	26.77094
708.716	25.47931
708.904	30.50518
709.091	26.35926
709.278	21.46842
709.465	31.39353
709.652	29.53809
709.839	28.06121
710.026	24.31968
710.213	18.06358
710.4	24.27692
710.587	25.1621
710.774	26.70036
710.961	27.1088
711.148	23.33143
711.335	26.58787
711.522	22.88299
711.709	25.60489
711.896	31.10658
712.083	27.62844
712.27	21.06554
712.457	24.22305
712.644	18.93202
712.831	31.19939
713.017	24.62836
713.204	26.2034
713.391	21.1192
713.578	26.98382
713.765	28.4004
713.951	24.36128
714.138	34.26453
714.325	23.29365
714.512	21.61968
714.698	18.94155
714.885	26.88854
715.072	21.89725
715.258	21.2859
715.445	18.15515
715.631	25.27168
715.818	11.89747
716.005	18.23552
716.191	22.3466
716.378	18.51287
716.564	23.23078
716.751	16.63622
716.937	18.15849
717.124	23.86664
717.31	16.45055
717.497	27.73736
717.683	17.37918
717.869	28.0059
718.056	18.03912
718.242	22.56309
718.429	19.87468
718.615	16.44365
718.801	20.18937
718.988	24.88315
719.174	22.50254
719.36	19.30527
719.547	25.7776
719.733	21.45169
719.919	20.63831
720.105	23.07689
720.291	20.41843
720.478	22.00969
720.664	19.73867
720.85	18.94486
721.036	33.08262
721.222	28.40855
721.408	20.61962
721.595	28.3352
721.781	28.11668
721.967	25.94798
722.153	28.35417
722.339	23.84483
722.525	23.22455
722.711	17.28129
722.897	15.76802
723.083	20.39826
723.269	25.99398
723.455	34.76896
723.641	39.93257
723.827	22.35601
724.012	23.85936
724.198	21.94633
724.384	28.89266
724.57	23.34375
724.756	16.14767
724.942	14.16162
725.127	27.00246
725.313	27.9057
725.499	28.00052
725.685	31.73685
725.87	24.30289
726.056	17.69476
726.242	28.30102
726.428	16.04408
726.613	26.54351
726.799	21.25456
726.985	17.91242
727.17	15.73255
727.356	31.43981
727.541	18.17966
727.727	22.13668
727.913	25.88349
728.098	20.12936
728.284	25.70421
728.469	17.3685
728.655	18.45645
728.84	27.76693
729.026	26.49582
729.211	25.84817
729.397	24.4578
729.582	26.13627
729.767	22.35178
729.953	24.55527
730.138	28.73053
730.323	12.75727
730.509	17.53168
730.694	30.88078
730.879	25.48948
731.065	23.47473
731.25	33.71163
731.435	26.01639
731.621	16.33184
731.806	20.61059
731.991	23.61656
732.176	16.19142
732.361	30.26017
732.547	24.17301
732.732	15.72926
732.917	33.99882
733.102	17.70713
733.287	20.21399
733.472	22.11205
733.657	22.0378
733.842	16.31014
734.027	20.40455
734.212	21.63643
734.397	18.73352
734.582	23.27295
734.767	26.97509
734.952	29.17334
735.137	12.02428
735.322	29.89277
735.507	24.65863
735.692	23.96156
735.877	34.07634
736.062	32.62091
736.247	24.76991
736.431	22.61094
736.616	28.46733
736.801	24.78407
736.986	23.49931
737.171	18.83842
737.355	18.0044
737.54	30.8766
737.725	24.39087
737.909	38.34513
738.094	21.68082
738.279	27.49126
738.463	22.15052
738.648	26.92269
738.833	25.3609
739.017	35.3432
739.202	23.21841
739.386	22.98268
739.571	19.5242
739.756	28.18945
739.94	24.14317
740.125	27.353
740.309	20.33851
740.494	27.78035
740.678	24.78896
740.863	26.30819
741.047	25.11905
741.231	32.38436
741.416	21.02044
741.6	33.16437
741.785	20.27917
741.969	29.5182
742.153	31.70093
742.338	13.92762
742.522	24.66386
742.706	29.91514
742.89	18.1562
743.075	23.81037
743.259	31.91643
743.443	31.62719
743.627	30.5981
743.812	37.10032
743.996	16.18601
744.18	23.53843
744.364	22.03929
744.548	39.17674
744.732	23.07036
744.916	30.53928
745.1	27.96195
745.285	22.96992
745.469	28.3435
745.653	34.75498
745.837	18.81008
746.021	38.84533
746.205	32.01646
746.389	26.59577
746.573	23.42762
746.757	34.24128
746.94	22.02941
747.124	32.46417
747.308	18.86785
747.492	31.715
747.676	20.3462
747.86	40.87921
748.044	22.62531
748.227	17.03521
748.411	49.95564
748.595	26.1045
748.779	20.48234
748.963	28.76103
749.146	25.976
749.33	21.31678
749.514	21.25656
749.697	32.39163
749.881	20.88032
750.065	19.50697
750.248	26.66016
750.432	39.85372
750.616	25.62836
750.799	20.55686
750.983	41.84484
751.166	41.38883
751.35	16.60243
751.533	29.92098
751.717	35.6538
751.9	35.72341
752.084	23.93853
752.267	21.18887
752.451	21.47277
752.634	26.94516
752.818	29.63484
753.001	31.4302
753.184	33.789
753.368	27.62166
753.551	7.03718
753.734	21.25952
753.918	41.76495
754.101	22.51067
754.284	30.22368
754.467	23.44114
754.651	22.02864
754.834	21.20478
755.017	33.40481
755.2	33.70088
755.384	20.02488
755.567	30.09624
755.75	32.10044
755.933	23.78328
756.116	30.85242
756.299	22.49372
756.482	21.82278
756.665	30.43652
756.848	26.27376
757.032	28.68182
757.215	18.09166
757.398	20.53061
757.581	21.57462
757.764	46.01412
757.947	26.58979
758.129	33.00448
758.312	10.40863
758.495	25.01507
758.678	25.69613
758.861	25.02827
759.044	38.93097
759.227	21.36983
759.41	22.12868
759.592	31.12994
759.775	24.72248
759.958	33.30887
760.141	19.38521
760.324	42.196
760.506	36.76666
760.689	32.95444
760.872	43.01456
761.054	29.74398
761.237	25.7937
761.42	27.54364
761.602	31.62984
761.785	29.679
761.968	34.5685
762.15	38.43519
762.333	26.52272
762.515	30.13829
762.698	23.76458
762.88	33.43605
763.063	30.26565
763.245	34.39511
763.428	21.67717
763.61	23.1871
763.793	19.53785
763.975	28.52666
764.158	24.0075
764.34	22.25427
764.522	20.40488
764.705	24.11184
764.887	36.11423
765.069	16.3455
765.252	29.52349
765.434	30.64855
765.616	26.45533
765.799	21.26434
765.981	30.24014
766.163	21.81689
766.345	35.58451
766.528	21.51733
766.71	13.46905
766.892	28.26539
767.074	35.00904
767.256	23.96091
767.438	39.28136
767.62	27.95222
767.802	44.96367
767.985	32.46166
768.167	40.59424
768.349	24.1612
768.531	32.59497
768.713	28.69534
768.895	34.01808
769.077	30.35724
769.259	48.1603
769.441	65.25558
769.623	34.03732
769.804	38.09545
769.986	37.15215
770.168	44.58919
770.35	55.77009
770.532	42.13874
770.714	47.06457
770.896	44.84576
771.077	19.84402
771.259	47.4929
771.441	41.19144
771.623	48.30992
771.804	62.32737
771.986	21.59197
772.168	32.81769
772.35	46.92462
772.531	64.55801
772.713	39.35693
772.894	50.62656
773.076	40.02571
773.258	34.10154
773.439	54.50947
773.621	61.20906
773.802	28.17846
773.984	33.54683
774.166	44.51541
774.347	56.40164
774.529	49.70755
774.71	18.73352
774.891	37.92978
775.073	34.52117
775.254	54.59774
775.436	32.71629
775.617	65.50813
775.799	32.80608
775.98	55.06097
776.161	59.78522
776.343	60.93714
776.524	38.44966
776.705	38.27104
776.886	19.99921
777.068	42.78534
777.249	92.21035
777.43	63.13339
777.611	27.02688
777.793	32.40483
777.974	62.30529
778.155	33.83393
778.336	26.95784
778.517	69.65663
778.698	30.59899
778.879	21.62304
779.061	11.89578
779.242	44.50422
779.423	46.98412
779.604	32.46527
779.785	37.08133
779.966	43.35335
780.147	52.99375
780.328	52.99651
780.509	73.47387
780.69	52.45413
780.871	31.78549
781.051	25.13309
781.232	42.59501
781.413	40.03829
781.594	35.79894
781.775	34.66636
781.956	31.5369
782.137	18.1786
782.317	33.41585
782.498	41.56781
782.679	38.11715
782.86	43.74105
783.04	32.31215
783.221	42.30587
783.402	65.06697
783.583	41.00394
783.763	52.36851
783.944	35.0841
784.124	25.14283
784.305	63.07631
784.486	50.59836
784.666	40.90216
784.847	23.25281
785.027	85.3951
785.208	32.47091
785.388	30.98174
785.569	33.28467
785.749	38.48443
785.93	35.04683
786.11	23.85596
786.291	47.40009
786.471	42.69913
786.652	50.56472
786.832	39.25222
787.012	42.19454
787.193	26.76405
787.373	42.57631
787.553	34.01609
787.734	43.28599
787.914	35.51916
788.094	53.58364
788.275	43.38172
788.455	35.70431
788.635	26.18042
788.815	43.07443
788.995	28.53069
789.176	23.15604
789.356	31.37066
789.536	37.8058
789.716	46.50991
789.896	31.51539
790.076	33.23184
790.256	44.45178
790.436	16.52448
790.616	29.13344
790.796	41.73932
790.976	35.66962
791.156	30.8016
791.336	47.05768
791.516	43.42402
791.696	34.60092
791.876	23.85074
792.056	42.89559
792.236	51.88411
792.416	50.84663
792.596	44.17963
792.776	45.82492
792.956	50.10938
793.135	61.46416
793.315	26.75224
793.495	55.244
793.675	48.61754
793.854	49.86603
794.034	51.61378
794.214	27.98792
794.394	50.08111
794.573	55.46543
794.753	41.42968
794.933	29.95728
795.112	45.11395
795.292	53.36552
795.472	63.71315
795.651	25.09231
795.831	38.89344
796.01	37.25787
796.19	36.01275
796.369	39.93671
796.549	45.70444
796.728	38.89411
796.908	24.30396
797.087	27.42951
797.267	37.03415
797.446	28.00016
797.626	45.88595
797.805	45.50787
797.984	31.48528
798.164	50.07013
798.343	29.24827
798.522	41.44008
798.702	40.84547
798.881	25.28594
799.06	35.70054
799.239	19.43404
799.419	30.15646
799.598	61.17819
799.777	45.03391
799.956	53.39191
800.136	36.41995
800.315	30.71702
800.494	43.40767
800.673	53.3465
800.852	48.91157
801.031	54.08979
801.21	46.03545
801.389	34.72904
801.568	40.68223
801.747	65.64016
801.926	40.47637
802.105	58.75577
802.284	33.49186
802.463	61.47552
802.642	41.41092
802.821	44.11949
803	59.40357
803.179	52.10063
803.358	52.60232
803.537	31.72517
803.716	40.41112
803.895	33.77351
804.073	37.66026
804.252	32.43241
804.431	44.75517
804.61	39.15548
804.789	50.94185
804.967	34.01229
805.146	34.61664
805.325	70.15202
805.503	46.32241
805.682	27.00043
805.861	85.69137
806.039	58.71877
806.218	33.85701
806.397	42.31588
806.575	39.1946
806.754	46.65698
806.932	30.12616
807.111	54.4264
807.289	52.89596
807.468	41.67432
807.646	53.73373
807.825	49.18791
808.003	41.89204
808.182	53.83132
808.36	41.87581
808.539	30.73022
808.717	62.97596
808.895	32.75653
809.074	44.28432
809.252	39.56387
809.43	49.37546
809.609	57.01518
809.787	61.4291
809.965	36.95903
810.144	41.78047
810.322	39.54179
810.5	50.14852
810.678	36.62701
810.856	73.15758
811.035	55.56224
811.213	48.68003
811.391	60.06671
811.569	45.76878
811.747	93.74501
811.925	58.44157
812.103	36.07235
812.281	39.82168
812.459	68.96513
812.637	69.09477
812.816	55.97185
812.994	72.68971
813.171	63.24742
813.349	50.62263
813.527	56.89719
813.705	61.53273
813.883	81.71867
814.061	54.3819
814.239	68.87258
814.417	75.83999
814.595	50.75687
814.773	48.89045
814.95	46.68796
815.128	51.39355
815.306	45.04147
815.484	42.74053
815.662	31.78411
815.839	28.7783
816.017	37.03191
816.195	58.28037
816.372	38.54092
816.55	55.78481
816.728	67.52654
816.905	40.49745
817.083	67.50475
817.261	43.8454
817.438	89.50466
817.616	70.02899
817.793	38.90357
817.971	54.64087
818.148	54.17242
818.326	62.5608
818.503	46.8667
818.681	67.66469
818.858	38.80316
819.036	43.00997
819.213	48.43487
819.391	35.50103
819.568	36.30688
819.745	30.91843
819.923	55.10753
820.1	40.6565
820.277	33.7707
820.455	39.84744
820.632	42.29198
820.809	45.51972
820.986	30.13549
821.164	25.96656
821.341	25.10731
821.518	34.56596
821.695	25.55057
821.872	23.51921
822.05	20.95919
822.227	17.50338
822.404	18.0845
822.581	20.61392
822.758	17.58577
822.935	17.37437
823.112	19.3083
823.289	16.15129
823.466	18.67983
823.643	17.46894
823.82	20.21735
823.997	17.75737
824.174	19.97323
824.351	26.80679
824.528	24.97861
824.705	22.65065
824.882	24.97145
825.059	32.75908
825.236	23.13068
825.412	24.69119
825.589	30.30073
825.766	42.38792
825.943	27.24727
826.12	32.37249
826.296	24.32889
826.473	30.45572
826.65	29.99749
826.827	35.35677
827.003	24.71431
827.18	27.33831
827.357	30.25533
827.533	25.93805
827.71	15.93165
827.887	22.52139
828.063	25.73755
828.24	21.76016
828.416	28.83981
828.593	23.96935
828.769	32.65121
828.946	32.73661
829.122	34.87137
829.299	33.22983
829.475	20.85767
829.652	32.06259
829.828	53.98267
830.005	34.90867
830.181	46.48799
830.357	35.63031
830.534	48.0541
830.71	39.49668
830.886	49.81429
831.063	47.78678
831.239	61.83385
831.415	30.89682
831.592	63.46499
831.768	40.73241
831.944	34.25053
832.12	68.81034
832.296	63.18685
832.473	53.31071
832.649	37.88959
832.825	54.21662
833.001	33.01815
833.177	47.44084
833.353	43.89436
833.529	26.80504
833.705	39.42774
833.881	26.63858
834.058	25.80222
834.234	28.39619
834.41	27.84803
834.586	21.86397
834.761	26.06551
834.937	28.72515
835.113	29.11454
835.289	25.25281
835.465	29.28955
835.641	25.7653
835.817	28.81603
835.993	48.46195
836.169	25.4948
836.344	39.26142
836.52	44.81841
836.696	40.85877
836.872	32.97946
837.048	91.45883
837.223	35.98065
837.399	71.16184
837.575	57.59219
837.75	50.54888
837.926	72.33461
838.102	107.43085
838.277	83.01052
838.453	117.81421
838.628	117.91823
838.804	48.62898
838.98	99.49978
839.155	53.31248
839.331	74.24821
839.506	52.15369
839.682	54.1347
839.857	74.32039
840.033	85.56769
840.208	39.87205
840.384	23.45418
840.559	41.97695
840.734	64.77619
840.91	83.34137
841.085	50.07924
841.26	48.95397
841.436	45.14791
841.611	43.29096
841.786	64.4284
841.962	86.34533
842.137	56.47975
842.312	36.76366
842.487	49.59919
842.663	40.29918
842.838	53.10806
843.013	153.78013
843.188	80.18713
843.363	82.99955
843.538	126.28809
843.714	132.27092
843.889	134.47989
844.064	148.1612
844.239	120.05714
844.414	134.38778
844.589	87.54117
844.764	168.82607
844.939	162.54388
845.114	176.05487
845.289	168.51675
845.464	225.51178
845.639	151.44014
845.814	77.45891
845.989	92.13305
846.163	113.10032
846.338	123.56642
846.513	158.30736
846.688	107.74338
846.863	109.43631
847.038	103.28629
847.212	123.05601
847.387	115.77979
847.562	125.48752
847.737	155.89732
847.911	62.58885
848.086	74.46208
848.261	211.7154
848.435	104.54756
848.61	161.53136
848.785	85.24317
848.959	162.87858
849.134	221.77728
849.308	229.46067
849.483	120.82988
849.658	195.06493
849.832	105.13658
850.007	93.88586
850.181	254.44789
850.356	92.73835
850.53	239.96244
850.705	78.34377
850.879	46.92402
851.053	118.23804
851.228	101.18528
851.402	135.84548
851.577	175.29425
851.751	191.54015
851.925	134.03821
852.099	64.30281
852.274	82.92929
852.448	118.16795
852.622	149.85115
852.797	120.4463
852.971	109.59594
853.145	129.39534
853.319	350.92472
853.493	181.96786
853.668	98.5327
853.842	224.68389
854.016	189.77791
854.19	212.76677
854.364	128.88335
854.538	139.22312
854.712	184.99616
854.886	119.52835
855.06	109.85675
855.234	44.01558
855.408	201.91199
855.582	171.40378
855.756	171.93648
855.93	224.63982
856.104	152.19614
856.278	173.9706
856.452	127.0728
856.626	172.78255
856.8	269.90535
856.973	156.8143
857.147	146.8241
857.321	149.86111
857.495	183.32467
857.669	122.77463
857.842	109.05678
858.016	179.93197
858.19	94.06808
858.364	293.4295
858.537	113.895
858.711	137.89026
858.885	121.43033
859.058	106.08799
859.232	57.28289
859.405	65.85522
859.579	174.03984
859.753	144.52794
859.926	96.98255
860.1	78.10592
860.273	129.14095
860.447	204.69502
860.62	118.28232
860.794	256.70399
860.967	149.8272
861.141	183.72903
861.314	269.10594
861.487	159.11641
861.661	210.18414
861.834	211.39786
862.008	184.59203
862.181	135.21424
862.354	138.07276
862.528	156.56706
862.701	109.96167
862.874	71.56784
863.047	119.80477
863.221	111.05984
863.394	56.32263
863.567	217.4263
863.74	48.53327
863.913	168.19047
864.087	147.59061
864.26	183.50861
864.433	129.69988
864.606	227.28408
864.779	138.74142
864.952	66.22606
865.125	104.71823
865.298	124.45463
865.471	133.47317
865.644	259.91394
865.817	213.01034
865.99	177.13366
866.163	201.77708
866.336	112.29033
866.509	125.11103
866.682	114.28512
866.855	194.69812
867.028	89.70011
867.2	169.34743
867.373	66.43328
867.546	145.55765
867.719	273.80223
867.892	170.73799
868.064	95.0639
868.237	161.06623
868.41	132.99018
868.583	75.98004
868.755	85.18083
868.928	137.34157
869.101	281.94673
869.273	199.17816
869.446	163.90842
869.619	195.73349
869.791	129.08518
869.964	197.83172
870.136	183.66566
870.309	142.67822
870.481	148.58129
870.654	69.78536
870.826	147.5461
870.999	116.9005
871.171	185.33676
871.344	105.1869
871.516	136.98823
871.689	101.16295
871.861	144.4858
872.033	102.01221
872.206	114.89722
872.378	186.14257
872.55	122.75328
872.723	79.65896
872.895	116.85557
873.067	192.88141
873.24	215.26588
873.412	118.15537
873.584	119.67
873.756	122.74914
873.928	151.28607
874.101	157.41485
874.273	166.02707
874.445	55.89565
874.617	80.92484
874.789	148.21101
874.961	120.30579
875.133	164.66127
875.305	139.03113
875.477	93.45455
875.649	74.47767
875.821	99.36565
875.993	232.04358
876.165	88.18632
876.337	156.65285
876.509	120.52827
876.681	151.10048
876.853	146.05486
877.025	150.03972
877.197	98.5605
877.369	87.99934
877.541	180.65805
877.712	55.0768
877.884	84.8134
878.056	169.5741
878.228	91.70233
878.4	162.56991
878.571	91.13221
878.743	67.62491
878.915	145.42336
879.086	87.75076
879.258	109.34934
879.43	99.45155
879.601	86.62886
879.773	93.53679
879.945	27.01652
880.116	42.46646
880.288	28.44282
880.459	30.69406
880.631	25.06475
880.802	29.51615
880.974	27.79887
881.145	20.00173
881.317	26.49559
881.488	20.87547
881.66	22.89254
881.831	20.26355
882.002	26.8053
882.174	20.35112
882.345	25.20998
882.517	15.13956
882.688	28.29183
882.859	24.03277
883.03	36.91138
883.202	34.56391
883.373	29.19504
883.544	29.62887
883.715	51.56986
883.887	41.30924
884.058	37.3377
884.229	50.28016
884.4	52.66211
884.571	57.9458
884.742	54.16106
884.914	58.12014
885.085	74.82295
885.256	96.29051
885.427	82.49105
885.598	99.20412
885.769	100.9087
885.94	100.98643
886.111	62.80848
886.282	118.07245
886.453	96.34452
886.624	73.55268
886.795	113.82171
886.966	98.64371
887.136	126.56179
887.307	87.75757
887.478	159.27153
887.649	142.87935
887.82	150.01376
887.991	114.02984
888.161	159.46527
888.332	152.70668
888.503	80.48619
888.674	204.35703
888.844	219.68988
889.015	178.66192
889.186	79.44004
889.356	201.84794
889.527	80.03035
889.698	349.98465
889.868	124.52398
890.039	151.0666
890.209	131.46198
890.38	175.88867
890.551	153.84904
890.721	216.58721
890.892	181.58017
891.062	121.97677
891.233	153.12891
891.403	118.91207
891.574	96.64663
891.744	122.09878
891.914	167.67971
892.085	140.4286
892.255	54.0037
892.425	213.19474
892.596	166.50628
892.766	152.87684
892.936	220.73411
893.107	183.38413
893.277	101.05639
893.447	76.05778
893.618	59.62675
893.788	114.28504
893.958	61.88816
894.128	65.97583
894.298	73.85776
894.468	101.51361
894.639	48.58062
894.809	34.5262
894.979	52.53926
895.149	62.49447
895.319	51.26251
895.489	66.96008
895.659	85.84443
895.829	57.27568
895.999	60.62427
896.169	46.85782
896.339	56.93071
896.509	116.74361
896.679	130.88347
896.849	121.589
897.019	171.35994
897.189	134.86
897.358	118.69048
897.528	174.72745
897.698	62.6021
897.868	163.21365
898.038	274.33124
898.208	258.86418
898.377	83.85625
898.547	262.21568
898.717	412.60608
898.886	162.02541
899.056	255.15068
899.226	387.55492
899.395	237.35748
899.565	296.39
899.735	199.57372
899.904	322.57106
900.074	287.04699
900.244	136.85403
900.413	496.96365
900.583	113.83592
900.752	186.99931
900.922	302.9055
901.091	32.50291
901.261	270.54002
901.43	254.28556
901.599	234.89468
901.769	549.78337
901.938	296.78173
902.108	278.8277
902.277	360.91032
902.446	103.90493
902.616	118.39554
902.785	180.11066
902.954	282.81453
903.124	191.47115
903.293	165.48858
903.462	86.34538
903.631	117.2268
903.801	88.84118
903.97	46.65138
904.139	82.21219
904.308	62.8437
904.477	51.55795
904.646	31.39031
904.816	48.25671
904.985	70.0357
905.154	102.59251
