Data from WindowProjectSample_Transmission__17__00017.txt Node

Date: Sat May 03 15:12:16 EDT 2025
User: jessi
Spectrometer: SR400872
Trigger mode: 0
Integration Time (sec): 5.000010E-1
Scans to average: 6
Electric dark correction enabled: true
Nonlinearity correction enabled: true
Boxcar width: 0
XAxis mode: Wavelengths
Number of Pixels in Spectrum: 3648
>>>>>Begin Spectral Data<<<<<
184.909	18069.37328
185.132	2644.7062
185.355	23350.80784
185.578	-7922.91265
185.801	140.87311
186.024	-1499.88406
186.247	886.99728
186.47	1696.35935
186.693	-29.0083
186.916	-2558.52922
187.139	-2686.98435
187.362	1364.1763
187.585	2950.63665
187.808	-3458.50499
188.031	-27.39203
188.254	-1228.72507
188.476	-667.83897
188.699	2380.4911
188.922	-826.47368
189.145	-9714.84618
189.368	-354.55191
189.591	-1193.42309
189.813	-1707.76227
190.036	1296.92324
190.259	1749.80569
190.482	509.7077
190.705	10518.3055
190.927	-1051.74485
191.15	3516.21575
191.373	2106.4408
191.595	-2104.97071
191.818	2594.65511
192.041	-305.76526
192.263	2741.49829
192.486	2101.10107
192.709	-5313.70739
192.931	2923.0712
193.154	-5954.22536
193.377	194646.28549
193.599	1416.97475
193.822	1408.89391
194.044	-2244.55887
194.267	504.85919
194.489	-318.37621
194.712	1385.02994
194.934	3401.6076
195.157	-16831.43625
195.379	748.81874
195.602	2442.67218
195.824	2051.69981
196.047	2295.82104
196.269	2889.7358
196.492	3249.86697
196.714	2728.33147
196.936	1171.53187
197.159	1453.15929
197.381	-1958.02212
197.604	-794.84019
197.826	6534.66608
198.048	3188.18577
198.271	4076.69295
198.493	2146.95307
198.715	-5861.19272
198.938	-722.53055
199.16	1871.81782
199.382	1439.43365
199.604	-630.97798
199.827	9373.54064
200.049	957.65713
200.271	-3149.55881
200.493	-53043.31778
200.715	2287.26925
200.938	6708.53264
201.16	-6840.85751
201.382	-3104.15989
201.604	-2063.85248
201.826	6680.44688
202.048	902.37096
202.27	-17041.43315
202.492	4722.50111
202.715	-1120.95912
202.937	4714.17684
203.159	-2260.58802
203.381	820.9718
203.603	-3899.73151
203.825	-2533.1611
204.047	3466.73687
204.269	-2117.19638
204.491	2012.98582
204.713	1923.47635
204.935	15249.52277
205.156	1780.07426
205.378	-8293.90719
205.6	-4420.54182
205.822	9019.22463
206.044	-643.26284
206.266	4026.74723
206.488	1064.48294
206.71	27251.34162
206.932	2623.34148
207.153	-5033.62123
207.375	-1912.30995
207.597	8475.61861
207.819	4136.0654
208.041	2125.56703
208.262	-2928.02948
208.484	-1289.2313
208.706	-2485.81245
208.927	24931.72509
209.149	944.96575
209.371	-6145.85005
209.593	1049.59873
209.814	5465.19196
210.036	-3022.94235
210.258	-4731.21223
210.479	-1356.15446
210.701	952.17226
210.922	6857.497
211.144	-1013.83646
211.366	-6177.84862
211.587	-521.62076
211.809	9696.59482
212.03	-1232.88062
212.252	-1553.95512
212.473	819.44402
212.695	-2518.41165
212.916	3001.78604
213.138	4070.7566
213.359	-1874.24531
213.581	5918.70985
213.802	-1314.72477
214.024	16163.41343
214.245	-3392.07382
214.466	-610.22588
214.688	1656.26061
214.909	985.35707
215.131	-90414.86857
215.352	1666.01142
215.573	2435.10174
215.795	2986.08516
216.016	4010.51519
216.237	-529.12484
216.459	6852.80804
216.68	104605.66851
216.901	-83077.78887
217.122	1728.57339
217.344	5846.41243
217.565	-56982.99962
217.786	1499.91131
218.007	1893.07979
218.228	-1132.34396
218.45	-1202.4594
218.671	-1136.19265
218.892	1126.88425
219.113	-20155.54702
219.334	-310.35369
219.555	-4647.2305
219.776	1471.28812
219.997	3489.57327
220.219	1037.22669
220.44	2266.92215
220.661	-3021.33934
220.882	3506.6694
221.103	-1345.59242
221.324	957.84083
221.545	2399.05114
221.766	-6175.2652
221.987	4178.16575
222.208	-1729.26753
222.429	3647.16318
222.65	-145.39825
222.87	-558.00355
223.091	8043.62771
223.312	2905.13763
223.533	6751.19989
223.754	1884.39772
223.975	1553.38747
224.196	-10571.71854
224.417	1050.40346
224.637	865.02448
224.858	-667.9636
225.079	6619.36005
225.3	593.8583
225.521	2113.03411
225.741	1536.01454
225.962	732.59472
226.183	264.25773
226.404	644.91541
226.624	605.94575
226.845	334.51506
227.066	432.06257
227.286	185.25291
227.507	90.847
227.728	66.28008
227.948	131.21846
228.169	40.87985
228.389	44.98828
228.61	23.75571
228.831	36.80768
229.051	3.83001
229.272	21.97828
229.492	29.75351
229.713	9.27351
229.933	23.86038
230.154	18.96097
230.374	30.83538
230.595	24.73694
230.815	16.09186
231.036	23.31901
231.256	-6.26789
231.477	41.41104
231.697	23.54295
231.917	24.5476
232.138	39.31182
232.358	71.72497
232.579	64.69201
232.799	10.19624
233.019	65.69181
233.24	73.16325
233.46	29.26318
233.68	42.19334
233.901	31.51472
234.121	15.71604
234.341	6.53478
234.561	-1.12184
234.782	16.00493
235.002	44.38744
235.222	-0.56693
235.442	39.18688
235.662	20.22654
235.883	42.87675
236.103	36.6015
236.323	23.03686
236.543	17.85596
236.763	31.20313
236.983	28.76041
237.203	30.71146
237.423	43.88959
237.643	61.96061
237.864	53.93438
238.084	12.89784
238.304	20.51322
238.524	30.81993
238.744	31.63217
238.964	46.60361
239.184	42.38632
239.404	44.43725
239.624	24.82298
239.843	40.92012
240.063	22.95041
240.283	15.19912
240.503	18.04806
240.723	16.44934
240.943	10.1337
241.163	14.39402
241.383	10.40552
241.603	5.40407
241.822	5.8055
242.042	5.1844
242.262	5.9252
242.482	6.68452
242.702	8.60843
242.921	2.57614
243.141	6.12862
243.361	4.91744
243.581	6.92155
243.8	5.87941
244.02	4.05511
244.24	7.56987
244.459	6.84756
244.679	14.1589
244.899	9.02226
245.118	11.5246
245.338	9.43693
245.558	10.68517
245.777	6.01415
245.997	7.61979
246.216	7.72665
246.436	4.32931
246.655	3.28732
246.875	2.59686
247.094	5.08114
247.314	1.59138
247.533	2.61959
247.753	3.52052
247.972	2.77205
248.192	1.01953
248.411	1.82476
248.631	3.21321
248.85	4.20234
249.07	2.62809
249.289	5.12871
249.508	3.58745
249.728	6.27522
249.947	6.57012
250.166	7.16034
250.386	4.26198
250.605	5.31452
250.824	8.03766
251.044	6.48117
251.263	20.6666
251.482	11.12901
251.701	9.18151
251.921	0.0401
252.14	3.38444
252.359	3.88304
252.578	8.19768
252.798	3.03009
253.017	7.55978
253.236	4.42459
253.455	4.8858
253.674	9.48644
253.893	4.5564
254.112	6.27408
254.331	8.89828
254.551	7.83448
254.77	3.69835
254.989	11.24868
255.208	10.4581
255.427	12.89763
255.646	9.93736
255.865	17.55318
256.084	6.80025
256.303	8.37358
256.522	11.34901
256.741	2.02951
256.96	2.73003
257.179	7.16559
257.397	8.84457
257.616	4.90622
257.835	5.21561
258.054	11.73971
258.273	7.50314
258.492	8.87302
258.711	5.51811
258.93	2.50768
259.148	3.1794
259.367	3.64414
259.586	4.24274
259.805	2.00132
260.023	4.26429
260.242	3.33483
260.461	2.25195
260.68	1.35677
260.898	3.68754
261.117	1.24477
261.336	0.9153
261.554	3.20326
261.773	3.11001
261.992	0.67602
262.21	3.11052
262.429	3.79278
262.648	6.27374
262.866	7.21148
263.085	4.88797
263.303	3.75487
263.522	7.74423
263.74	7.47383
263.959	12.32853
264.178	6.23369
264.396	6.10338
264.615	4.26943
264.833	9.77565
265.051	8.65629
265.27	8.3308
265.488	9.0183
265.707	5.56207
265.925	9.27825
266.144	3.86747
266.362	5.27106
266.58	5.17035
266.799	4.19874
267.017	4.8141
267.235	4.37003
267.454	2.7811
267.672	1.71178
267.89	3.37702
268.109	4.15084
268.327	3.4967
268.545	1.04708
268.763	3.62827
268.982	1.41496
269.2	4.48392
269.418	2.43354
269.636	2.06573
269.854	3.72653
270.073	2.92501
270.291	1.29212
270.509	1.41511
270.727	3.74802
270.945	6.0287
271.163	6.14576
271.381	1.46319
271.599	2.37197
271.817	4.51896
272.036	1.41681
272.254	2.73779
272.472	2.24233
272.69	2.06664
272.908	1.97708
273.126	3.64374
273.344	4.79843
273.562	1.74939
273.779	2.44496
273.997	3.31192
274.215	3.90707
274.433	2.56955
274.651	3.94374
274.869	4.07054
275.087	2.50061
275.305	3.7754
275.523	1.9622
275.74	2.81403
275.958	4.77022
276.176	7.07102
276.394	2.20997
276.612	2.78647
276.829	2.70799
277.047	2.21559
277.265	2.65762
277.483	3.31667
277.7	3.60606
277.918	2.981
278.136	5.60355
278.353	2.72241
278.571	1.28178
278.789	4.72693
279.006	0.76635
279.224	2.54066
279.442	4.28839
279.659	2.84349
279.877	2.27211
280.094	4.82366
280.312	1.17447
280.529	3.03572
280.747	0.82044
280.964	2.18155
281.182	5.23247
281.399	2.29499
281.617	3.28656
281.834	2.24522
282.052	1.87367
282.269	2.60613
282.487	2.35862
282.704	1.76806
282.921	2.18083
283.139	2.89293
283.356	3.79337
283.574	3.07151
283.791	1.86203
284.008	4.65178
284.226	2.51854
284.443	2.6399
284.66	3.56312
284.877	2.78751
285.095	1.93605
285.312	1.45112
285.529	0.98007
285.746	0.68388
285.964	1.84079
286.181	1.13131
286.398	1.73402
286.615	2.4941
286.832	2.28121
287.05	0.72983
287.267	1.6989
287.484	1.8897
287.701	2.51895
287.918	2.37843
288.135	2.51141
288.352	1.00376
288.569	1.29549
288.786	2.30372
289.003	1.63666
289.22	2.4382
289.437	1.42548
289.654	2.70686
289.871	2.69662
290.088	2.71394
290.305	2.14396
290.522	1.63727
290.739	2.07681
290.956	2.8841
291.173	3.4205
291.39	3.15823
291.607	2.12639
291.824	1.67752
292.04	1.07465
292.257	2.60868
292.474	2.942
292.691	1.79659
292.908	0.92593
293.125	1.36763
293.341	1.05473
293.558	4.58842
293.775	1.84909
293.992	1.91986
294.208	0.65863
294.425	1.25408
294.642	1.67995
294.858	2.43983
295.075	0.70216
295.292	1.81088
295.508	2.23337
295.725	3.51317
295.942	1.7351
296.158	1.5002
296.375	2.27035
296.591	1.74944
296.808	2.34599
297.024	2.7855
297.241	2.87373
297.458	3.29435
297.674	1.52916
297.891	3.06167
298.107	3.1529
298.323	2.44468
298.54	4.53534
298.756	3.02341
298.973	2.54619
299.189	4.96355
299.406	3.81883
299.622	4.97442
299.838	5.21152
300.055	5.05105
300.271	3.77466
300.487	3.61465
300.704	4.50981
300.92	4.17736
301.136	7.4061
301.353	6.14862
301.569	5.52466
301.785	5.74969
302.001	6.33957
302.218	6.12154
302.434	6.4109
302.65	5.08529
302.866	5.72444
303.083	8.12967
303.299	8.61602
303.515	6.42769
303.731	7.40283
303.947	5.77813
304.163	6.46996
304.379	7.12431
304.595	7.28693
304.812	6.36449
305.028	6.70166
305.244	6.66934
305.46	7.63229
305.676	8.23092
305.892	8.73778
306.108	8.18031
306.324	7.15217
306.54	9.22677
306.756	7.78479
306.972	7.75523
307.187	7.855
307.403	8.40785
307.619	7.03929
307.835	8.18304
308.051	8.81864
308.267	6.72556
308.483	9.40231
308.699	8.29156
308.914	8.47019
309.13	8.13538
309.346	7.37597
309.562	7.57984
309.778	7.50082
309.993	8.9322
310.209	9.28377
310.425	7.68155
310.641	9.00873
310.856	8.31189
311.072	8.39598
311.288	8.98302
311.503	9.84469
311.719	7.83815
311.935	8.07455
312.15	10.12481
312.366	9.88769
312.581	10.10869
312.797	9.6539
313.013	10.05286
313.228	9.00869
313.444	8.95085
313.659	8.44408
313.875	9.48263
314.09	8.98444
314.306	10.05137
314.521	9.74954
314.737	9.6994
314.952	9.29595
315.168	9.32008
315.383	9.72495
315.599	8.53921
315.814	9.16369
316.029	9.97783
316.245	8.63418
316.46	7.74468
316.675	10.1961
316.891	10.91547
317.106	12.01176
317.321	9.39658
317.537	10.10587
317.752	10.29438
317.967	10.16194
318.183	8.6782
318.398	9.02433
318.613	10.28929
318.828	10.70005
319.043	10.00441
319.259	9.23318
319.474	9.6122
319.689	10.63633
319.904	8.3379
320.119	11.20103
320.334	9.80623
320.549	9.88314
320.765	10.69743
320.98	10.49925
321.195	9.84333
321.41	10.03858
321.625	10.45203
321.84	11.3476
322.055	10.96264
322.27	9.79299
322.485	8.81843
322.7	10.54739
322.915	10.92945
323.13	10.24764
323.345	12.07009
323.56	11.70441
323.775	11.3937
323.989	11.54666
324.204	10.9975
324.419	12.07384
324.634	9.81613
324.849	11.1976
325.064	13.42229
325.279	12.34161
325.493	11.62486
325.708	12.1609
325.923	10.65338
326.138	11.57167
326.352	12.86658
326.567	12.4199
326.782	11.17677
326.997	11.34939
327.211	12.0863
327.426	11.67082
327.641	11.68109
327.855	10.72184
328.07	12.39984
328.285	13.70787
328.499	11.20871
328.714	12.27677
328.928	11.96245
329.143	12.03724
329.358	12.83042
329.572	13.10892
329.787	13.65119
330.001	14.40384
330.216	10.74988
330.43	14.61212
330.645	13.20707
330.859	13.16781
331.074	11.08119
331.288	12.47062
331.503	14.20312
331.717	11.43731
331.931	12.78285
332.146	13.30087
332.36	14.53511
332.575	13.03723
332.789	13.11237
333.003	13.35125
333.218	13.81621
333.432	12.98433
333.646	14.30504
333.86	15.38956
334.075	14.93556
334.289	12.78019
334.503	11.89571
334.717	14.17185
334.932	12.9451
335.146	13.12457
335.36	11.69712
335.574	13.3411
335.788	13.20857
336.003	13.99857
336.217	14.74949
336.431	14.30414
336.645	13.85372
336.859	13.81695
337.073	14.90256
337.287	15.06875
337.501	13.38107
337.715	15.59868
337.929	15.11856
338.143	14.18154
338.357	14.73203
338.571	14.42145
338.785	15.86113
338.999	14.10715
339.213	14.28555
339.427	13.96614
339.641	15.71941
339.855	14.68279
340.069	14.08399
340.283	15.87979
340.497	16.11611
340.711	15.49168
340.924	15.31083
341.138	14.55798
341.352	14.34703
341.566	15.72951
341.78	14.6584
341.993	14.965
342.207	15.05594
342.421	16.40663
342.635	15.81382
342.848	15.8304
343.062	13.57045
343.276	15.5043
343.49	17.51173
343.703	15.49475
343.917	16.86528
344.131	17.425
344.344	15.22888
344.558	16.01996
344.771	15.28804
344.985	17.59601
345.199	18.05013
345.412	16.85599
345.626	17.1391
345.839	15.25979
346.053	15.60677
346.266	15.9111
346.48	17.18265
346.693	17.35731
346.907	17.14353
347.12	16.07562
347.334	16.89695
347.547	17.40013
347.76	16.79599
347.974	17.8277
348.187	16.9836
348.401	16.8629
348.614	16.12786
348.827	17.10605
349.041	17.454
349.254	15.67685
349.467	16.59891
349.681	16.70702
349.894	16.42708
350.107	18.59236
350.32	19.42301
350.534	16.39943
350.747	17.21871
350.96	16.95161
351.173	17.03301
351.386	17.45559
351.6	16.9934
351.813	17.88364
352.026	17.65961
352.239	17.36438
352.452	17.05296
352.665	18.82272
352.878	17.58115
353.092	19.90155
353.305	18.69111
353.518	18.44792
353.731	17.02135
353.944	19.10314
354.157	18.02523
354.37	18.31483
354.583	17.03868
354.796	17.67602
355.009	19.41169
355.222	19.04063
355.435	18.67283
355.647	19.94104
355.86	18.16294
356.073	19.11048
356.286	18.31741
356.499	19.52453
356.712	19.76376
356.925	19.44034
357.138	19.71257
357.35	18.64974
357.563	18.85097
357.776	19.42481
357.989	19.478
358.201	19.90739
358.414	19.86117
358.627	20.4301
358.84	19.31609
359.052	18.69349
359.265	18.98273
359.478	20.12366
359.69	17.59405
359.903	20.33173
360.116	20.333
360.328	18.48794
360.541	20.23552
360.753	19.55528
360.966	19.60838
361.179	20.0211
361.391	19.89864
361.604	19.60266
361.816	19.96813
362.029	20.20911
362.241	19.96154
362.454	20.37243
362.666	19.85032
362.879	20.95075
363.091	20.21137
363.304	20.28527
363.516	20.30978
363.728	19.91427
363.941	20.59851
364.153	20.8942
364.366	19.06594
364.578	19.69903
364.79	21.00977
365.003	21.11137
365.215	20.47513
365.427	20.9828
365.639	21.4036
365.852	20.48606
366.064	21.7991
366.276	20.68484
366.488	20.88987
366.701	20.50662
366.913	20.53743
367.125	20.66003
367.337	20.33644
367.549	20.76936
367.762	20.71306
367.974	20.65405
368.186	20.82219
368.398	21.72505
368.61	21.15815
368.822	21.14275
369.034	20.53548
369.246	21.52379
369.458	23.04886
369.67	20.67441
369.882	22.01819
370.094	19.34661
370.306	21.78289
370.518	20.78943
370.73	20.62466
370.942	21.07678
371.154	21.63466
371.366	21.41253
371.578	21.78611
371.79	21.46768
372.002	22.24508
372.214	23.18601
372.425	21.16357
372.637	22.939
372.849	22.10807
373.061	20.01558
373.273	21.62251
373.484	22.16544
373.696	22.12188
373.908	20.05417
374.12	22.10808
374.331	22.32733
374.543	20.60172
374.755	21.01372
374.967	21.63788
375.178	22.85533
375.39	21.63916
375.602	21.82561
375.813	21.05619
376.025	21.36946
376.236	22.23506
376.448	22.09073
376.66	22.11182
376.871	22.31455
377.083	22.7093
377.294	23.67314
377.506	21.91849
377.717	23.35802
377.929	22.72071
378.14	22.1998
378.352	22.63694
378.563	23.14065
378.775	23.49629
378.986	21.8432
379.197	22.99841
379.409	21.75904
379.62	22.93466
379.832	22.80265
380.043	22.28702
380.254	23.1012
380.466	21.99637
380.677	24.7104
380.888	24.18301
381.1	24.952
381.311	24.82392
381.522	23.27436
381.733	25.03408
381.945	23.15166
382.156	22.29066
382.367	22.74083
382.578	25.23036
382.789	25.23565
383.001	22.3178
383.212	24.87312
383.423	24.4153
383.634	23.67359
383.845	24.00288
384.056	22.71064
384.267	23.20853
384.478	23.30975
384.69	22.26618
384.901	23.83998
385.112	23.45637
385.323	24.8045
385.534	23.71224
385.745	24.12886
385.956	23.91409
386.167	22.89884
386.378	24.22881
386.588	23.36014
386.799	22.71424
387.01	22.53426
387.221	24.47216
387.432	24.18826
387.643	25.10449
387.854	23.73474
388.065	23.24624
388.275	23.78473
388.486	23.36969
388.697	23.98903
388.908	23.56954
389.119	24.53622
389.329	24.75954
389.54	24.21055
389.751	24.359
389.962	24.71291
390.172	23.6551
390.383	23.89598
390.594	23.26886
390.804	23.30213
391.015	23.75036
391.226	24.42751
391.436	24.7956
391.647	24.49011
391.858	24.4991
392.068	22.95292
392.279	23.53433
392.489	24.44627
392.7	25.08872
392.91	23.84128
393.121	23.96062
393.331	24.79093
393.542	25.02826
393.752	25.01241
393.963	25.0933
394.173	24.89376
394.384	25.01634
394.594	24.5557
394.804	23.73564
395.015	24.4407
395.225	25.41837
395.436	24.03831
395.646	25.10041
395.856	24.39044
396.067	23.61627
396.277	25.36365
396.487	25.06291
396.697	25.10883
396.908	25.19551
397.118	25.02477
397.328	24.72516
397.538	25.3451
397.749	24.63028
397.959	25.22185
398.169	24.97018
398.379	24.01284
398.589	24.94477
398.8	25.15655
399.01	25.16836
399.22	25.09875
399.43	26.39378
399.64	25.12235
399.85	25.39502
400.06	25.21797
400.27	24.70967
400.48	24.9934
400.69	25.69771
400.9	24.99149
401.11	24.35554
401.32	25.52915
401.53	24.79952
401.74	25.83085
401.95	25.09933
402.16	24.82386
402.37	25.31008
402.58	24.95232
402.79	25.38678
403	25.63016
403.209	24.72086
403.419	25.69343
403.629	24.69548
403.839	25.94787
404.049	25.75526
404.258	25.27033
404.468	24.99765
404.678	25.90736
404.888	26.42434
405.097	25.46016
405.307	25.30404
405.517	25.9059
405.727	26.0668
405.936	25.32719
406.146	25.69544
406.356	26.54064
406.565	25.36829
406.775	25.30972
406.984	25.50258
407.194	27.09882
407.404	25.78595
407.613	26.3652
407.823	26.25834
408.032	26.69181
408.242	26.397
408.451	25.21746
408.661	25.46299
408.87	26.71512
409.08	25.03685
409.289	26.23931
409.499	25.97285
409.708	25.85014
409.918	24.59202
410.127	26.1578
410.336	27.06105
410.546	26.70992
410.755	25.38517
410.964	25.57428
411.174	25.58227
411.383	26.26948
411.592	26.31429
411.802	25.85361
412.011	26.33803
412.22	26.23397
412.429	27.20272
412.639	27.37115
412.848	26.74272
413.057	27.36137
413.266	26.61937
413.475	26.18744
413.685	26.64614
413.894	26.4774
414.103	26.88408
414.312	26.5625
414.521	25.79622
414.73	26.19319
414.939	27.44152
415.148	26.51717
415.357	26.55965
415.566	26.66468
415.776	25.96262
415.985	26.05373
416.194	26.89858
416.403	27.56629
416.611	25.5773
416.82	26.02293
417.029	26.71601
417.238	26.3771
417.447	26.10137
417.656	26.67285
417.865	26.83924
418.074	27.58341
418.283	29.24523
418.492	31.06358
418.7	30.8195
418.909	33.8454
419.118	32.45891
419.327	33.5416
419.536	33.57115
419.744	34.42624
419.953	36.95487
420.162	37.60108
420.371	37.71366
420.579	40.02423
420.788	40.93896
420.997	40.78649
421.205	42.3193
421.414	41.7204
421.623	42.04303
421.831	41.11417
422.04	41.64321
422.249	40.14875
422.457	39.79543
422.666	38.1525
422.874	39.32468
423.083	39.59305
423.291	39.81184
423.5	40.25868
423.708	41.5244
423.917	42.61544
424.125	41.71121
424.334	41.83693
424.542	43.84026
424.751	43.46057
424.959	42.43808
425.167	41.61431
425.376	41.35832
425.584	38.38264
425.793	37.30169
426.001	35.48748
426.209	34.3315
426.418	32.25526
426.626	30.37622
426.834	29.36919
427.042	28.75089
427.251	27.86546
427.459	28.56281
427.667	28.30853
427.875	27.22037
428.084	27.61584
428.292	28.68782
428.5	28.54827
428.708	27.50601
428.916	27.75485
429.124	28.07096
429.333	27.92926
429.541	28.17099
429.749	28.45641
429.957	27.93964
430.165	29.7979
430.373	27.4349
430.581	28.14675
430.789	29.30751
430.997	27.90491
431.205	27.8764
431.413	28.65638
431.621	28.01539
431.829	28.74491
432.037	28.25589
432.245	28.44199
432.453	28.9075
432.661	28.48632
432.869	30.33558
433.076	29.79945
433.284	30.54483
433.492	31.7738
433.7	31.73202
433.908	30.95202
434.116	31.43984
434.323	30.0468
434.531	30.30393
434.739	29.643
434.947	29.55815
435.154	29.44042
435.362	28.88724
435.57	28.97031
435.778	28.67635
435.985	29.14866
436.193	28.56749
436.401	29.48673
436.608	29.17238
436.816	28.81242
437.023	29.83777
437.231	30.13033
437.439	29.25898
437.646	29.48844
437.854	29.41819
438.061	29.49355
438.269	29.48784
438.476	29.94255
438.684	29.8475
438.891	31.29981
439.099	31.39334
439.306	31.7779
439.514	32.20093
439.721	35.06384
439.929	34.90949
440.136	36.75356
440.343	37.21284
440.551	37.26241
440.758	39.43839
440.965	37.06176
441.173	36.80594
441.38	36.58566
441.587	35.06487
441.795	34.72881
442.002	33.0767
442.209	32.35636
442.416	31.40545
442.624	30.66013
442.831	29.9094
443.038	29.3266
443.245	28.81261
443.452	29.27511
443.66	30.01188
443.867	29.50043
444.074	29.33009
444.281	30.4242
444.488	31.37586
444.695	32.29046
444.902	33.63955
445.109	36.22121
445.316	37.00123
445.523	38.73994
445.73	39.62059
445.937	41.62316
446.144	42.6444
446.351	43.85743
446.558	41.62304
446.765	45.6097
446.972	42.99406
447.179	43.01674
447.386	42.87099
447.593	39.47877
447.8	40.71317
448.007	37.61002
448.214	35.21425
448.42	33.99125
448.627	33.38539
448.834	32.23946
449.041	31.42822
449.248	30.38374
449.454	30.6799
449.661	31.41914
449.868	29.89585
450.075	29.87025
450.281	29.27849
450.488	29.50642
450.695	29.5408
450.901	29.46068
451.108	29.71094
451.315	30.5553
451.521	29.82546
451.728	31.05946
451.935	29.89143
452.141	30.20974
452.348	30.23357
452.554	30.61897
452.761	30.0624
452.967	31.11717
453.174	30.53165
453.38	30.2019
453.587	29.80208
453.793	30.78307
454	31.1757
454.206	31.6629
454.413	31.03406
454.619	30.93581
454.825	30.01763
455.032	30.594
455.238	31.0381
455.445	29.66033
455.651	30.47936
455.857	29.60392
456.064	30.37182
456.27	30.07231
456.476	30.01171
456.682	29.41153
456.889	30.62496
457.095	30.73477
457.301	31.30674
457.507	30.48228
457.714	30.63013
457.92	30.38738
458.126	29.85965
458.332	30.11799
458.538	30.92908
458.744	32.63112
458.951	34.61141
459.157	38.73216
459.363	39.55973
459.569	40.84581
459.775	41.60617
459.981	42.08927
460.187	43.10342
460.393	41.995
460.599	41.39876
460.805	38.92412
461.011	36.54934
461.217	34.56732
461.423	32.11726
461.629	31.04098
461.835	31.46569
462.041	30.97984
462.247	32.1773
462.453	31.10516
462.658	31.17623
462.864	31.5127
463.07	31.1333
463.276	31.12516
463.482	30.71121
463.688	31.79347
463.893	30.47075
464.099	31.0964
464.305	32.45312
464.511	31.14139
464.716	31.08192
464.922	31.71066
465.128	30.74396
465.333	32.14214
465.539	31.58647
465.745	31.50116
465.95	31.38156
466.156	33.47895
466.362	32.23741
466.567	31.47873
466.773	31.34453
466.978	32.89032
467.184	31.40413
467.389	30.79025
467.595	31.86013
467.8	31.40841
468.006	32.59686
468.211	32.60565
468.417	31.20872
468.622	32.12975
468.828	32.22558
469.033	31.93002
469.239	33.75559
469.444	31.54057
469.649	32.21543
469.855	31.45079
470.06	32.19008
470.266	31.15974
470.471	32.28494
470.676	32.10687
470.881	30.80715
471.087	33.32037
471.292	33.43839
471.497	30.78895
471.703	31.87295
471.908	31.71093
472.113	32.03182
472.318	32.63534
472.523	31.33323
472.729	32.15225
472.934	32.09102
473.139	32.03911
473.344	32.41153
473.549	32.93341
473.754	31.56393
473.959	33.57453
474.164	31.57609
474.369	31.88336
474.575	32.31516
474.78	32.17531
474.985	31.26264
475.19	30.84972
475.395	31.67657
475.6	31.72497
475.804	33.08132
476.009	31.89802
476.214	31.93006
476.419	32.2369
476.624	31.29483
476.829	31.90454
477.034	32.72048
477.239	31.69166
477.444	32.42442
477.648	32.56371
477.853	32.7226
478.058	32.12548
478.263	31.93689
478.468	31.70511
478.672	31.85573
478.877	33.09983
479.082	33.54756
479.287	32.52065
479.491	32.26727
479.696	31.73725
479.901	32.69071
480.105	32.68296
480.31	31.92071
480.515	31.98939
480.719	33.69325
480.924	31.91273
481.128	32.87143
481.333	34.44069
481.538	35.36652
481.742	37.46038
481.947	40.76364
482.151	44.13438
482.356	48.2378
482.56	56.10146
482.765	63.50682
482.969	75.13106
483.174	84.95608
483.378	96.51461
483.582	98.50451
483.787	98.50497
483.991	98.50457
484.196	98.50423
484.4	98.50435
484.604	98.5045
484.809	95.4632
485.013	88.57559
485.217	79.80021
485.422	71.16583
485.626	64.94955
485.83	61.36913
486.034	60.01909
486.239	61.71958
486.443	64.1091
486.647	67.1457
486.851	70.98327
487.055	75.99291
487.26	77.89279
487.464	80.55076
487.668	80.26215
487.872	82.26643
488.076	81.15502
488.28	77.62752
488.484	72.68116
488.688	69.37098
488.892	64.98628
489.096	59.65072
489.3	55.43937
489.504	51.51273
489.708	48.81696
489.912	47.56741
490.116	46.93113
490.32	47.79792
490.524	51.9276
490.728	55.65911
490.932	60.24194
491.136	64.63904
491.34	67.28164
491.544	68.52137
491.748	68.92664
491.951	67.95672
492.155	66.24659
492.359	62.94054
492.563	58.11268
492.767	54.14538
492.97	48.30456
493.174	42.95708
493.378	39.10956
493.582	35.24656
493.785	33.71875
493.989	32.90376
494.193	31.72052
494.396	30.33554
494.6	30.88106
494.804	30.92317
495.007	32.51604
495.211	32.51173
495.414	32.97628
495.618	32.99132
495.822	33.93286
496.025	33.31219
496.229	34.04167
496.432	34.6039
496.636	35.19392
496.839	35.68567
497.043	36.99154
497.246	35.89814
497.45	35.64455
497.653	35.92007
497.856	35.16584
498.06	34.72142
498.263	33.80913
498.467	33.93096
498.67	34.38738
498.873	34.041
499.077	34.0278
499.28	33.98635
499.483	34.04545
499.686	34.727
499.89	34.03874
500.093	34.73802
500.296	33.53578
500.499	35.15726
500.703	34.25776
500.906	34.29019
501.109	35.08889
501.312	34.28273
501.515	34.32336
501.719	34.30174
501.922	34.58049
502.125	34.17193
502.328	33.83759
502.531	33.6388
502.734	33.97351
502.937	32.95527
503.14	33.98901
503.343	33.57711
503.546	34.14246
503.749	33.85204
503.952	34.64613
504.155	33.66882
504.358	34.65737
504.561	34.72134
504.764	33.7562
504.967	34.64329
505.17	34.19154
505.373	35.59779
505.576	34.41416
505.778	35.16199
505.981	33.72951
506.184	34.87577
506.387	33.4115
506.59	35.29843
506.793	35.07156
506.995	34.54017
507.198	33.02066
507.401	34.74298
507.604	34.74446
507.806	33.70675
508.009	33.83794
508.212	34.94654
508.414	34.14823
508.617	34.20349
508.82	34.677
509.022	35.58055
509.225	34.78787
509.427	33.84406
509.63	35.46981
509.833	34.63636
510.035	34.43604
510.238	33.58742
510.44	35.42738
510.643	33.69533
510.845	35.66314
511.048	34.55837
511.25	34.45232
511.453	34.70017
511.655	35.17503
511.858	34.56391
512.06	35.16241
512.262	34.99462
512.465	35.5485
512.667	34.93079
512.869	34.24503
513.072	35.2479
513.274	35.517
513.476	35.4374
513.679	35.67712
513.881	34.36082
514.083	35.95202
514.286	34.69893
514.488	34.54447
514.69	34.48147
514.892	34.24591
515.094	35.45612
515.297	34.23341
515.499	34.87393
515.701	34.33642
515.903	35.85058
516.105	35.72438
516.307	35.25654
516.509	33.50833
516.711	33.87109
516.913	34.8074
517.116	34.68623
517.318	34.48893
517.52	35.10613
517.722	35.09264
517.924	35.53292
518.126	37.58285
518.328	38.06434
518.529	39.31706
518.731	39.75366
518.933	37.95825
519.135	37.87282
519.337	38.19537
519.539	36.62076
519.741	34.23229
519.943	35.31205
520.145	35.19352
520.346	35.74025
520.548	35.25845
520.75	35.45447
520.952	35.25447
521.153	35.59948
521.355	35.83481
521.557	34.91251
521.759	35.36994
521.96	35.24916
522.162	34.66521
522.364	35.96805
522.565	34.63715
522.767	35.67752
522.969	36.10586
523.17	35.47723
523.372	35.37128
523.573	35.05846
523.775	35.27267
523.977	34.39147
524.178	36.29221
524.38	34.5066
524.581	35.44893
524.783	35.05117
524.984	37.52561
525.186	38.78892
525.387	40.56259
525.589	40.83143
525.79	41.99715
525.991	42.13239
526.193	43.1503
526.394	42.89939
526.596	43.63876
526.797	45.34667
526.998	45.2275
527.2	48.78971
527.401	54.77985
527.602	60.40135
527.803	69.19223
528.005	75.49889
528.206	81.03999
528.407	85.00042
528.608	86.00524
528.81	86.26827
529.011	84.37266
529.212	84.01102
529.413	79.02525
529.614	73.47207
529.815	67.55938
530.017	61.24028
530.218	54.49166
530.419	49.10498
530.62	46.42035
530.821	44.00643
531.022	41.37199
531.223	42.12967
531.424	41.30844
531.625	42.3221
531.826	42.14421
532.027	44.51928
532.228	48.51548
532.429	51.11321
532.63	54.07817
532.831	57.44271
533.032	58.62201
533.233	60.11168
533.433	58.90155
533.634	58.84124
533.835	56.40004
534.036	54.22982
534.237	50.89067
534.438	47.4835
534.638	42.92427
534.839	40.40254
535.04	38.80676
535.241	37.60303
535.441	38.62649
535.642	38.75749
535.843	39.39066
536.043	41.00696
536.244	41.69016
536.445	42.48783
536.645	43.69675
536.846	42.93377
537.047	42.85314
537.247	40.79622
537.448	38.96364
537.648	37.71528
537.849	36.33356
538.049	36.28154
538.25	36.34837
538.451	36.56239
538.651	35.40526
538.851	36.3115
539.052	36.74319
539.252	36.0288
539.453	35.58222
539.653	35.62299
539.854	36.34251
540.054	39.64234
540.254	45.38519
540.455	50.55938
540.655	54.03062
540.855	59.83025
541.056	63.05895
541.256	64.09698
541.456	65.33877
541.657	64.93877
541.857	64.6047
542.057	61.57763
542.257	58.81629
542.458	56.87291
542.658	53.19522
542.858	49.15872
543.058	46.56908
543.258	44.23771
543.458	41.04828
543.659	39.44787
543.859	39.23108
544.059	38.26098
544.259	36.62617
544.459	36.89693
544.659	36.15155
544.859	36.65335
545.059	36.06647
545.259	36.73425
545.459	36.39755
545.659	37.00726
545.859	36.38687
546.059	36.64955
546.259	36.2235
546.459	36.02073
546.659	36.37663
546.859	37.58305
547.059	37.33144
547.258	37.06544
547.458	37.18114
547.658	36.26816
547.858	36.41482
548.058	37.08625
548.258	36.4839
548.457	36.09624
548.657	38.42448
548.857	36.98856
549.057	37.54047
549.256	37.3376
549.456	36.80607
549.656	35.55965
549.855	38.31827
550.055	36.8027
550.255	38.54011
550.454	37.02253
550.654	37.27324
550.853	37.95432
551.053	37.57035
551.253	37.23256
551.452	37.28843
551.652	35.93365
551.851	35.95104
552.051	36.68676
552.25	36.55586
552.45	36.6145
552.649	36.97726
552.849	36.73608
553.048	36.92742
553.248	37.70849
553.447	36.27727
553.646	37.9318
553.846	38.64821
554.045	37.7229
554.244	36.36362
554.444	38.11925
554.643	36.39818
554.842	38.531
555.042	38.67886
555.241	37.00616
555.44	36.5495
555.64	37.70198
555.839	38.91127
556.038	37.42575
556.237	36.75512
556.436	37.74356
556.636	37.88874
556.835	36.49081
557.034	38.79932
557.233	37.05431
557.432	36.1074
557.631	38.50237
557.83	37.35102
558.029	36.96131
558.228	36.51728
558.427	36.82478
558.626	38.239
558.825	36.67452
559.024	37.33253
559.223	39.07918
559.422	36.85608
559.621	37.44891
559.82	35.30451
560.019	37.55912
560.218	37.23653
560.417	34.95387
560.616	36.71079
560.815	39.87695
561.014	36.08072
561.212	38.60323
561.411	37.46522
561.61	36.08742
561.809	37.08201
562.008	38.15389
562.206	37.16528
562.405	37.74331
562.604	37.03801
562.803	37.66319
563.001	36.91246
563.2	36.20531
563.399	37.76316
563.597	36.60445
563.796	37.01742
563.995	36.21302
564.193	37.94427
564.392	36.74736
564.59	39.07164
564.789	35.6489
564.988	36.72152
565.186	37.46093
565.385	36.9684
565.583	37.18138
565.782	37.4016
565.98	37.5455
566.179	37.58891
566.377	36.9944
566.575	37.12177
566.774	38.84307
566.972	38.12191
567.171	39.27519
567.369	38.71761
567.567	37.52345
567.766	37.59895
567.964	35.49488
568.162	37.8454
568.361	38.61461
568.559	37.63219
568.757	37.6579
568.956	37.61758
569.154	37.48573
569.352	37.78003
569.55	37.19878
569.748	37.36408
569.947	36.89051
570.145	36.86819
570.343	36.49854
570.541	38.34483
570.739	36.12359
570.937	37.45997
571.135	37.85115
571.333	39.0651
571.532	38.71349
571.73	37.89462
571.928	38.41495
572.126	38.31187
572.324	37.02786
572.522	38.80168
572.72	39.97824
572.918	37.73693
573.116	37.84191
573.313	37.83335
573.511	37.88991
573.709	37.13213
573.907	38.31082
574.105	37.27032
574.303	36.41656
574.501	36.32663
574.699	38.04926
574.896	38.49308
575.094	37.93941
575.292	36.70986
575.49	38.33809
575.688	37.7103
575.885	38.81012
576.083	39.45362
576.281	38.77496
576.478	37.05608
576.676	38.19596
576.874	36.28356
577.071	37.49959
577.269	39.92944
577.467	37.59076
577.664	37.70071
577.862	38.71412
578.059	37.00991
578.257	38.72075
578.455	37.48305
578.652	38.36137
578.85	36.00456
579.047	37.92494
579.245	37.5084
579.442	37.45031
579.64	37.78357
579.837	36.05359
580.034	40.82744
580.232	37.61026
580.429	36.6778
580.627	38.4939
580.824	39.07458
581.021	38.49449
581.219	37.0579
581.416	37.04307
581.613	39.89274
581.811	39.53297
582.008	36.66427
582.205	38.57004
582.402	38.39382
582.6	40.33681
582.797	37.51306
582.994	37.85876
583.191	39.27647
583.388	37.65917
583.586	39.13414
583.783	38.76207
583.98	37.44071
584.177	38.35765
584.374	34.81849
584.571	37.90781
584.768	37.60719
584.965	37.04109
585.162	38.62785
585.359	40.25555
585.556	37.6452
585.753	37.86929
585.95	36.61533
586.147	37.66608
586.344	38.608
586.541	37.69653
586.738	36.47178
586.935	37.38307
587.132	37.22224
587.329	39.34691
587.526	37.7655
587.722	43.10248
587.919	36.22708
588.116	38.9655
588.313	39.35179
588.51	40.45236
588.706	37.50607
588.903	38.31745
589.1	39.08662
589.297	40.1732
589.493	38.28925
589.69	38.6949
589.887	37.31953
590.083	36.9292
590.28	37.87952
590.477	38.25662
590.673	39.24982
590.87	39.44732
591.067	37.81565
591.263	38.87328
591.46	38.54492
591.656	37.5292
591.853	39.63302
592.049	37.43307
592.246	37.28505
592.442	39.2324
592.639	38.81595
592.835	37.12087
593.032	38.54401
593.228	36.60043
593.425	36.41554
593.621	35.84941
593.817	38.45417
594.014	36.91601
594.21	38.11877
594.406	38.87411
594.603	38.21835
594.799	37.44214
594.995	35.38555
595.192	38.63302
595.388	37.82802
595.584	37.92459
595.78	36.47729
595.977	40.01628
596.173	40.0252
596.369	37.60639
596.565	37.03377
596.761	36.74535
596.957	39.4949
597.154	37.50844
597.35	37.63212
597.546	37.96924
597.742	39.10335
597.938	38.53786
598.134	37.93863
598.33	38.85157
598.526	40.31577
598.722	38.65608
598.918	40.71238
599.114	38.57997
599.31	37.5626
599.506	38.28344
599.702	37.36527
599.898	38.39628
600.094	39.16013
600.29	39.20139
600.485	39.57088
600.681	37.08221
600.877	40.66142
601.073	38.00108
601.269	40.51724
601.465	39.43026
601.66	37.05256
601.856	35.90231
602.052	40.19323
602.248	37.90363
602.443	36.56414
602.639	36.8499
602.835	36.91103
603.03	37.10208
603.226	38.78683
603.422	36.83358
603.617	37.86219
603.813	37.85231
604.009	37.58503
604.204	39.7432
604.4	37.31482
604.595	39.50986
604.791	37.47983
604.986	38.59577
605.182	37.8337
605.377	38.04947
605.573	38.04999
605.768	38.77007
605.964	39.16885
606.159	39.22282
606.355	39.85912
606.55	38.67355
606.746	40.21312
606.941	38.18604
607.136	41.45134
607.332	42.01531
607.527	36.67175
607.722	38.79419
607.918	37.66107
608.113	37.64306
608.308	39.65797
608.503	39.12461
608.699	39.05277
608.894	39.42379
609.089	37.86553
609.284	39.34911
609.479	38.46071
609.675	39.79844
609.87	38.61216
610.065	39.72396
610.26	40.10169
610.455	39.80612
610.65	39.02945
610.845	39.5419
611.04	40.58667
611.235	39.09
611.43	38.22485
611.625	37.08697
611.82	41.12845
612.015	37.93481
612.21	40.65148
612.405	36.73389
612.6	40.93409
612.795	40.46338
612.99	39.56102
613.185	37.52828
613.38	38.293
613.575	38.90035
613.77	43.00074
613.965	37.00135
614.159	37.53057
614.354	41.25403
614.549	40.07025
614.744	39.67
614.938	37.68114
615.133	36.98654
615.328	41.5016
615.523	39.89128
615.717	42.7975
615.912	37.33962
616.107	38.76321
616.301	38.68966
616.496	38.70675
616.691	41.47999
616.885	40.59361
617.08	43.13649
617.274	40.66682
617.469	41.58278
617.664	40.452
617.858	38.55541
618.053	40.14866
618.247	38.99957
618.442	35.38713
618.636	41.44191
618.831	37.96905
619.025	37.80817
619.219	43.45656
619.414	35.0927
619.608	39.23528
619.803	38.78232
619.997	42.34837
620.191	41.2416
620.386	39.62606
620.58	38.65094
620.774	36.673
620.969	36.63898
621.163	38.93319
621.357	37.67538
621.551	39.05761
621.746	39.03434
621.94	38.62724
622.134	44.087
622.328	43.53931
622.522	36.94884
622.716	40.4429
622.911	40.02999
623.105	41.17017
623.299	39.7869
623.493	44.35234
623.687	38.32248
623.881	38.93566
624.075	39.82388
624.269	41.65463
624.463	36.7637
624.657	36.98048
624.851	39.6715
625.045	40.22479
625.239	41.32891
625.433	39.48918
625.627	41.84891
625.821	38.82273
626.015	38.07906
626.209	39.67751
626.403	37.61766
626.596	40.25635
626.79	41.35508
626.984	37.81494
627.178	40.25799
627.372	40.45029
627.565	40.67377
627.759	37.93811
627.953	38.20463
628.147	40.41603
628.34	40.60789
628.534	43.36288
628.728	39.78121
628.921	41.19424
629.115	40.48481
629.309	41.96016
629.502	41.5351
629.696	40.21102
629.89	39.74587
630.083	39.63428
630.277	40.52511
630.47	42.65126
630.664	38.68599
630.857	37.20206
631.051	40.51203
631.244	41.77469
631.438	40.58224
631.631	38.03783
631.825	41.77645
632.018	41.14912
632.212	42.18323
632.405	41.66107
632.598	37.72608
632.792	40.1858
632.985	36.06967
633.178	39.99116
633.372	39.67534
633.565	40.12416
633.758	42.56065
633.952	38.76271
634.145	37.81219
634.338	39.15152
634.531	39.22794
634.724	39.2183
634.918	39.86011
635.111	39.58259
635.304	39.6392
635.497	44.58729
635.69	40.93139
635.883	42.04852
636.077	38.31511
636.27	41.22631
636.463	40.15351
636.656	40.65773
636.849	39.2883
637.042	42.23568
637.235	42.38036
637.428	41.99192
637.621	41.46715
637.814	43.0529
638.007	42.59241
638.2	41.82196
638.393	43.81859
638.586	37.87213
638.778	39.80531
638.971	39.79662
639.164	42.79339
639.357	40.14903
639.55	43.56189
639.743	41.91792
639.935	41.24885
640.128	44.46509
640.321	41.28721
640.514	40.71897
640.707	45.35901
640.899	41.01479
641.092	37.22402
641.285	56.28288
641.477	36.18001
641.67	45.42706
641.863	43.79824
642.055	40.36957
642.248	39.85194
642.441	39.04141
642.633	41.22431
642.826	42.70316
643.018	42.87449
643.211	44.73494
643.403	44.70175
643.596	45.64117
643.788	43.57172
643.981	40.21114
644.173	42.71831
644.366	40.65626
644.558	36.70846
644.751	42.63583
644.943	38.0756
645.135	43.73376
645.328	44.70496
645.52	42.33366
645.712	43.26314
645.905	47.15908
646.097	38.58044
646.289	40.91507
646.482	46.50855
646.674	40.2097
646.866	44.77389
647.058	42.0938
647.251	39.05645
647.443	39.52592
647.635	40.70212
647.827	38.26692
648.019	39.53523
648.211	40.51978
648.404	40.92274
648.596	45.3606
648.788	42.12778
648.98	41.54289
649.172	42.17208
649.364	42.5695
649.556	37.51641
649.748	47.15417
649.94	39.24192
650.132	42.71815
650.324	38.90074
650.516	39.93977
650.708	43.97603
650.9	38.29756
651.092	40.45092
651.284	38.36839
651.476	38.63183
651.667	43.71072
651.859	43.97203
652.051	40.75145
652.243	41.07105
652.435	40.43325
652.627	42.92914
652.818	42.23036
653.01	38.547
653.202	39.02505
653.394	39.90429
653.585	42.60905
653.777	52.08109
653.969	44.49459
654.16	44.75273
654.352	37.952
654.544	40.25304
654.735	43.26794
654.927	41.915
655.118	45.42562
655.31	43.37401
655.502	44.2121
655.693	40.56133
655.885	43.90788
656.076	44.97239
656.268	41.51399
656.459	44.96163
656.651	44.7884
656.842	40.86214
657.034	40.50847
657.225	43.93525
657.416	45.09666
657.608	45.14792
657.799	41.73227
657.99	44.81144
658.182	41.11743
658.373	41.06573
658.564	44.14175
658.756	42.41806
658.947	41.45455
659.138	39.69584
659.33	41.05458
659.521	40.31565
659.712	41.83015
659.903	41.82899
660.094	41.44943
660.286	38.43191
660.477	46.00668
660.668	43.16956
660.859	42.12062
661.05	38.49367
661.241	43.28743
661.432	43.69214
661.623	41.8928
661.814	41.60193
662.006	38.89141
662.197	42.96019
662.388	45.97196
662.579	43.24605
662.77	50.18117
662.96	49.22565
663.151	43.66127
663.342	37.83332
663.533	44.03342
663.724	42.50326
663.915	47.64923
664.106	42.07991
664.297	47.60191
664.488	43.66213
664.678	40.90094
664.869	44.4982
665.06	45.97075
665.251	44.08139
665.442	43.86246
665.632	39.73295
665.823	47.05442
666.014	35.25728
666.204	44.57542
666.395	46.2442
666.586	50.77339
666.776	44.65888
666.967	47.01135
667.158	44.20741
667.348	46.27565
667.539	40.32481
667.729	45.12789
667.92	40.66263
668.111	45.43737
668.301	44.86964
668.492	43.20476
668.682	43.38894
668.873	42.6836
669.063	41.1494
669.253	44.41898
669.444	45.3969
669.634	41.71342
669.825	48.78893
670.015	46.49641
670.206	40.62354
670.396	47.95721
670.586	42.20489
670.777	44.31424
670.967	37.42109
671.157	42.55054
671.347	41.57015
671.538	48.10772
671.728	44.53532
671.918	50.1676
672.108	46.223
672.299	41.74946
672.489	45.0316
672.679	41.96426
672.869	42.89568
673.059	49.63326
673.249	45.50464
673.44	40.17408
673.63	44.51522
673.82	46.42014
674.01	40.84459
674.2	45.70217
674.39	52.41535
674.58	46.4792
674.77	44.72608
674.96	43.37041
675.15	56.53624
675.34	47.91282
675.53	43.50225
675.72	45.0248
675.91	40.23446
676.099	51.36828
676.289	51.68898
676.479	47.42034
676.669	43.27295
676.859	45.57471
677.049	41.69149
677.238	43.76962
677.428	49.97749
677.618	45.8747
677.808	48.3397
677.997	45.47247
678.187	41.47821
678.377	44.12044
678.567	42.60553
678.756	42.16257
678.946	43.48092
679.136	40.28462
679.325	42.75922
679.515	41.13956
679.704	41.33926
679.894	45.31249
680.084	45.2892
680.273	47.05148
680.463	43.40074
680.652	41.91232
680.842	44.20402
681.031	47.63645
681.221	42.72015
681.41	46.66781
681.6	44.22895
681.789	46.73386
681.978	49.18423
682.168	45.78882
682.357	45.26845
682.547	46.07757
682.736	46.00376
682.925	49.93114
683.115	48.6878
683.304	48.49852
683.493	47.02219
683.682	47.59237
683.872	47.8023
684.061	49.21007
684.25	47.60635
684.439	51.43451
684.629	49.23977
684.818	56.92466
685.007	45.84461
685.196	44.54121
685.385	52.05216
685.574	47.41491
685.763	48.41269
685.952	47.90623
686.142	43.05812
686.331	51.65721
686.52	39.92815
686.709	52.62032
686.898	51.2492
687.087	48.36047
687.276	52.78926
687.465	49.32328
687.654	46.65404
687.842	52.92564
688.031	43.65763
688.22	53.25789
688.409	47.45551
688.598	47.98933
688.787	56.16968
688.976	47.14919
689.165	54.43612
689.353	46.41304
689.542	48.61058
689.731	51.10922
689.92	55.41565
690.108	50.23198
690.297	45.61054
690.486	48.27189
690.675	51.20621
690.863	54.83121
691.052	53.30272
691.241	49.04648
691.429	48.40088
691.618	54.56283
691.806	42.92014
691.995	46.89041
692.184	47.52213
692.372	47.02466
692.561	49.50231
692.749	47.32513
692.938	59.34762
693.126	50.50134
693.315	47.54537
693.503	50.78992
693.692	50.80746
693.88	52.59755
694.068	57.30901
694.257	49.10341
694.445	51.36314
694.634	40.00924
694.822	51.3729
695.01	53.77456
695.199	54.64403
695.387	54.43803
695.575	53.37467
695.763	47.15735
695.952	46.76184
696.14	44.20733
696.328	48.34663
696.516	49.0595
696.705	50.70191
696.893	50.05888
697.081	41.23857
697.269	52.63237
697.457	45.29491
697.645	45.0139
697.833	51.6532
698.021	46.06414
698.21	47.48736
698.398	47.57236
698.586	44.47007
698.774	44.64638
698.962	47.2105
699.15	45.55739
699.338	43.5964
699.526	50.27964
699.714	45.88764
699.901	46.58203
700.089	52.8689
700.277	45.97093
700.465	49.43
700.653	53.32896
700.841	50.8849
701.029	46.77035
701.217	53.60645
701.404	51.75085
701.592	56.87
701.78	58.5267
701.968	48.65311
702.155	49.04991
702.343	43.67271
702.531	54.17099
702.718	51.12656
702.906	49.94079
703.094	46.95747
703.281	54.93797
703.469	52.03385
703.657	55.21009
703.844	63.68571
704.032	57.56783
704.219	47.37241
704.407	51.34388
704.595	55.54344
704.782	49.47704
704.97	48.90454
705.157	47.39381
705.345	57.64132
705.532	66.01311
705.719	53.68534
705.907	57.43262
706.094	50.84834
706.282	59.79502
706.469	49.33463
706.656	51.67073
706.844	50.09168
707.031	56.26866
707.218	52.66273
707.406	59.00739
707.593	56.76892
707.78	55.53262
707.968	52.23283
708.155	48.46916
708.342	52.89115
708.529	52.75296
708.716	52.00084
708.904	59.88659
709.091	54.33477
709.278	46.46392
709.465	62.83803
709.652	59.73914
709.839	60.04325
710.026	55.61032
710.213	45.8892
710.4	55.81261
710.587	56.58424
710.774	61.24593
710.961	58.68341
711.148	54.55482
711.335	60.21047
711.522	51.86998
711.709	54.66145
711.896	65.57829
712.083	57.38191
712.27	49.77153
712.457	54.8826
712.644	47.83876
712.831	65.01265
713.017	55.19589
713.204	56.94458
713.391	52.00153
713.578	60.07404
713.765	62.50881
713.951	56.33665
714.138	72.76771
714.325	57.77136
714.512	55.13218
714.698	51.54651
714.885	62.43808
715.072	55.4692
715.258	55.39355
715.445	51.12939
715.631	61.25239
715.818	43.48173
716.005	52.48743
716.191	59.09871
716.378	53.93364
716.564	61.41245
716.751	51.14689
716.937	52.68167
717.124	61.26829
717.31	51.15158
717.497	65.72078
717.683	52.30795
717.869	68.77142
718.056	54.42372
718.242	58.1992
718.429	54.3154
718.615	49.9257
718.801	56.98524
718.988	60.67011
719.174	58.79296
719.36	56.04164
719.547	62.79948
719.733	56.56132
719.919	59.3753
720.105	61.72626
720.291	56.13359
720.478	57.07482
720.664	57.43027
720.85	53.86208
721.036	72.59041
721.222	66.90125
721.408	57.00941
721.595	67.86022
721.781	65.51934
721.967	64.26915
722.153	70.29597
722.339	61.03493
722.525	56.4646
722.711	52.03153
722.897	50.2696
723.083	54.4094
723.269	60.98409
723.455	73.08349
723.641	80.35483
723.827	57.61881
724.012	62.77968
724.198	56.07395
724.384	65.25172
724.57	61.76799
724.756	48.94007
724.942	46.26628
725.127	65.07249
725.313	69.13598
725.499	66.91689
725.685	70.61214
725.87	57.50896
726.056	51.6754
726.242	68.138
726.428	47.87628
726.613	63.45261
726.799	55.85739
726.985	52.31265
727.17	46.62172
727.356	69.85914
727.541	50.49082
727.727	57.6364
727.913	61.87047
728.098	53.9013
728.284	63.93173
728.469	51.36711
728.655	54.12449
728.84	64.40174
729.026	64.44421
729.211	63.28938
729.397	62.39692
729.582	61.2908
729.767	59.80976
729.953	61.31722
730.138	67.6007
730.323	44.8197
730.509	54.98174
730.694	70.49982
730.879	62.81708
731.065	57.82948
731.25	73.54287
731.435	65.22417
731.621	50.94328
731.806	55.74898
731.991	59.95317
732.176	47.79662
732.361	69.37512
732.547	63.07415
732.732	49.56443
732.917	77.60247
733.102	50.69386
733.287	52.47246
733.472	58.03044
733.657	58.72974
733.842	49.97842
734.027	55.18486
734.212	57.49558
734.397	55.2511
734.582	61.82916
734.767	66.51834
734.952	70.87327
735.137	43.67752
735.322	72.17143
735.507	62.78834
735.692	63.34583
735.877	77.81304
736.062	73.90404
736.247	67.9849
736.431	60.47093
736.616	68.92756
736.801	62.044
736.986	60.88079
737.171	56.37228
737.355	49.73636
737.54	68.38789
737.725	61.41633
737.909	81.86447
738.094	56.56884
738.279	70.65331
738.463	58.84253
738.648	66.39501
738.833	65.75725
739.017	76.26611
739.202	58.56193
739.386	59.57253
739.571	55.38783
739.756	67.5935
739.94	60.19436
740.125	70.13426
740.309	55.97404
740.494	66.56619
740.678	62.34481
740.863	68.57052
741.047	63.08472
741.231	73.67191
741.416	57.66068
741.6	78.02607
741.785	53.55696
741.969	69.87156
742.153	74.28017
742.338	47.55314
742.522	62.97196
742.706	67.6874
742.89	51.87398
743.075	64.27768
743.259	71.30667
743.443	73.10892
743.627	75.04308
743.812	83.33484
743.996	49.5109
744.18	60.03337
744.364	59.59579
744.548	85.30491
744.732	60.44343
744.916	69.48031
745.1	69.31549
745.285	59.73365
745.469	67.57898
745.653	79.64743
745.837	50.48158
746.021	85.91903
746.205	73.11047
746.389	60.95873
746.573	62.18424
746.757	78.02787
746.94	63.31328
747.124	78.78681
747.308	54.17415
747.492	72.63086
747.676	57.80151
747.86	87.96842
748.044	57.47982
748.227	47.38356
748.411	98.03568
748.595	66.91797
748.779	55.46264
748.963	66.89972
749.146	64.56253
749.33	58.67797
749.514	57.87118
749.697	73.5379
749.881	58.85154
750.065	55.68779
750.248	65.96139
750.432	88.9586
750.616	65.80379
750.799	51.2675
750.983	88.2228
751.166	90.39263
751.35	50.44049
751.533	67.01141
751.717	79.22438
751.9	77.45266
752.084	60.536
752.267	52.11586
752.451	58.79946
752.634	62.62605
752.818	70.22953
753.001	73.09769
753.184	77.61214
753.368	69.7137
753.551	35.23734
753.734	57.34268
753.918	86.2937
754.101	58.29544
754.284	70.12329
754.467	60.5499
754.651	61.075
754.834	58.68801
755.017	76.24783
755.2	76.9569
755.384	52.61452
755.567	76.52933
755.75	76.01483
755.933	61.14175
756.116	67.49605
756.299	61.93186
756.482	56.08349
756.665	70.42958
756.848	66.41366
757.032	71.57848
757.215	50.48363
757.398	60.8889
757.581	58.85206
757.764	95.0121
757.947	63.42749
758.129	80.95879
758.312	37.42129
758.495	62.3798
758.678	65.00004
758.861	58.82371
759.044	85.0607
759.227	51.92205
759.41	61.40535
759.592	74.53201
759.775	67.83849
759.958	78.31055
760.141	53.51423
760.324	89.73911
760.506	83.66191
760.689	77.28736
760.872	95.22285
761.054	75.41338
761.237	63.23406
761.42	68.69061
761.602	74.69771
761.785	72.56909
761.968	79.08423
762.15	83.11755
762.333	60.45904
762.515	68.82172
762.698	61.14478
762.88	74.2854
763.063	67.98039
763.245	73.93284
763.428	58.59236
763.61	61.16451
763.793	53.32508
763.975	70.43759
764.158	60.91651
764.34	62.26092
764.522	59.24142
764.705	64.71539
764.887	79.33169
765.069	52.89705
765.252	73.90748
765.434	74.91202
765.616	69.59656
765.799	62.19164
765.981	75.15167
766.163	59.66078
766.345	79.84792
766.528	62.23678
766.71	44.87267
766.892	68.53633
767.074	83.18017
767.256	66.17812
767.438	87.41083
767.62	72.48947
767.802	87.68595
767.985	78.89949
768.167	94.00534
768.349	65.62613
768.531	71.6894
768.713	73.54255
768.895	78.55777
769.077	75.56949
769.259	99.92585
769.441	132.9649
769.623	76.6616
769.804	90.31186
769.986	85.14678
770.168	102.64547
770.35	111.37962
770.532	94.35793
770.714	97.52444
770.896	103.45009
771.077	58.02381
771.259	109.48925
771.441	91.6318
771.623	112.17772
771.804	126.53341
771.986	58.22883
772.168	68.97153
772.35	107.50923
772.531	128.0762
772.713	85.52284
772.894	115.79665
773.076	83.28833
773.258	84.28938
773.439	109.7633
773.621	126.83281
773.802	69.95043
773.984	85.57806
774.166	87.86618
774.347	116.89302
774.529	110.58803
774.71	56.44119
774.891	91.58507
775.073	81.59342
775.254	117.7415
775.436	74.85767
775.617	129.83084
775.799	71.65515
775.98	111.18613
776.161	122.58772
776.343	123.04662
776.524	87.68006
776.705	80.82594
776.886	55.8465
777.068	91.63885
777.249	147.99978
777.43	132.22914
777.611	67.09775
777.793	91.55066
777.974	120.65611
778.155	76.76578
778.336	69.39945
778.517	136.25555
778.698	73.84589
778.879	54.23827
779.061	41.66358
779.242	98.74457
779.423	94.89894
779.604	84.3852
779.785	89.39905
779.966	90.4295
780.147	111.01689
780.328	112.39396
780.509	142.37756
780.69	108.39593
780.871	76.0266
781.051	63.2499
781.232	96.44872
781.413	87.07715
781.594	78.94968
781.775	79.76256
781.956	73.33375
782.137	51.58359
782.317	75.0756
782.498	97.20249
782.679	90.70293
782.86	94.35922
783.04	73.67556
783.221	97.91166
783.402	128.42044
783.583	93.33844
783.763	104.9238
783.944	85.75593
784.124	59.43623
784.305	124.93425
784.486	98.699
784.666	87.51313
784.847	63.48556
785.027	151.97252
785.208	73.33295
785.388	80.27211
785.569	76.39179
785.749	83.61782
785.93	75.46304
786.11	60.69573
786.291	99.16926
786.471	90.9188
786.652	104.4031
786.832	89.48636
787.012	95.49334
787.193	68.09704
787.373	93.77606
787.553	81.67997
787.734	96.07294
787.914	82.93985
788.094	101.81321
788.275	97.7281
788.455	78.89761
788.635	67.22916
788.815	90.82152
788.995	75.46115
789.176	64.78993
789.356	68.30003
789.536	84.40414
789.716	98.66934
789.896	75.47304
790.076	80.10855
790.256	99.07041
790.436	44.6754
790.616	72.48178
790.796	93.75689
790.976	82.56148
791.156	69.56849
791.336	105.86593
791.516	96.08112
791.696	88.75144
791.876	63.16946
792.056	90.80648
792.236	117.25498
792.416	106.6361
792.596	95.711
792.776	95.56747
792.956	100.4653
793.135	120.54572
793.315	72.45517
793.495	115.39804
793.675	108.17568
793.854	107.28745
794.034	104.99708
794.214	68.53229
794.394	106.76928
794.573	113.78611
794.753	94.05619
794.933	75.84681
795.112	93.3808
795.292	104.15403
795.472	125.22786
795.651	75.1981
795.831	88.59314
796.01	83.51681
796.19	82.66051
796.369	88.25687
796.549	101.40557
796.728	84.07069
796.908	66.67726
797.087	63.37769
797.267	80.48023
797.446	63.24629
797.626	103.22848
797.805	99.98255
797.984	79.2424
798.164	105.68069
798.343	71.39929
798.522	93.82713
798.702	91.4615
798.881	65.61565
799.06	82.14932
799.239	52.14692
799.419	68.97415
799.598	125.91338
799.777	96.77495
799.956	118.85515
800.136	82.9127
800.315	75.73932
800.494	99.59456
800.673	109.85433
800.852	108.08932
801.031	110.84555
801.21	102.73322
801.389	83.63128
801.568	92.94356
801.747	130.29101
801.926	89.85052
802.105	126.32543
802.284	82.51957
802.463	127.97658
802.642	101.38072
802.821	93.46774
803	117.37705
803.179	109.86541
803.358	115.79661
803.537	78.27866
803.716	94.74404
803.895	79.89041
804.073	86.85734
804.252	80.31958
804.431	98.6515
804.61	82.29124
804.789	115.05141
804.967	84.39539
805.146	84.11625
805.325	132.92626
805.503	107.56377
805.682	63.78263
805.861	160.59415
806.039	118.85924
806.218	86.58383
806.397	101.97512
806.575	92.17681
806.754	104.03857
806.932	79.81639
807.111	123.38461
807.289	117.91078
807.468	99.30253
807.646	118.27473
807.825	110.61298
808.003	105.53249
808.182	118.28923
808.36	102.05299
808.539	74.11042
808.717	127.58891
808.895	77.16886
809.074	101.29967
809.252	99.45014
809.43	119.5207
809.609	119.79743
809.787	143.66939
809.965	91.24523
810.144	99.0123
810.322	97.66606
810.5	104.6769
810.678	95.63893
810.856	142.49936
811.035	124.68607
811.213	116.33904
811.391	124.34061
811.569	111.99116
811.747	179.8641
811.925	129.7961
812.103	71.59281
812.281	103.68632
812.459	149.83248
812.637	144.4915
812.816	119.10489
812.994	150.9076
813.171	130.40698
813.349	118.29817
813.527	129.44434
813.705	126.95971
813.883	153.09584
814.061	124.20996
814.239	146.48215
814.417	159.22773
814.595	119.86302
814.773	112.0116
814.95	105.58071
815.128	107.45195
815.306	106.20358
815.484	106.06179
815.662	90.43432
815.839	78.33948
816.017	87.93217
816.195	134.01714
816.372	90.62644
816.55	123.34036
816.728	137.24152
816.905	96.00229
817.083	138.62411
817.261	102.13875
817.438	170.86999
817.616	147.64556
817.793	84.12501
817.971	124.11413
818.148	119.04499
818.326	150.26723
818.503	108.36619
818.681	143.15156
818.858	100.54479
819.036	96.4579
819.213	103.06849
819.391	94.5027
819.568	84.54105
819.745	82.47747
819.923	117.4407
820.1	94.00245
820.277	81.13374
820.455	93.68638
820.632	92.00846
820.809	96.91234
820.986	74.70901
821.164	66.19008
821.341	64.53554
821.518	77.51741
821.695	67.68301
821.872	65.0346
822.05	60.3946
822.227	56.42897
822.404	57.83604
822.581	60.72963
822.758	58.28723
822.935	57.60449
823.112	60.81373
823.289	57.3648
823.466	60.53004
823.643	61.22755
823.82	64.83398
823.997	63.38392
824.174	67.85013
824.351	77.35187
824.528	76.76696
824.705	73.32165
824.882	78.54197
825.059	89.21434
825.236	77.00155
825.412	79.93405
825.589	84.41385
825.766	104.92572
825.943	81.7624
826.12	84.98543
826.296	73.17384
826.473	79.74153
826.65	78.52527
826.827	88.39855
827.003	70.33245
827.18	74.86092
827.357	79.4263
827.533	71.54286
827.71	58.41718
827.887	68.61486
828.063	74.0441
828.24	68.50414
828.416	78.74654
828.593	71.66065
828.769	88.59369
828.946	91.09441
829.122	96.15343
829.299	97.96661
829.475	69.99142
829.652	96.72344
829.828	125.34347
830.005	92.51267
830.181	117.38604
830.357	89.81158
830.534	120.80423
830.71	103.682
830.886	122.47616
831.063	115.36713
831.239	135.03149
831.415	80.80907
831.592	142.32988
831.768	98.60545
831.944	90.73729
832.12	144.45611
832.296	135.95348
832.473	114.75103
832.649	86.01609
832.825	113.93819
833.001	80.47184
833.177	101.59291
833.353	93.81546
833.529	66.50484
833.705	84.7647
833.881	73.78919
834.058	68.15702
834.234	73.47189
834.41	71.78644
834.586	63.0381
834.761	70.57396
834.937	75.29242
835.113	77.24111
835.289	73.84559
835.465	81.40775
835.641	74.35003
835.817	79.04699
835.993	120.64826
836.169	82.76049
836.344	99.06196
836.52	109.85518
836.696	116.91939
836.872	86.01532
837.048	188.70271
837.223	100.01024
837.399	160.95087
837.575	145.5835
837.75	129.44982
837.926	166.34304
838.102	247.99087
838.277	212.41701
838.453	265.01198
838.628	260.43681
838.804	112.86493
838.98	252.66758
839.155	129.91441
839.331	175.64024
839.506	123.16872
839.682	118.01115
839.857	144.3698
840.033	169.30128
840.208	101.03383
840.384	65.92837
840.559	103.26156
840.734	136.16859
840.91	181.6663
841.085	123.11782
841.26	118.97098
841.436	111.63587
841.611	125.46393
841.786	154.92849
841.962	201.92867
842.137	158.55183
842.312	96.08059
842.487	130.72869
842.663	99.97169
842.838	132.52469
843.013	345.51259
843.188	216.78315
843.363	172.66079
843.538	335.14483
843.714	384.14292
843.889	339.70781
844.064	344.12138
844.239	284.54362
844.414	496.0032
844.589	292.20721
844.764	425.34715
844.939	394.33401
845.114	468.8824
845.289	434.12539
845.464	532.7659
845.639	400.33396
845.814	236.10992
845.989	323.81681
846.163	279.43701
846.338	333.13942
846.513	421.55945
846.688	274.31964
846.863	323.58181
847.038	277.48164
847.212	319.36514
847.387	382.17182
847.562	317.63052
847.737	487.8756
847.911	180.05053
848.086	195.58626
848.261	553.36458
848.435	278.71951
848.61	401.38139
848.785	254.50839
848.959	435.90729
849.134	500.97921
849.308	665.67275
849.483	319.64599
849.658	560.73329
849.832	280.4398
850.007	294.92852
850.181	681.5576
850.356	308.64924
850.53	824.15165
850.705	342.31609
850.879	165.01167
851.053	357.36339
851.228	325.99396
851.402	476.03322
851.577	502.44006
851.751	627.6055
851.925	353.74428
852.099	170.66146
852.274	261.2328
852.448	327.60714
852.622	479.86989
852.797	363.39393
852.971	347.66793
853.145	450.28732
853.319	760.34245
853.493	686.78471
853.668	540.50686
853.842	782.17109
854.016	511.72887
854.19	700.01277
854.364	383.35621
854.538	356.44348
854.712	780.05269
854.886	432.03314
855.06	316.86066
855.234	94.30949
855.408	676.53842
855.582	425.10632
855.756	670.49289
855.93	617.8633
856.104	645.01332
856.278	562.22137
856.452	396.27805
856.626	423.91565
856.8	918.02973
856.973	378.37205
857.147	469.72535
857.321	482.58079
857.495	543.82968
857.669	352.02409
857.842	474.96896
858.016	636.87769
858.19	257.6209
858.364	823.68678
858.537	426.29115
858.711	510.85871
858.885	410.55596
859.058	287.45555
859.232	157.75567
859.405	194.60594
859.579	513.64622
859.753	487.16835
859.926	251.81691
860.1	230.02611
860.273	397.84181
860.447	511.11731
860.62	405.68689
860.794	667.2295
860.967	359.10678
861.141	532.49687
861.314	781.34249
861.487	512.50957
861.661	498.22019
861.834	541.9169
862.008	719.2191
862.181	453.36968
862.354	544.84618
862.528	506.8151
862.701	344.25526
862.874	196.20064
863.047	353.73585
863.221	318.18058
863.394	167.96426
863.567	428.95489
863.74	198.95576
863.913	542.01426
864.087	532.04075
864.26	467.109
864.433	400.53252
864.606	600.51307
864.779	364.66549
864.952	187.81414
865.125	420.36214
865.298	334.37567
865.471	365.57994
865.644	787.41894
865.817	573.01136
865.99	503.30605
866.163	458.09218
866.336	292.11151
866.509	383.05487
866.682	637.76618
866.855	716.73447
867.028	242.71997
867.2	404.41734
867.373	166.79707
867.546	406.81768
867.719	709.6703
867.892	469.61668
868.064	312.65837
868.237	357.07461
868.41	417.89661
868.583	223.08555
868.755	254.54847
868.928	459.78329
869.101	837.11979
869.273	554.9892
869.446	522.57931
869.619	575.52387
869.791	379.01083
869.964	506.05948
870.136	874.11866
870.309	410.42791
870.481	421.39817
870.654	222.88609
870.826	357.50453
870.999	236.80725
871.171	454.63864
871.344	299.67419
871.516	314.1335
871.689	243.7919
871.861	329.76919
872.033	286.47636
872.206	291.30662
872.378	372.65528
872.55	370.27193
872.723	203.02705
872.895	322.5173
873.067	461.39028
873.24	420.04432
873.412	372.6545
873.584	379.80658
873.756	365.53694
873.928	483.9261
874.101	366.76277
874.273	432.89201
874.445	159.06417
874.617	273.71091
874.789	357.40232
874.961	403.05711
875.133	381.0233
875.305	379.47662
875.477	299.353
875.649	182.74752
875.821	205.38177
875.993	664.38076
876.165	371.06774
876.337	436.44625
876.509	332.69987
876.681	407.18998
876.853	403.48352
877.025	394.29141
877.197	264.15347
877.369	192.68205
877.541	363.45611
877.712	136.02488
877.884	206.7309
878.056	372.77056
878.228	215.83684
878.4	416.04361
878.571	206.1842
878.743	140.86189
878.915	309.01914
879.086	181.42503
879.258	208.36618
879.43	213.54528
879.601	176.73468
879.773	180.71884
879.945	71.85826
880.116	92.76246
880.288	68.9035
880.459	70.80462
880.631	69.70259
880.802	72.76681
880.974	71.15896
881.145	62.76816
881.317	69.61897
881.488	63.30431
881.66	65.51857
881.831	62.9098
882.002	69.47755
882.174	63.47275
882.345	68.76243
882.517	56.73041
882.688	76.03603
882.859	70.60004
883.03	88.64028
883.202	86.08313
883.373	82.07124
883.544	83.84829
883.715	114.00225
883.887	102.44734
884.058	94.56782
884.229	133.63195
884.4	125.33439
884.571	140.38707
884.742	130.76549
884.914	134.76593
885.085	173.84005
885.256	219.43035
885.427	205.86468
885.598	235.82939
885.769	218.01453
885.94	244.51906
886.111	172.16527
886.282	257.64916
886.453	247.67082
886.624	178.82156
886.795	271.3582
886.966	241.76029
887.136	296.36861
887.307	216.07015
887.478	377.87268
887.649	329.11858
887.82	332.58209
887.991	278.19771
888.161	398.37521
888.332	420.5559
888.503	179.45696
888.674	437.99343
888.844	599.46042
889.015	400.94125
889.186	256.58574
889.356	546.34438
889.527	246.64346
889.698	732.21442
889.868	284.53593
890.039	451.21703
890.209	306.99607
890.38	418.07841
890.551	354.85711
890.721	440.64597
890.892	497.46077
891.062	475.60625
891.233	542.61789
891.403	473.79667
891.574	330.2031
891.744	304.50272
891.914	370.5641
892.085	417.98417
892.255	146.06161
892.425	497.52032
892.596	360.22434
892.766	443.80536
892.936	466.72132
893.107	441.7703
893.277	212.61186
893.447	217.74645
893.618	142.84885
893.788	245.36339
893.958	158.2346
894.128	147.88916
894.298	161.73731
894.468	195.93002
894.639	107.87641
894.809	83.64193
894.979	109.5053
895.149	128.24592
895.319	108.7213
895.489	141.67024
895.659	178.24601
895.829	126.45505
895.999	124.85875
896.169	121.72959
896.339	130.80217
896.509	240.07117
896.679	253.66285
896.849	307.15933
897.019	326.43274
897.189	281.1623
897.358	282.57644
897.528	388.21551
897.698	258.77915
897.868	348.10463
898.038	688.18728
898.208	675.37233
898.377	255.00384
898.547	1073.66657
898.717	1476.40355
898.886	516.05172
899.056	665.36444
899.226	1523.73254
899.395	784.23425
899.565	1295.1155
899.735	901.03334
899.904	1008.23408
900.074	1014.32621
900.244	345.18118
900.413	1269.78187
900.583	499.26798
900.752	1412.44533
900.922	1114.88915
901.091	141.14898
901.261	1888.92906
901.43	616.55182
901.599	2502.15052
901.769	1438.49502
901.938	1237.10091
902.108	1634.02927
902.277	856.46925
902.446	426.92925
902.616	399.10053
902.785	652.72428
902.954	713.53387
903.124	570.00072
903.293	326.95364
903.462	177.28695
903.631	228.53721
903.801	174.31922
903.97	97.12074
904.139	152.39107
904.308	117.91664
904.477	102.2066
904.646	74.91327
904.816	100.78949
904.985	142.23122
905.154	191.45817
