Data from WindowProjectSample_Transmission__41__00041__07577212334549736.txt Node

Date: Mon May 05 17:54:58 EDT 2025
User: jessi
Spectrometer: SR400872
Trigger mode: 0
Integration Time (sec): 5.000010E-1
Scans to average: 20
Electric dark correction enabled: true
Nonlinearity correction enabled: true
Boxcar width: 0
XAxis mode: Wavelengths
Number of Pixels in Spectrum: 3648
>>>>>Begin Spectral Data<<<<<
184.909	22260.10014
185.132	-5381.74923
185.355	-3145.52875
185.578	-18916.22482
185.801	2101.93388
186.024	10743.01548
186.247	-1968.00007
186.47	1038.36067
186.693	325.85037
186.916	377.19374
187.139	-3993.16703
187.362	3691.18757
187.585	4276.2455
187.808	3651.01871
188.031	-39.81126
188.254	-55181.40204
188.476	-715.04319
188.699	6484.36531
188.922	630.39764
189.145	-16240.99474
189.368	-603.79472
189.591	-1375.12831
189.813	3128.31986
190.036	-52211.97668
190.259	-915.69344
190.482	-4833.49808
190.705	7389.927
190.927	-2495.35915
191.15	13382.36041
191.373	3414.65667
191.595	-9401.25554
191.818	-4386.3885
192.041	-5652.15787
192.263	-3509.02001
192.486	-778.40803
192.709	-4061.26566
192.931	8124.31724
193.154	-29848.50931
193.377	-2945.59175
193.599	-2606.63846
193.822	-9510.06689
194.044	-2024.96817
194.267	1138.39659
194.489	254.91602
194.712	-43667.02193
194.934	-33028.02987
195.157	1177.42955
195.379	1547.51349
195.602	-7051.40233
195.824	-1387.73888
196.047	-8903.00892
196.269	2846.401
196.492	-6414.01942
196.714	29554.79335
196.936	-9125.81159
197.159	-1290.035
197.381	1145.95284
197.604	452.55263
197.826	12616.46011
198.048	-10680.32792
198.271	-2901.64257
198.493	7899.41776
198.715	2490.44793
198.938	-503.30142
199.16	7701.01905
199.382	-106392.50973
199.604	2598.45907
199.827	-1051.25754
200.049	-3176.09043
200.271	14519.05368
200.493	1241.36854
200.715	-39547.31601
200.938	-6204.62156
201.16	-4271.82213
201.382	21680.16571
201.604	2389.33079
201.826	2317.48996
202.048	-1986.45645
202.27	-2080.96098
202.492	-36868.9897
202.715	3080.21325
202.937	-4621.82948
203.159	-6567.55629
203.381	1514.08345
203.603	7130.02884
203.825	6714.81517
204.047	2421.71598
204.269	-2937.71299
204.491	2196.57177
204.713	6165.10097
204.935	-516043.09585
205.156	1249.6325
205.378	-3119.58015
205.6	1644.01887
205.822	159952.07538
206.044	-992.03103
206.266	1548.90139
206.488	4638.04753
206.71	-5435.92094
206.932	1105.47743
207.153	12662.23615
207.375	-7417.74214
207.597	-38548.36468
207.819	-2868.51376
208.041	2519.14299
208.262	466.06793
208.484	783.16368
208.706	-822.51694
208.927	-811.78619
209.149	608.93917
209.371	-3007.70943
209.593	-301.5203
209.814	-896.0341
210.036	578.80864
210.258	-688.20502
210.479	1689.64701
210.701	1777.72105
210.922	3380.62233
211.144	-4079.0869
211.366	2142.48217
211.587	7465.81966
211.809	-8703.1876
212.03	2511.67938
212.252	419.04073
212.473	2118.9292
212.695	-5486.12809
212.916	3023.65566
213.138	-619.3943
213.359	4005.29681
213.581	5472.51112
213.802	-825.25478
214.024	1205.38788
214.245	2187.51719
214.466	3871.67653
214.688	-3213.79245
214.909	-1330.95853
215.131	-1841.79334
215.352	-3078.28534
215.573	15685.27993
215.795	5140.3323
216.016	5705.53587
216.237	867.41052
216.459	3721.73598
216.68	1884.27649
216.901	5165.93852
217.122	-3546.32069
217.344	-11900.46905
217.565	3641.39672
217.786	9255.74301
218.007	16023.09418
218.228	-757.80287
218.45	6047.63281
218.671	817.3985
218.892	38720.45545
219.113	1564.66329
219.334	-386.7794
219.555	10558.17673
219.776	3147.51457
219.997	23819.0728
220.219	2768.51498
220.44	-11408.18314
220.661	439.03407
220.882	1544.63924
221.103	-1207.43855
221.324	2445.52002
221.545	2471.08664
221.766	-9280.52702
221.987	944.7881
222.208	1795.84007
222.429	4420.63809
222.65	318.12638
222.87	18691.76089
223.091	736.0688
223.312	578.39776
223.533	1416.92737
223.754	1549.23664
223.975	1409.19727
224.196	2128.66603
224.417	1473.82003
224.637	674.58554
224.858	92.73262
225.079	1145.13523
225.3	691.50946
225.521	3820.52932
225.741	476.55451
225.962	553.3878
226.183	158.53204
226.404	684.90716
226.624	448.94169
226.845	681.89216
227.066	423.14698
227.286	251.79291
227.507	124.08575
227.728	124.82315
227.948	244.30764
228.169	73.85971
228.389	84.30431
228.61	49.33181
228.831	63.52027
229.051	3.61165
229.272	39.65259
229.492	58.54268
229.713	15.49687
229.933	39.42534
230.154	31.5506
230.374	57.38065
230.595	38.36058
230.815	24.61977
231.036	41.71432
231.256	-12.72656
231.477	69.79346
231.697	39.45815
231.917	39.41881
232.138	60.98619
232.358	109.50261
232.579	107.70243
232.799	18.26673
233.019	99.94217
233.24	119.01758
233.46	40.40832
233.68	66.02708
233.901	43.28384
234.121	26.80798
234.341	13.19925
234.561	-3.62256
234.782	23.47254
235.002	68.80866
235.222	-3.0468
235.442	66.96735
235.662	33.01303
235.883	64.84158
236.103	52.37906
236.323	33.50584
236.543	29.9518
236.763	40.68498
236.983	46.18414
237.203	42.3216
237.423	63.64118
237.643	90.41183
237.864	76.43523
238.084	18.55899
238.304	26.4141
238.524	45.14686
238.744	42.45922
238.964	76.66563
239.184	64.41655
239.404	65.52382
239.624	35.93284
239.843	61.46704
240.063	37.67932
240.283	22.8011
240.503	26.24495
240.723	26.38507
240.943	14.94769
241.163	19.76712
241.383	14.08968
241.603	7.48362
241.822	9.46897
242.042	6.40393
242.262	8.55955
242.482	9.90594
242.702	11.10687
242.921	2.96822
243.141	7.24955
243.361	6.39789
243.581	9.70447
243.8	7.82954
244.02	5.01505
244.24	9.8253
244.459	9.64267
244.679	18.74529
244.899	11.47004
245.118	14.36298
245.338	11.77622
245.558	13.92003
245.777	9.08281
245.997	10.82205
246.216	11.08223
246.436	6.34067
246.655	4.69384
246.875	3.2943
247.094	6.50842
247.314	2.21586
247.533	3.8596
247.753	4.43177
247.972	3.70493
248.192	1.08843
248.411	1.94865
248.631	3.68861
248.85	4.76888
249.07	4.13117
249.289	6.16546
249.508	5.22215
249.728	7.79293
249.947	7.36614
250.166	9.18278
250.386	4.4952
250.605	7.02101
250.824	11.38631
251.044	7.72809
251.263	29.38462
251.482	15.59308
251.701	11.80775
251.921	-0.37797
252.14	3.57614
252.359	4.22669
252.578	10.85683
252.798	3.21064
253.017	9.43465
253.236	4.35743
253.455	5.83653
253.674	10.64711
253.893	4.59763
254.112	7.82112
254.331	11.69678
254.551	8.64806
254.77	3.62245
254.989	13.13823
255.208	9.74688
255.427	15.39314
255.646	12.47125
255.865	22.39343
256.084	9.16088
256.303	10.53668
256.522	14.16376
256.741	2.55972
256.96	3.28532
257.179	7.50481
257.397	11.26034
257.616	5.70233
257.835	6.25718
258.054	16.0661
258.273	10.67231
258.492	11.49088
258.711	6.97455
258.93	2.76102
259.148	4.92011
259.367	4.74259
259.586	5.76248
259.805	2.25375
260.023	5.47267
260.242	4.15617
260.461	2.87184
260.68	1.36001
260.898	4.6187
261.117	1.40548
261.336	1.04404
261.554	3.32664
261.773	3.61759
261.992	0.83692
262.21	3.42015
262.429	3.64932
262.648	7.58237
262.866	8.33498
263.085	5.97376
263.303	4.98093
263.522	9.06764
263.74	9.25684
263.959	15.58206
264.178	7.70351
264.396	7.01581
264.615	4.78927
264.833	11.19225
265.051	9.40474
265.27	11.04076
265.488	11.6048
265.707	6.32079
265.925	11.24405
266.144	4.65295
266.362	6.01125
266.58	6.14827
266.799	5.27693
267.017	6.28662
267.235	5.37131
267.454	3.45951
267.672	1.77311
267.89	4.44106
268.109	4.5497
268.327	4.49215
268.545	1.1207
268.763	4.48064
268.982	1.62059
269.2	4.43083
269.418	3.13138
269.636	1.97307
269.854	4.91245
270.073	3.20074
270.291	2.15001
270.509	1.67863
270.727	4.51594
270.945	7.76771
271.163	7.44428
271.381	1.27884
271.599	3.20917
271.817	5.70667
272.036	1.77047
272.254	3.33518
272.472	2.63367
272.69	2.64368
272.908	2.34352
273.126	4.61263
273.344	5.42308
273.562	1.79639
273.779	2.48861
273.997	4.0886
274.215	4.24879
274.433	2.8613
274.651	4.60964
274.869	4.85001
275.087	2.92568
275.305	4.17156
275.523	2.70643
275.74	3.04256
275.958	5.52601
276.176	8.44946
276.394	2.44797
276.612	3.32717
276.829	3.11872
277.047	2.75097
277.265	3.02901
277.483	3.569
277.7	4.41964
277.918	3.44834
278.136	6.53377
278.353	2.99773
278.571	2.15671
278.789	4.45339
279.006	0.92247
279.224	3.04455
279.442	5.42803
279.659	3.68093
279.877	2.50034
280.094	5.8027
280.312	1.07185
280.529	3.28968
280.747	1.0699
280.964	2.82338
281.182	6.27618
281.399	2.85211
281.617	4.00223
281.834	2.69839
282.052	2.03787
282.269	3.29597
282.487	2.51936
282.704	2.12736
282.921	2.22823
283.139	3.3617
283.356	4.32975
283.574	4.03859
283.791	1.95015
284.008	5.89717
284.226	3.00344
284.443	3.3668
284.66	4.58237
284.877	3.54554
285.095	2.23169
285.312	1.70005
285.529	0.93778
285.746	0.95801
285.964	2.1841
286.181	1.44731
286.398	1.94278
286.615	2.74356
286.832	2.66026
287.05	0.55339
287.267	1.91188
287.484	1.84384
287.701	2.66578
287.918	2.66049
288.135	2.62806
288.352	1.26091
288.569	1.35899
288.786	2.43989
289.003	2.01263
289.22	3.08854
289.437	1.68036
289.654	2.95308
289.871	3.10811
290.088	3.02523
290.305	2.48024
290.522	1.76427
290.739	2.11395
290.956	3.20635
291.173	3.52447
291.39	3.56242
291.607	2.38715
291.824	1.5927
292.04	1.31482
292.257	2.94453
292.474	3.45555
292.691	2.08132
292.908	0.95376
293.125	1.79805
293.341	1.16372
293.558	5.1301
293.775	2.02125
293.992	2.0064
294.208	0.95597
294.425	1.27996
294.642	1.94523
294.858	3.36844
295.075	0.63983
295.292	2.02611
295.508	2.34188
295.725	4.22152
295.942	1.67687
296.158	1.22813
296.375	2.08852
296.591	1.60305
296.808	1.77906
297.024	1.96528
297.241	2.29381
297.458	2.43145
297.674	0.21715
297.891	1.92003
298.107	1.4784
298.323	1.08708
298.54	3.09614
298.756	1.29016
298.973	0.65287
299.189	3.13845
299.406	1.16044
299.622	2.84805
299.838	2.77985
300.055	2.64721
300.271	0.59935
300.487	1.04181
300.704	1.32101
300.92	0.67491
301.136	4.285
301.353	2.60213
301.569	1.95854
301.785	2.24741
302.001	2.75025
302.218	2.30419
302.434	2.30668
302.65	0.73107
302.866	1.61715
303.083	4.10026
303.299	3.7858
303.515	1.9781
303.731	2.13151
303.947	0.60982
304.163	1.22742
304.379	2.14028
304.595	2.46673
304.812	1.28916
305.028	1.33571
305.244	1.84524
305.46	2.70821
305.676	2.75453
305.892	3.24973
306.108	2.30946
306.324	1.52016
306.54	3.69182
306.756	2.57781
306.972	2.49577
307.187	1.76516
307.403	3.38596
307.619	1.54543
307.835	3.1416
308.051	3.51945
308.267	0.97917
308.483	2.92087
308.699	2.43761
308.914	2.05617
309.13	1.86007
309.346	0.53621
309.562	0.92491
309.778	0.64868
309.993	2.51031
310.209	1.93083
310.425	0.90051
310.641	1.69525
310.856	0.94762
311.072	0.89972
311.288	1.79564
311.503	2.01949
311.719	0.37562
311.935	0.1861
312.15	2.22674
312.366	1.85097
312.581	2.28325
312.797	1.78365
313.013	2.61887
313.228	1.2684
313.444	1.87175
313.659	1.36932
313.875	2.29902
314.09	1.70091
314.306	3.39209
314.521	2.69347
314.737	2.56974
314.952	1.91159
315.168	1.7972
315.383	2.34982
315.599	1.73049
315.814	1.55447
316.029	2.59283
316.245	0.78373
316.46	0.53184
316.675	3.12823
316.891	3.61954
317.106	4.67958
317.321	2.38087
317.537	2.55261
317.752	2.74896
317.967	2.88977
318.183	1.21351
318.398	1.6114
318.613	2.73193
318.828	3.14428
319.043	2.8145
319.259	1.78655
319.474	2.21256
319.689	3.15951
319.904	0.53398
320.119	2.70902
320.334	2.37715
320.549	1.82596
320.765	2.93284
320.98	2.2172
321.195	2.73052
321.41	1.9229
321.625	2.67552
321.84	3.724
322.055	3.64933
322.27	1.42727
322.485	1.00881
322.7	2.30521
322.915	2.95849
323.13	1.26927
323.345	3.40903
323.56	2.9869
323.775	2.5009
323.989	2.37225
324.204	2.26174
324.419	3.01278
324.634	0.9631
324.849	1.75478
325.064	4.99165
325.279	2.89254
325.493	2.44525
325.708	2.99037
325.923	1.28732
326.138	1.30807
326.352	3.55072
326.567	3.06601
326.782	1.72836
326.997	1.34939
327.211	2.49404
327.426	2.36938
327.641	1.72073
327.855	0.64312
328.07	2.33145
328.285	3.52286
328.499	1.50491
328.714	2.23002
328.928	2.73077
329.143	1.86014
329.358	2.92576
329.572	2.97694
329.787	3.18194
330.001	4.3607
330.216	0.88476
330.43	3.73373
330.645	3.61899
330.859	2.87682
331.074	1.45518
331.288	2.21878
331.503	3.26572
331.717	1.01768
331.931	2.24344
332.146	2.09038
332.36	3.73216
332.575	2.45175
332.789	2.37328
333.003	2.11915
333.218	2.44912
333.432	1.47647
333.646	2.89138
333.86	3.67551
334.075	3.48263
334.289	1.49766
334.503	1.24761
334.717	2.38969
334.932	2.4346
335.146	3.10679
335.36	1.80502
335.574	2.55005
335.788	2.4935
336.003	3.16673
336.217	2.58319
336.431	2.59201
336.645	1.50083
336.859	1.04487
337.073	1.83628
337.287	2.30672
337.501	1.0951
337.715	2.25945
337.929	2.91599
338.143	1.08757
338.357	1.96871
338.571	1.22408
338.785	2.4213
338.999	1.67223
339.213	1.49213
339.427	0.67182
339.641	3.24882
339.855	1.81704
340.069	1.61096
340.283	2.8937
340.497	3.66213
340.711	2.24921
340.924	1.81792
341.138	1.09073
341.352	0.89639
341.566	2.24976
341.78	0.61038
341.993	1.59977
342.207	1.11841
342.421	2.27093
342.635	1.79516
342.848	1.63949
343.062	0.26664
343.276	1.29647
343.49	3.70582
343.703	1.45543
343.917	2.827
344.131	2.89039
344.344	1.35892
344.558	1.64063
344.771	1.02476
344.985	3.44381
345.199	3.30028
345.412	2.18988
345.626	2.19724
345.839	0.55459
346.053	0.99276
346.266	1.06344
346.48	2.53636
346.693	2.23584
346.907	2.26041
347.12	1.21097
347.334	2.31309
347.547	2.33609
347.76	1.76962
347.974	2.86124
348.187	2.2613
348.401	1.6226
348.614	1.33361
348.827	1.63452
349.041	2.38401
349.254	0.42699
349.467	1.70335
349.681	0.87966
349.894	1.38424
350.107	2.92805
350.32	3.33661
350.534	0.64438
350.747	1.5277
350.96	1.07527
351.173	1.25808
351.386	1.56558
351.6	1.47765
351.813	1.32943
352.026	1.73334
352.239	0.66473
352.452	1.63234
352.665	2.62034
352.878	1.80686
353.092	3.50395
353.305	2.34742
353.518	2.04923
353.731	1.18199
353.944	2.86988
354.157	1.42607
354.37	1.15249
354.583	0.9476
354.796	0.45368
355.009	2.68621
355.222	2.02165
355.435	1.82676
355.647	2.54827
355.86	1.00594
356.073	1.80898
356.286	1.33613
356.499	2.42932
356.712	1.96052
356.925	2.24662
357.138	2.35214
357.35	0.97717
357.563	1.50138
357.776	1.76464
357.989	1.4203
358.201	2.04833
358.414	1.76147
358.627	2.74237
358.84	1.50097
359.052	0.76299
359.265	0.96893
359.478	2.58201
359.69	-0.2808
359.903	2.1566
360.116	2.43753
360.328	0.40853
360.541	2.27556
360.753	0.83955
360.966	1.24926
361.179	1.25316
361.391	1.16431
361.604	0.87698
361.816	1.22633
362.029	1.04386
362.241	0.87115
362.454	1.11017
362.666	0.82535
362.879	1.60259
363.091	1.24478
363.304	0.9306
363.516	1.46681
363.728	0.77396
363.941	1.94482
364.153	1.22831
364.366	0.07898
364.578	0.72453
364.79	1.7814
365.003	1.50875
365.215	1.07265
365.427	1.91236
365.639	2.27855
365.852	1.58771
366.064	3.32841
366.276	1.22634
366.488	1.85616
366.701	1.15655
366.913	1.44905
367.125	1.33026
367.337	0.99974
367.549	1.18351
367.762	1.63905
367.974	1.57756
368.186	0.95826
368.398	2.27725
368.61	2.04131
368.822	2.11321
369.034	1.56926
369.246	2.11341
369.458	3.75468
369.67	0.85281
369.882	2.95844
370.094	0.25847
370.306	2.89849
370.518	1.36267
370.73	1.1257
370.942	1.08394
371.154	1.41787
371.366	1.15311
371.578	1.76834
371.79	1.00155
372.002	2.43497
372.214	2.95807
372.425	1.63192
372.637	2.45142
372.849	1.80801
373.061	0.17351
373.273	1.8392
373.484	1.83344
373.696	2.16925
373.908	0.08598
374.12	2.55292
374.331	1.83362
374.543	1.06642
374.755	0.87805
374.967	1.74044
375.178	2.09526
375.39	1.33405
375.602	1.62795
375.813	0.57759
376.025	0.78418
376.236	1.70509
376.448	1.79079
376.66	1.22367
376.871	1.15172
377.083	2.41722
377.294	2.58096
377.506	1.17494
377.717	2.51819
377.929	1.74905
378.14	1.06717
378.352	1.88524
378.563	1.7812
378.775	2.50805
378.986	0.93547
379.197	1.77663
379.409	1.17146
379.62	2.12388
379.832	1.96607
380.043	1.386
380.254	1.63208
380.466	0.88321
380.677	3.69424
380.888	3.09567
381.1	3.32393
381.311	3.36648
381.522	1.62249
381.733	3.77186
381.945	1.53417
382.156	1.78444
382.367	1.24535
382.578	3.66406
382.789	3.49733
383.001	1.31416
383.212	2.63841
383.423	2.86134
383.634	2.4839
383.845	2.083
384.056	1.44917
384.267	1.74406
384.478	1.5828
384.69	0.91326
384.901	1.9848
385.112	1.80064
385.323	2.7785
385.534	2.0871
385.745	1.81874
385.956	1.98001
386.167	0.98875
386.378	2.02877
386.588	1.01202
386.799	1.22888
387.01	0.6042
387.221	2.29615
387.432	1.52074
387.643	3.09554
387.854	1.55166
388.065	1.49979
388.275	1.54975
388.486	1.40524
388.697	1.52885
388.908	1.42091
389.119	2.49913
389.329	2.86063
389.54	1.80055
389.751	1.99799
389.962	2.57546
390.172	1.91915
390.383	1.39325
390.594	1.43027
390.804	1.2997
391.015	1.32649
391.226	1.78832
391.436	2.02804
391.647	1.93274
391.858	2.22133
392.068	0.64745
392.279	0.97153
392.489	1.76305
392.7	2.56865
392.91	1.09223
393.121	1.25516
393.331	2.05716
393.542	2.54643
393.752	1.92406
393.963	1.9654
394.173	1.86531
394.384	2.12508
394.594	1.7858
394.804	1.0866
395.015	1.8059
395.225	2.13697
395.436	1.08627
395.646	2.1044
395.856	1.3252
396.067	0.86578
396.277	2.47479
396.487	2.18688
396.697	1.90674
396.908	2.09308
397.118	2.20449
397.328	2.04337
397.538	2.53072
397.749	1.28061
397.959	2.35722
398.169	2.36363
398.379	0.98824
398.589	2.36368
398.8	1.90526
399.01	1.79256
399.22	1.72046
399.43	3.49234
399.64	1.72644
399.85	2.3732
400.06	1.8571
400.27	1.3918
400.48	1.9487
400.69	3.02801
400.9	1.59155
401.11	1.35172
401.32	2.5648
401.53	1.68287
401.74	3.02822
401.95	2.45284
402.16	1.32827
402.37	2.17653
402.58	1.54978
402.79	2.48863
403	2.67498
403.209	1.66237
403.419	2.58853
403.629	1.48532
403.839	2.54048
404.049	2.30865
404.258	1.55033
404.468	1.46498
404.678	2.16835
404.888	2.49496
405.097	1.40785
405.307	1.89935
405.517	2.29322
405.727	2.20979
405.936	1.78567
406.146	2.12956
406.356	2.87808
406.565	1.95886
406.775	1.62905
406.984	1.69768
407.194	3.18419
407.404	2.06517
407.613	2.39401
407.823	2.59419
408.032	2.77177
408.242	2.78774
408.451	1.71502
408.661	2.07123
408.87	3.2176
409.08	1.68338
409.289	2.33244
409.499	2.2878
409.708	2.23626
409.918	0.98607
410.127	2.23261
410.336	3.15031
410.546	2.5601
410.755	1.87412
410.964	1.93445
411.174	1.69557
411.383	2.47444
411.592	2.51551
411.802	1.49889
412.011	2.78723
412.22	2.07549
412.429	3.3124
412.639	3.12847
412.848	2.96463
413.057	3.06024
413.266	3.09613
413.475	2.34853
413.685	2.70668
413.894	2.88846
414.103	3.06613
414.312	2.79832
414.521	2.22047
414.73	2.33099
414.939	3.7588
415.148	2.68959
415.357	2.48456
415.566	2.1373
415.776	2.24745
415.985	1.99257
416.194	2.90132
416.403	3.36699
416.611	1.6131
416.82	2.07954
417.029	2.4646
417.238	1.85526
417.447	1.77514
417.656	2.15203
417.865	1.90406
418.074	2.08755
418.283	2.21915
418.492	2.73876
418.7	2.59754
418.909	3.27598
419.118	2.5525
419.327	2.72982
419.536	2.58289
419.744	2.27637
419.953	3.23317
420.162	3.33649
420.371	2.47483
420.579	2.47347
420.788	3.41357
420.997	3.4058
421.205	3.48845
421.414	3.25463
421.623	3.2493
421.831	2.96284
422.04	3.51425
422.249	2.79707
422.457	3.37053
422.666	2.77897
422.874	3.58848
423.083	3.60928
423.291	3.64925
423.5	3.34159
423.708	3.47566
423.917	3.82961
424.125	3.44833
424.334	3.156
424.542	4.77814
424.751	4.22602
424.959	3.93773
425.167	4.21117
425.376	4.04919
425.584	3.33396
425.793	3.55369
426.001	2.81753
426.209	3.41457
426.418	2.61526
426.626	2.69106
426.834	2.46985
427.042	2.92365
427.251	2.51246
427.459	3.33248
427.667	2.86693
427.875	2.2614
428.084	2.64341
428.292	3.59163
428.5	3.1826
428.708	2.4088
428.916	2.35113
429.124	2.99118
429.333	2.63297
429.541	2.71332
429.749	2.96388
429.957	2.95509
430.165	4.42142
430.373	2.1757
430.581	3.00771
430.789	3.77996
430.997	2.61687
431.205	2.55667
431.413	3.09614
431.621	2.7427
431.829	3.33131
432.037	2.85346
432.245	3.273
432.453	3.16244
432.661	2.82834
432.869	3.96473
433.076	2.47825
433.284	2.93509
433.492	3.29498
433.7	3.60167
433.908	2.81301
434.116	3.08838
434.323	3.15237
434.531	3.07096
434.739	3.33776
434.947	3.62869
435.154	3.49299
435.362	3.16068
435.57	2.98686
435.778	2.79454
435.985	3.29878
436.193	2.88548
436.401	3.78803
436.608	3.13412
436.816	2.8666
437.023	4.02075
437.231	4.03424
437.439	3.23307
437.646	3.47922
437.854	3.35696
438.061	3.54692
438.269	3.10448
438.476	3.50685
438.684	3.21106
438.891	2.97667
439.099	2.81854
439.306	2.55345
439.514	2.66592
439.721	3.49997
439.929	3.0126
440.136	3.72588
440.343	3.67966
440.551	3.49047
440.758	4.91858
440.965	3.91544
441.173	3.68096
441.38	3.36157
441.587	3.65128
441.795	3.27503
442.002	3.47769
442.209	3.44303
442.416	3.69336
442.624	3.64569
442.831	3.58382
443.038	3.06651
443.245	2.80743
443.452	3.08751
443.66	3.66364
443.867	2.9435
444.074	3.0381
444.281	2.9323
444.488	3.16747
444.695	3.285
444.902	3.1392
445.109	3.84402
445.316	3.43208
445.523	3.45576
445.73	3.37538
445.937	4.0849
446.144	4.33385
446.351	4.48841
446.558	3.78264
446.765	4.88184
446.972	4.84632
447.179	4.22887
447.386	5.02058
447.593	3.9718
447.8	4.7243
448.007	3.76013
448.214	3.67512
448.42	3.3752
448.627	4.00216
448.834	3.39777
449.041	3.35465
449.248	3.32295
449.454	3.86919
449.661	4.49426
449.868	3.30935
450.075	3.20635
450.281	2.36885
450.488	2.85663
450.695	3.03269
450.901	3.08936
451.108	3.23862
451.315	3.97031
451.521	3.34264
451.728	4.0395
451.935	3.08303
452.141	3.36627
452.348	3.43935
452.554	3.29748
452.761	3.16538
452.967	4.29383
453.174	3.59997
453.38	3.71311
453.587	2.9747
453.793	3.52694
454	4.09559
454.206	4.69122
454.413	4.1269
454.619	3.7651
454.825	3.18436
455.032	3.85355
455.238	4.03396
455.445	2.94638
455.651	3.65373
455.857	2.64914
456.064	3.39813
456.27	3.29164
456.476	3.38896
456.682	2.85756
456.889	3.70788
457.095	3.82652
457.301	4.9858
457.507	3.57104
457.714	3.54863
457.92	3.50491
458.126	3.12175
458.332	3.38332
458.538	3.27057
458.744	3.41415
458.951	3.30212
459.157	4.9174
459.363	3.94284
459.569	4.00532
459.775	4.71565
459.981	4.03339
460.187	4.39259
460.393	4.79164
460.599	5.24115
460.805	4.47654
461.011	4.10426
461.217	4.38898
461.423	4.38677
461.629	3.69939
461.835	4.14781
462.041	3.63657
462.247	4.66499
462.453	3.68809
462.658	3.74647
462.864	4.13338
463.07	3.99791
463.276	3.88416
463.482	3.88522
463.688	4.44305
463.893	3.55589
464.099	3.69577
464.305	4.59459
464.511	3.46227
464.716	3.76433
464.922	4.20946
465.128	3.43714
465.333	4.80022
465.539	4.19368
465.745	3.77526
465.95	3.88315
466.156	5.38957
466.362	4.46564
466.567	3.82801
466.773	3.52635
466.978	4.69539
467.184	3.38242
467.389	2.815
467.595	4.04323
467.8	3.39469
468.006	4.72169
468.211	4.42822
468.417	3.27617
468.622	4.05558
468.828	4.3525
469.033	4.10848
469.239	5.4524
469.444	3.71106
469.649	4.49179
469.855	3.93702
470.06	3.95856
470.266	3.44146
470.471	4.25766
470.676	4.15436
470.881	3.08568
471.087	4.71409
471.292	5.50036
471.497	3.33413
471.703	3.93185
471.908	3.65999
472.113	4.07469
472.318	4.38901
472.523	3.52309
472.729	4.16804
472.934	4.32126
473.139	3.75211
473.344	4.23791
473.549	4.63204
473.754	3.71036
473.959	5.5107
474.164	3.48321
474.369	3.98044
474.575	4.53005
474.78	4.06158
474.985	3.72823
475.19	3.12692
475.395	3.67131
475.6	4.05627
475.804	4.86637
476.009	3.99368
476.214	4.08161
476.419	3.88519
476.624	3.16786
476.829	3.52629
477.034	4.45737
477.239	3.61051
477.444	4.35777
477.648	4.39278
477.853	4.45046
478.058	3.86223
478.263	3.65019
478.468	3.43384
478.672	3.54018
478.877	4.78825
479.082	4.91863
479.287	4.25874
479.491	4.08095
479.696	3.59059
479.901	4.4867
480.105	4.48647
480.31	3.78177
480.515	4.0328
480.719	5.21209
480.924	3.84439
481.128	3.52514
481.333	4.15635
481.538	4.17043
481.742	4.08923
481.947	4.75898
482.151	5.18851
482.356	5.31147
482.56	6.44335
482.765	6.90366
482.969	8.37304
483.174	9.45532
483.378	11.11316
483.582	11.36578
483.787	12.72631
483.991	12.95307
484.196	13.45334
484.4	13.27593
484.604	14.07373
484.809	12.5107
485.013	12.17108
485.217	11.14827
485.422	9.98388
485.626	9.06044
485.83	8.42581
486.034	7.93183
486.239	8.04002
486.443	8.03443
486.647	7.97343
486.851	8.70849
487.055	9.46348
487.26	9.04989
487.464	9.70277
487.668	9.26606
487.872	9.67217
488.076	10.1042
488.28	9.74612
488.484	9.0605
488.688	9.02067
488.892	8.71886
489.096	8.24008
489.3	7.5217
489.504	7.00839
489.708	6.86732
489.912	6.61665
490.116	6.42764
490.32	5.72674
490.524	6.49765
490.728	6.77034
490.932	6.95313
491.136	7.22329
491.34	8.15154
491.544	8.42622
491.748	8.27082
491.951	8.4964
492.155	8.26303
492.359	8.22223
492.563	7.38956
492.767	7.04718
492.97	6.46832
493.174	5.77453
493.378	5.36338
493.582	4.58553
493.785	4.57343
493.989	4.60958
494.193	4.64172
494.396	4.29905
494.6	4.87578
494.804	4.4683
495.007	4.06923
495.211	4.09791
495.414	4.31745
495.618	4.51987
495.822	5.05265
496.025	4.41731
496.229	4.77243
496.432	4.04602
496.636	4.48061
496.839	4.34539
497.043	5.20216
497.246	4.62396
497.45	4.28995
497.653	4.45952
497.856	4.57991
498.06	4.03515
498.263	4.38962
498.467	4.30664
498.67	4.92186
498.873	4.67867
499.077	4.41046
499.28	4.36245
499.483	4.60856
499.686	4.78249
499.89	4.67317
500.093	5.00969
500.296	4.18275
500.499	5.2937
500.703	4.51245
500.906	4.67972
501.109	5.37415
501.312	4.53405
501.515	4.42686
501.719	4.73468
501.922	5.2324
502.125	4.64291
502.328	4.49785
502.531	3.99103
502.734	4.48196
502.937	3.66818
503.14	4.67666
503.343	4.06381
503.546	4.32169
503.749	4.08072
503.952	4.87553
504.155	4.02204
504.358	4.67424
504.561	4.54453
504.764	3.96141
504.967	4.47638
505.17	4.51284
505.373	5.26971
505.576	4.57834
505.778	4.9002
505.981	4.20543
506.184	5.20289
506.387	3.76783
506.59	5.59433
506.793	5.16734
506.995	4.7431
507.198	3.65389
507.401	4.80839
507.604	4.73542
507.806	4.11773
508.009	4.26309
508.212	4.94714
508.414	4.1968
508.617	4.15058
508.82	4.59945
509.022	5.21692
509.225	4.70801
509.427	3.9654
509.63	5.24513
509.833	4.65951
510.035	4.45131
510.238	3.87629
510.44	5.29949
510.643	3.70926
510.845	5.63203
511.048	4.84543
511.25	4.3754
511.453	4.47399
511.655	4.7657
511.858	4.47231
512.06	5.04467
512.262	4.67164
512.465	5.01376
512.667	4.35981
512.869	4.10842
513.072	4.75974
513.274	4.9076
513.476	4.85229
513.679	5.08388
513.881	4.22688
514.083	5.46506
514.286	4.26603
514.488	4.31851
514.69	4.13557
514.892	4.04996
515.094	4.88399
515.297	4.35008
515.499	4.7373
515.701	4.1789
515.903	5.51198
516.105	5.57151
516.307	5.05804
516.509	3.77274
516.711	4.06065
516.913	4.72323
517.116	4.63276
517.318	4.36469
517.52	5.24276
517.722	4.94824
517.924	4.06896
518.126	4.89118
518.328	4.44512
518.529	5.14979
518.731	5.97936
518.933	4.57143
519.135	4.82316
519.337	5.50373
519.539	5.03652
519.741	3.9891
519.943	4.64401
520.145	4.66985
520.346	5.09111
520.548	4.62866
520.75	4.86642
520.952	4.57118
521.153	4.90342
521.355	4.99143
521.557	4.19873
521.759	4.92328
521.96	4.69152
522.162	4.1863
522.364	5.30838
522.565	4.47088
522.767	5.05261
522.969	5.23942
523.17	5.07389
523.372	5.05411
523.573	4.37151
523.775	4.65771
523.977	4.30687
524.178	5.748
524.38	4.49288
524.581	5.08121
524.783	4.55849
524.984	5.04032
525.186	4.83219
525.387	5.28149
525.589	5.16125
525.79	5.11891
525.991	5.0352
526.193	5.57928
526.394	4.94732
526.596	5.80194
526.797	5.94837
526.998	5.55789
527.2	5.55136
527.401	6.94335
527.602	7.37254
527.803	8.87784
528.005	9.17219
528.206	10.00983
528.407	10.74984
528.608	10.70867
528.81	11.07199
529.011	10.69792
529.212	11.74924
529.413	10.95976
529.614	10.33571
529.815	10.07044
530.017	9.2591
530.218	8.18581
530.419	7.21859
530.62	7.03775
530.821	6.61044
531.022	5.57792
531.223	6.14572
531.424	6.08196
531.625	5.94839
531.826	5.69049
532.027	5.89184
532.228	6.87559
532.429	6.64207
532.63	6.65846
532.831	7.3008
533.032	7.39088
533.233	8.0698
533.433	7.87756
533.634	8.08717
533.835	7.5723
534.036	7.21789
534.237	7.17457
534.438	6.69345
534.638	5.92623
534.839	5.65568
535.04	5.70792
535.241	5.08465
535.441	6.00082
535.642	5.53313
535.843	4.79683
536.043	4.96152
536.244	5.09087
536.445	5.35981
536.645	6.04357
536.846	5.75639
537.047	6.22423
537.247	5.25444
537.448	5.2137
537.648	5.15291
537.849	5.05202
538.049	4.96358
538.25	5.3606
538.451	5.20006
538.651	4.6128
538.851	5.35066
539.052	5.66692
539.252	5.40839
539.453	5.00987
539.653	5.11816
539.854	4.98586
540.054	4.94593
540.254	6.11174
540.455	6.64975
540.655	6.39053
540.855	7.38632
541.056	8.20174
541.256	8.06476
541.456	8.88956
541.657	8.48549
541.857	9.32472
542.057	8.15617
542.257	7.95485
542.458	8.38841
542.658	8.35798
542.858	6.8361
543.058	7.23301
543.258	6.6993
543.458	5.59021
543.659	5.28102
543.859	5.92608
544.059	5.70296
544.259	5.27212
544.459	5.77815
544.659	5.01681
544.859	5.46642
545.059	4.95542
545.259	5.55511
545.459	5.32246
545.659	5.60533
545.859	5.18689
546.059	5.41268
546.259	4.78032
546.459	4.45214
546.659	4.70378
546.859	5.52219
547.059	5.28548
547.258	5.35988
547.458	5.43706
547.658	4.74219
547.858	4.68144
548.058	5.26373
548.258	5.03815
548.457	4.77857
548.657	6.47886
548.857	4.98921
549.057	5.68855
549.256	5.47608
549.456	4.95127
549.656	4.09414
549.855	6.44321
550.055	4.79154
550.255	6.20256
550.454	5.32256
550.654	5.59909
550.853	6.18404
551.053	5.69056
551.253	5.37304
551.452	5.56689
551.652	4.28682
551.851	4.28384
552.051	4.84787
552.25	4.75192
552.45	4.64882
552.649	4.81207
552.849	4.52249
553.048	5.21302
553.248	5.50905
553.447	4.53343
553.646	5.56052
553.846	6.72344
554.045	6.0397
554.244	4.48742
554.444	6.01534
554.643	4.61916
554.842	6.13352
555.042	6.51888
555.241	4.81297
555.44	4.55999
555.64	5.41377
555.839	6.12224
556.038	5.55058
556.237	4.95676
556.436	5.30466
556.636	5.42269
556.835	4.6899
557.034	6.21204
557.233	5.23329
557.432	4.27613
557.631	5.8157
557.83	5.24068
558.029	4.91804
558.228	4.86034
558.427	4.62337
558.626	5.4374
558.825	4.70157
559.024	5.20961
559.223	6.48574
559.422	5.18685
559.621	5.57145
559.82	3.75714
560.019	5.17583
560.218	4.94154
560.417	3.45917
560.616	4.9518
560.815	7.43935
561.014	4.14794
561.212	6.15939
561.411	5.31782
561.61	4.17772
561.809	5.06687
562.008	6.43388
562.206	5.1935
562.405	5.60958
562.604	5.14514
562.803	5.48976
563.001	5.20962
563.2	4.41074
563.399	5.59827
563.597	4.46234
563.796	5.33399
563.995	4.27242
564.193	5.68875
564.392	4.96013
564.59	6.63113
564.789	3.93975
564.988	5.05462
565.186	5.29381
565.385	5.09428
565.583	4.95967
565.782	5.12754
565.98	5.05322
566.179	5.04347
566.377	4.53304
566.575	4.56118
566.774	6.09879
566.972	5.78829
567.171	6.518
567.369	6.23816
567.567	5.43207
567.766	5.48238
567.964	3.92937
568.162	5.80279
568.361	6.26877
568.559	5.2386
568.757	5.47634
568.956	5.34551
569.154	5.21903
569.352	5.73531
569.55	5.23662
569.748	5.35324
569.947	4.73909
570.145	4.67786
570.343	4.52614
570.541	6.23716
570.739	4.31755
570.937	5.32969
571.135	5.54043
571.333	6.86743
571.532	6.60254
571.73	5.41672
571.928	5.95175
572.126	5.82849
572.324	5.03919
572.522	6.14812
572.72	7.1101
572.918	5.28258
573.116	5.58415
573.313	5.21593
573.511	5.2149
573.709	5.01856
573.907	5.95246
574.105	5.05241
574.303	4.28881
574.501	4.19012
574.699	5.6592
574.896	5.49481
575.094	5.77567
575.292	4.4529
575.49	5.95657
575.688	5.33779
575.885	6.32013
576.083	6.94159
576.281	5.73773
576.478	4.84614
576.676	5.80935
576.874	4.55596
577.071	5.39775
577.269	7.06327
577.467	5.04672
577.664	5.37541
577.862	6.0924
578.059	4.86859
578.257	5.99704
578.455	5.33188
578.652	5.376
578.85	4.04786
579.047	5.61051
579.245	5.21399
579.442	5.42106
579.64	5.22552
579.837	4.22305
580.034	7.51785
580.232	5.17449
580.429	4.63243
580.627	5.97336
580.824	6.50399
581.021	6.02295
581.219	5.11177
581.416	4.91981
581.613	6.64034
581.811	6.43085
582.008	4.86201
582.205	6.21929
582.402	5.71936
582.6	6.89864
582.797	5.65239
582.994	6.04732
583.191	6.28674
583.388	5.52033
583.586	6.24331
583.783	6.69376
583.98	4.80873
584.177	5.81458
584.374	3.41641
584.571	5.38107
584.768	5.72678
584.965	5.23147
585.162	6.38328
585.359	6.97354
585.556	5.66369
585.753	5.91132
585.95	4.69169
586.147	5.0198
586.344	6.01363
586.541	5.47687
586.738	4.64694
586.935	5.53313
587.132	5.06573
587.329	6.49549
587.526	5.70603
587.722	10.0129
587.919	4.55547
588.116	6.03759
588.313	6.86945
588.51	7.51859
588.706	5.47872
588.903	6.28346
589.1	6.63787
589.297	8.21618
589.493	5.57371
589.69	6.1368
589.887	5.24058
590.083	4.76543
590.28	5.15284
590.477	6.64205
590.673	6.17246
590.87	6.73336
591.067	5.19133
591.263	6.20136
591.46	6.01501
591.656	5.53021
591.853	7.30935
592.049	5.14075
592.246	5.2634
592.442	6.74935
592.639	6.7274
592.835	4.84758
593.032	6.24795
593.228	4.52271
593.425	4.60016
593.621	4.46099
593.817	5.878
594.014	5.14014
594.21	5.98375
594.406	6.70096
594.603	6.05387
594.799	5.34743
594.995	3.94841
595.192	6.86453
595.388	5.44087
595.584	5.3252
595.78	4.56738
595.977	8.16624
596.173	7.17317
596.369	5.54525
596.565	4.93905
596.761	4.64891
596.957	6.71545
597.154	4.97875
597.35	5.35665
597.546	5.18471
597.742	6.03245
597.938	5.82459
598.134	5.10037
598.33	5.99218
598.526	6.83343
598.722	6.28614
598.918	7.58278
599.114	6.54054
599.31	4.84967
599.506	6.03393
599.702	5.30689
599.898	6.06288
600.094	6.78093
600.29	6.81044
600.485	6.58389
600.681	5.44377
600.877	7.52019
601.073	6.06759
601.269	8.05934
601.465	7.27768
601.66	5.16913
601.856	4.29346
602.052	8.03463
602.248	5.69856
602.443	4.09338
602.639	4.74764
602.835	5.11608
603.03	5.06977
603.226	6.61986
603.422	5.06165
603.617	5.66327
603.813	5.62328
604.009	5.2461
604.204	6.83079
604.4	4.64938
604.595	6.67673
604.791	4.9216
604.986	6.00715
605.182	5.05331
605.377	5.52458
605.573	5.53341
605.768	5.81897
605.964	6.43604
606.159	6.55808
606.355	6.80828
606.55	5.58108
606.746	6.90792
606.941	6.05417
607.136	7.77065
607.332	8.80727
607.527	4.98482
607.722	6.31529
607.918	5.90498
608.113	5.12385
608.308	6.64083
608.503	6.48985
608.699	6.35775
608.894	6.48097
609.089	5.19528
609.284	6.26371
609.479	5.52049
609.675	6.59791
609.87	5.66679
610.065	6.45595
610.26	6.77462
610.455	6.69288
610.65	5.92944
610.845	6.35115
611.04	6.75272
611.235	5.98617
611.43	5.98578
611.625	5.19738
611.82	7.62069
612.015	5.41705
612.21	7.93896
612.405	4.87764
612.6	8.09298
612.795	8.01756
612.99	7.14901
613.185	5.23731
613.38	5.66209
613.575	6.64302
613.77	9.44097
613.965	4.8296
614.159	5.55253
614.354	7.64747
614.549	7.74235
614.744	7.02676
614.938	5.27577
615.133	5.18699
615.328	7.98016
615.523	7.72753
615.717	9.67303
615.912	5.93996
616.107	6.71203
616.301	6.04891
616.496	5.63309
616.691	8.30959
616.885	7.40585
617.08	9.62947
617.274	7.61254
617.469	8.89891
617.664	7.24619
617.858	5.96069
618.053	6.85915
618.247	6.22394
618.442	4.15125
618.636	8.1145
618.831	5.86215
619.025	5.95946
619.219	9.84093
619.414	3.29704
619.608	6.26806
619.803	5.52032
619.997	9.07693
620.191	7.83724
620.386	7.22137
620.58	6.62003
620.774	4.81843
620.969	4.9266
621.163	6.61447
621.357	5.3003
621.551	6.46541
621.746	6.63867
621.94	6.2621
622.134	10.66647
622.328	9.31836
622.522	5.08359
622.716	7.95873
622.911	7.73308
623.105	7.60135
623.299	7.04327
623.493	10.54751
623.687	5.82144
623.881	6.14083
624.075	7.46325
624.269	8.22714
624.463	4.25745
624.657	4.75722
624.851	7.46631
625.045	7.77249
625.239	7.59895
625.433	5.8964
625.627	8.81158
625.821	5.87103
626.015	5.64724
626.209	6.60052
626.403	4.57049
626.596	6.96974
626.79	7.33619
626.984	5.15407
627.178	7.26884
627.372	6.96798
627.565	7.46364
627.759	5.15632
627.953	5.35455
628.147	7.03556
628.34	7.55967
628.534	9.28995
628.728	6.28524
628.921	7.88787
629.115	7.84909
629.309	7.78947
629.502	8.30887
629.696	7.00321
629.89	6.85115
630.083	7.25759
630.277	7.38553
630.47	9.14787
630.664	6.63776
630.857	5.08894
631.051	8.35122
631.244	8.4179
631.438	8.2313
631.631	6.35046
631.825	8.64711
632.018	7.62595
632.212	9.42706
632.405	8.60374
632.598	5.9011
632.792	7.22699
632.985	4.13712
633.178	6.32468
633.372	6.88138
633.565	6.67551
633.758	8.64404
633.952	5.87263
634.145	5.98886
634.338	6.84208
634.531	6.52306
634.724	5.88376
634.918	7.20296
635.111	6.48795
635.304	6.3038
635.497	10.19007
635.69	7.52342
635.883	8.78598
636.077	5.68546
636.27	7.66909
636.463	7.57003
636.656	7.52251
636.849	6.79906
637.042	7.96638
637.235	9.86446
637.428	8.42941
637.621	7.7975
637.814	9.61366
638.007	9.38249
638.2	9.657
638.393	10.07765
638.586	5.60655
638.778	6.90828
638.971	7.3621
639.164	9.54887
639.357	8.27595
639.55	9.76351
639.743	8.4106
639.935	8.58113
640.128	11.13399
640.321	9.04946
640.514	7.88011
640.707	11.41688
640.899	8.82723
641.092	5.50765
641.285	23.48903
641.477	4.6856
641.67	11.58297
641.863	9.79251
642.055	8.04338
642.248	8.0319
642.441	7.4151
642.633	8.52531
642.826	9.38895
643.018	10.24308
643.211	10.82773
643.403	11.416
643.596	11.60874
643.788	10.69349
643.981	7.24917
644.173	9.37821
644.366	7.30257
644.558	5.25417
644.751	9.7435
644.943	6.45634
645.135	10.93577
645.328	11.02204
645.52	9.4307
645.712	10.04857
645.905	13.49424
646.097	6.44577
646.289	8.93363
646.482	12.20513
646.674	7.00081
646.866	10.20388
647.058	9.03126
647.251	6.65987
647.443	7.30896
647.635	7.86269
647.827	6.97582
648.019	6.43831
648.211	8.18483
648.404	8.66051
648.596	11.36068
648.788	9.10741
648.98	8.7854
649.172	9.23688
649.364	9.06618
649.556	5.49872
649.748	12.5257
649.94	7.05141
650.132	9.74082
650.324	7.32625
650.516	7.30915
650.708	10.28075
650.9	5.95985
651.092	5.82868
651.284	6.26385
651.476	6.44301
651.667	9.72208
651.859	11.16599
652.051	8.19926
652.243	8.76781
652.435	8.20365
652.627	9.05216
652.818	9.23511
653.01	5.92619
653.202	7.35062
653.394	7.8567
653.585	9.39621
653.777	16.39422
653.969	11.55785
654.16	11.1053
654.352	7.14146
654.544	8.69268
654.735	10.65227
654.927	8.85675
655.118	11.67411
655.31	10.11169
655.502	10.80191
655.693	8.31627
655.885	9.70985
656.076	11.61109
656.268	9.35258
656.459	11.61672
656.651	11.18672
656.842	8.06284
657.034	7.89646
657.225	10.24237
657.416	11.24761
657.608	11.35788
657.799	8.87818
657.99	11.33925
658.182	7.43006
658.373	7.3813
658.564	10.81724
658.756	9.08551
658.947	8.40387
659.138	7.03144
659.33	7.84822
659.521	7.30874
659.712	8.4191
659.903	8.23365
660.094	7.65169
660.286	6.16328
660.477	11.92044
660.668	9.84297
660.859	8.5885
661.05	6.54726
661.241	9.98925
661.432	9.66632
661.623	8.55686
661.814	8.39831
662.006	6.37261
662.197	9.98804
662.388	11.2026
662.579	9.94781
662.77	11.8709
662.96	14.747
663.151	11.28823
663.342	6.31592
663.533	10.78883
663.724	9.28741
663.915	13.03843
664.106	9.43952
664.297	13.37374
664.488	10.80655
664.678	8.32545
664.869	11.2953
665.06	11.71892
665.251	10.28232
665.442	10.83096
665.632	7.80903
665.823	14.0586
666.014	4.65284
666.204	11.06277
666.395	12.61463
666.586	14.85777
666.776	11.09302
666.967	14.07458
667.158	9.47047
667.348	13.10297
667.539	7.9197
667.729	11.59828
667.92	8.20699
668.111	12.26302
668.301	11.84209
668.492	9.17603
668.682	10.31779
668.873	9.83244
669.063	7.2384
669.253	10.38544
669.444	13.02742
669.634	9.83949
669.825	13.91835
670.015	12.13192
670.206	8.66077
670.396	14.3843
670.586	9.66641
670.777	11.30462
670.967	5.95974
671.157	9.991
671.347	8.87658
671.538	13.48436
671.728	11.54343
671.918	14.45643
672.108	12.14414
672.299	9.75967
672.489	11.06495
672.679	8.81219
672.869	11.30037
673.059	15.3325
673.249	11.83286
673.44	8.46452
673.63	9.91486
673.82	12.6031
674.01	8.53345
674.2	11.8879
674.39	16.95033
674.58	12.07585
674.77	10.68552
674.96	10.30317
675.15	19.98365
675.34	12.9888
675.53	10.58708
675.72	9.59498
675.91	7.64876
676.099	14.91023
676.289	16.27294
676.479	13.24289
676.669	9.62166
676.859	12.17525
677.049	9.13181
677.238	11.22889
677.428	15.0137
677.618	11.88298
677.808	15.18737
677.997	11.75786
678.187	8.97085
678.377	10.80804
678.567	9.54097
678.756	9.84907
678.946	10.45645
679.136	7.73331
679.325	9.19484
679.515	8.63562
679.704	8.10185
679.894	12.76502
680.084	11.17105
680.273	13.48183
680.463	8.52371
680.652	8.75639
680.842	10.54746
681.031	12.76722
681.221	8.85649
681.41	11.84588
681.6	10.30012
681.789	12.43504
681.978	13.48301
682.168	11.88572
682.357	11.46197
682.547	12.06314
682.736	11.85411
682.925	14.25532
683.115	14.25362
683.304	12.97219
683.493	11.55752
683.682	12.55675
683.872	12.42284
684.061	14.0476
684.25	12.89898
684.439	17.68784
684.629	13.57004
684.818	20.53977
685.007	11.60801
685.196	10.96388
685.385	16.62085
685.574	13.16057
685.763	12.51055
685.952	12.6575
686.142	9.27387
686.331	15.56038
686.52	8.56175
686.709	17.50777
686.898	16.87383
687.087	14.20942
687.276	16.58149
687.465	15.49678
687.654	11.3042
687.842	16.24172
688.031	8.84142
688.22	16.27499
688.409	12.76402
688.598	13.06265
688.787	18.94396
688.976	12.67523
689.165	18.01477
689.353	11.63202
689.542	13.99858
689.731	15.86017
689.92	18.91322
690.108	15.05786
690.297	12.20525
690.486	13.50842
690.675	14.66617
690.863	17.73849
691.052	17.31453
691.241	13.72459
691.429	14.13109
691.618	16.7184
691.806	10.29074
691.995	12.45691
692.184	13.01483
692.372	12.12785
692.561	13.4387
692.749	14.70173
692.938	22.5903
693.126	15.0492
693.315	12.80455
693.503	15.23248
693.692	16.37749
693.88	15.78394
694.068	19.71763
694.257	14.04433
694.445	15.60324
694.634	8.79916
694.822	16.33063
695.01	17.36123
695.199	20.18306
695.387	18.89582
695.575	17.71462
695.763	13.64787
695.952	13.65122
696.14	9.54565
696.328	12.36839
696.516	14.55832
696.705	15.28635
696.893	14.1493
697.081	9.31087
697.269	16.41108
697.457	10.70064
697.645	10.07013
697.833	15.77999
698.021	11.08203
698.21	11.61465
698.398	12.33221
698.586	10.03136
698.774	9.52021
698.962	12.55284
699.15	9.92267
699.338	8.90072
699.526	13.81746
699.714	10.79658
699.901	11.08002
700.089	14.73709
700.277	10.68607
700.465	12.67388
700.653	15.013
700.841	14.08644
701.029	11.38469
701.217	17.70927
701.404	13.38616
701.592	18.10984
701.78	21.07295
701.968	13.13035
702.155	13.21635
702.343	10.71256
702.531	18.72799
702.718	15.65455
702.906	13.04887
703.094	12.95825
703.281	18.60106
703.469	13.76154
703.657	18.14272
703.844	25.29533
704.032	21.43206
704.219	13.7207
704.407	17.37362
704.595	19.48423
704.782	16.41233
704.97	15.09592
705.157	14.30344
705.345	22.07827
705.532	27.76223
705.719	18.71575
705.907	21.8376
706.094	17.99664
706.282	24.91891
706.469	18.2314
706.656	19.68593
706.844	17.80522
707.031	23.01408
707.218	20.07712
707.406	25.03643
707.593	22.34645
707.78	22.05675
707.968	20.45396
708.155	17.37272
708.342	22.59865
708.529	22.78678
708.716	21.8617
708.904	25.94046
709.091	22.75209
709.278	16.79849
709.465	27.03029
709.652	25.88092
709.839	24.57157
710.026	20.82868
710.213	14.75749
710.4	20.66365
710.587	22.37709
710.774	22.74159
710.961	23.90108
711.148	20.47764
711.335	23.17251
711.522	19.30813
711.709	21.97827
711.896	27.47694
712.083	23.54671
712.27	17.09985
712.457	21.03014
712.644	15.12124
712.831	27.9196
713.017	21.23605
713.204	22.79352
713.391	18.07939
713.578	23.38657
713.765	25.56701
713.951	21.25868
714.138	31.0857
714.325	20.65301
714.512	18.87655
714.698	15.6054
714.885	24.48873
715.072	18.86067
715.258	18.85134
715.445	15.80962
715.631	23.27552
715.818	8.83425
716.005	15.73828
716.191	20.79708
716.378	16.47167
716.564	20.78074
716.751	14.85356
716.937	16.34666
717.124	21.48691
717.31	14.8832
717.497	25.97816
717.683	15.35553
717.869	26.57854
718.056	15.95445
718.242	20.58347
718.429	18.4919
718.615	13.53074
718.801	17.73167
718.988	23.35125
719.174	20.72325
719.36	16.90072
719.547	23.56466
719.733	20.06593
719.919	18.57218
720.105	20.73066
720.291	18.7014
720.478	19.83903
720.664	17.95088
720.85	16.70154
721.036	31.03313
721.222	25.98007
721.408	18.07461
721.595	26.50706
721.781	26.2292
721.967	24.53785
722.153	26.84748
722.339	21.59226
722.525	21.54191
722.711	15.01473
722.897	14.18732
723.083	18.23191
723.269	25.26461
723.455	32.32218
723.641	38.54007
723.827	20.71481
724.012	21.73005
724.198	19.63115
724.384	25.73845
724.57	21.35287
724.756	13.82377
724.942	11.69057
725.127	25.40364
725.313	26.28217
725.499	25.93473
725.685	29.15344
725.87	21.56936
726.056	16.03614
726.242	26.08577
726.428	13.37858
726.613	24.33772
726.799	18.32608
726.985	15.41052
727.17	13.35586
727.356	30.20737
727.541	16.51131
727.727	19.52894
727.913	23.6133
728.098	17.57801
728.284	23.67814
728.469	14.84087
728.655	16.53407
728.84	25.51984
729.026	23.55516
729.211	23.50113
729.397	21.94625
729.582	23.90067
729.767	19.82436
729.953	22.22969
730.138	26.12746
730.323	9.9641
730.509	14.96538
730.694	28.08348
730.879	23.35959
731.065	21.80565
731.25	32.06826
731.435	23.80759
731.621	14.10797
731.806	17.75358
731.991	21.96569
732.176	14.0738
732.361	28.14308
732.547	22.10843
732.732	13.78685
732.917	32.14469
733.102	15.6202
733.287	17.1867
733.472	20.12253
733.657	20.42667
733.842	14.64179
734.027	18.11329
734.212	19.36918
734.397	17.01659
734.582	20.94938
734.767	24.70053
734.952	28.03691
735.137	9.76935
735.322	27.57568
735.507	23.09251
735.692	22.03309
735.877	31.80759
736.062	30.39892
736.247	22.98038
736.431	20.90988
736.616	26.79752
736.801	23.95035
736.986	22.38102
737.171	16.57225
737.355	16.05254
737.54	28.57436
737.725	22.23109
737.909	36.15883
738.094	19.06247
738.279	25.04212
738.463	20.1449
738.648	24.48838
738.833	24.01488
739.017	33.65696
739.202	21.29362
739.386	21.22194
739.571	17.09191
739.756	27.51715
739.94	21.74662
740.125	24.48502
740.309	18.92435
740.494	26.70994
740.678	21.99161
740.863	24.92752
741.047	22.36887
741.231	29.61223
741.416	19.09155
741.6	30.44281
741.785	18.32787
741.969	26.74393
742.153	30.14853
742.338	12.00223
742.522	22.10955
742.706	26.70444
742.89	15.82854
743.075	22.68938
743.259	30.15092
743.443	28.77576
743.627	28.71081
743.812	35.86031
743.996	13.90543
744.18	21.48523
744.364	20.17534
744.548	38.07755
744.732	21.81661
744.916	27.85518
745.1	26.68524
745.285	20.99811
745.469	26.02697
745.653	32.35595
745.837	16.59835
746.021	36.71023
746.205	29.82715
746.389	24.27301
746.573	21.90427
746.757	32.44018
746.94	20.44004
747.124	30.05926
747.308	16.49642
747.492	30.36521
747.676	18.29418
747.86	38.78668
748.044	21.03807
748.227	13.95419
748.411	47.48536
748.595	24.98855
748.779	18.6547
748.963	26.79417
749.146	24.23561
749.33	19.18175
749.514	17.92223
749.697	30.60324
749.881	18.35919
750.065	17.04022
750.248	23.03063
750.432	38.92474
750.616	23.95224
750.799	17.11727
750.983	39.74079
751.166	39.93319
751.35	14.93638
751.533	31.48566
751.717	34.48428
751.9	33.5438
752.084	22.19334
752.267	19.49362
752.451	18.61461
752.634	24.14068
752.818	27.5621
753.001	28.98257
753.184	31.38125
753.368	25.96432
753.551	5.6576
753.734	18.94691
753.918	41.08611
754.101	20.0915
754.284	28.56217
754.467	22.51683
754.651	20.01217
754.834	18.60196
755.017	31.3964
755.2	31.89466
755.384	18.02826
755.567	29.01607
755.75	30.92646
755.933	22.23953
756.116	29.67051
756.299	20.07024
756.482	18.48845
756.665	28.19503
756.848	24.01887
757.032	27.04647
757.215	16.39069
757.398	19.26939
757.581	19.57128
757.764	42.67754
757.947	24.18806
758.129	31.56738
758.312	8.81304
758.495	24.40003
758.678	22.45738
758.861	23.06095
759.044	37.52396
759.227	17.86545
759.41	20.01207
759.592	29.28143
759.775	22.73056
759.958	30.07756
760.141	17.9855
760.324	40.93058
760.506	34.65755
760.689	30.14739
760.872	40.97451
761.054	27.83259
761.237	23.38245
761.42	25.51967
761.602	30.3662
761.785	27.3668
761.968	32.54672
762.15	37.27662
762.333	23.64638
762.515	27.81998
762.698	21.88289
762.88	30.56291
763.063	27.23271
763.245	32.35209
763.428	19.1889
763.61	21.2084
763.793	16.84878
763.975	27.20696
764.158	22.04867
764.34	19.71838
764.522	18.1562
764.705	21.99325
764.887	33.95703
765.069	14.60268
765.252	27.92694
765.434	29.0324
765.616	24.12957
765.799	19.19363
765.981	28.9362
766.163	19.97166
766.345	33.22141
766.528	20.50232
766.71	11.28809
766.892	26.78586
767.074	33.47255
767.256	23.22827
767.438	37.11936
767.62	26.09122
767.802	42.54534
767.985	30.57024
768.167	38.42786
768.349	21.35355
768.531	30.02743
768.713	26.93916
768.895	32.72114
769.077	29.48465
769.259	48.06018
769.441	63.97835
769.623	31.9716
769.804	38.29122
769.986	36.18665
770.168	42.78541
770.35	55.40434
770.532	41.21096
770.714	43.82565
770.896	44.57285
771.077	16.44123
771.259	47.48479
771.441	40.85564
771.623	49.76534
771.804	60.95879
771.986	20.24182
772.168	30.7337
772.35	45.83926
772.531	64.36828
772.713	39.9454
772.894	51.37722
773.076	37.78086
773.258	33.28131
773.439	51.46341
773.621	58.43162
773.802	26.297
773.984	32.31918
774.166	41.20249
774.347	55.71166
774.529	48.99875
774.71	17.40687
774.891	36.33983
775.073	31.18677
775.254	53.34295
775.436	30.73471
775.617	65.34788
775.799	33.57414
775.98	52.37335
776.161	59.31627
776.343	59.85432
776.524	37.16742
776.705	36.77922
776.886	18.08844
777.068	42.24928
777.249	89.1641
777.43	63.62445
777.611	25.41669
777.793	34.46928
777.974	61.38638
778.155	32.74149
778.336	28.88431
778.517	69.05174
778.698	27.82546
778.879	17.56494
779.061	9.61161
779.242	44.50481
779.423	43.74056
779.604	31.73501
779.785	35.81062
779.966	40.03812
780.147	51.32371
780.328	50.56543
780.509	71.97645
780.69	50.07028
780.871	31.65411
781.051	22.10986
781.232	41.32446
781.413	39.265
781.594	34.18969
781.775	33.19536
781.956	30.609
782.137	16.89666
782.317	34.21454
782.498	40.88293
782.679	36.55556
782.86	42.18356
783.04	31.0301
783.221	41.27154
783.402	62.99297
783.583	39.08578
783.763	50.29284
783.944	31.13102
784.124	23.41023
784.305	63.29666
784.486	46.72149
784.666	38.81971
784.847	21.69778
785.027	84.75689
785.208	30.52462
785.388	31.20389
785.569	30.96795
785.749	35.96022
785.93	32.84419
786.11	23.58634
786.291	45.37281
786.471	43.37457
786.652	51.32327
786.832	37.62166
787.012	42.65142
787.193	25.35401
787.373	38.59242
787.553	33.06576
787.734	41.85551
787.914	33.64916
788.094	51.51605
788.275	41.21731
788.455	34.27248
788.635	24.66705
788.815	41.32493
788.995	26.54302
789.176	21.36347
789.356	28.89625
789.536	37.04918
789.716	44.21086
789.896	28.41117
790.076	31.32507
790.256	42.97377
790.436	14.449
790.616	26.8542
790.796	41.16239
790.976	34.85907
791.156	29.63179
791.336	45.42463
791.516	42.94547
791.696	35.69332
791.876	21.49434
792.056	40.02649
792.236	52.33654
792.416	49.07651
792.596	43.05144
792.776	43.06223
792.956	46.12805
793.135	61.8351
793.315	25.92442
793.495	52.03953
793.675	47.37056
793.854	48.45763
794.034	51.46101
794.214	24.41351
794.394	48.54252
794.573	55.64766
794.753	39.6012
794.933	28.5636
795.112	41.31599
795.292	51.1434
795.472	62.53507
795.651	23.37576
795.831	38.17993
796.01	34.15133
796.19	33.63282
796.369	37.61209
796.549	43.71401
796.728	35.72282
796.908	22.85835
797.087	26.07541
797.267	35.94209
797.446	23.40913
797.626	42.68048
797.805	43.11154
797.984	28.8884
798.164	47.33785
798.343	28.63762
798.522	40.16662
798.702	38.93165
798.881	24.54375
799.06	34.85825
799.239	16.34021
799.419	28.2866
799.598	62.24721
799.777	43.14118
799.956	52.91756
800.136	33.69223
800.315	28.48223
800.494	42.07037
800.673	51.73834
800.852	48.10309
801.031	53.81588
801.21	46.21212
801.389	32.7076
801.568	42.62317
801.747	65.45892
801.926	37.61494
802.105	58.19145
802.284	32.06142
802.463	59.65041
802.642	42.00654
802.821	40.83758
803	57.95437
803.179	50.51619
803.358	52.63188
803.537	29.99606
803.716	38.80288
803.895	30.07936
804.073	37.1183
804.252	29.49526
804.431	43.0536
804.61	37.13611
804.789	49.07865
804.967	32.6315
805.146	32.74177
805.325	69.98292
805.503	43.8221
805.682	20.93711
805.861	83.73922
806.039	57.53647
806.218	31.6974
806.397	41.68505
806.575	39.06114
806.754	43.38935
806.932	27.57053
807.111	54.51343
807.289	50.27378
807.468	41.62598
807.646	51.03924
807.825	46.49229
808.003	41.75587
808.182	50.6805
808.36	39.58919
808.539	29.84158
808.717	61.30505
808.895	31.73994
809.074	44.05775
809.252	38.44531
809.43	48.26718
809.609	57.52158
809.787	64.25504
809.965	37.16322
810.144	40.91272
810.322	38.46535
810.5	46.05219
810.678	35.57881
810.856	70.50747
811.035	55.52534
811.213	49.34745
811.391	60.40312
811.569	44.30021
811.747	94.47728
811.925	57.21459
812.103	31.9612
812.281	39.11226
812.459	66.67253
812.637	64.0192
812.816	53.74087
812.994	73.27042
813.171	59.89099
813.349	48.47848
813.527	57.26759
813.705	61.86848
813.883	79.8732
814.061	54.95964
814.239	68.75454
814.417	72.82581
814.595	52.22534
814.773	48.2576
814.95	44.98661
815.128	49.19995
815.306	44.96011
815.484	38.65712
815.662	32.46826
815.839	27.02046
816.017	34.55538
816.195	56.08083
816.372	36.63614
816.55	53.79874
816.728	66.9082
816.905	38.91522
817.083	65.63587
817.261	42.01427
817.438	89.28411
817.616	69.2043
817.793	37.17866
817.971	55.95854
818.148	53.68752
818.326	61.95057
818.503	47.46748
818.681	68.74708
818.858	39.2339
819.036	41.07824
819.213	46.81764
819.391	35.29492
819.568	34.64273
819.745	29.96397
819.923	54.33911
820.1	39.04693
820.277	32.54084
820.455	37.57149
820.632	41.0868
820.809	44.20264
820.986	27.71007
821.164	22.57539
821.341	20.80142
821.518	31.39474
821.695	22.18822
821.872	20.04256
822.05	17.08934
822.227	13.69111
822.404	14.67471
822.581	17.38091
822.758	14.21053
822.935	14.73064
823.112	16.21574
823.289	13.56929
823.466	16.74024
823.643	15.44829
823.82	19.02392
823.997	16.66267
824.174	20.05642
824.351	26.60211
824.528	24.88678
824.705	22.24434
824.882	24.96034
825.059	32.42501
825.236	23.32088
825.412	24.1662
825.589	29.30239
825.766	42.93651
825.943	27.07565
826.12	31.32702
826.296	22.57364
826.473	28.4751
826.65	28.69597
826.827	34.05465
827.003	23.27012
827.18	25.41529
827.357	28.55158
827.533	24.07959
827.71	13.55228
827.887	21.43541
828.063	24.50138
828.24	20.2936
828.416	27.66531
828.593	22.76699
828.769	32.73871
828.946	33.17567
829.122	35.26734
829.299	33.5652
829.475	21.45568
829.652	33.1601
829.828	55.28282
830.005	35.40105
830.181	47.24728
830.357	34.72736
830.534	49.7038
830.71	39.07441
830.886	48.57005
831.063	45.82116
831.239	61.8381
831.415	30.75395
831.592	62.03627
831.768	39.14679
831.944	34.58424
832.12	67.86642
832.296	61.76611
832.473	52.45614
832.649	36.86979
832.825	52.99592
833.001	31.69087
833.177	45.62432
833.353	41.14314
833.529	24.47147
833.705	38.11031
833.881	24.07034
834.058	24.19893
834.234	26.30046
834.41	26.30451
834.586	20.40146
834.761	24.09887
834.937	26.8901
835.113	28.22889
835.289	24.36095
835.465	29.45233
835.641	25.17932
835.817	30.42781
835.993	48.62795
836.169	26.34192
836.344	39.67849
836.52	44.50343
836.696	42.69882
836.872	33.8297
837.048	92.50576
837.223	35.75159
837.399	69.72912
837.575	54.04884
837.75	51.74866
837.926	70.4275
838.102	105.12498
838.277	83.45836
838.453	119.5055
838.628	117.41987
838.804	42.31055
838.98	100.65056
839.155	54.5679
839.331	73.05286
839.506	53.41501
839.682	50.97917
839.857	73.62011
840.033	83.28936
840.208	38.55517
840.384	20.59164
840.559	40.78036
840.734	62.15388
840.91	82.13069
841.085	50.27008
841.26	49.03145
841.436	44.04741
841.611	44.92023
841.786	68.29015
841.962	85.67153
842.137	53.94579
842.312	34.79048
842.487	45.93686
842.663	39.90276
842.838	48.64566
843.013	156.8143
843.188	78.20206
843.363	82.96963
843.538	127.47309
843.714	132.31766
843.889	135.32009
844.064	142.78536
844.239	112.68321
844.414	137.6636
844.589	92.09384
844.764	167.12698
844.939	164.58121
845.114	179.23242
845.289	170.08544
845.464	235.80219
845.639	155.76113
845.814	76.57512
845.989	93.85954
846.163	116.27702
846.338	125.63565
846.513	175.39917
846.688	112.28728
846.863	114.36696
847.038	101.98933
847.212	120.63605
847.387	119.31623
847.562	123.26671
847.737	147.52786
847.911	62.9517
848.086	74.20074
848.261	232.0359
848.435	109.7884
848.61	164.01158
848.785	80.7476
848.959	160.45994
849.134	223.6537
849.308	233.39757
849.483	120.19019
849.658	193.02374
849.832	106.30087
850.007	97.00763
850.181	256.45928
850.356	93.9884
850.53	236.7674
850.705	73.95406
850.879	51.335
851.053	116.54469
851.228	99.92801
851.402	134.74897
851.577	174.29217
851.751	195.36225
851.925	125.63428
852.099	58.84566
852.274	84.22094
852.448	112.29554
852.622	133.22504
852.797	121.8303
852.971	117.25968
853.145	120.57716
853.319	355.83343
853.493	181.63406
853.668	103.2399
853.842	233.32463
854.016	184.85606
854.19	215.10468
854.364	129.48566
854.538	145.36198
854.712	187.86015
854.886	121.10523
855.06	104.15428
855.234	47.52074
855.408	195.1368
855.582	176.0872
855.756	176.71587
855.93	222.3002
856.104	147.42115
856.278	172.62811
856.452	128.40921
856.626	171.99803
856.8	267.5017
856.973	154.61099
857.147	155.2742
857.321	148.24644
857.495	184.73327
857.669	121.61808
857.842	103.51458
858.016	188.07792
858.19	98.28241
858.364	297.86027
858.537	115.46833
858.711	147.53571
858.885	118.24819
859.058	110.24024
859.232	60.55475
859.405	71.99633
859.579	177.14074
859.753	151.13181
859.926	98.19068
860.1	74.30986
860.273	131.98232
860.447	211.15481
860.62	111.97776
860.794	255.39189
860.967	143.61444
861.141	190.29589
861.314	270.51204
861.487	162.44914
861.661	209.82764
861.834	219.2813
862.008	186.61277
862.181	133.80075
862.354	145.60204
862.528	153.93212
862.701	106.73546
862.874	72.25125
863.047	116.01709
863.221	110.86294
863.394	61.97123
863.567	213.90664
863.74	45.25234
863.913	175.8983
864.087	153.51827
864.26	181.31255
864.433	128.19193
864.606	237.52451
864.779	130.19655
864.952	62.76121
865.125	104.68731
865.298	124.23837
865.471	130.13287
865.644	260.87697
865.817	214.22285
865.99	176.63757
866.163	201.61964
866.336	114.23849
866.509	129.89651
866.682	106.65823
866.855	198.02298
867.028	83.97067
867.2	159.6613
867.373	49.37329
867.546	140.27509
867.719	269.56825
867.892	165.37164
868.064	92.5182
868.237	154.54349
868.41	136.18314
868.583	78.04918
868.755	79.83413
868.928	130.52815
869.101	285.67552
869.273	199.05248
869.446	167.43611
869.619	190.42275
869.791	131.99323
869.964	196.15502
870.136	176.48762
870.309	145.95133
870.481	142.19098
870.654	70.70992
870.826	152.43764
870.999	111.68047
871.171	181.63621
871.344	107.50217
871.516	126.76999
871.689	101.30743
871.861	136.2441
872.033	103.84939
872.206	122.33577
872.378	190.11878
872.55	122.02416
872.723	80.31834
872.895	131.58557
873.067	198.6253
873.24	212.00947
873.412	106.73985
873.584	127.09039
873.756	115.41185
873.928	150.58833
874.101	151.23845
874.273	169.7095
874.445	53.58385
874.617	78.82291
874.789	146.6121
874.961	118.49166
875.133	165.71462
875.305	138.82146
875.477	90.63111
875.649	76.16864
875.821	89.60623
875.993	234.40244
876.165	92.15385
876.337	152.49922
876.509	120.23336
876.681	158.32869
876.853	148.79402
877.025	145.84315
877.197	100.13143
877.369	90.96869
877.541	181.03538
877.712	52.12247
877.884	80.9685
878.056	171.9547
878.228	89.41347
878.4	163.44756
878.571	90.60668
878.743	63.78179
878.915	147.97613
879.086	82.3386
879.258	107.79127
879.43	98.13791
879.601	87.45747
879.773	91.65236
879.945	22.40714
880.116	39.82716
880.288	26.08579
880.459	27.52233
880.631	20.96234
880.802	26.10391
880.974	23.72216
881.145	17.02886
881.317	22.72232
881.488	17.10136
881.66	18.66353
881.831	16.88734
882.002	24.7619
882.174	17.84349
882.345	23.27706
882.517	13.29491
882.688	26.84222
882.859	22.88482
883.03	37.12021
883.202	35.18526
883.373	29.78709
883.544	31.08844
883.715	53.26437
883.887	43.05314
884.058	37.54188
884.229	53.58869
884.4	53.96922
884.571	65.21775
884.742	53.88544
884.914	58.34905
885.085	86.96174
885.256	106.23906
885.427	87.41097
885.598	104.48132
885.769	110.23175
885.94	102.3691
886.111	69.19527
886.282	122.64582
886.453	102.08977
886.624	70.58245
886.795	120.85645
886.966	98.44465
887.136	128.89383
887.307	87.75935
887.478	162.743
887.649	146.4793
887.82	145.35013
887.991	118.75503
888.161	157.61046
888.332	154.44359
888.503	84.14702
888.674	209.78298
888.844	222.84634
889.015	178.2466
889.186	84.71258
889.356	207.33978
889.527	73.66949
889.698	357.8992
889.868	115.36154
890.039	148.4602
890.209	131.37917
890.38	179.68791
890.551	147.32888
890.721	218.68276
890.892	179.61871
891.062	125.15185
891.233	160.90784
891.403	122.15835
891.574	96.71325
891.744	124.47128
891.914	164.11322
892.085	137.27187
892.255	44.51777
892.425	215.49317
892.596	167.3571
892.766	154.4911
892.936	212.03247
893.107	177.43716
893.277	106.70941
893.447	76.06994
893.618	60.64621
893.788	113.75146
893.958	63.41318
894.128	66.06823
894.298	73.24037
894.468	102.01706
894.639	45.90449
894.809	31.95695
894.979	51.73212
895.149	58.65737
895.319	49.39214
895.489	69.8898
895.659	85.11216
895.829	57.65866
895.999	60.0739
896.169	43.48011
896.339	57.32079
896.509	116.27519
896.679	131.81888
896.849	122.93691
897.019	178.26362
897.189	140.70112
897.358	121.87534
897.528	180.87485
897.698	66.223
897.868	171.62366
898.038	286.35837
898.208	261.061
898.377	93.9979
898.547	269.55448
898.717	423.95129
898.886	168.08441
899.056	263.56263
899.226	379.24663
899.395	234.88924
899.565	293.72759
899.735	197.98781
899.904	331.4073
900.074	286.69009
900.244	127.14843
900.413	513.77937
900.583	123.00977
900.752	200.97704
900.922	320.91242
901.091	41.71537
901.261	263.64542
901.43	253.18212
901.599	255.57111
901.769	579.38088
901.938	293.7929
902.108	289.33424
902.277	371.6102
902.446	100.49546
902.616	115.78914
902.785	180.11427
902.954	295.71104
903.124	194.39306
903.293	162.45655
903.462	86.57183
903.631	115.25397
903.801	86.96941
903.97	45.79827
904.139	79.26771
904.308	60.73372
904.477	47.92724
904.646	28.12955
904.816	45.23465
904.985	66.8656
905.154	102.45275
