Data from WindowProjectSample3_Transmission__44__00044.txt Node

Date: Sun May 04 11:10:54 EDT 2025
User: jessi
Spectrometer: SR400872
Trigger mode: 0
Integration Time (sec): 5.000050E-1
Scans to average: 20
Electric dark correction enabled: true
Nonlinearity correction enabled: true
Boxcar width: 0
XAxis mode: Wavelengths
Number of Pixels in Spectrum: 3648
>>>>>Begin Spectral Data<<<<<
184.909	-1298.32725
185.132	-1497.59334
185.355	-1165.04523
185.578	-1081.78469
185.801	1157.43817
186.024	-951.40459
186.247	-5029.7693
186.47	-2068.07022
186.693	-208.63198
186.916	-466.71552
187.139	-780.10211
187.362	-3009.37754
187.585	-691.13872
187.808	-4952.63551
188.031	12107.9084
188.254	-2221.71573
188.476	-8915.386
188.699	-1051.94451
188.922	496.31428
189.145	-1226.77693
189.368	3313.97337
189.591	-2383.09551
189.813	-1457.32323
190.036	-847.20488
190.259	-1096.43686
190.482	-1586.8034
190.705	-2300.63156
190.927	-752.75536
191.15	-1504.39657
191.373	-1112.40969
191.595	-1286.54208
191.818	-1313.43255
192.041	-664.09474
192.263	-1099.89365
192.486	-616.1407
192.709	-1567.68514
192.931	-3207.1771
193.154	-1191.91725
193.377	-1622.75998
193.599	-3292.70274
193.822	-3401.45982
194.044	-3219.8512
194.267	-1932.44361
194.489	-364.17809
194.712	-968.22666
194.934	-1711.51664
195.157	-801.9518
195.379	-1212.48536
195.602	-846.46253
195.824	-1257.10867
196.047	-2173.33871
196.269	-1083.51274
196.492	-1364.72511
196.714	-1245.51981
196.936	-1227.35902
197.159	-934.99535
197.381	-774.68498
197.604	-443.7402
197.826	-2084.52493
198.048	-1112.24914
198.271	-1626.87759
198.493	-1142.77322
198.715	-946.11904
198.938	-3129.98745
199.16	-3991.19106
199.382	-1271.17133
199.604	-1217.21024
199.827	-1934.68085
200.049	-1601.61427
200.271	-1209.04038
200.493	-1494.33405
200.715	-952.14627
200.938	-841.74594
201.16	-924.93981
201.382	-1021.98112
201.604	-1226.68701
201.826	-732.48779
202.048	-788.93629
202.27	-1397.08621
202.492	-1418.89709
202.715	-1847.8112
202.937	-2071.90225
203.159	-1331.79488
203.381	-1709.36249
203.603	-1024.54148
203.825	-5174.81342
204.047	-1617.45779
204.269	-1413.73902
204.491	-1271.36625
204.713	-1571.36165
204.935	-1327.27674
205.156	-2672.13971
205.378	-2781.71976
205.6	-1500.01809
205.822	-1111.98543
206.044	1301.35138
206.266	-1289.60508
206.488	-845.98361
206.71	-1753.79725
206.932	-1782.82975
207.153	-1087.98721
207.375	-1334.70671
207.597	-1084.43207
207.819	-1133.73388
208.041	-1193.62665
208.262	-1694.87699
208.484	-910.5336
208.706	-2201.2355
208.927	-854.46476
209.149	-1346.79062
209.371	-1170.02813
209.593	-1555.37052
209.814	-619.37444
210.036	-844.57598
210.258	-731.65614
210.479	-1090.90102
210.701	-1780.32848
210.922	-1231.26917
211.144	-997.30753
211.366	-1079.2052
211.587	1340.4081
211.809	-1091.20528
212.03	-6447.60471
212.252	871.4026
212.473	-899.7126
212.695	-16515.9145
212.916	-3591.68895
213.138	-1588.23546
213.359	-991.51048
213.581	-1384.81681
213.802	-879.7
214.024	-1354.30793
214.245	-11131.89928
214.466	-999.68541
214.688	-1408.17073
214.909	-1048.59251
215.131	-2709.41226
215.352	-3796.3973
215.573	-1082.56325
215.795	-1833.09887
216.016	-1467.96401
216.237	-3040.08733
216.459	-1480.93083
216.68	-1089.12594
216.901	-1532.54944
217.122	11956.37393
217.344	-977.36674
217.565	-1307.70313
217.786	-1306.55559
218.007	-852.2476
218.228	-1229.32666
218.45	-1140.41866
218.671	-1124.16325
218.892	-1012.89039
219.113	-1478.04719
219.334	-77.39749
219.555	-1639.33666
219.776	-1578.66508
219.997	-1228.32406
220.219	16272.80688
220.44	-1166.75282
220.661	-3219.27373
220.882	-965.73345
221.103	1649.33709
221.324	-2683.09914
221.545	-1146.38772
221.766	-1346.04639
221.987	-1897.45496
222.208	-1906.1836
222.429	-754.82143
222.65	-1161.41926
222.87	-1668.15062
223.091	-3497.84353
223.312	2997.20066
223.533	-1166.13263
223.754	-1590.52411
223.975	-2142.16347
224.196	9076.88848
224.417	-8080.93977
224.637	4081.16975
224.858	144.40998
225.079	-1845.61565
225.3	25657.48465
225.521	-1027.34505
225.741	-5291.42961
225.962	7220.78464
226.183	360.67218
226.404	-3679.66866
226.624	2403.18523
226.845	-81546.39383
227.066	-639327.26221
227.286	893.70747
227.507	294.84833
227.728	278.11816
227.948	676.73471
228.169	169.033
228.389	176.14706
228.61	100.8858
228.831	130.65227
229.051	12.20608
229.272	73.30165
229.492	102.83466
229.713	27.92358
229.933	71.61297
230.154	62.44746
230.374	100.30383
230.595	73.49328
230.815	43.29896
231.036	72.30384
231.256	-11.02813
231.477	129.10156
231.697	81.01258
231.917	82.71524
232.138	117.30685
232.358	238.6732
232.579	194.98113
232.799	26.75722
233.019	197.5033
233.24	236.22329
233.46	79.49179
233.68	126.36251
233.901	82.8616
234.121	56.63246
234.341	22.77582
234.561	-5.44525
234.782	41.24049
235.002	136.4158
235.222	-0.28732
235.442	122.79859
235.662	59.74098
235.883	110.49468
236.103	98.88091
236.323	62.79
236.543	50.39637
236.763	72.69357
236.983	81.11474
237.203	78.73859
237.423	115.00683
237.643	171.0892
237.864	147.60247
238.084	37.7196
238.304	44.97676
238.524	85.9583
238.744	73.97189
238.964	129.68603
239.184	111.98449
239.404	124.31867
239.624	63.80755
239.843	106.33992
240.063	66.15543
240.283	40.52914
240.503	47.55105
240.723	44.04863
240.943	27.94367
241.163	34.58156
241.383	25.47561
241.603	13.1792
241.822	14.96692
242.042	10.94322
242.262	14.41485
242.482	14.59228
242.702	17.29435
242.921	4.89536
243.141	11.00183
243.361	10.29407
243.581	15.66924
243.8	13.05067
244.02	7.55334
244.24	15.20673
244.459	14.0349
244.679	29.11445
244.899	18.98148
245.118	22.84901
245.338	19.83874
245.558	23.905
245.777	13.68475
245.997	17.47356
246.216	17.76997
246.436	10.65293
246.655	7.44174
246.875	5.73051
247.094	10.18256
247.314	3.61313
247.533	6.27787
247.753	7.05966
247.972	5.54903
248.192	2.23239
248.411	3.48051
248.631	5.5051
248.85	6.91483
249.07	7.01561
249.289	9.9174
249.508	7.17552
249.728	11.47134
249.947	11.62367
250.166	14.01991
250.386	7.46132
250.605	11.29958
250.824	19.08877
251.044	13.37045
251.263	39.18112
251.482	23.42863
251.701	18.80235
251.921	0.73761
252.14	6.32237
252.359	7.53165
252.578	16.34927
252.798	5.84881
253.017	13.78299
253.236	6.97539
253.455	9.72627
253.674	18.39014
253.893	8.41017
254.112	13.7707
254.331	19.40889
254.551	16.1855
254.77	9.15212
254.989	21.2394
255.208	17.83092
255.427	26.11421
255.646	22.95409
255.865	34.43709
256.084	15.88354
256.303	18.82656
256.522	23.90043
256.741	5.61116
256.96	5.89737
257.179	13.98942
257.397	18.77504
257.616	9.79025
257.835	13.26839
258.054	25.39743
258.273	16.98567
258.492	17.4097
258.711	11.39686
258.93	5.18088
259.148	7.65812
259.367	6.92985
259.586	9.34639
259.805	4.17942
260.023	7.80486
260.242	5.64762
260.461	4.49628
260.68	2.21903
260.898	6.45576
261.117	2.39651
261.336	1.63497
261.554	5.58822
261.773	5.5751
261.992	1.56489
262.21	5.47968
262.429	6.47579
262.648	11.07207
262.866	13.10377
263.085	9.246
263.303	8.27327
263.522	14.59954
263.74	13.76729
263.959	23.83484
264.178	12.52086
264.396	10.31736
264.615	7.62141
264.833	18.09864
265.051	15.46133
265.27	17.2641
265.488	17.39802
265.707	10.82657
265.925	16.96075
266.144	8.5643
266.362	9.65113
266.58	9.91604
266.799	8.25323
267.017	9.53991
267.235	8.92246
267.454	5.95351
267.672	3.2946
267.89	6.95348
268.109	7.51392
268.327	7.20892
268.545	1.72849
268.763	6.40724
268.982	3.18297
269.2	8.13199
269.418	5.07712
269.636	3.86164
269.854	7.18346
270.073	5.35195
270.291	3.06713
270.509	3.39193
270.727	7.43701
270.945	11.81006
271.163	11.61693
271.381	3.02379
271.599	4.94528
271.817	8.21264
272.036	3.04298
272.254	5.64012
272.472	4.23845
272.69	3.9023
272.908	4.21779
273.126	6.46839
273.344	8.42263
273.562	3.04855
273.779	4.63575
273.997	7.08364
274.215	6.36729
274.433	4.71585
274.651	7.42158
274.869	7.35588
275.087	4.57224
275.305	6.8384
275.523	4.51113
275.74	4.98371
275.958	9.07174
276.176	12.65677
276.394	4.02727
276.612	5.23276
276.829	5.31864
277.047	4.78399
277.265	5.07408
277.483	5.91585
277.7	6.51987
277.918	5.36639
278.136	9.96378
278.353	4.83067
278.571	3.05485
278.789	7.54954
279.006	2.01146
279.224	4.7215
279.442	8.19035
279.659	5.98111
279.877	3.85921
280.094	8.52567
280.312	1.99176
280.529	5.93395
280.747	2.03891
280.964	4.7446
281.182	9.14516
281.399	4.7646
281.617	5.95316
281.834	4.42874
282.052	3.09945
282.269	5.10089
282.487	4.22329
282.704	3.85556
282.921	3.70405
283.139	5.47209
283.356	6.9462
283.574	6.40161
283.791	3.02178
284.008	8.71614
284.226	5.04591
284.443	5.52908
284.66	6.90748
284.877	5.84631
285.095	3.56978
285.312	2.89146
285.529	1.62214
285.746	1.36765
285.964	3.50874
286.181	2.31004
286.398	3.04703
286.615	4.39813
286.832	4.40661
287.05	1.14619
287.267	3.09627
287.484	3.08315
287.701	4.47286
287.918	4.12407
288.135	4.41316
288.352	1.77818
288.569	2.49619
288.786	4.13785
289.003	3.13321
289.22	5.15135
289.437	3.02404
289.654	4.84269
289.871	4.81659
290.088	4.86562
290.305	3.92437
290.522	3.29708
290.739	3.40978
290.956	5.02546
291.173	5.77504
291.39	5.44596
291.607	3.74483
291.824	3.15706
292.04	2.4177
292.257	4.7992
292.474	5.4591
292.691	3.33856
292.908	1.72808
293.125	2.87186
293.341	1.96301
293.558	8.02207
293.775	3.60029
293.992	3.94587
294.208	1.3114
294.425	2.27232
294.642	3.21668
294.858	4.54649
295.075	1.25839
295.292	3.43835
295.508	4.13827
295.725	5.63518
295.942	2.82596
296.158	2.19079
296.375	3.45603
296.591	2.76881
296.808	2.62942
297.024	3.27071
297.241	3.55407
297.458	3.83357
297.674	0.52778
297.891	2.9927
298.107	2.41522
298.323	1.76845
298.54	4.28369
298.756	2.11152
298.973	1.04436
299.189	4.55477
299.406	2.04236
299.622	4.66474
299.838	4.70903
300.055	4.13062
300.271	1.06067
300.487	1.87202
300.704	1.99714
300.92	1.16799
301.136	6.19427
301.353	4.81143
301.569	3.32699
301.785	3.45351
302.001	4.20856
302.218	3.96067
302.434	3.95552
302.65	1.36233
302.866	2.37232
303.083	6.51385
303.299	6.3248
303.515	3.21445
303.731	3.49903
303.947	1.28418
304.163	2.28368
304.379	3.40809
304.595	3.89649
304.812	2.39758
305.028	1.97119
305.244	2.75078
305.46	4.29022
305.676	4.34168
305.892	5.37364
306.108	3.95739
306.324	2.80196
306.54	6.1078
306.756	4.17654
306.972	3.9584
307.187	2.83095
307.403	5.80594
307.619	2.36526
307.835	5.01979
308.051	5.29625
308.267	1.7417
308.483	4.7977
308.699	3.98908
308.914	3.15309
309.13	3.2438
309.346	0.83503
309.562	1.72049
309.778	1.0367
309.993	3.93928
310.209	3.04002
310.425	1.45461
310.641	2.67239
310.856	1.64709
311.072	1.60231
311.288	3.03745
311.503	3.222
311.719	0.73098
311.935	0.53122
312.15	3.46174
312.366	3.12001
312.581	3.6209
312.797	2.87464
313.013	3.96625
313.228	2.26909
313.444	3.20477
313.659	1.89272
313.875	3.76183
314.09	2.88878
314.306	5.22784
314.521	4.28324
314.737	4.0998
314.952	3.59095
315.168	3.27359
315.383	3.72305
315.599	3.02968
315.814	2.95793
316.029	4.55617
316.245	1.41938
316.46	0.88422
316.675	5.17124
316.891	6.19463
317.106	7.64575
317.321	4.33318
317.537	3.92314
317.752	4.37551
317.967	4.42791
318.183	2.35346
318.398	2.7114
318.613	4.82952
318.828	5.30147
319.043	4.6993
319.259	2.91424
319.474	3.83376
319.689	5.09778
319.904	0.65146
320.119	4.55988
320.334	3.68873
320.549	2.98115
320.765	5.16316
320.98	3.76788
321.195	4.77563
321.41	3.42509
321.625	4.74105
321.84	6.11399
322.055	6.28503
322.27	2.53534
322.485	1.78906
322.7	3.77307
322.915	5.16866
323.13	2.22195
323.345	5.73496
323.56	4.46702
323.775	4.61134
323.989	4.26171
324.204	3.65911
324.419	4.60285
324.634	1.49502
324.849	3.30144
325.064	6.37134
325.279	4.83891
325.493	4.2558
325.708	4.94961
325.923	2.36229
326.138	2.30535
326.352	5.88883
326.567	4.85066
326.782	3.03765
326.997	2.44557
327.211	4.31853
327.426	4.06278
327.641	2.8086
327.855	1.12502
328.07	4.09987
328.285	6.00732
328.499	2.98845
328.714	3.97618
328.928	4.67952
329.143	3.42454
329.358	5.17202
329.572	5.0097
329.787	5.37664
330.001	7.42417
330.216	1.6274
330.43	6.06925
330.645	6.06563
330.859	5.01604
331.074	2.32708
331.288	3.70841
331.503	5.79908
331.717	2.03373
331.931	3.35049
332.146	3.87066
332.36	6.47516
332.575	4.35889
332.789	3.89697
333.003	3.24125
333.218	4.26949
333.432	2.50693
333.646	4.77042
333.86	5.87469
334.075	6.33884
334.289	2.71826
334.503	1.94612
334.717	4.30574
334.932	4.15429
335.146	5.10212
335.36	2.90408
335.574	4.25542
335.788	4.14704
336.003	5.25869
336.217	4.65451
336.431	4.15834
336.645	2.83168
336.859	2.00164
337.073	3.2968
337.287	3.92145
337.501	2.23174
337.715	4.0265
337.929	4.50206
338.143	1.86297
338.357	3.41444
338.571	2.24676
338.785	4.32704
338.999	2.82222
339.213	2.72479
339.427	1.45307
339.641	5.35224
339.855	2.9803
340.069	2.53767
340.283	5.08983
340.497	5.94763
340.711	4.20493
340.924	3.07885
341.138	1.97079
341.352	1.42352
341.566	3.68209
341.78	0.93093
341.993	2.58312
342.207	2.06493
342.421	3.67999
342.635	3.23044
342.848	2.55825
343.062	0.31204
343.276	2.32563
343.49	6.54461
343.703	2.41957
343.917	4.55981
344.131	4.67629
344.344	2.46236
344.558	2.62898
344.771	2.10499
344.985	5.02574
345.199	5.58777
345.412	3.76716
345.626	3.76717
345.839	1.09429
346.053	1.74055
346.266	1.82451
346.48	4.26523
346.693	3.72773
346.907	3.88219
347.12	2.13265
347.334	3.55019
347.547	3.62995
347.76	2.80459
347.974	4.89397
348.187	3.91658
348.401	2.91007
348.614	2.45975
348.827	2.82266
349.041	4.09198
349.254	0.94438
349.467	3.10313
349.681	1.46089
349.894	2.56478
350.107	4.91317
350.32	5.67695
350.534	1.12363
350.747	2.79621
350.96	2.0685
351.173	2.09664
351.386	2.49795
351.6	2.46973
351.813	2.31655
352.026	3.05223
352.239	1.41937
352.452	2.79324
352.665	4.32057
352.878	2.82612
353.092	5.98163
353.305	4.11185
353.518	3.21175
353.731	2.06829
353.944	4.44532
354.157	2.24481
354.37	1.99627
354.583	1.95278
354.796	0.74468
355.009	4.64071
355.222	3.1566
355.435	3.11568
355.647	4.39442
355.86	1.60652
356.073	2.86836
356.286	2.31543
356.499	4.13712
356.712	3.5364
356.925	3.4084
357.138	4.22249
357.35	1.62695
357.563	2.45309
357.776	2.95173
357.989	2.39179
358.201	3.65323
358.414	3.10066
358.627	4.1909
358.84	2.55165
359.052	1.397
359.265	1.48394
359.478	4.06686
359.69	-0.47858
359.903	3.807
360.116	3.71258
360.328	0.66657
360.541	3.76111
360.753	1.47695
360.966	1.9401
361.179	2.05666
361.391	1.92069
361.604	1.41674
361.816	1.87965
362.029	1.6168
362.241	1.35842
362.454	1.76461
362.666	1.46831
362.879	2.46942
363.091	2.13473
363.304	1.60038
363.516	2.34072
363.728	1.06331
363.941	3.22989
364.153	1.73786
364.366	-0.16591
364.578	1.22197
364.79	2.98432
365.003	2.23547
365.215	1.98996
365.427	3.13481
365.639	4.05837
365.852	2.86451
366.064	4.69095
366.276	1.9174
366.488	3.05414
366.701	2.0085
366.913	2.33886
367.125	2.36252
367.337	1.62066
367.549	1.94842
367.762	2.66142
367.974	2.49827
368.186	1.63406
368.398	3.82928
368.61	3.31608
368.822	3.42027
369.034	2.50423
369.246	3.44598
369.458	5.47563
369.67	1.32109
369.882	4.84986
370.094	0.24125
370.306	4.50945
370.518	2.03226
370.73	1.80879
370.942	1.49611
371.154	2.28311
371.366	1.81592
371.578	2.7807
371.79	1.45602
372.002	3.95884
372.214	4.52848
372.425	2.73934
372.637	4.16616
372.849	2.78148
373.061	-0.02881
373.273	3.1377
373.484	3.16712
373.696	3.51781
373.908	-0.22461
374.12	3.85202
374.331	2.9093
374.543	1.52203
374.755	1.36549
374.967	2.6754
375.178	3.45244
375.39	2.14614
375.602	2.42817
375.813	0.96636
376.025	0.76633
376.236	2.23773
376.448	2.51644
376.66	1.74685
376.871	1.75383
377.083	3.43636
377.294	3.48726
377.506	1.73247
377.717	3.81501
377.929	2.50875
378.14	1.38932
378.352	2.97076
378.563	2.76287
378.775	3.77255
378.986	1.50568
379.197	2.19606
379.409	1.83192
379.62	3.37765
379.832	2.62719
380.043	2.04716
380.254	2.62411
380.466	0.89004
380.677	5.59043
380.888	5.12446
381.1	5.53698
381.311	5.11567
381.522	2.22337
381.733	5.95176
381.945	2.02119
382.156	2.56118
382.367	1.59348
382.578	5.61454
382.789	5.30879
383.001	1.83794
383.212	3.79358
383.423	4.06292
383.634	3.61577
383.845	2.83763
384.056	1.89272
384.267	2.30554
384.478	2.0658
384.69	0.93138
384.901	3.04638
385.112	2.82561
385.323	4.24377
385.534	2.77855
385.745	2.50921
385.956	2.81374
386.167	1.11395
386.378	2.98292
386.588	0.83393
386.799	1.52651
387.01	0.41992
387.221	3.14599
387.432	2.1133
387.643	4.73685
387.854	2.09234
388.065	1.90534
388.275	2.15767
388.486	1.8531
388.697	2.17511
388.908	1.97826
389.119	3.73079
389.329	4.2713
389.54	2.52336
389.751	2.8103
389.962	3.67044
390.172	2.55212
390.383	1.61933
390.594	1.52925
390.804	1.5665
391.015	1.61064
391.226	2.27904
391.436	2.83889
391.647	2.55968
391.858	2.9854
392.068	0.34423
392.279	0.8044
392.489	2.07692
392.7	3.43342
392.91	0.87124
393.121	1.46452
393.331	2.735
393.542	3.49724
393.752	2.42571
393.963	2.4399
394.173	2.18226
394.384	2.99761
394.594	2.23929
394.804	0.9973
395.015	2.39802
395.225	2.97102
395.436	0.93042
395.646	2.88242
395.856	1.35349
396.067	0.94891
396.277	3.4156
396.487	2.89239
396.697	2.07475
396.908	3.21099
397.118	3.22303
397.328	2.48251
397.538	3.47976
397.749	1.56995
397.959	3.44297
398.169	3.11294
398.379	1.01624
398.589	3.26224
398.8	2.34809
399.01	2.29761
399.22	2.12188
399.43	4.99708
399.64	1.96477
399.85	3.09123
400.06	2.13045
400.27	1.6642
400.48	2.4958
400.69	4.15995
400.9	1.90742
401.11	1.64856
401.32	3.55573
401.53	1.94776
401.74	4.44535
401.95	3.47007
402.16	1.23992
402.37	3.10462
402.58	1.82651
402.79	3.30831
403	3.60149
403.209	1.93876
403.419	3.43006
403.629	1.93266
403.839	3.37476
404.049	3.44534
404.258	1.57871
404.468	1.32547
404.678	3.07559
404.888	3.16157
405.097	1.3771
405.307	2.35593
405.517	3.06695
405.727	2.64076
405.936	2.17625
406.146	2.80916
406.356	4.0439
406.565	2.61589
406.775	2.1359
406.984	2.06049
407.194	4.48264
407.404	2.72557
407.613	3.07062
407.823	3.59501
408.032	4.02845
408.242	3.99538
408.451	2.20308
408.661	2.59801
408.87	4.88657
409.08	2.41173
409.289	3.28268
409.499	2.94376
409.708	3.05756
409.918	0.80193
410.127	2.85241
410.336	4.62499
410.546	3.41058
410.755	2.51273
410.964	2.3313
411.174	2.14166
411.383	3.57194
411.592	3.35891
411.802	1.96093
412.011	4.11747
412.22	3.07185
412.429	4.48063
412.639	4.44255
412.848	4.5879
413.057	4.80288
413.266	4.41674
413.475	3.09792
413.685	4.16232
413.894	4.26593
414.103	4.61763
414.312	4.06094
414.521	3.28109
414.73	3.55226
414.939	5.27929
415.148	3.79686
415.357	3.48321
415.566	2.92347
415.776	2.89374
415.985	2.65231
416.194	4.08943
416.403	4.86466
416.611	1.92358
416.82	2.46445
417.029	3.17809
417.238	2.41893
417.447	2.1683
417.656	2.53693
417.865	2.26809
418.074	2.52518
418.283	2.87112
418.492	3.63293
418.7	3.40687
418.909	4.26003
419.118	2.95305
419.327	3.2261
419.536	2.98246
419.744	2.30024
419.953	3.60166
420.162	3.60459
420.371	2.24597
420.579	2.02588
420.788	3.22621
420.997	3.16307
421.205	3.20436
421.414	2.84214
421.623	2.72004
421.831	2.36362
422.04	3.26626
422.249	2.30353
422.457	3.09384
422.666	2.43804
422.874	3.60221
423.083	3.61842
423.291	3.51148
423.5	3.12109
423.708	3.24573
423.917	3.60393
424.125	3.00032
424.334	2.68366
424.542	4.66348
424.751	3.76529
424.959	3.65653
425.167	4.05673
425.376	3.94976
425.584	3.26316
425.793	3.74526
426.001	2.77137
426.209	4.03471
426.418	2.87388
426.626	3.14614
426.834	2.88797
427.042	3.68773
427.251	3.00848
427.459	4.35816
427.667	3.9235
427.875	2.6818
428.084	3.20207
428.292	4.85423
428.5	4.0448
428.708	2.91351
428.916	2.98319
429.124	3.8621
429.333	3.52076
429.541	3.62433
429.749	3.86605
429.957	3.69496
430.165	5.80318
430.373	2.73982
430.581	3.96855
430.789	5.1116
430.997	3.51855
431.205	3.27414
431.413	3.85665
431.621	3.6007
431.829	4.37189
432.037	3.39993
432.245	4.31279
432.453	4.10888
432.661	3.5386
432.869	5.53268
433.076	2.91195
433.284	3.63255
433.492	4.136
433.7	4.75371
433.908	3.31877
434.116	3.83102
434.323	3.88316
434.531	3.75505
434.739	4.16349
434.947	4.51859
435.154	4.41163
435.362	4.09982
435.57	3.64833
435.778	3.51357
435.985	4.29589
436.193	3.57039
436.401	5.03626
436.608	4.00297
436.816	3.66426
437.023	5.47436
437.231	5.53699
437.439	4.19072
437.646	4.47903
437.854	4.41077
438.061	4.56688
438.269	3.88605
438.476	4.56702
438.684	4.10977
438.891	3.66022
439.099	3.2414
439.306	2.65234
439.514	3.03731
439.721	4.14872
439.929	3.3141
440.136	4.24835
440.343	4.04654
440.551	3.60355
440.758	5.28118
440.965	4.32125
441.173	3.96609
441.38	3.28979
441.587	4.12565
441.795	3.43503
442.002	4.19377
442.209	4.19287
442.416	4.6727
442.624	4.46454
442.831	4.33159
443.038	3.53102
443.245	3.20246
443.452	3.68373
443.66	4.83751
443.867	3.36701
444.074	3.75438
444.281	3.59008
444.488	3.80057
444.695	3.95247
444.902	3.49012
445.109	4.40116
445.316	3.63109
445.523	3.55728
445.73	3.1443
445.937	3.89385
446.144	4.15516
446.351	4.0563
446.558	3.14487
446.765	4.30009
446.972	4.53883
447.179	3.60637
447.386	4.77393
447.593	3.51932
447.8	4.812
448.007	3.64412
448.214	3.89261
448.42	3.55379
448.627	4.94967
448.834	3.86362
449.041	3.78677
449.248	3.83728
449.454	4.87384
449.661	5.93148
449.868	3.99574
450.075	3.66535
450.281	2.38529
450.488	3.19784
450.695	3.54415
450.901	3.44473
451.108	4.05935
451.315	5.10814
451.521	4.09586
451.728	4.97752
451.935	3.5935
452.141	4.06862
452.348	4.24821
452.554	3.93741
452.761	3.87206
452.967	5.44268
453.174	4.3678
453.38	4.48878
453.587	3.12156
453.793	4.2195
454	5.0069
454.206	6.01855
454.413	5.40317
454.619	4.59502
454.825	3.6074
455.032	4.7858
455.238	5.21262
455.445	3.18629
455.651	4.43033
455.857	2.6645
456.064	3.94811
456.27	4.01673
456.476	4.1657
456.682	2.99623
456.889	4.64375
457.095	4.78092
457.301	6.49103
457.507	4.39842
457.714	4.37334
457.92	4.03323
458.126	3.57468
458.332	3.88819
458.538	3.57477
458.744	3.70255
458.951	3.66011
459.157	5.1749
459.363	3.99858
459.569	3.69369
459.775	4.55583
459.981	3.29214
460.187	3.74061
460.393	4.33538
460.599	4.98037
460.805	4.13083
461.011	4.03977
461.217	4.95067
461.423	5.17192
461.629	3.9384
461.835	4.87647
462.041	3.96674
462.247	5.78898
462.453	4.16051
462.658	4.37018
462.864	5.08022
463.07	4.73499
463.276	4.82106
463.482	4.85303
463.688	5.56695
463.893	4.16004
464.099	4.15522
464.305	6.00535
464.511	4.03338
464.716	4.503
464.922	5.07515
465.128	3.87805
465.333	6.24743
465.539	5.02769
465.745	4.21759
465.95	4.85147
466.156	7.37942
466.362	5.63491
466.567	4.34409
466.773	4.21205
466.978	5.89118
467.184	3.61207
467.389	2.62339
467.595	5.07289
467.8	3.55616
468.006	5.59703
468.211	5.54003
468.417	3.78073
468.622	5.08159
468.828	5.35905
469.033	4.76831
469.239	7.16905
469.444	4.14391
469.649	5.50401
469.855	4.34482
470.06	4.79894
470.266	3.70864
470.471	5.32359
470.676	5.00997
470.881	3.26893
471.087	5.20974
471.292	6.10055
471.497	3.43948
471.703	4.33951
471.908	4.02007
472.113	4.74003
472.318	5.41824
472.523	3.64875
472.729	4.97142
472.934	5.04329
473.139	4.22702
473.344	5.17013
473.549	5.77827
473.754	3.89278
473.959	6.37113
474.164	3.82673
474.369	4.54935
474.575	5.4503
474.78	4.72825
474.985	4.01532
475.19	3.03051
475.395	3.84516
475.6	4.49804
475.804	5.65692
476.009	4.42302
476.214	4.63136
476.419	4.04462
476.624	2.92464
476.829	3.75301
477.034	4.90032
477.239	3.63375
477.444	4.58108
477.648	4.79717
477.853	4.96836
478.058	4.02519
478.263	3.73436
478.468	3.25436
478.672	3.39165
478.877	5.11428
479.082	5.89134
479.287	4.59687
479.491	4.42544
479.696	3.23613
479.901	5.13968
480.105	4.89808
480.31	3.68994
480.515	4.01227
480.719	6.14888
480.924	3.46675
481.128	3.1069
481.333	4.04546
481.538	4.22672
481.742	3.48983
481.947	4.03332
482.151	4.02069
482.356	3.49532
482.56	4.11246
482.765	4.22954
482.969	5.3457
483.174	6.11028
483.378	7.21352
483.582	6.90145
483.787	7.77881
483.991	7.57669
484.196	7.66802
484.4	7.44741
484.604	7.75603
484.809	6.51204
485.013	6.47302
485.217	5.66237
485.422	4.99062
485.626	4.5863
485.83	4.34057
486.034	4.21714
486.239	4.39996
486.443	4.3882
486.647	4.288
486.851	5.01784
487.055	5.47084
487.26	4.87207
487.464	5.37593
487.668	4.80226
487.872	4.73109
488.076	5.33615
488.28	4.90568
488.484	4.49612
488.688	4.46928
488.892	4.51326
489.096	4.29066
489.3	3.68472
489.504	3.61861
489.708	4.06892
489.912	4.1819
490.116	4.04899
490.32	3.14558
490.524	3.78125
490.728	3.81179
490.932	3.75795
491.136	3.70895
491.34	4.69
491.544	4.70602
491.748	4.3161
491.951	4.36791
492.155	4.12468
492.359	4.1652
492.563	3.38228
492.767	3.21415
492.97	3.31546
493.174	3.11935
493.378	3.37866
493.582	2.91211
493.785	3.79642
493.989	3.9142
494.193	4.03314
494.396	3.60825
494.6	4.6194
494.804	3.91771
495.007	3.49876
495.211	3.37219
495.414	3.83657
495.618	3.9711
495.822	4.75389
496.025	3.90692
496.229	4.5155
496.432	2.93613
496.636	3.70996
496.839	3.38785
497.043	5.00733
497.246	3.80484
497.45	3.23758
497.653	3.40116
497.856	3.84301
498.06	2.60437
498.263	3.35583
498.467	2.90344
498.67	4.49685
498.873	4.1152
499.077	3.36545
499.28	3.32365
499.483	4.04642
499.686	4.33344
499.89	4.24273
500.093	4.36551
500.296	3.19535
500.499	5.01212
500.703	3.85294
500.906	3.85202
501.109	5.59711
501.312	3.95148
501.515	3.70237
501.719	4.20083
501.922	5.25921
502.125	4.1515
502.328	3.73522
502.531	2.78699
502.734	3.9687
502.937	2.1394
503.14	3.95104
503.343	2.71993
503.546	3.2643
503.749	3.14228
503.952	4.18846
504.155	2.84102
504.358	4.33544
504.561	3.656
504.764	2.85284
504.967	3.60858
505.17	3.70248
505.373	5.17507
505.576	3.93258
505.778	4.33199
505.981	3.27638
506.184	4.8812
506.387	2.37363
506.59	5.34318
506.793	4.72417
506.995	4.14332
507.198	2.15065
507.401	3.63118
507.604	4.04183
507.806	2.70612
508.009	2.90173
508.212	3.85809
508.414	3.07564
508.617	2.65392
508.82	3.29819
509.022	4.3714
509.225	3.58082
509.427	1.99858
509.63	4.37396
509.833	3.46035
510.035	3.16125
510.238	2.05828
510.44	4.30446
510.643	1.57735
510.845	5.47113
511.048	3.65732
511.25	3.10311
511.453	3.31212
511.655	3.73635
511.858	2.95791
512.06	4.10438
512.262	3.32085
512.465	3.97722
512.667	2.66976
512.869	2.54301
513.072	3.63302
513.274	4.08017
513.476	3.78568
513.679	3.99491
513.881	2.35639
514.083	4.95674
514.286	2.8577
514.488	3.09515
514.69	2.72196
514.892	2.53873
515.094	3.73375
515.297	3.15772
515.499	3.64415
515.701	2.77696
515.903	4.84623
516.105	4.70124
516.307	4.00967
516.509	1.71371
516.711	2.19413
516.913	3.40465
517.116	3.10914
517.318	2.84315
517.52	4.05434
517.722	3.52411
517.924	1.94565
518.126	3.14907
518.328	2.21586
518.529	3.1165
518.731	4.07298
518.933	2.32109
519.135	2.64977
519.337	3.62998
519.539	3.15453
519.741	1.64886
519.943	2.8151
520.145	2.78969
520.346	3.37416
520.548	2.67549
520.75	3.35738
520.952	2.69627
521.153	3.09248
521.355	3.61992
521.557	2.3544
521.759	3.47322
521.96	3.39637
522.162	2.57356
522.364	4.12598
522.565	2.69958
522.767	3.9414
522.969	4.45816
523.17	3.55622
523.372	3.78416
523.573	2.46758
523.775	3.05631
523.977	2.33598
524.178	4.57229
524.38	2.49763
524.581	3.51879
524.783	2.65005
524.984	3.26213
525.186	2.67105
525.387	3.19362
525.589	2.53222
525.79	2.32956
525.991	1.90282
526.193	2.73523
526.394	1.41218
526.596	2.61868
526.797	2.31582
526.998	2.04181
527.2	1.27649
527.401	2.49104
527.602	2.19137
527.803	3.31148
528.005	2.69637
528.206	3.12187
528.407	3.26842
528.608	2.79699
528.81	2.95867
529.011	2.34944
529.212	3.39248
529.413	2.79592
529.614	2.61753
529.815	2.88532
530.017	2.66539
530.218	2.40155
530.419	2.0582
530.62	2.51797
530.821	2.58968
531.022	1.81907
531.223	3.03172
531.424	3.08165
531.625	2.61268
531.826	2.73463
532.027	2.52861
532.228	3.18363
532.429	2.30059
532.63	2.1174
532.831	2.26033
533.032	2.31765
533.233	2.64845
533.433	2.45819
533.634	2.54538
533.835	2.0463
534.036	1.8307
534.237	2.28681
534.438	1.99583
534.638	1.85363
534.839	1.96164
535.04	2.93861
535.241	2.28542
535.441	3.68919
535.642	2.86034
535.843	1.85531
536.043	1.69389
536.244	2.06413
536.445	1.96496
536.645	3.08585
536.846	2.31669
537.047	3.36094
537.247	1.93267
537.448	2.35523
537.648	2.60244
537.849	2.70413
538.049	2.68679
538.25	3.53353
538.451	3.12843
538.651	2.4275
538.851	3.41618
539.052	3.892
539.252	3.54646
539.453	2.89684
539.653	2.70063
539.854	2.8048
540.054	2.42476
540.254	3.14626
540.455	2.81557
540.655	1.89065
540.855	2.32378
541.056	2.62751
541.256	2.12803
541.456	2.99332
541.657	2.00444
541.857	3.06984
542.057	1.63557
542.257	1.70212
542.458	2.52766
542.658	2.85541
542.858	1.67148
543.058	3.20043
543.258	2.82894
543.458	1.78974
543.659	1.53557
543.859	3.13579
544.059	3.01716
544.259	2.60693
544.459	3.28409
544.659	2.19237
544.859	3.29445
545.059	2.46878
545.259	3.27562
545.459	3.07735
545.659	3.52515
545.859	2.93333
546.059	3.14956
546.259	2.10038
546.459	1.39224
546.659	1.96607
546.859	3.27702
547.059	3.2725
547.258	3.29572
547.458	3.17716
547.658	1.92596
547.858	2.32796
548.058	3.38641
548.258	3.1836
548.457	2.3548
548.657	5.99294
548.857	3.21284
549.057	4.33578
549.256	4.07694
549.456	3.55768
549.656	1.98545
549.855	5.72983
550.055	3.76674
550.255	5.84866
550.454	4.48823
550.654	5.13801
550.853	5.4571
551.053	4.96194
551.253	4.4669
551.452	4.36789
551.652	2.61674
551.851	2.00331
552.051	3.29023
552.25	3.30552
552.45	2.8821
552.649	3.26294
552.849	2.78385
553.048	3.82714
553.248	4.25567
553.447	2.89676
553.646	4.7063
553.846	5.41247
554.045	5.02002
554.244	2.88845
554.444	5.85779
554.643	3.24942
554.842	5.60863
555.042	6.63745
555.241	3.69357
555.44	3.31299
555.64	4.37478
555.839	6.0211
556.038	4.90861
556.237	3.86904
556.436	3.84568
556.636	4.78287
556.835	3.26573
557.034	6.20746
557.233	4.19819
557.432	3.21912
557.631	5.64155
557.83	4.01841
558.029	3.86272
558.228	4.12929
558.427	3.21369
558.626	4.98192
558.825	3.67871
559.024	4.92495
559.223	6.636
559.422	4.54751
559.621	5.20166
559.82	1.84285
560.019	4.60187
560.218	4.01119
560.417	1.29272
560.616	4.33134
560.815	8.32878
561.014	2.66543
561.212	5.47004
561.411	4.60791
561.61	2.48261
561.809	4.29245
562.008	6.4173
562.206	4.48853
562.405	5.11656
562.604	4.42083
562.803	4.71765
563.001	4.55054
563.2	2.84723
563.399	5.14347
563.597	3.0997
563.796	4.94751
563.995	2.88893
564.193	5.38005
564.392	3.71851
564.59	7.01297
564.789	2.05535
564.988	4.1666
565.186	4.46708
565.385	3.87489
565.583	3.59399
565.782	3.95171
565.98	3.62385
566.179	3.81233
566.377	2.4783
566.575	3.05198
566.774	5.08072
566.972	4.81688
567.171	6.42114
567.369	5.56247
567.567	4.26835
567.766	4.79394
567.964	1.91242
568.162	5.25005
568.361	5.69241
568.559	4.36839
568.757	5.16702
568.956	4.67368
569.154	4.62895
569.352	5.94615
569.55	4.40401
569.748	4.49777
569.947	3.41669
570.145	3.72078
570.343	3.01737
570.541	5.8664
570.739	2.66996
570.937	4.46015
571.135	4.78669
571.333	6.24901
571.532	6.05714
571.73	4.56258
571.928	5.39767
572.126	4.91778
572.324	3.65531
572.522	5.741
572.72	7.16093
572.918	4.22282
573.116	4.49371
573.313	4.44355
573.511	4.10139
573.709	4.18368
573.907	5.07163
574.105	4.06452
574.303	2.62187
574.501	2.90605
574.699	4.8105
574.896	4.83764
575.094	5.23065
575.292	3.26421
575.49	5.50997
575.688	4.61344
575.885	6.42183
576.083	6.77341
576.281	5.12794
576.478	4.38169
576.676	5.53284
576.874	3.79268
577.071	4.68179
577.269	8.11059
577.467	5.12227
577.664	5.26132
577.862	6.34433
578.059	4.64066
578.257	6.43578
578.455	5.37774
578.652	5.3444
578.85	3.3828
579.047	5.77953
579.245	5.56617
579.442	5.74378
579.64	5.94666
579.837	3.30239
580.034	8.64352
580.232	5.3049
580.429	4.62456
580.627	6.80109
580.824	7.65245
581.021	6.69721
581.219	5.78264
581.416	4.69715
581.613	7.88704
581.811	7.58919
582.008	5.04429
582.205	7.29987
582.402	6.4407
582.6	9.18327
582.797	6.45095
582.994	7.07819
583.191	7.48496
583.388	6.55559
583.586	7.56544
583.783	8.19306
583.98	5.19926
584.177	6.64901
584.374	2.21976
584.571	6.43939
584.768	6.42236
584.965	6.05985
585.162	7.66803
585.359	8.96359
585.556	6.68814
585.753	6.94975
585.95	4.7275
586.147	5.47294
586.344	7.49776
586.541	6.16744
586.738	5.08026
586.935	6.60294
587.132	5.63098
587.329	8.42923
587.526	6.41923
587.722	14.00479
587.919	4.63836
588.116	7.05726
588.313	9.00894
588.51	9.99091
588.706	6.43869
588.903	7.46042
589.1	8.35803
589.297	11.08795
589.493	6.29771
589.69	7.53808
589.887	5.90597
590.083	5.06293
590.28	5.60813
590.477	8.20366
590.673	7.91346
590.87	9.05378
591.067	6.35974
591.263	7.82586
591.46	7.6706
591.656	6.96814
591.853	9.08874
592.049	5.48793
592.246	6.28495
592.442	9.072
592.639	7.83204
592.835	5.24761
593.032	7.95582
593.228	5.00995
593.425	4.99287
593.621	4.86619
593.817	7.04694
594.014	5.98315
594.21	7.10507
594.406	8.394
594.603	7.3794
594.799	6.28852
594.995	3.5574
595.192	8.40429
595.388	6.04148
595.584	6.14072
595.78	4.54278
595.977	9.75243
596.173	9.29529
596.369	6.56606
596.565	5.33911
596.761	4.57768
596.957	8.46326
597.154	5.2358
597.35	5.82918
597.546	5.39776
597.742	7.11537
597.938	7.0738
598.134	5.37709
598.33	6.82153
598.526	9.47188
598.722	8.07247
598.918	10.07425
599.114	8.23385
599.31	6.38448
599.506	7.86026
599.702	6.54497
599.898	8.3708
600.094	9.71614
600.29	9.21429
600.485	9.01363
600.681	7.1564
600.877	10.6978
601.073	8.26302
601.269	11.21038
601.465	10.27271
601.66	6.59794
601.856	5.03754
602.052	10.29269
602.248	7.00893
602.443	4.36603
602.639	5.70234
602.835	6.0971
603.03	6.13978
603.226	8.51019
603.422	5.84449
603.617	6.60989
603.813	6.40543
604.009	6.05807
604.204	8.52171
604.4	4.55185
604.595	8.2912
604.791	5.47024
604.986	7.107
605.182	5.64974
605.377	6.32009
605.573	6.09364
605.768	7.1002
605.964	7.8901
606.159	8.47093
606.355	9.5468
606.55	7.1272
606.746	9.36013
606.941	7.62134
607.136	11.12748
607.332	12.79126
607.527	5.97797
607.722	8.65064
607.918	8.11498
608.113	6.56961
608.308	9.02403
608.503	8.72399
608.699	8.41246
608.894	8.44334
609.089	6.26068
609.284	7.96048
609.479	6.72215
609.675	8.60077
609.87	6.89367
610.065	8.46133
610.26	9.24877
610.455	9.12919
610.65	7.45344
610.845	8.34647
611.04	9.7908
611.235	7.88159
611.43	7.56331
611.625	6.23592
611.82	10.91387
612.015	7.00759
612.21	11.31791
612.405	6.14218
612.6	12.18273
612.795	10.9683
612.99	10.55033
613.185	6.86836
613.38	7.4206
613.575	9.66563
613.77	14.01155
613.965	6.22289
614.159	7.56116
614.354	11.41052
614.549	11.38
614.744	10.51899
614.938	7.13724
615.133	6.55772
615.328	11.5843
615.523	11.8371
615.717	14.99175
615.912	8.30635
616.107	10.03709
616.301	8.64794
616.496	7.98718
616.691	12.86668
616.885	10.84468
617.08	14.62387
617.274	12.17136
617.469	14.18912
617.664	10.73942
617.858	8.24842
618.053	10.24109
618.247	9.04659
618.442	5.74546
618.636	12.0533
618.831	8.70121
619.025	8.50171
619.219	15.05728
619.414	3.06924
619.608	9.76525
619.803	7.87798
619.997	14.24807
620.191	12.50216
620.386	10.95526
620.58	10.50166
620.774	6.29574
620.969	7.08172
621.163	10.52865
621.357	7.31601
621.551	9.30734
621.746	10.42609
621.94	10.03362
622.134	17.84376
622.328	14.60496
622.522	6.89484
622.716	12.46337
622.911	12.44022
623.105	12.00238
623.299	11.02813
623.493	17.37578
623.687	8.74207
623.881	9.38056
624.075	11.75047
624.269	12.64356
624.463	6.52034
624.657	7.15283
624.851	11.45428
625.045	12.16121
625.239	12.23177
625.433	8.81996
625.627	13.23067
625.821	8.87949
626.015	8.32092
626.209	9.95447
626.403	7.18191
626.596	10.39186
626.79	11.00343
626.984	7.16594
627.178	10.69177
627.372	10.51875
627.565	11.28964
627.759	6.56562
627.953	7.28702
628.147	10.89396
628.34	11.36695
628.534	14.46296
628.728	9.53306
628.921	12.28631
629.115	11.98978
629.309	12.62633
629.502	12.5905
629.696	11.27875
629.89	10.62497
630.083	11.09742
630.277	11.4802
630.47	14.9955
630.664	10.09034
630.857	7.92772
631.051	12.35193
631.244	13.75717
631.438	13.14727
631.631	9.56667
631.825	13.63599
632.018	12.71249
632.212	15.53532
632.405	13.90431
632.598	9.3624
632.792	11.58503
632.985	6.00296
633.178	10.32638
633.372	11.01163
633.565	11.47907
633.758	14.43863
633.952	9.13486
634.145	9.32205
634.338	10.25347
634.531	10.06994
634.724	9.81192
634.918	11.59584
635.111	10.29242
635.304	9.85077
635.497	16.26201
635.69	11.88145
635.883	14.1109
636.077	8.53898
636.27	12.7077
636.463	11.53903
636.656	12.70135
636.849	10.44683
637.042	12.39878
637.235	15.75725
637.428	13.28001
637.621	12.56689
637.814	15.32207
638.007	15.91962
638.2	16.14992
638.393	17.18297
638.586	8.78175
638.778	10.85018
638.971	12.22536
639.164	16.70196
639.357	13.87491
639.55	15.83336
639.743	14.59105
639.935	14.56295
640.128	17.45052
640.321	14.44688
640.514	13.44951
640.707	19.52724
640.899	14.60864
641.092	8.71914
641.285	32.94263
641.477	6.8614
641.67	19.07158
641.863	16.72741
642.055	13.80869
642.248	13.11887
642.441	12.08335
642.633	14.34673
642.826	18.33927
643.018	17.21188
643.211	18.34244
643.403	17.76819
643.596	19.87283
643.788	18.64929
643.981	12.6777
644.173	15.81358
644.366	12.92473
644.558	8.71934
644.751	16.14613
644.943	9.34826
645.135	19.24416
645.328	19.27871
645.52	16.13427
645.712	16.38155
645.905	24.34553
646.097	10.96025
646.289	14.98164
646.482	19.67621
646.674	12.3853
646.866	17.08754
647.058	15.71397
647.251	11.25585
647.443	12.46105
647.635	13.51518
647.827	10.90893
648.019	10.70898
648.211	14.521
648.404	14.55572
648.596	18.54823
648.788	15.18744
648.98	15.16675
649.172	15.51074
649.364	15.54675
649.556	9.22078
649.748	22.34302
649.94	11.87053
650.132	15.96988
650.324	11.70063
650.516	12.3322
650.708	17.97348
650.9	10.27153
651.092	13.15915
651.284	9.6101
651.476	11.15113
651.667	16.29444
651.859	18.29787
652.051	13.96461
652.243	14.58301
652.435	12.55015
652.627	15.20863
652.818	16.1132
653.01	9.28816
653.202	11.69515
653.394	13.37173
653.585	16.5881
653.777	29.58628
653.969	18.98539
654.16	18.90072
654.352	11.57729
654.544	14.96512
654.735	18.51642
654.927	15.56398
655.118	19.99851
655.31	18.22856
655.502	17.60482
655.693	12.97931
655.885	17.46762
656.076	20.58464
656.268	15.35122
656.459	19.4799
656.651	19.01136
656.842	12.93422
657.034	12.26392
657.225	17.65213
657.416	19.55378
657.608	19.5359
657.799	14.17469
657.99	18.11707
658.182	11.96925
658.373	12.48157
658.564	16.4806
658.756	14.32278
658.947	13.67434
659.138	10.66486
659.33	12.06859
659.521	11.19148
659.712	12.99423
659.903	12.96277
660.094	11.55852
660.286	9.11716
660.477	19.99315
660.668	16.49178
660.859	14.43826
661.05	10.19364
661.241	17.02225
661.432	16.83454
661.623	13.53057
661.814	14.63388
662.006	9.44961
662.197	16.94457
662.388	19.08108
662.579	16.70882
662.77	26.72677
662.96	26.33041
663.151	19.22404
663.342	9.70877
663.533	18.08353
663.724	16.04409
663.915	22.2971
664.106	16.47325
664.297	23.59133
664.488	19.22334
664.678	15.12441
664.869	19.39659
665.06	19.90498
665.251	18.02952
665.442	18.89902
665.632	13.07382
665.823	24.72549
666.014	6.43681
666.204	19.05081
666.395	22.6916
666.586	28.16197
666.776	20.42632
666.967	24.00477
667.158	17.67271
667.348	23.32912
667.539	13.30983
667.729	20.75787
667.92	14.16232
668.111	21.1624
668.301	19.67635
668.492	15.58453
668.682	16.24342
668.873	16.1528
669.063	12.28533
669.253	17.2573
669.444	20.2341
669.634	16.80273
669.825	24.29701
670.015	20.96497
670.206	14.79669
670.396	25.30666
670.586	16.1853
670.777	19.09977
670.967	9.43263
671.157	17.2568
671.347	15.29278
671.538	23.41347
671.728	19.20827
671.918	25.87571
672.108	22.65438
672.299	18.44152
672.489	19.04634
672.679	16.06891
672.869	20.81089
673.059	25.37008
673.249	20.15662
673.44	15.68323
673.63	17.76112
673.82	21.87698
674.01	14.8976
674.2	20.81405
674.39	30.49445
674.58	20.67808
674.77	19.55206
674.96	18.80212
675.15	36.94929
675.34	23.32657
675.53	18.99575
675.72	17.14746
675.91	12.6545
676.099	26.67542
676.289	28.49705
676.479	23.44757
676.669	17.27277
676.859	21.83387
677.049	14.6713
677.238	19.48158
677.428	26.55038
677.618	19.32135
677.808	22.63088
677.997	20.97246
678.187	13.75346
678.377	18.55172
678.567	16.68952
678.756	16.64353
678.946	17.12568
679.136	12.57659
679.325	14.36278
679.515	14.18664
679.704	12.1578
679.894	19.23206
680.084	17.79936
680.273	22.44305
680.463	13.88888
680.652	14.08721
680.842	16.89894
681.031	20.32377
681.221	13.86497
681.41	19.54624
681.6	16.69207
681.789	20.42787
681.978	23.17319
682.168	18.68517
682.357	20.00786
682.547	21.08303
682.736	19.06574
682.925	24.2299
683.115	23.33711
683.304	23.14896
683.493	20.71614
683.682	21.75389
683.872	20.46495
684.061	25.85799
684.25	23.40854
684.439	28.74194
684.629	23.29813
684.818	36.06995
685.007	19.8522
685.196	19.636
685.385	27.94491
685.574	22.38803
685.763	22.4386
685.952	21.28653
686.142	15.14617
686.331	27.82647
686.52	12.2605
686.709	28.03416
686.898	28.18076
687.087	24.31905
687.276	28.93784
687.465	25.31861
687.654	19.78802
687.842	28.9268
688.031	14.23303
688.22	26.86296
688.409	22.26322
688.598	22.41409
688.787	33.74163
688.976	21.46628
689.165	31.08382
689.353	19.71365
689.542	23.85212
689.731	24.64618
689.92	31.53648
690.108	26.90934
690.297	19.98793
690.486	23.01932
690.675	26.19813
690.863	31.73951
691.052	31.32142
691.241	25.05843
691.429	23.5767
691.618	30.59647
691.806	17.56827
691.995	22.09015
692.184	23.15402
692.372	20.30321
692.561	23.51277
692.749	23.54122
692.938	36.42113
693.126	26.86478
693.315	21.66215
693.503	27.10575
693.692	27.3134
693.88	29.50963
694.068	37.34086
694.257	23.72058
694.445	26.40661
694.634	13.44961
694.822	30.46316
695.01	31.79649
695.199	32.17377
695.387	33.41091
695.575	31.34308
695.763	24.22015
695.952	22.71448
696.14	16.51959
696.328	21.6042
696.516	24.58296
696.705	24.77711
696.893	25.02827
697.081	14.63677
697.269	26.87495
697.457	17.70346
697.645	16.47314
697.833	26.27608
698.021	17.63967
698.21	18.48927
698.398	20.35176
698.586	15.18543
698.774	14.33856
698.962	18.48689
699.15	15.27746
699.338	13.1243
699.526	21.48235
699.714	16.76554
699.901	18.19707
700.089	25.43298
700.277	17.49229
700.465	20.00792
700.653	26.20639
700.841	25.22055
701.029	18.61106
701.217	29.09706
701.404	23.89624
701.592	31.49161
701.78	35.52218
701.968	23.07073
702.155	22.64035
702.343	17.66367
702.531	33.07986
702.718	27.35646
702.906	24.19548
703.094	23.0482
703.281	33.91254
703.469	25.35511
703.657	33.77343
703.844	48.16636
704.032	36.71401
704.219	22.95426
704.407	29.60809
704.595	35.57826
704.782	28.40699
704.97	24.68564
705.157	24.94434
705.345	37.50011
705.532	45.45054
705.719	29.75442
705.907	37.93022
706.094	27.62669
706.282	39.26505
706.469	26.06051
706.656	28.97178
706.844	27.21791
707.031	34.06122
707.218	28.75822
707.406	38.91045
707.593	33.45685
707.78	32.22723
707.968	27.55372
708.155	22.15739
708.342	31.95333
708.529	31.76138
708.716	29.89987
708.904	40.45731
709.091	32.41046
709.278	21.16308
709.465	40.67803
709.652	40.93635
709.839	38.26493
710.026	30.08331
710.213	18.01702
710.4	31.15028
710.587	34.49091
710.774	36.12706
710.961	36.67904
711.148	30.07246
711.335	36.68185
711.522	28.56433
711.709	32.28318
711.896	44.36081
712.083	36.79842
712.27	22.65456
712.457	30.58561
712.644	20.22418
712.831	43.83608
713.017	30.39949
713.204	35.97688
713.391	26.46686
713.578	39.49848
713.765	40.07957
713.951	35.33152
714.138	53.72744
714.325	35.38572
714.512	31.01664
714.698	26.32752
714.885	43.53616
715.072	33.45812
715.258	32.67713
715.445	26.70309
715.631	40.69383
715.818	14.07795
716.005	26.58189
716.191	35.52235
716.378	29.39664
716.564	38.28194
716.751	25.50534
716.937	28.15597
717.124	40.31088
717.31	27.27109
717.497	44.51538
717.683	27.57514
717.869	52.40288
718.056	30.43204
718.242	37.14081
718.429	33.46193
718.615	25.05476
718.801	34.73671
718.988	41.92034
719.174	38.16689
719.36	33.62533
719.547	45.7465
719.733	38.40109
719.919	38.37377
720.105	40.92034
720.291	34.35383
720.478	37.74397
720.664	34.95358
720.85	31.46891
721.036	60.76913
721.222	48.47676
721.408	35.43352
721.595	53.6726
721.781	51.99727
721.967	46.84331
722.153	51.92904
722.339	42.60563
722.525	42.64566
722.711	28.17116
722.897	25.69022
723.083	34.33923
723.269	47.50128
723.455	60.84291
723.641	64.2789
723.827	39.66637
724.012	42.69965
724.198	35.05662
724.384	49.21234
724.57	43.22082
724.756	25.54925
724.942	22.70251
725.127	47.33506
725.313	53.56631
725.499	52.10785
725.685	56.31085
725.87	42.64307
726.056	31.63654
726.242	51.88483
726.428	25.44304
726.613	47.26074
726.799	35.89128
726.985	29.62177
727.17	26.14299
727.356	53.87326
727.541	30.95946
727.727	36.32405
727.913	45.41119
728.098	33.84126
728.284	45.19781
728.469	27.17178
728.655	31.23794
728.84	45.71682
729.026	45.83594
729.211	48.28329
729.397	42.36151
729.582	44.54448
729.767	38.25913
729.953	42.17431
730.138	49.02929
730.323	18.97216
730.509	28.26267
730.694	54.08964
730.879	43.19145
731.065	40.23346
731.25	61.56297
731.435	45.54606
731.621	25.78684
731.806	33.7825
731.991	41.74712
732.176	27.75906
732.361	50.76392
732.547	40.99331
732.732	24.16266
732.917	62.20018
733.102	28.44569
733.287	33.04049
733.472	38.89515
733.657	40.60064
733.842	26.2084
734.027	37.2588
734.212	37.30954
734.397	31.95477
734.582	40.39922
734.767	47.78697
734.952	54.49743
735.137	17.75291
735.322	55.29316
735.507	44.59635
735.692	43.72768
735.877	65.48541
736.062	59.39175
736.247	44.95855
736.431	41.10763
736.616	56.05666
736.801	45.27934
736.986	42.40166
737.171	34.44084
737.355	31.8852
737.54	54.82763
737.725	43.01674
737.909	74.67321
738.094	37.83322
738.279	51.61855
738.463	41.11557
738.648	49.83144
738.833	46.61573
739.017	62.2659
739.202	40.96659
739.386	42.52422
739.571	27.43667
739.756	49.30462
739.94	43.32415
740.125	53.28053
740.309	34.9671
740.494	51.92337
740.678	44.84242
740.863	49.6716
741.047	45.2324
741.231	57.62385
741.416	34.35446
741.6	62.05068
741.785	36.84295
741.969	55.38667
742.153	59.83059
742.338	21.60497
742.522	45.29323
742.706	55.19935
742.89	32.68372
743.075	48.26593
743.259	64.68594
743.443	57.01806
743.627	60.76956
743.812	73.97226
743.996	29.14081
744.18	44.52588
744.364	40.25003
744.548	79.67963
744.732	46.04248
744.916	57.6001
745.1	51.3912
745.285	45.17655
745.469	54.03482
745.653	69.36876
745.837	30.83583
746.021	80.21821
746.205	64.58037
746.389	49.81142
746.573	43.48212
746.757	68.95174
746.94	42.61466
747.124	62.81381
747.308	33.72377
747.492	65.49723
747.676	40.46983
747.86	77.13775
748.044	43.71099
748.227	28.19459
748.411	97.26904
748.595	50.90346
748.779	37.80426
748.963	53.97424
749.146	49.92713
749.33	39.51738
749.514	36.21513
749.697	63.54187
749.881	39.76314
750.065	36.45155
750.248	51.3006
750.432	80.52413
750.616	49.33904
750.799	32.60262
750.983	75.07676
751.166	87.97394
751.35	32.16838
751.533	61.38167
751.717	64.69443
751.9	71.36243
752.084	43.41795
752.267	35.82858
752.451	39.4747
752.634	48.69171
752.818	59.17255
753.001	59.623
753.184	61.38598
753.368	56.30553
753.551	11.09589
753.734	38.83475
753.918	77.93903
754.101	39.82908
754.284	59.22137
754.467	43.87367
754.651	40.63819
754.834	39.52901
755.017	63.91032
755.2	62.06617
755.384	33.60903
755.567	62.34164
755.75	66.58133
755.933	47.14735
756.116	55.02543
756.299	43.92319
756.482	39.14491
756.665	60.27256
756.848	51.31119
757.032	59.87061
757.215	31.27342
757.398	42.47113
757.581	41.0166
757.764	90.40059
757.947	50.32181
758.129	69.06946
758.312	17.08743
758.495	49.17618
758.678	46.94883
758.861	45.81239
759.044	78.82987
759.227	41.19375
759.41	38.21756
759.592	60.10685
759.775	49.92429
759.958	64.37679
760.141	34.45787
760.324	81.91754
760.506	71.93079
760.689	64.22086
760.872	86.36
761.054	59.51237
761.237	48.05207
761.42	57.88312
761.602	65.40686
761.785	55.39733
761.968	66.71693
762.15	79.07344
762.333	48.24821
762.515	56.13532
762.698	45.09195
762.88	58.08442
763.063	51.23034
763.245	56.93515
763.428	35.60901
763.61	38.81231
763.793	29.77684
763.975	46.72673
764.158	39.17749
764.34	38.10571
764.522	32.23706
764.705	40.03303
764.887	59.43284
765.069	26.70272
765.252	55.74988
765.434	56.29738
765.616	48.08656
765.799	41.32351
765.981	59.85182
766.163	38.89671
766.345	65.11036
766.528	42.63017
766.71	19.85473
766.892	53.83063
767.074	70.50053
767.256	47.83544
767.438	80.55928
767.62	56.86611
767.802	88.50605
767.985	64.58767
768.167	87.7205
768.349	44.34237
768.531	64.36882
768.713	60.14772
768.895	70.91116
769.077	61.25385
769.259	95.60308
769.441	146.73344
769.623	73.45245
769.804	84.98758
769.986	82.36632
770.168	103.382
770.35	118.32938
770.532	86.35625
770.714	93.56529
770.896	102.58603
771.077	45.54304
771.259	100.64958
771.441	84.01865
771.623	109.50672
771.804	133.95681
771.986	42.93446
772.168	66.43915
772.35	107.08758
772.531	139.76887
772.713	79.55496
772.894	112.93584
773.076	77.9148
773.258	70.15508
773.439	109.05535
773.621	122.35396
773.802	52.25219
773.984	63.90139
774.166	85.93016
774.347	118.8331
774.529	105.7147
774.71	36.57969
774.891	78.39752
775.073	69.64914
775.254	119.69874
775.436	67.57128
775.617	135.58842
775.799	71.0353
775.98	124.67038
776.161	128.99245
776.343	128.61891
776.524	82.38937
776.705	73.86496
776.886	42.07628
777.068	85.35286
777.249	159.04333
777.43	143.38563
777.611	54.43084
777.793	76.68553
777.974	128.7473
778.155	70.68595
778.336	59.30877
778.517	148.26384
778.698	63.27684
778.879	39.01128
779.061	24.56312
779.242	93.30856
779.423	98.15065
779.604	67.60297
779.785	75.40242
779.966	89.23721
780.147	106.63596
780.328	115.73332
780.509	161.99197
780.69	108.93943
780.871	66.08844
781.051	47.13946
781.232	87.36448
781.413	86.97996
781.594	76.88654
781.775	71.78255
781.956	65.67402
782.137	41.34717
782.317	65.64695
782.498	95.18006
782.679	81.7757
782.86	88.58306
783.04	65.47337
783.221	94.25143
783.402	145.93182
783.583	87.26837
783.763	111.42189
783.944	74.21659
784.124	51.52528
784.305	138.16886
784.486	101.90205
784.666	83.23948
784.847	44.43291
785.027	165.33429
785.208	66.81801
785.388	64.92535
785.569	70.19526
785.749	76.18388
785.93	70.03869
786.11	45.58375
786.291	94.12801
786.471	91.00513
786.652	107.43377
786.832	84.58267
787.012	94.31607
787.193	57.3456
787.373	86.60465
787.553	76.63526
787.734	89.7596
787.914	71.56253
788.094	97.96441
788.275	95.16152
788.455	72.81542
788.635	50.41684
788.815	87.88021
788.995	55.97034
789.176	50.13273
789.356	59.29797
789.536	75.91257
789.716	97.18161
789.896	62.37593
790.076	71.96562
790.256	84.15044
790.436	28.30654
790.616	62.94886
790.796	88.0281
790.976	72.83056
791.156	65.63687
791.336	104.33798
791.516	94.01591
791.696	74.75721
791.876	44.84008
792.056	84.24752
792.236	108.79497
792.416	104.32002
792.596	97.94465
792.776	94.31375
792.956	99.32049
793.135	128.58661
793.315	57.40461
793.495	118.74298
793.675	99.64444
793.854	111.42014
794.034	109.59065
794.214	53.40342
794.394	107.87973
794.573	120.6984
794.753	85.37574
794.933	61.46163
795.112	93.14068
795.292	107.0209
795.472	139.59446
795.651	53.24155
795.831	83.14753
796.01	75.08783
796.19	75.50691
796.369	76.65649
796.549	97.5392
796.728	77.02466
796.908	48.65643
797.087	53.82411
797.267	73.10473
797.446	54.07219
797.626	96.65368
797.805	97.4092
797.984	61.02803
798.164	98.22124
798.343	61.86798
798.522	89.34949
798.702	84.34922
798.881	51.33196
799.06	77.15567
799.239	36.19108
799.419	59.1797
799.598	126.8902
799.777	96.2039
799.956	118.62707
800.136	72.23076
800.315	61.70593
800.494	95.78253
800.673	113.66606
800.852	99.19059
801.031	109.47993
801.21	99.98608
801.389	70.35205
801.568	88.42186
801.747	141.43254
801.926	80.85392
802.105	134.62788
802.284	74.7
802.463	128.80888
802.642	87.77352
802.821	92.55924
803	120.68414
803.179	110.03941
803.358	117.38
803.537	66.87523
803.716	83.99036
803.895	67.5555
804.073	81.09349
804.252	68.55361
804.431	98.45006
804.61	80.34401
804.789	124.10054
804.967	73.03307
805.146	66.99593
805.325	148.15524
805.503	96.63479
805.682	51.62809
805.861	164.52623
806.039	125.1844
806.218	69.35496
806.397	94.43081
806.575	87.97853
806.754	96.72248
806.932	56.90206
807.111	138.19285
807.289	115.30007
807.468	89.85565
807.646	115.56903
807.825	100.61929
808.003	91.57791
808.182	110.64808
808.36	90.68569
808.539	64.3255
808.717	132.73291
808.895	64.50222
809.074	98.26983
809.252	85.93927
809.43	105.94518
809.609	123.47264
809.787	140.70998
809.965	84.253
810.144	93.23001
810.322	80.20201
810.5	101.96953
810.678	81.77417
810.856	165.88862
811.035	117.82426
811.213	114.69548
811.391	132.17376
811.569	96.15046
811.747	196.14897
811.925	126.33537
812.103	70.92433
812.281	83.81406
812.459	148.05754
812.637	145.99269
812.816	122.5016
812.994	152.41952
813.171	125.05187
813.349	111.13221
813.527	134.14893
813.705	138.92128
813.883	176.97323
814.061	125.79328
814.239	155.22844
814.417	169.71058
814.595	103.26615
814.773	108.89246
814.95	100.58734
815.128	110.49948
815.306	72.14346
815.484	94.65909
815.662	65.65754
815.839	64.35288
816.017	72.57448
816.195	141.63222
816.372	89.31063
816.55	122.36238
816.728	143.08185
816.905	83.60374
817.083	152.39583
817.261	94.67031
817.438	172.12787
817.616	166.00423
817.793	83.24266
817.971	117.95098
818.148	123.60073
818.326	142.88039
818.503	107.69556
818.681	140.1
818.858	77.98819
819.036	94.94156
819.213	102.12744
819.391	76.42648
819.568	71.54602
819.745	64.55472
819.923	116.6241
820.1	76.21636
820.277	66.5694
820.455	78.5337
820.632	80.4702
820.809	81.87151
820.986	53.96174
821.164	42.83827
821.341	37.27151
821.518	50.79795
821.695	36.04015
821.872	33.15251
822.05	27.94977
822.227	20.99927
822.404	22.19187
822.581	24.37197
822.758	20.56882
822.935	20.62973
823.112	23.78925
823.289	18.00197
823.466	23.32595
823.643	21.53194
823.82	26.5328
823.997	24.00439
824.174	29.8605
824.351	39.63669
824.528	38.84454
824.705	36.25204
824.882	40.82512
825.059	54.28497
825.236	36.46146
825.412	39.87002
825.589	51.10224
825.766	72.34949
825.943	47.7259
826.12	56.34763
826.296	36.08919
826.473	47.53667
826.65	47.68369
826.827	58.27355
827.003	38.36747
827.18	41.42918
827.357	47.83241
827.533	41.47943
827.71	22.2801
827.887	34.66083
828.063	40.31799
828.24	35.12203
828.416	47.56202
828.593	38.10521
828.769	55.45087
828.946	61.69467
829.122	65.44298
829.299	60.76868
829.475	37.8534
829.652	65.03768
829.828	112.47142
830.005	68.8186
830.181	97.66999
830.357	69.7666
830.534	108.50538
830.71	77.69897
830.886	103.69366
831.063	97.84626
831.239	130.0747
831.415	56.35763
831.592	131.90552
831.768	83.10644
831.944	68.46048
832.12	133.84472
832.296	123.03993
832.473	112.20231
832.649	79.28936
832.825	103.60793
833.001	60.6118
833.177	92.31496
833.353	82.17949
833.529	45.16222
833.705	63.37473
833.881	45.45289
834.058	43.44903
834.234	46.4844
834.41	45.9755
834.586	35.65027
834.761	45.43832
834.937	50.37661
835.113	51.32311
835.289	44.22364
835.465	56.39846
835.641	49.26195
835.817	53.91013
835.993	103.07314
836.169	54.11584
836.344	79.64487
836.52	90.33181
836.696	90.57675
836.872	66.28394
837.048	184.5025
837.223	73.83398
837.399	164.65449
837.575	120.42827
837.75	114.16688
837.926	156.9913
838.102	266.51016
838.277	193.94435
838.453	267.41627
838.628	240.68922
838.804	107.28945
838.98	237.28309
839.155	126.99894
839.331	165.3318
839.506	122.61261
839.682	107.54653
839.857	148.74116
840.033	171.47027
840.208	79.99185
840.384	44.7639
840.559	85.00397
840.734	130.46818
840.91	192.11105
841.085	114.02511
841.26	107.02911
841.436	97.93614
841.611	100.20061
841.786	143.24795
841.962	203.11573
842.137	116.87041
842.312	74.64742
842.487	107.35992
842.663	83.69287
842.838	115.22664
843.013	394.61097
843.188	195.82959
843.363	139.86461
843.538	349.1471
843.714	337.30326
843.889	344.85553
844.064	357.60442
844.239	295.04109
844.414	399.75353
844.589	237.36054
844.764	492.62578
844.939	432.13796
845.114	525.92376
845.289	552.11079
845.464	545.74102
845.639	420.99967
845.814	188.75106
845.989	256.62379
846.163	267.41212
846.338	319.52057
846.513	482.48729
846.688	295.27474
846.863	272.28033
847.038	243.57216
847.212	310.58613
847.387	313.47985
847.562	318.84039
847.737	415.08635
847.911	148.48363
848.086	169.53594
848.261	516.64927
848.435	256.02432
848.61	434.06214
848.785	190.78023
848.959	426.526
849.134	597.29631
849.308	729.88555
849.483	339.93994
849.658	533.35663
849.832	252.29257
850.007	203.09723
850.181	990.07644
850.356	260.46684
850.53	774.95706
850.705	197.03089
850.879	128.96215
851.053	266.53381
851.228	251.8641
851.402	395.47627
851.577	459.91849
851.751	694.96731
851.925	321.15652
852.099	132.24179
852.274	199.22605
852.448	282.94579
852.622	460.3853
852.797	289.79427
852.971	328.89103
853.145	316.91992
853.319	1041.10647
853.493	471.53363
853.668	231.52559
853.842	717.23496
854.016	519.72738
854.19	646.94667
854.364	324.18903
854.538	369.75149
854.712	552.59937
854.886	292.8991
855.06	244.36926
855.234	115.31619
855.408	623.66244
855.582	583.59625
855.756	528.99944
855.93	628.79839
856.104	349.2192
856.278	515.94546
856.452	302.65453
856.626	410.98161
856.8	944.31846
856.973	406.77563
857.147	390.83283
857.321	426.00325
857.495	548.74748
857.669	344.77437
857.842	274.87508
858.016	512.45621
858.19	200.82928
858.364	1293.43973
858.537	290.78172
858.711	329.07378
858.885	294.20469
859.058	266.46702
859.232	129.72519
859.405	166.56843
859.579	480.50143
859.753	400.56
859.926	267.90037
860.1	144.969
860.273	304.82804
860.447	589.61399
860.62	302.43359
860.794	722.43017
860.967	343.8558
861.141	638.37132
861.314	1038.52419
861.487	456.06936
861.661	608.31871
861.834	677.18642
862.008	489.99388
862.181	382.95259
862.354	356.234
862.528	408.81199
862.701	298.30399
862.874	177.24158
863.047	262.07147
863.221	294.4633
863.394	131.71186
863.567	575.04239
863.74	114.81964
863.913	478.52761
864.087	459.81202
864.26	549.64373
864.433	293.45314
864.606	899.53779
864.779	301.64976
864.952	137.94903
865.125	254.03511
865.298	308.34885
865.471	304.01796
865.644	808.18747
865.817	520.87893
865.99	520.34547
866.163	714.89548
866.336	280.69584
866.509	278.17838
866.682	267.83944
866.855	590.73325
867.028	172.72121
867.2	430.2517
867.373	108.47794
867.546	348.81827
867.719	814.73735
867.892	426.62131
868.064	248.39866
868.237	378.63038
868.41	394.65972
868.583	178.13484
868.755	193.40619
868.928	296.90262
869.101	904.01897
869.273	532.93097
869.446	395.05363
869.619	633.04061
869.791	319.39633
869.964	517.82571
870.136	513.61369
870.309	407.80819
870.481	332.83227
870.654	163.54654
870.826	419.5316
870.999	261.53175
871.171	415.74868
871.344	252.39988
871.516	312.86184
871.689	217.10246
871.861	420.46349
872.033	221.01811
872.206	269.54495
872.378	469.11431
872.55	290.06092
872.723	192.7198
872.895	315.76346
873.067	524.62842
873.24	510.88152
873.412	269.15567
873.584	296.01151
873.756	277.31538
873.928	323.7818
874.101	359.44048
874.273	401.60803
874.445	132.25642
874.617	173.91035
874.789	321.10366
874.961	277.38126
875.133	394.21994
875.305	325.06662
875.477	208.01797
875.649	150.11016
875.821	179.39259
875.993	597.65687
876.165	189.08846
876.337	342.8382
876.509	300.77603
876.681	326.20783
876.853	354.8608
877.025	372.84143
877.197	216.43207
877.369	190.34081
877.541	448.90213
877.712	102.103
877.884	189.23615
878.056	373.97286
878.228	193.10589
878.4	400.12791
878.571	198.45213
878.743	129.64262
878.915	319.34355
879.086	183.08187
879.258	219.81239
879.43	199.59538
879.601	180.06996
879.773	191.50083
879.945	47.36676
880.116	75.37879
880.288	45.04803
880.459	49.36807
880.631	36.38018
880.802	44.98318
880.974	41.60456
881.145	28.14527
881.317	37.63036
881.488	27.19089
881.66	30.62889
881.831	26.73229
882.002	36.36275
882.174	25.86405
882.345	34.28069
882.517	17.8482
882.688	40.86131
882.859	32.76461
883.03	51.83334
883.202	51.6016
883.373	43.15652
883.544	44.29781
883.715	72.83175
883.887	66.42886
884.058	55.02111
884.229	80.97401
884.4	83.51987
884.571	97.83462
884.742	83.37087
884.914	90.43675
885.085	139.86172
885.256	184.26888
885.427	159.79842
885.598	166.59199
885.769	179.42482
885.94	180.52409
886.111	122.57182
886.282	224.08669
886.453	170.18855
886.624	129.45455
886.795	231.44515
886.966	176.24321
887.136	245.71413
887.307	189.49279
887.478	385.08888
887.649	305.88572
887.82	325.32258
887.991	250.15583
888.161	329.66762
888.332	304.61861
888.503	142.65764
888.674	498.85778
888.844	592.31849
889.015	383.01825
889.186	165.70388
889.356	535.99564
889.527	150.07701
889.698	1063.1613
889.868	265.13618
890.039	349.55357
890.209	298.12322
890.38	399.49484
890.551	332.72201
890.721	465.30418
890.892	451.44223
891.062	283.15199
891.233	323.99895
891.403	322.0478
891.574	213.48701
891.744	299.60468
891.914	335.11104
892.085	305.01645
892.255	105.64294
892.425	580.43238
892.596	383.91806
892.766	400.33458
892.936	485.86567
893.107	385.63779
893.277	204.28229
893.447	155.9941
893.618	112.08105
893.788	260.12818
893.958	132.12003
894.128	133.0003
894.298	156.94526
894.468	187.28007
894.639	94.38375
894.809	58.68736
894.979	97.1021
895.149	112.98163
895.319	89.22917
895.489	120.83569
895.659	166.93932
895.829	101.5781
895.999	103.23823
896.169	81.55799
896.339	104.07515
896.509	216.67472
896.679	238.53064
896.849	241.77728
897.019	360.97885
897.189	267.87018
897.358	250.57428
897.528	360.68111
897.698	133.40609
897.868	307.35603
898.038	901.15063
898.208	724.81331
898.377	152.42949
898.547	798.41782
898.717	1015.79808
898.886	408.62005
899.056	628.69579
899.226	1538.0362
899.395	472.53022
899.565	857.60684
899.735	436.30667
899.904	1030.79277
900.074	993.9427
900.244	283.7363
900.413	1232.47687
900.583	262.11172
900.752	413.89107
900.922	2105.16582
901.091	71.3261
901.261	616.85567
901.43	647.85416
901.599	592.56241
901.769	7275.01867
901.938	732.23845
902.108	764.1422
902.277	1618.43523
902.446	218.70484
902.616	252.01052
902.785	332.56447
902.954	687.16501
903.124	492.89453
903.293	330.89502
903.462	172.32089
903.631	245.56083
903.801	190.1174
903.97	93.80136
904.139	147.64979
904.308	113.96975
904.477	93.48786
904.646	54.74536
904.816	65.86369
904.985	124.63013
905.154	186.52716
