Data from WindowProjectSample3_Transmission__58__00058.txt Node

Date: Sun May 04 11:32:52 EDT 2025
User: jessi
Spectrometer: SR400872
Trigger mode: 0
Integration Time (sec): 5.000050E-1
Scans to average: 20
Electric dark correction enabled: true
Nonlinearity correction enabled: true
Boxcar width: 0
XAxis mode: Wavelengths
Number of Pixels in Spectrum: 3648
>>>>>Begin Spectral Data<<<<<
184.909	-1274.07248
185.132	-1494.0641
185.355	-1149.9646
185.578	-1074.93333
185.801	1349.79313
186.024	-937.99757
186.247	-5119.78059
186.47	-1563.80545
186.693	-266.55725
186.916	-443.16684
187.139	-789.83643
187.362	-2836.59761
187.585	-715.00633
187.808	-5264.21861
188.031	9253.00178
188.254	-2377.79043
188.476	-3692.1005
188.699	-1037.0698
188.922	646.01197
189.145	-1201.04867
189.368	3322.49983
189.591	-2595.07326
189.813	-1486.6697
190.036	-892.90103
190.259	-1145.88209
190.482	-1620.51176
190.705	-2360.10937
190.927	-701.14075
191.15	-1496.7056
191.373	-1146.39618
191.595	-1283.07391
191.818	-1342.1848
192.041	-644.02306
192.263	-1138.74515
192.486	-571.87859
192.709	-1500.27958
192.931	-3330.80727
193.154	-1151.32184
193.377	-1607.29803
193.599	-3340.06539
193.822	-3413.31108
194.044	-3342.51803
194.267	-1832.35786
194.489	-67.21164
194.712	-965.64579
194.934	-1701.83377
195.157	-773.68742
195.379	-1364.31208
195.602	-839.21833
195.824	-1329.66298
196.047	-2059.93927
196.269	-1101.45191
196.492	-1405.27398
196.714	-1238.98203
196.936	-1269.22379
197.159	-889.00462
197.381	-685.43473
197.604	-475.72706
197.826	-2140.43622
198.048	-1146.33576
198.271	-1573.48362
198.493	-1170.44487
198.715	-937.87723
198.938	-3143.03358
199.16	-4037.46903
199.382	-1233.52198
199.604	-1169.01651
199.827	-1884.94998
200.049	-1647.96007
200.271	-1201.78063
200.493	-1419.15888
200.715	-1043.41019
200.938	-836.18054
201.16	-942.91695
201.382	-1019.66791
201.604	-1241.08682
201.826	-749.41797
202.048	-838.68264
202.27	-1489.08993
202.492	-1375.2491
202.715	-1851.13127
202.937	-2049.70562
203.159	-1366.36914
203.381	-1580.83334
203.603	-999.59842
203.825	-5201.05955
204.047	-1623.36682
204.269	-1337.17799
204.491	-1181.19796
204.713	-1500.52955
204.935	-1381.39897
205.156	-2865.04789
205.378	-2877.28986
205.6	-1531.68929
205.822	-1118.05003
206.044	1357.93252
206.266	-1356.69819
206.488	-926.01054
206.71	-1705.20988
206.932	-1717.28386
207.153	-1113.70103
207.375	-1383.87783
207.597	-1096.02921
207.819	-1106.38826
208.041	-1222.18309
208.262	-1672.32844
208.484	-893.30125
208.706	-2184.24482
208.927	-815.64794
209.149	-1367.02416
209.371	-1191.47431
209.593	-1460.35184
209.814	-593.76772
210.036	-903.69852
210.258	-785.41522
210.479	-1004.2811
210.701	-1750.55615
210.922	-1197.62361
211.144	-1000.64882
211.366	-1079.19948
211.587	1407.64914
211.809	-1168.17153
212.03	-6300.18572
212.252	870.20001
212.473	-984.82069
212.695	-18264.11947
212.916	-3404.72517
213.138	-1519.27058
213.359	-961.13806
213.581	-1401.91083
213.802	-863.83094
214.024	-1343.89882
214.245	-10630.37761
214.466	-959.1723
214.688	-1438.76636
214.909	-1031.20019
215.131	-2676.96845
215.352	-3752.28306
215.573	-1075.25548
215.795	-1842.17265
216.016	-1475.83122
216.237	-2799.97075
216.459	-1391.78049
216.68	-1085.86402
216.901	-1493.87104
217.122	11619.66249
217.344	-951.03513
217.565	-1309.19452
217.786	-1281.66973
218.007	-1014.73152
218.228	-1270.01595
218.45	-1139.68269
218.671	-1094.15005
218.892	-1004.08451
219.113	-1579.2321
219.334	-117.01886
219.555	-1607.93675
219.776	-1489.13366
219.997	-1231.61689
220.219	17033.80875
220.44	-1187.42029
220.661	-3534.33399
220.882	-932.55523
221.103	1477.92101
221.324	-2771.3982
221.545	-1125.3684
221.766	-1282.60023
221.987	-1830.49898
222.208	-2007.14994
222.429	-754.3286
222.65	-831.56796
222.87	-1581.44396
223.091	-3474.28694
223.312	3274.94157
223.533	-1191.68603
223.754	-1551.52055
223.975	-2264.38495
224.196	8428.82001
224.417	-7678.07839
224.637	3842.49636
224.858	160.79931
225.079	-1872.6026
225.3	26293.82959
225.521	-1045.72075
225.741	-5290.77236
225.962	7120.18307
226.183	378.9616
226.404	-3590.81425
226.624	2497.32261
226.845	-82281.69299
227.066	-648857.02617
227.286	888.67829
227.507	333.71122
227.728	267.16809
227.948	687.7307
228.169	161.56015
228.389	169.48905
228.61	99.95394
228.831	131.50652
229.051	13.2033
229.272	69.39027
229.492	103.93396
229.713	29.66432
229.933	71.48947
230.154	59.89861
230.374	100.43175
230.595	71.19125
230.815	46.00164
231.036	73.24259
231.256	-8.98588
231.477	130.29339
231.697	75.75303
231.917	82.13694
232.138	119.27429
232.358	243.94832
232.579	193.62016
232.799	30.89466
233.019	197.94167
233.24	233.56164
233.46	85.08289
233.68	116.02501
233.901	74.42143
234.121	52.30693
234.341	24.15339
234.561	-9.24731
234.782	41.29515
235.002	133.62796
235.222	-1.18368
235.442	119.05942
235.662	56.82865
235.883	113.3262
236.103	97.12481
236.323	62.91821
236.543	51.31446
236.763	72.0495
236.983	84.45184
237.203	81.58369
237.423	112.51905
237.643	168.89227
237.864	147.46458
238.084	36.29502
238.304	52.14994
238.524	84.51762
238.744	77.06832
238.964	133.02212
239.184	115.87705
239.404	124.60724
239.624	66.53243
239.843	106.51044
240.063	64.40439
240.283	41.55801
240.503	45.69559
240.723	45.14808
240.943	27.88815
241.163	33.53331
241.383	24.32357
241.603	13.38507
241.822	15.09064
242.042	11.03017
242.262	14.06868
242.482	14.44615
242.702	16.94042
242.921	5.40852
243.141	11.41553
243.361	10.63895
243.581	15.00164
243.8	12.87426
244.02	8.27989
244.24	14.55838
244.459	14.6563
244.679	28.96419
244.899	18.82227
245.118	22.29855
245.338	20.76832
245.558	23.05017
245.777	14.10922
245.997	17.16274
246.216	17.3613
246.436	9.88838
246.655	7.2607
246.875	5.8032
247.094	10.43737
247.314	3.96357
247.533	5.94197
247.753	7.02246
247.972	5.60299
248.192	2.47046
248.411	3.39596
248.631	5.88001
248.85	6.95157
249.07	6.89367
249.289	9.77273
249.508	6.97069
249.728	11.57369
249.947	11.54724
250.166	14.18412
250.386	7.27831
250.605	11.40245
250.824	18.70051
251.044	12.17576
251.263	39.30237
251.482	23.64508
251.701	20.10721
251.921	0.29874
252.14	6.2662
252.359	7.56469
252.578	16.4856
252.798	6.43138
253.017	14.02014
253.236	7.51713
253.455	10.25074
253.674	18.29299
253.893	8.26948
254.112	13.56976
254.331	19.15686
254.551	15.79625
254.77	8.2175
254.989	22.59543
255.208	17.75112
255.427	26.0329
255.646	22.11495
255.865	34.12461
256.084	15.19784
256.303	18.43681
256.522	23.87679
256.741	5.47584
256.96	5.63674
257.179	14.00638
257.397	18.79877
257.616	10.68054
257.835	10.04161
258.054	24.87001
258.273	17.52551
258.492	17.1169
258.711	11.13054
258.93	5.0157
259.148	7.75479
259.367	7.22505
259.586	9.35005
259.805	4.20959
260.023	7.8307
260.242	5.76997
260.461	4.47734
260.68	2.46344
260.898	6.68958
261.117	2.32841
261.336	1.68044
261.554	5.58217
261.773	5.58473
261.992	1.43653
262.21	5.38048
262.429	6.45997
262.648	11.16964
262.866	13.13472
263.085	9.02427
263.303	7.9815
263.522	13.74039
263.74	13.56991
263.959	24.08968
264.178	12.89869
264.396	10.52083
264.615	8.06513
264.833	17.74113
265.051	15.2083
265.27	18.18585
265.488	17.63904
265.707	10.84029
265.925	17.26251
266.144	8.27775
266.362	9.7021
266.58	9.49277
266.799	8.12254
267.017	9.61499
267.235	8.49959
267.454	6.2357
267.672	3.13251
267.89	6.87182
268.109	7.65924
268.327	7.18824
268.545	1.44594
268.763	7.16212
268.982	3.13917
269.2	7.54196
269.418	5.12634
269.636	4.14766
269.854	7.3092
270.073	5.45784
270.291	3.62101
270.509	3.14509
270.727	7.28858
270.945	11.83204
271.163	11.55136
271.381	3.008
271.599	5.46726
271.817	8.32659
272.036	3.10333
272.254	5.79492
272.472	4.22264
272.69	4.14411
272.908	4.28857
273.126	6.48576
273.344	8.54139
273.562	3.02182
273.779	4.54735
273.997	6.89545
274.215	6.54023
274.433	4.63948
274.651	7.1492
274.869	7.38282
275.087	4.33069
275.305	6.65697
275.523	4.65557
275.74	4.87975
275.958	8.75356
276.176	13.12347
276.394	4.19639
276.612	5.51631
276.829	5.32074
277.047	4.84011
277.265	4.80458
277.483	5.90646
277.7	6.65565
277.918	5.35917
278.136	10.20365
278.353	4.96098
278.571	3.07354
278.789	7.76437
279.006	1.8482
279.224	4.6328
279.442	8.15733
279.659	6.14755
279.877	3.59863
280.094	8.47612
280.312	1.64346
280.529	6.05252
280.747	1.74881
280.964	4.87223
281.182	9.01268
281.399	4.86843
281.617	5.96658
281.834	4.22863
282.052	3.24022
282.269	5.40784
282.487	4.35602
282.704	3.8661
282.921	3.53969
283.139	5.47285
283.356	6.51331
283.574	6.43802
283.791	3.10115
284.008	8.47403
284.226	5.1567
284.443	5.79438
284.66	6.96173
284.877	6.10889
285.095	3.69549
285.312	2.79378
285.529	1.75217
285.746	1.474
285.964	3.42999
286.181	2.34734
286.398	3.25699
286.615	4.56052
286.832	4.27986
287.05	1.14337
287.267	2.93652
287.484	3.09717
287.701	4.46346
287.918	4.12372
288.135	4.43092
288.352	1.81419
288.569	2.54095
288.786	4.32057
289.003	3.22036
289.22	5.18311
289.437	2.79025
289.654	4.78058
289.871	4.80413
290.088	4.75313
290.305	3.93322
290.522	3.38254
290.739	3.38024
290.956	5.05796
291.173	5.87845
291.39	5.61101
291.607	3.76917
291.824	2.92748
292.04	2.60237
292.257	5.02836
292.474	5.26879
292.691	3.57669
292.908	1.80896
293.125	2.90575
293.341	2.02641
293.558	8.31591
293.775	3.78044
293.992	3.98734
294.208	1.56435
294.425	2.79814
294.642	3.33482
294.858	4.84058
295.075	1.53352
295.292	3.63613
295.508	4.22539
295.725	5.93484
295.942	3.36628
296.158	2.5652
296.375	3.95695
296.591	3.18072
296.808	3.12292
297.024	3.70547
297.241	4.19217
297.458	4.27959
297.674	1.01965
297.891	3.51198
298.107	3.10531
298.323	2.32299
298.54	4.93583
298.756	2.82936
298.973	1.6461
299.189	5.27826
299.406	2.87497
299.622	5.26116
299.838	5.48146
300.055	4.77299
300.271	1.89006
300.487	2.48669
300.704	2.86534
300.92	1.97234
301.136	6.9883
301.353	5.50216
301.569	4.03883
301.785	4.25749
302.001	4.98123
302.218	4.62863
302.434	4.94579
302.65	2.10543
302.866	3.1147
303.083	7.45703
303.299	7.29377
303.515	4.22736
303.731	4.58214
303.947	2.21814
304.163	3.30541
304.379	4.29397
304.595	4.75516
304.812	3.24952
305.028	2.91756
305.244	3.57282
305.46	5.03048
305.676	5.28609
305.892	6.10143
306.108	4.96638
306.324	3.66735
306.54	6.85763
306.756	5.00735
306.972	4.66623
307.187	3.88913
307.403	6.52564
307.619	3.29109
307.835	5.8638
308.051	5.95567
308.267	2.78429
308.483	5.89285
308.699	4.91044
308.914	4.19703
309.13	4.2752
309.346	1.83075
309.562	2.5288
309.778	1.96123
309.993	4.84544
310.209	4.14505
310.425	2.28189
310.641	3.72067
310.856	2.7151
311.072	2.51183
311.288	3.85473
311.503	4.19303
311.719	1.55879
311.935	1.61092
312.15	4.40889
312.366	4.17074
312.581	4.66214
312.797	3.7517
313.013	5.03173
313.228	3.17662
313.444	3.92204
313.659	2.8706
313.875	4.75984
314.09	3.93826
314.306	6.18722
314.521	5.25495
314.737	5.12754
314.952	4.43556
315.168	4.38106
315.383	4.64778
315.599	3.92121
315.814	3.77782
316.029	5.58038
316.245	2.43416
316.46	1.53256
316.675	6.06992
316.891	7.00946
317.106	8.54053
317.321	5.03935
317.537	4.93039
317.752	5.41342
317.967	5.43084
318.183	3.16396
318.398	3.6841
318.613	5.82405
318.828	6.33833
319.043	5.52952
319.259	3.83062
319.474	4.47629
319.689	6.02617
319.904	1.70997
320.119	5.66307
320.334	4.81761
320.549	4.03697
320.765	6.22465
320.98	4.87198
321.195	5.59733
321.41	4.2751
321.625	5.74415
321.84	7.00717
322.055	6.96512
322.27	3.37213
322.485	2.67858
322.7	4.88694
322.915	5.77264
323.13	3.26165
323.345	6.68444
323.56	5.21624
323.775	5.508
323.989	5.30906
324.204	4.62356
324.419	5.66272
324.634	2.39009
324.849	4.35763
325.064	7.41778
325.279	5.9638
325.493	5.14643
325.708	5.78011
325.923	3.30784
326.138	3.55652
326.352	6.84311
326.567	5.45104
326.782	3.80853
326.997	3.50472
327.211	5.41306
327.426	5.02469
327.641	4.10199
327.855	2.12644
328.07	5.47049
328.285	7.0727
328.499	3.96714
328.714	4.91254
328.928	5.5347
329.143	4.50749
329.358	6.3467
329.572	5.94909
329.787	6.69335
330.001	8.73886
330.216	2.64464
330.43	7.41432
330.645	6.89754
330.859	6.07317
331.074	3.35442
331.288	4.6486
331.503	7.16345
331.717	2.98339
331.931	4.49119
332.146	5.03566
332.36	7.818
332.575	5.44413
332.789	4.97144
333.003	4.57231
333.218	5.54975
333.432	3.72067
333.646	5.9526
333.86	7.20662
334.075	7.54458
334.289	3.90775
334.503	3.01807
334.717	5.67911
334.932	5.33507
335.146	5.97765
335.36	3.90462
335.574	5.46361
335.788	5.18119
336.003	6.1227
336.217	6.07481
336.431	5.37291
336.645	4.24268
336.859	3.2941
337.073	4.84335
337.287	5.09101
337.501	3.42923
337.715	5.49599
337.929	5.7858
338.143	3.26165
338.357	4.69951
338.571	3.61672
338.785	5.86251
338.999	3.64179
339.213	3.83993
339.427	2.92878
339.641	6.5142
339.855	4.20132
340.069	3.65043
340.283	6.14295
340.497	6.99476
340.711	5.48901
340.924	4.64128
341.138	3.20774
341.352	2.98592
341.566	4.87831
341.78	2.30961
341.993	3.91046
342.207	3.55389
342.421	5.19629
342.635	4.50944
342.848	3.95969
343.062	1.52215
343.276	3.79496
343.49	7.76271
343.703	3.82283
343.917	6.08068
344.131	6.20311
344.344	3.76512
344.558	4.08741
344.771	3.24026
344.985	6.29564
345.199	7.18026
345.412	5.31861
345.626	5.28841
345.839	2.26897
346.053	3.35212
346.266	3.37558
346.48	5.64491
346.693	5.03253
346.907	5.36889
347.12	3.28385
347.334	5.01494
347.547	5.25671
347.76	4.47032
347.974	6.51179
348.187	5.31203
348.401	4.52806
348.614	3.83913
348.827	4.47305
349.041	5.51595
349.254	2.45176
349.467	4.59264
349.681	3.40472
349.894	4.11793
350.107	6.33086
350.32	7.56843
350.534	2.91839
350.747	4.37586
350.96	3.62128
351.173	3.70725
351.386	4.06637
351.6	4.0508
351.813	3.96022
352.026	4.81243
352.239	3.15692
352.452	4.34746
352.665	6.34284
352.878	4.42398
353.092	7.74848
353.305	5.75415
353.518	4.86878
353.731	3.70613
353.944	6.13574
354.157	4.12099
354.37	3.81243
354.583	3.39893
354.796	2.88765
355.009	6.55525
355.222	4.88189
355.435	5.06541
355.647	6.35613
355.86	3.59651
356.073	4.70918
356.286	4.33398
356.499	5.83618
356.712	5.76997
356.925	5.25771
357.138	6.19109
357.35	3.45858
357.563	4.22423
357.776	4.94578
357.989	4.61374
358.201	5.46473
358.414	5.22946
358.627	6.17982
358.84	4.4767
359.052	3.29829
359.265	3.56796
359.478	5.96109
359.69	1.67094
359.903	6.06226
360.116	6.24166
360.328	2.84548
360.541	5.89019
360.753	4.06839
360.966	4.43417
361.179	4.58527
361.391	4.3025
361.604	3.75968
361.816	4.3694
362.029	4.16648
362.241	3.75754
362.454	4.37966
362.666	3.71311
362.879	5.15369
363.091	4.44935
363.304	3.96964
363.516	4.58995
363.728	3.44816
363.941	5.41201
364.153	4.60301
364.366	2.32376
364.578	3.53843
364.79	5.46405
365.003	5.04764
365.215	4.27539
365.427	5.76573
365.639	6.30855
365.852	5.26515
366.064	6.86067
366.276	4.45912
366.488	5.51951
366.701	4.75924
366.913	4.7741
367.125	4.97465
367.337	4.23132
367.549	4.34123
367.762	4.94701
367.974	4.9218
368.186	4.47315
368.398	6.35539
368.61	5.80312
368.822	6.01084
369.034	5.04272
369.246	6.07293
369.458	8.22486
369.67	4.16678
369.882	7.63919
370.094	2.76049
370.306	7.16902
370.518	4.79233
370.73	4.81517
370.942	4.46207
371.154	5.218
371.366	4.8912
371.578	5.98631
371.79	4.75479
372.002	6.67363
372.214	7.75624
372.425	5.5613
372.637	7.26478
372.849	5.96366
373.061	2.75199
373.273	6.2398
373.484	6.10094
373.696	6.51645
373.908	2.76969
374.12	6.84706
374.331	6.22912
374.543	4.58354
374.755	4.31071
374.967	5.81774
375.178	6.83841
375.39	5.18248
375.602	5.77118
375.813	3.97286
376.025	4.41271
376.236	5.79026
376.448	6.04112
376.66	5.53136
376.871	5.37323
377.083	6.5976
377.294	7.4798
377.506	5.35635
377.717	7.53758
377.929	6.137
378.14	5.20114
378.352	6.45361
378.563	6.52909
378.775	7.35599
378.986	4.85397
379.197	6.30749
379.409	5.24502
379.62	6.81979
379.832	6.11594
380.043	5.87543
380.254	6.39488
380.466	4.58722
380.677	9.26153
380.888	8.61314
381.1	9.35414
381.311	8.65095
381.522	6.47544
381.733	9.57463
381.945	5.98594
382.156	6.10226
382.367	5.72459
382.578	9.58318
382.789	9.77774
383.001	5.64325
383.212	8.40215
383.423	8.58258
383.634	7.75704
383.845	7.22169
384.056	6.07318
384.267	6.54142
384.478	6.52517
384.69	5.32263
384.901	7.20528
385.112	6.93238
385.323	9.0183
385.534	7.09096
385.745	7.00239
385.956	7.15756
386.167	5.59606
386.378	7.38734
386.588	5.75872
386.799	5.86785
387.01	4.99727
387.221	7.7869
387.432	6.88813
387.643	9.02732
387.854	6.41822
388.065	6.54807
388.275	6.7472
388.486	6.23504
388.697	6.83481
388.908	6.40819
389.119	8.39914
389.329	8.9677
389.54	7.13651
389.751	7.62558
389.962	8.75968
390.172	7.41843
390.383	6.79445
390.594	6.31051
390.804	6.48011
391.015	6.73667
391.226	7.50092
391.436	8.04328
391.647	7.6526
391.858	8.07366
392.068	5.46708
392.279	6.1674
392.489	7.7507
392.7	8.48065
392.91	6.33987
393.121	6.49484
393.331	7.90176
393.542	8.76825
393.752	8.09625
393.963	7.87737
394.173	7.87662
394.384	8.37894
394.594	7.6142
394.804	6.20113
395.015	7.71465
395.225	8.40266
395.436	6.38601
395.646	8.17598
395.856	7.07462
396.067	6.06275
396.277	8.62756
396.487	8.29013
396.697	7.849
396.908	8.7744
397.118	8.59205
397.328	7.9197
397.538	8.8598
397.749	7.10411
397.959	8.9908
398.169	8.32077
398.379	6.35128
398.589	8.66607
398.8	8.13007
399.01	8.22744
399.22	7.47314
399.43	10.47222
399.64	7.81289
399.85	8.50503
400.06	8.05603
400.27	7.14038
400.48	7.86433
400.69	9.38043
400.9	7.35988
401.11	6.93744
401.32	8.86639
401.53	7.31469
401.74	9.7863
401.95	8.62872
402.16	7.47809
402.37	8.81333
402.58	7.72275
402.79	8.66326
403	9.19973
403.209	7.56391
403.419	9.29558
403.629	7.73506
403.839	9.33071
404.049	9.25652
404.258	7.78908
404.468	7.363
404.678	9.01486
404.888	9.43556
405.097	7.80183
405.307	8.19401
405.517	8.97714
405.727	8.8161
405.936	7.82599
406.146	8.63855
406.356	9.90409
406.565	8.34119
406.775	7.86478
406.984	7.9046
407.194	10.27058
407.404	8.33124
407.613	8.85178
407.823	9.19223
408.032	9.95094
408.242	9.46759
408.451	7.79956
408.661	8.38972
408.87	10.59942
409.08	7.79379
409.289	8.91578
409.499	9.03736
409.708	8.65893
409.918	6.43108
410.127	8.79914
410.336	10.34897
410.546	9.29932
410.755	8.26549
410.964	8.09522
411.174	7.6318
411.383	9.27793
411.592	8.93402
411.802	7.54497
412.011	9.67713
412.22	8.63016
412.429	10.37775
412.639	10.19594
412.848	9.92995
413.057	10.63854
413.266	10.00098
413.475	8.82614
413.685	9.65369
413.894	9.87512
414.103	10.12971
414.312	9.57683
414.521	8.84109
414.73	9.2648
414.939	11.10661
415.148	9.67123
415.357	9.46581
415.566	8.78398
415.776	8.67858
415.985	8.80235
416.194	10.04592
416.403	11.1026
416.611	7.86792
416.82	8.7776
417.029	9.49065
417.238	8.68835
417.447	8.60467
417.656	8.98384
417.865	8.81179
418.074	9.11185
418.283	9.40322
418.492	10.33654
418.7	10.07735
418.909	11.037
419.118	9.56597
419.327	9.91462
419.536	9.69963
419.744	9.15353
419.953	10.46342
420.162	10.41695
420.371	9.04142
420.579	8.99609
420.788	10.0678
420.997	10.11971
421.205	9.94826
421.414	9.64382
421.623	9.63772
421.831	9.20114
422.04	10.02979
422.249	9.14712
422.457	9.814
422.666	9.31549
422.874	10.2985
423.083	10.41269
423.291	10.29269
423.5	9.92793
423.708	10.03902
423.917	10.55808
424.125	9.73661
424.334	9.54317
424.542	11.43787
424.751	10.58587
424.959	10.37474
425.167	10.82706
425.376	10.67531
425.584	10.09302
425.793	10.36261
426.001	9.30925
426.209	10.62126
426.418	9.42428
426.626	9.64033
426.834	9.40776
427.042	10.05361
427.251	9.34741
427.459	10.75053
427.667	10.20897
427.875	8.89947
428.084	9.45093
428.292	11.2408
428.5	10.60984
428.708	8.87845
428.916	9.17049
429.124	10.03766
429.333	9.85829
429.541	9.97122
429.749	10.08807
429.957	10.05485
430.165	12.21228
430.373	8.85492
430.581	10.26139
430.789	11.40659
430.997	9.89236
431.205	9.57868
431.413	10.31168
431.621	9.81639
431.829	10.72921
432.037	9.93903
432.245	10.37469
432.453	10.62453
432.661	10.03615
432.869	12.06255
433.076	9.55603
433.284	10.15347
433.492	10.8936
433.7	11.46558
433.908	9.89381
434.116	10.33227
434.323	10.46218
434.531	10.15817
434.739	10.80947
434.947	10.92868
435.154	11.13765
435.362	10.36783
435.57	10.18097
435.778	9.87761
435.985	10.78187
436.193	9.89829
436.401	11.66397
436.608	10.54518
436.816	9.97761
437.023	11.97803
437.231	12.19594
437.439	10.74146
437.646	11.16327
437.854	11.03662
438.061	11.18249
438.269	10.50667
438.476	11.29361
438.684	10.93269
438.891	10.4177
439.099	10.11535
439.306	9.47999
439.514	9.78595
439.721	11.06902
439.929	10.03059
440.136	11.03787
440.343	10.87781
440.551	10.40342
440.758	12.01606
440.965	11.1511
441.173	10.70798
441.38	10.14868
441.587	10.92956
441.795	10.2655
442.002	10.84009
442.209	10.92396
442.416	11.18315
442.624	11.13322
442.831	11.0784
443.038	10.33408
443.245	9.95466
443.452	10.44149
443.66	11.51776
443.867	10.29385
444.074	10.21043
444.281	10.26868
444.488	10.59289
444.695	10.76972
444.902	10.43656
445.109	11.34699
445.316	10.57364
445.523	10.42537
445.73	10.02681
445.937	10.80529
446.144	11.14449
446.351	11.0722
446.558	10.06076
446.765	11.43218
446.972	11.51787
447.179	10.63304
447.386	11.73653
447.593	10.47069
447.8	11.60006
448.007	10.50086
448.214	10.81442
448.42	10.39311
448.627	11.86455
448.834	10.73194
449.041	10.55533
449.248	10.55229
449.454	11.52404
449.661	12.57554
449.868	10.52198
450.075	10.26275
450.281	8.99304
450.488	9.93354
450.695	10.06468
450.901	10.15453
451.108	10.59496
451.315	12.00362
451.521	10.81404
451.728	11.67706
451.935	10.30072
452.141	10.89966
452.348	10.79395
452.554	10.57478
452.761	10.58519
452.967	12.32406
453.174	10.99576
453.38	11.15997
453.587	9.72268
453.793	10.87883
454	11.50106
454.206	12.72263
454.413	11.71444
454.619	11.24783
454.825	10.23874
455.032	11.53238
455.238	11.8234
455.445	9.78592
455.651	11.05113
455.857	9.29796
456.064	10.56658
456.27	10.65741
456.476	10.60368
456.682	9.55447
456.889	11.27136
457.095	11.41806
457.301	13.1095
457.507	11.03704
457.714	11.11173
457.92	10.9696
458.126	10.32185
458.332	10.96934
458.538	10.58452
458.744	10.80662
458.951	10.80538
459.157	12.43942
459.363	11.1308
459.569	10.74208
459.775	11.61513
459.981	10.44088
460.187	10.84854
460.393	11.47755
460.599	11.93192
460.805	11.08507
461.011	10.97604
461.217	11.88763
461.423	11.98255
461.629	10.8413
461.835	11.63517
462.041	10.80357
462.247	12.63948
462.453	10.91126
462.658	10.91767
462.864	11.76483
463.07	11.33925
463.276	11.32171
463.482	11.44995
463.688	12.60047
463.893	10.69155
464.099	11.00315
464.305	12.75904
464.511	10.8233
464.716	11.05017
464.922	11.82719
465.128	10.45527
465.333	12.70338
465.539	11.78259
465.745	11.16239
465.95	11.37364
466.156	14.01011
466.362	12.41837
466.567	11.24903
466.773	10.82289
466.978	12.71661
467.184	10.43677
467.389	9.49735
467.595	11.73038
467.8	10.56882
468.006	12.49962
468.211	12.40121
468.417	10.13856
468.622	11.75154
468.828	12.02192
469.033	11.48868
469.239	14.03782
469.444	10.78284
469.649	12.08689
469.855	11.27985
470.06	11.54664
470.266	10.4799
470.471	11.95298
470.676	11.67416
470.881	9.75376
471.087	12.96764
471.292	12.9982
471.497	10.1854
471.703	11.1819
471.908	10.75119
472.113	11.56377
472.318	12.11797
472.523	10.33696
472.729	11.7727
472.934	11.79072
473.139	11.03537
473.344	11.85548
473.549	12.59308
473.754	10.86188
473.959	13.17333
474.164	10.73665
474.369	11.21573
474.575	12.23263
474.78	11.4771
474.985	10.90097
475.19	9.91912
475.395	10.8005
475.6	11.35099
475.804	12.82962
476.009	11.50509
476.214	11.38721
476.419	11.01974
476.624	9.94273
476.829	10.72765
477.034	11.94792
477.239	10.7075
477.444	11.59888
477.648	11.93735
477.853	12.0452
478.058	11.22561
478.263	10.85818
478.468	10.39351
478.672	10.69758
478.877	12.63655
479.082	13.17544
479.287	11.90253
479.491	11.50798
479.696	10.48666
479.901	12.40163
480.105	12.08111
480.31	10.88225
480.515	11.50379
480.719	13.64147
480.924	10.98865
481.128	10.57242
481.333	11.74612
481.538	11.78462
481.742	11.23709
481.947	11.8896
482.151	11.94614
482.356	11.49367
482.56	12.62132
482.765	13.90158
482.969	16.66489
483.174	18.83891
483.378	21.62141
483.582	22.11449
483.787	23.5582
483.991	23.85608
484.196	23.78041
484.4	23.27036
484.604	23.1687
484.809	21.02078
485.013	19.79152
485.217	17.67929
485.422	15.82338
485.626	14.51771
485.83	13.76442
486.034	13.41286
486.239	13.92144
486.443	14.297
486.647	14.62065
486.851	15.80848
487.055	17.01854
487.26	16.80369
487.464	17.66914
487.668	17.15253
487.872	17.31963
488.076	17.6362
488.28	16.80357
488.484	15.65623
488.688	15.22177
488.892	14.3765
489.096	13.46437
489.3	12.20438
489.504	11.64333
489.708	12.02881
489.912	12.11044
490.116	12.11266
490.32	11.37295
490.524	11.99951
490.728	12.49173
490.932	12.98704
491.136	13.74777
491.34	14.97108
491.544	15.23732
491.748	14.80596
491.951	14.81248
492.155	14.36392
492.359	13.93624
492.563	12.4385
492.767	11.58774
492.97	11.22959
493.174	11.06444
493.378	11.50555
493.582	11.14935
493.785	11.85357
493.989	11.99641
494.193	11.91294
494.396	11.56455
494.6	12.4124
494.804	11.76585
495.007	11.31645
495.211	11.3014
495.414	11.57262
495.618	11.98258
495.822	12.80123
496.025	11.93239
496.229	12.45884
496.432	11.16791
496.636	11.6944
496.839	11.63174
497.043	12.92217
497.246	11.95779
497.45	11.35361
497.653	11.49219
497.856	11.91808
498.06	10.89326
498.263	11.45105
498.467	11.29089
498.67	12.51096
498.873	12.15123
499.077	11.38357
499.28	11.50274
499.483	11.94732
499.686	12.44224
499.89	11.86743
500.093	12.37474
500.296	11.14043
500.499	13.09721
500.703	11.79772
500.906	11.81796
501.109	13.49828
501.312	11.991
501.515	11.66526
501.719	12.19001
501.922	12.94512
502.125	12.06
502.328	11.77171
502.531	10.90177
502.734	11.90241
502.937	10.3937
503.14	11.97313
503.343	10.99228
503.546	11.50928
503.749	11.24739
503.952	12.44442
504.155	11.02923
504.358	12.15322
504.561	11.91821
504.764	10.80858
504.967	11.91236
505.17	11.72328
505.373	13.15048
505.576	11.8104
505.778	12.40277
505.981	11.10149
506.184	12.99692
506.387	10.36339
506.59	13.35321
506.793	12.90266
506.995	12.46987
507.198	10.06238
507.401	12.3087
507.604	12.2037
507.806	10.95652
508.009	11.2169
508.212	12.34149
508.414	11.32522
508.617	11.41883
508.82	11.72806
509.022	13.04339
509.225	11.99518
509.427	10.52438
509.63	12.88478
509.833	11.81395
510.035	11.47947
510.238	10.55859
510.44	12.83215
510.643	10.11689
510.845	13.70034
511.048	12.25028
511.25	11.46306
511.453	11.75947
511.655	12.23403
511.858	11.50189
512.06	12.64355
512.262	11.84561
512.465	12.64757
512.667	11.50323
512.869	10.92706
513.072	12.07649
513.274	12.47696
513.476	12.37041
513.679	12.56205
513.881	10.87846
514.083	13.241
514.286	11.23866
514.488	11.25161
514.69	10.95819
514.892	10.717
515.094	12.51509
515.297	11.43027
515.499	11.88967
515.701	11.18582
515.903	13.42761
516.105	13.6104
516.307	12.6947
516.509	10.31422
516.711	10.82029
516.913	12.14076
517.116	11.86175
517.318	11.55334
517.52	13.00264
517.722	12.51376
517.924	10.8869
518.126	12.34453
518.328	11.25489
518.529	11.97452
518.731	13.25564
518.933	11.24904
519.135	11.61941
519.337	12.62425
519.539	12.15627
519.741	10.35382
519.943	11.57881
520.145	11.51993
520.346	12.21136
520.548	11.59476
520.75	12.16585
520.952	11.6633
521.153	11.99706
521.355	12.50237
521.557	11.05146
521.759	12.0068
521.96	11.94917
522.162	10.95523
522.364	12.77409
522.565	11.19555
522.767	12.56935
522.969	13.06672
523.17	12.43479
523.372	12.16076
523.573	11.57704
523.775	11.85977
523.977	11.0061
524.178	13.34851
524.38	11.50942
524.581	12.76814
524.783	11.71093
524.984	12.48769
525.186	11.97822
525.387	12.37496
525.589	11.85151
525.79	11.45631
525.991	11.15226
526.193	12.01734
526.394	10.83485
526.596	11.94043
526.797	11.85537
526.998	11.48871
527.2	10.90841
527.401	12.40734
527.602	12.88432
527.803	15.32281
528.005	15.96752
528.206	17.27052
528.407	18.17735
528.608	17.94372
528.81	18.14078
529.011	17.41207
529.212	18.09022
529.413	16.81682
529.614	15.56235
529.815	14.61198
530.017	13.40683
530.218	11.97901
530.419	11.57742
530.62	12.11811
530.821	12.2476
531.022	11.14061
531.223	12.45923
531.424	12.43731
531.625	12.31153
531.826	12.22994
532.027	12.22412
532.228	12.97396
532.429	12.1352
532.63	11.8382
532.831	12.29326
533.032	12.32881
533.233	13.09635
533.433	12.61159
533.634	12.81346
533.835	11.98578
534.036	11.47711
534.237	11.70086
534.438	11.49227
534.638	11.06556
534.839	11.53893
535.04	12.34571
535.241	11.70899
535.441	13.48827
535.642	12.36624
535.843	11.30622
536.043	11.23446
536.244	11.28919
536.445	11.51285
536.645	12.37994
536.846	11.95882
537.047	12.701
537.247	11.2415
537.448	11.56392
537.648	11.8884
537.849	11.78144
538.049	11.80505
538.25	12.49654
538.451	12.2442
538.651	11.33924
538.851	12.36261
539.052	13.17621
539.252	12.90993
539.453	11.9537
539.653	12.41934
539.854	12.08007
540.054	12.09858
540.254	12.86438
540.455	12.70017
540.655	11.60528
540.855	12.62093
541.056	13.47781
541.256	13.17549
541.456	14.31924
541.657	13.42648
541.857	14.2071
542.057	12.49214
542.257	12.06718
542.458	12.32516
542.658	12.35144
542.858	11.27132
543.058	12.79213
543.258	12.4804
543.458	11.22955
543.659	11.06909
543.859	12.61032
544.059	12.57372
544.259	11.86342
544.459	12.67459
544.659	11.48163
544.859	12.49755
545.059	11.67466
545.259	12.68748
545.459	12.25489
545.659	12.93664
545.859	12.03426
546.059	12.32973
546.259	11.40669
546.459	10.7775
546.659	11.00077
546.859	12.5881
547.059	12.19426
547.258	12.38175
547.458	12.32318
547.658	10.96856
547.858	10.95365
548.058	12.06901
548.258	11.79808
548.457	11.1237
548.657	14.54318
548.857	11.91768
549.057	12.82071
549.256	12.78226
549.456	11.92424
549.656	10.2596
549.855	13.84322
550.055	11.68244
550.255	14.28914
550.454	12.67044
550.654	13.19509
550.853	13.78467
551.053	13.21944
551.253	12.65071
551.452	12.75267
551.652	11.1386
551.851	10.50958
552.051	12.02323
552.25	11.52133
552.45	11.25071
552.649	11.94987
552.849	11.19283
553.048	11.92684
553.248	12.74604
553.447	11.16797
553.646	13.09187
553.846	13.59455
554.045	13.15756
554.244	10.78175
554.444	14.1447
554.643	11.33689
554.842	13.70329
555.042	14.67163
555.241	11.45197
555.44	11.09966
555.64	12.72605
555.839	14.72911
556.038	12.73601
556.237	11.29544
556.436	12.21971
556.636	12.58502
556.835	11.2479
557.034	14.1905
557.233	12.11738
557.432	10.68352
557.631	13.6779
557.83	11.90875
558.029	11.54828
558.228	11.54453
558.427	11.15397
558.626	12.69964
558.825	10.98497
559.024	12.24289
559.223	14.34299
559.422	12.13478
559.621	12.68435
559.82	9.40865
560.019	12.16044
560.218	11.94549
560.417	8.8616
560.616	11.71608
560.815	16.26219
561.014	10.34737
561.212	13.93461
561.411	12.41293
561.61	10.33344
561.809	11.86316
562.008	13.80877
562.206	11.92754
562.405	12.83885
562.604	12.1294
562.803	12.33568
563.001	11.84826
563.2	10.43718
563.399	12.69804
563.597	10.69274
563.796	11.94382
563.995	10.67389
564.193	12.96499
564.392	11.64458
564.59	14.77423
564.789	9.72788
564.988	11.70623
565.186	12.22236
565.385	11.95629
565.583	11.36356
565.782	11.85037
565.98	11.64023
566.179	11.88981
566.377	10.54099
566.575	11.0756
566.774	13.2384
566.972	12.79885
567.171	14.34614
567.369	13.28983
567.567	12.0474
567.766	12.34262
567.964	9.56291
568.162	12.55051
568.361	13.13737
568.559	11.98681
568.757	12.80089
568.956	12.20731
569.154	11.91629
569.352	13.02158
569.55	11.84618
569.748	12.18122
569.947	11.03373
570.145	10.96084
570.343	10.56685
570.541	13.20575
570.739	10.57536
570.937	12.03389
571.135	12.63087
571.333	13.91382
571.532	13.81436
571.73	12.18433
571.928	13.23281
572.126	12.2473
572.324	11.31661
572.522	13.41527
572.72	14.95741
572.918	11.86332
573.116	12.34209
573.313	11.83852
573.511	11.84755
573.709	11.52176
573.907	12.64144
574.105	11.51791
574.303	9.98988
574.501	10.24626
574.699	12.36929
574.896	12.38455
575.094	12.51457
575.292	10.2273
575.49	12.8929
575.688	11.53208
575.885	13.49081
576.083	14.25037
576.281	12.44749
576.478	11.26178
576.676	12.69492
576.874	10.40118
577.071	11.76655
577.269	15.14104
577.467	12.13393
577.664	11.9791
577.862	13.38564
578.059	11.02784
578.257	13.45834
578.455	11.62807
578.652	12.16472
578.85	9.62741
579.047	12.23791
579.245	12.25188
579.442	11.98328
579.64	12.33018
579.837	9.85059
580.034	15.51228
580.232	11.8158
580.429	10.75857
580.627	13.02239
580.824	14.43392
581.021	13.16458
581.219	11.65299
581.416	10.91238
581.613	14.60677
581.811	14.38705
582.008	11.34608
582.205	13.80779
582.402	12.58475
582.6	15.21034
582.797	12.53406
582.994	13.03109
583.191	13.52177
583.388	12.36025
583.586	13.48231
583.783	13.7921
583.98	11.29063
584.177	12.6144
584.374	8.47867
584.571	12.47535
584.768	12.19544
584.965	11.64419
585.162	13.4079
585.359	14.9611
585.556	12.30474
585.753	12.89815
585.95	10.56591
586.147	11.33576
586.344	13.31936
586.541	11.67289
586.738	10.65648
586.935	12.09534
587.132	11.22481
587.329	14.11349
587.526	11.83895
587.722	19.7208
587.919	10.35486
588.116	13.1034
588.313	14.66266
588.51	15.79062
588.706	11.88342
588.903	13.17852
589.1	14.1631
589.297	16.46846
589.493	12.28333
589.69	13.09078
589.887	11.76356
590.083	10.48975
590.28	11.24249
590.477	13.99341
590.673	13.48543
590.87	14.32006
591.067	11.94139
591.263	13.27908
591.46	13.16234
591.656	12.24483
591.853	14.44201
592.049	10.89761
592.246	11.59268
592.442	14.43096
592.639	13.80971
592.835	10.61815
593.032	13.35846
593.228	10.52832
593.425	10.17253
593.621	10.10651
593.817	12.68693
594.014	11.0566
594.21	12.33725
594.406	13.61268
594.603	13.32681
594.799	11.53887
594.995	8.80835
595.192	14.21018
595.388	11.68863
595.584	11.7035
595.78	9.70446
595.977	15.21764
596.173	14.71711
596.369	11.82618
596.565	10.60983
596.761	10.10063
596.957	13.9455
597.154	10.86841
597.35	11.06087
597.546	10.81607
597.742	12.65103
597.938	12.34288
598.134	10.72017
598.33	12.2322
598.526	14.52615
598.722	12.71748
598.918	15.47212
599.114	13.21975
599.31	11.08553
599.506	12.54687
599.702	10.75151
599.898	12.96779
600.094	14.08811
600.29	14.05365
600.485	13.96634
600.681	11.77313
600.877	15.71926
601.073	12.99577
601.269	15.55555
601.465	14.74152
601.66	11.31861
601.856	9.65562
602.052	15.02758
602.248	12.04534
602.443	9.39972
602.639	10.49927
602.835	10.6805
603.03	10.94875
603.226	13.52529
603.422	10.6618
603.617	11.69862
603.813	11.29503
604.009	11.16865
604.204	13.47276
604.4	9.51776
604.595	13.09804
604.791	10.4375
604.986	12.23144
605.182	10.85207
605.377	11.36211
605.573	11.06242
605.768	11.84061
605.964	12.68168
606.159	12.896
606.355	14.17879
606.55	11.46976
606.746	14.04034
606.941	12.10924
607.136	15.48742
607.332	17.29073
607.527	10.7414
607.722	12.96988
607.918	12.29519
608.113	11.29303
608.308	13.51602
608.503	13.08101
608.699	12.90722
608.894	13.09029
609.089	10.81393
609.284	12.5185
609.479	11.21699
609.675	13.04241
609.87	11.62447
610.065	13.11894
610.26	13.55406
610.455	13.31715
610.65	11.89556
610.845	12.36398
611.04	14.15851
611.235	12.23728
611.43	11.81878
611.625	10.58737
611.82	15.01386
612.015	11.13911
612.21	15.21613
612.405	9.84179
612.6	16.16593
612.795	15.10937
612.99	14.01303
613.185	10.96985
613.38	11.51001
613.575	13.08963
613.77	17.90722
613.965	9.88578
614.159	11.17328
614.354	15.17626
614.549	14.81716
614.744	14.41892
614.938	11.05457
615.133	10.37965
615.328	15.57574
615.523	15.5069
615.717	18.94195
615.912	11.712
616.107	13.32681
616.301	12.47687
616.496	12.16254
616.691	17.08394
616.885	14.62323
617.08	18.94658
617.274	15.92104
617.469	17.85346
617.664	14.6575
617.858	11.9166
618.053	13.73177
618.247	12.93091
618.442	9.08695
618.636	15.90727
618.831	12.12183
619.025	12.14056
619.219	18.79359
619.414	6.57011
619.608	13.70152
619.803	12.08923
619.997	17.44394
620.191	15.99569
620.386	14.67312
620.58	13.51454
620.774	9.79817
620.969	10.09147
621.163	13.65243
621.357	11.05342
621.551	12.86756
621.746	13.74588
621.94	13.39472
622.134	20.84295
622.328	18.04857
622.522	10.11894
622.716	15.92401
622.911	15.66473
623.105	15.3012
623.299	14.2842
623.493	20.41124
623.687	12.02363
623.881	12.5737
624.075	15.06139
624.269	16.25602
624.463	9.76324
624.657	10.40874
624.851	14.66809
625.045	15.79142
625.239	15.68992
625.433	12.3516
625.627	16.48117
625.821	12.50753
626.015	11.63476
626.209	13.3454
626.403	10.54438
626.596	14.06709
626.79	14.69244
626.984	10.53568
627.178	14.13177
627.372	13.7441
627.565	14.61809
627.759	9.80429
627.953	10.60715
628.147	13.97962
628.34	14.40769
628.534	17.91035
628.728	12.96167
628.921	15.6878
629.115	14.78997
629.309	15.47237
629.502	15.98456
629.696	14.23641
629.89	13.53665
630.083	14.4089
630.277	14.97064
630.47	17.85598
630.664	13.2137
630.857	10.48495
631.051	15.49732
631.244	16.87781
631.438	16.33625
631.631	12.26483
631.825	17.28796
632.018	15.72876
632.212	18.91016
632.405	16.80711
632.598	12.42295
632.792	14.50027
632.985	8.85892
633.178	13.24916
633.372	13.98153
633.565	13.8737
633.758	17.1039
633.952	12.1682
634.145	12.36471
634.338	13.8413
634.531	12.61623
634.724	12.60019
634.918	14.26896
635.111	13.45217
635.304	12.76333
635.497	19.11897
635.69	14.63646
635.883	17.31835
636.077	11.08926
636.27	15.25894
636.463	14.84756
636.656	15.59455
636.849	13.56127
637.042	15.51583
637.235	18.43191
637.428	16.43859
637.621	15.58386
637.814	18.21924
638.007	18.61565
638.2	18.64775
638.393	20.25355
638.586	11.82555
638.778	13.68865
638.971	15.08419
639.164	19.66138
639.357	16.28921
639.55	18.94119
639.743	17.55083
639.935	17.65201
640.128	20.31413
640.321	17.1716
640.514	16.33012
640.707	22.78616
640.899	17.36006
641.092	11.25964
641.285	35.71446
641.477	9.93246
641.67	21.87796
641.863	19.18118
642.055	16.54162
642.248	15.68953
642.441	15.05227
642.633	17.33105
642.826	20.07427
643.018	19.80587
643.211	21.44328
643.403	20.09928
643.596	22.22181
643.788	22.62202
643.981	15.40452
644.173	18.60035
644.366	15.59957
644.558	11.19221
644.751	18.99627
644.943	12.40937
645.135	21.60855
645.328	21.50266
645.52	18.55136
645.712	19.55618
645.905	26.32969
646.097	13.58911
646.289	17.5435
646.482	22.46284
646.674	14.67881
646.866	19.84879
647.058	18.39221
647.251	13.76744
647.443	15.1902
647.635	16.3376
647.827	13.35649
648.019	13.85115
648.211	16.97805
648.404	16.8391
648.596	21.78662
648.788	17.67882
648.98	17.74049
649.172	18.14801
649.364	18.01143
649.556	11.19241
649.748	24.9379
649.94	13.77017
650.132	18.67654
650.324	14.12266
650.516	14.75913
650.708	20.03099
650.9	12.56148
651.092	11.887
651.284	12.09674
651.476	13.32134
651.667	18.59966
651.859	20.04709
652.051	16.52269
652.243	17.14592
652.435	15.19101
652.627	18.07813
652.818	18.41329
653.01	11.75708
653.202	13.91462
653.394	15.63515
653.585	18.46699
653.777	32.07975
653.969	21.22631
654.16	21.34876
654.352	14.32121
654.544	17.10505
654.735	21.02264
654.927	18.30255
655.118	22.7806
655.31	20.57231
655.502	21.15315
655.693	15.52754
655.885	19.92281
656.076	22.50662
656.268	18.04163
656.459	21.81265
656.651	21.61595
656.842	15.54663
657.034	15.1439
657.225	20.28294
657.416	22.63632
657.608	22.15339
657.799	16.70885
657.99	20.86708
658.182	14.74739
658.373	15.16451
658.564	19.16108
658.756	16.86426
658.947	15.80303
659.138	13.10741
659.33	14.64767
659.521	13.87906
659.712	15.69921
659.903	15.37815
660.094	14.04158
660.286	11.33098
660.477	22.34603
660.668	18.66489
660.859	16.58531
661.05	12.22359
661.241	19.23397
661.432	19.49331
661.623	16.19344
661.814	15.74795
662.006	12.15301
662.197	19.01994
662.388	21.59746
662.579	18.77466
662.77	23.22512
662.96	28.06629
663.151	21.55033
663.342	12.33093
663.533	20.21443
663.724	18.27804
663.915	25.06457
664.106	18.14852
664.297	25.90685
664.488	21.73182
664.678	17.05551
664.869	21.40423
665.06	22.54711
665.251	20.38984
665.442	21.269
665.632	15.61288
665.823	26.28254
666.014	8.22423
666.204	21.75049
666.395	24.28388
666.586	30.61418
666.776	22.79272
666.967	26.42886
667.158	19.90387
667.348	25.64716
667.539	14.69738
667.729	23.31965
667.92	16.19388
668.111	23.85521
668.301	21.61667
668.492	18.52104
668.682	19.204
668.873	18.72117
669.063	14.71412
669.253	19.84928
669.444	22.15127
669.634	19.18913
669.825	26.35685
670.015	23.73429
670.206	16.54462
670.396	27.79813
670.586	18.96964
670.777	21.55883
670.967	11.70918
671.157	19.36936
671.347	17.80498
671.538	26.27493
671.728	22.06997
671.918	27.67698
672.108	24.80256
672.299	20.98326
672.489	22.0087
672.679	17.80955
672.869	22.79294
673.059	27.59215
673.249	22.08657
673.44	16.72346
673.63	19.84779
673.82	24.33322
674.01	16.78054
674.2	23.18217
674.39	33.45179
674.58	23.57477
674.77	21.50411
674.96	20.56892
675.15	38.82882
675.34	26.1041
675.53	21.58571
675.72	19.64188
675.91	15.22718
676.099	28.82181
676.289	30.02146
676.479	25.55286
676.669	19.4541
676.859	23.94863
677.049	16.54802
677.238	21.63564
677.428	29.58501
677.618	22.27193
677.808	25.39791
677.997	23.33667
678.187	17.01031
678.377	20.87637
678.567	19.07408
678.756	18.6615
678.946	19.82254
679.136	14.78282
679.325	16.92738
679.515	16.05365
679.704	14.67091
679.894	21.63871
680.084	20.42986
680.273	24.5677
680.463	15.81056
680.652	16.46253
680.842	19.32571
681.031	23.26475
681.221	16.09353
681.41	21.99518
681.6	19.60783
681.789	23.23995
681.978	26.03612
682.168	21.60215
682.357	22.08898
682.547	24.18775
682.736	21.4168
682.925	26.50354
683.115	25.87382
683.304	25.60044
683.493	23.34446
683.682	24.70345
683.872	23.31413
684.061	28.27568
684.25	25.17268
684.439	31.20536
684.629	25.26464
684.818	39.1855
685.007	21.95402
685.196	21.55782
685.385	29.71863
685.574	24.90641
685.763	25.22905
685.952	24.01429
686.142	18.64981
686.331	30.33761
686.52	15.34329
686.709	30.89233
686.898	30.46582
687.087	26.56271
687.276	32.33186
687.465	27.42182
687.654	23.08512
687.842	31.68204
688.031	17.57118
688.22	29.27352
688.409	24.76679
688.598	25.16408
688.787	36.58759
688.976	24.66391
689.165	32.5353
689.353	21.63585
689.542	27.18862
689.731	27.98645
689.92	33.9832
690.108	29.18669
690.297	22.41762
690.486	25.35496
690.675	28.98912
690.863	33.40001
691.052	34.11195
691.241	27.25543
691.429	26.74146
691.618	33.23836
691.806	19.88589
691.995	23.86446
692.184	25.89801
692.372	23.51163
692.561	26.15351
692.749	25.36345
692.938	39.15821
693.126	28.69596
693.315	24.54715
693.503	29.58564
693.692	29.55754
693.88	31.93021
694.068	38.75492
694.257	25.37027
694.445	29.53258
694.634	16.47468
694.822	33.46373
695.01	33.73127
695.199	33.60491
695.387	35.99402
695.575	34.03761
695.763	26.87411
695.952	25.12461
696.14	18.63753
696.328	23.87921
696.516	26.66464
696.705	28.34859
696.893	28.04707
697.081	17.15713
697.269	29.12867
697.457	20.15305
697.645	18.65243
697.833	29.03274
698.021	20.33088
698.21	21.07779
698.398	22.76301
698.586	17.92903
698.774	17.26507
698.962	20.87701
699.15	17.69147
699.338	15.72442
699.526	24.4477
699.714	19.61384
699.901	20.37762
700.089	27.77624
700.277	20.615
700.465	22.98168
700.653	29.17352
700.841	28.06233
701.029	20.38144
701.217	31.55799
701.404	26.7333
701.592	35.52984
701.78	37.83692
701.968	25.29895
702.155	25.43614
702.343	20.97364
702.531	35.80116
702.718	30.73732
702.906	26.9473
703.094	25.0763
703.281	36.32787
703.469	27.44623
703.657	36.74601
703.844	50.30681
704.032	39.02639
704.219	25.53266
704.407	32.58294
704.595	37.98219
704.782	30.30918
704.97	26.58822
705.157	27.68136
705.345	40.18823
705.532	45.91849
705.719	32.4372
705.907	39.97766
706.094	30.81077
706.282	42.076
706.469	28.25369
706.656	31.13814
706.844	30.04214
707.031	36.39819
707.218	32.13034
707.406	41.24338
707.593	35.44037
707.78	34.98337
707.968	30.4071
708.155	25.813
708.342	35.44311
708.529	34.91682
708.716	32.42995
708.904	42.87126
709.091	36.00024
709.278	24.29235
709.465	44.33981
709.652	43.76049
709.839	41.09456
710.026	33.26196
710.213	21.14383
710.4	34.61866
710.587	37.44246
710.774	38.45218
710.961	38.59725
711.148	32.14117
711.335	39.02972
711.522	30.69326
711.709	33.94293
711.896	47.37318
712.083	39.34316
712.27	26.15968
712.457	34.01029
712.644	23.02943
712.831	47.43986
713.017	33.83429
713.204	38.44927
713.391	29.27227
713.578	42.68371
713.765	42.80162
713.951	36.86862
714.138	56.48366
714.325	38.4813
714.512	34.31437
714.698	27.68469
714.885	45.84606
715.072	35.5038
715.258	35.86458
715.445	29.77809
715.631	44.24417
715.818	17.10027
716.005	29.6927
716.191	37.62792
716.378	31.77193
716.564	42.02042
716.751	27.63325
716.937	30.4336
717.124	43.18725
717.31	28.92073
717.497	46.44798
717.683	29.92182
717.869	54.37629
718.056	31.73702
718.242	39.85337
718.429	35.542
718.615	27.44279
718.801	37.92913
718.988	44.53172
719.174	41.26646
719.36	36.57102
719.547	48.20923
719.733	39.57872
719.919	42.32275
720.105	43.99278
720.291	37.13982
720.478	40.42487
720.664	37.63382
720.85	35.3301
721.036	63.02263
721.222	51.14127
721.408	39.01537
721.595	57.5914
721.781	54.90157
721.967	48.0396
722.153	53.84366
722.339	46.10774
722.525	44.44619
722.711	31.03424
722.897	28.40649
723.083	36.72722
723.269	50.56687
723.455	63.94932
723.641	67.4464
723.827	42.48845
724.012	45.31277
724.198	36.73515
724.384	52.30886
724.57	45.09099
724.756	28.28251
724.942	25.37437
725.127	50.98155
725.313	54.70865
725.499	53.98466
725.685	58.86191
725.87	46.4423
726.056	33.26527
726.242	55.64725
726.428	27.72865
726.613	49.21191
726.799	38.53076
726.985	32.95868
727.17	27.69202
727.356	56.1456
727.541	33.83649
727.727	39.56448
727.913	48.21819
728.098	36.51569
728.284	49.01105
728.469	30.03161
728.655	34.15002
728.84	48.36002
729.026	48.3226
729.211	50.17843
729.397	44.57991
729.582	46.85686
729.767	40.69691
729.953	45.24735
730.138	51.32746
730.323	22.26884
730.509	31.29099
730.694	56.52034
730.879	44.76095
731.065	43.63398
731.25	63.60583
731.435	48.10648
731.621	27.90931
731.806	36.12309
731.991	44.50897
732.176	28.30675
732.361	53.98214
732.547	42.93521
732.732	27.61282
732.917	65.08902
733.102	30.71936
733.287	34.38913
733.472	42.02456
733.657	41.39291
733.842	28.7161
734.027	38.18352
734.212	40.8845
734.397	35.00738
734.582	43.01333
734.767	50.30384
734.952	57.4027
735.137	19.25081
735.322	57.89218
735.507	47.07193
735.692	46.37445
735.877	67.5725
736.062	61.01494
736.247	48.49124
736.431	44.34622
736.616	57.76303
736.801	47.25754
736.986	45.26742
737.171	37.22718
737.355	34.90974
737.54	57.73822
737.725	44.02822
737.909	77.11015
738.094	39.67096
738.279	55.51863
738.463	42.86998
738.648	51.76797
738.833	49.10891
739.017	65.97151
739.202	42.50025
739.386	45.62404
739.571	30.16306
739.756	51.97916
739.94	45.1901
740.125	55.24753
740.309	36.56872
740.494	54.7556
740.678	47.9871
740.863	50.75461
741.047	47.19286
741.231	59.38889
741.416	38.46018
741.6	64.56993
741.785	39.80341
741.969	57.89907
742.153	61.04849
742.338	25.56433
742.522	49.21023
742.706	56.50845
742.89	34.99443
743.075	49.61195
743.259	65.19558
743.443	58.02693
743.627	63.35012
743.812	76.88319
743.996	30.92867
744.18	46.38992
744.364	43.73749
744.548	81.80958
744.732	48.49608
744.916	60.77566
745.1	56.68616
745.285	46.96231
745.469	59.5076
745.653	73.04837
745.837	33.19687
746.021	83.42492
746.205	67.16672
746.389	50.12457
746.573	47.1129
746.757	72.85743
746.94	45.4937
747.124	65.11942
747.308	36.8715
747.492	67.18322
747.676	43.27709
747.86	81.12254
748.044	45.69365
748.227	28.44595
748.411	99.88099
748.595	52.12678
748.779	38.14389
748.963	54.32415
749.146	51.96927
749.33	41.29498
749.514	37.23059
749.697	62.58581
749.881	41.29086
750.065	40.57496
750.248	52.98898
750.432	81.89001
750.616	49.75367
750.799	35.31488
750.983	78.98695
751.166	91.2136
751.35	33.1563
751.533	65.59916
751.717	65.90142
751.9	73.39626
752.084	46.13442
752.267	40.83377
752.451	42.47682
752.634	53.23085
752.818	61.23338
753.001	62.93005
753.184	64.66861
753.368	57.27207
753.551	13.84972
753.734	41.44605
753.918	79.03332
754.101	42.48594
754.284	62.50082
754.467	45.20382
754.651	41.9763
754.834	40.51946
755.017	67.52966
755.2	64.18773
755.384	38.64828
755.567	64.09556
755.75	69.819
755.933	49.85589
756.116	55.8527
756.299	46.40172
756.482	40.96701
756.665	62.96016
756.848	53.08979
757.032	59.1958
757.215	33.41719
757.398	40.8598
757.581	42.32433
757.764	91.58108
757.947	50.78051
758.129	71.41689
758.312	17.55175
758.495	51.18027
758.678	51.34711
758.861	48.49848
759.044	81.71762
759.227	44.26986
759.41	41.73205
759.592	61.4991
759.775	51.97465
759.958	66.1061
760.141	36.63797
760.324	86.087
760.506	74.82068
760.689	66.0497
760.872	90.07975
761.054	61.61189
761.237	48.97619
761.42	59.79926
761.602	68.6674
761.785	58.95823
761.968	67.86307
762.15	83.29064
762.333	50.27685
762.515	58.65774
762.698	46.28253
762.88	61.8627
763.063	54.27201
763.245	59.3833
763.428	37.20013
763.61	41.28831
763.793	31.26904
763.975	48.68476
764.158	41.14145
764.34	39.85566
764.522	34.44949
764.705	43.02773
764.887	61.80952
765.069	30.14882
765.252	57.27154
765.434	58.84882
765.616	49.25948
765.799	44.06387
765.981	63.29442
766.163	41.95344
766.345	66.7156
766.528	44.13058
766.71	25.2507
766.892	55.38653
767.074	71.97579
767.256	50.80034
767.438	84.11968
767.62	58.40733
767.802	90.30605
767.985	67.78047
768.167	85.67294
768.349	46.91394
768.531	66.77727
768.713	61.46553
768.895	71.40326
769.077	65.66183
769.259	98.68625
769.441	147.67127
769.623	74.67526
769.804	88.96917
769.986	88.41011
770.168	104.48238
770.35	126.09643
770.532	90.90914
770.714	97.53592
770.896	105.3492
771.077	45.5375
771.259	107.73193
771.441	86.303
771.623	113.10636
771.804	136.92917
771.986	44.66568
772.168	66.3471
772.35	110.90951
772.531	145.25974
772.713	80.32172
772.894	119.07864
773.076	80.05488
773.258	70.48032
773.439	112.70056
773.621	123.4233
773.802	57.95663
773.984	70.52091
774.166	90.80019
774.347	119.49993
774.529	112.18549
774.71	38.17627
774.891	79.63412
775.073	73.76254
775.254	121.09025
775.436	70.10257
775.617	139.57733
775.799	71.85714
775.98	125.57239
776.161	132.27527
776.343	129.13378
776.524	85.5186
776.705	75.42952
776.886	43.2558
777.068	87.57576
777.249	165.34401
777.43	145.24298
777.611	59.56915
777.793	76.71735
777.974	126.68226
778.155	74.70525
778.336	62.36148
778.517	150.97075
778.698	66.72666
778.879	38.35497
779.061	26.6466
779.242	96.34825
779.423	97.42624
779.604	72.5616
779.785	82.30544
779.966	89.29056
780.147	110.8444
780.328	117.50813
780.509	166.59671
780.69	109.4838
780.871	66.58797
781.051	50.53725
781.232	91.08802
781.413	89.54548
781.594	79.95184
781.775	74.31367
781.956	68.16956
782.137	40.54369
782.317	65.17993
782.498	97.14706
782.679	94.58651
782.86	92.03225
783.04	69.33313
783.221	98.21116
783.402	146.74422
783.583	88.20952
783.763	110.7339
783.944	72.60275
784.124	51.24865
784.305	139.0527
784.486	96.99605
784.666	79.79121
784.847	44.34797
785.027	166.6994
785.208	68.47486
785.388	63.721
785.569	72.0246
785.749	78.49213
785.93	73.03476
786.11	49.43876
786.291	99.0094
786.471	92.47951
786.652	109.00151
786.832	83.4998
787.012	97.4636
787.193	56.92746
787.373	90.36805
787.553	75.32567
787.734	93.47125
787.914	73.52627
788.094	100.60801
788.275	97.06986
788.455	75.3065
788.635	51.60519
788.815	89.8881
788.995	56.39803
789.176	49.22442
789.356	61.94207
789.536	76.82786
789.716	94.15901
789.896	65.15345
790.076	69.4301
790.256	90.27973
790.436	28.56994
790.616	63.23096
790.796	92.10104
790.976	76.77391
791.156	64.87277
791.336	105.9301
791.516	97.34885
791.696	75.90039
791.876	49.122
792.056	86.64953
792.236	108.33354
792.416	105.55278
792.596	97.75307
792.776	95.92069
792.956	103.26667
793.135	129.91807
793.315	60.57669
793.495	120.98099
793.675	99.09124
793.854	112.21508
794.034	109.68196
794.214	54.86801
794.394	112.76837
794.573	120.96108
794.753	88.36953
794.933	63.84999
795.112	95.97383
795.292	110.40989
795.472	135.91336
795.651	53.75856
795.831	85.5596
796.01	77.3136
796.19	77.99525
796.369	83.83367
796.549	99.11072
796.728	78.54519
796.908	50.61119
797.087	58.45518
797.267	74.58049
797.446	56.1751
797.626	102.99858
797.805	97.82687
797.984	61.9249
798.164	100.24343
798.343	62.03942
798.522	91.73122
798.702	83.60881
798.881	54.2446
799.06	78.25676
799.239	37.32924
799.419	60.92969
799.598	128.1943
799.777	99.11348
799.956	120.87645
800.136	70.06447
800.315	62.72209
800.494	101.72469
800.673	113.61306
800.852	101.99884
801.031	111.16841
801.21	99.62302
801.389	72.71057
801.568	88.51181
801.747	145.08783
801.926	86.367
802.105	135.49421
802.284	72.84292
802.463	131.42513
802.642	91.34117
802.821	94.32682
803	123.9076
803.179	114.95679
803.358	122.43566
803.537	70.61332
803.716	85.95648
803.895	74.45401
804.073	81.18281
804.252	69.63263
804.431	99.84351
804.61	88.10155
804.789	122.52607
804.967	72.24624
805.146	67.69507
805.325	149.66395
805.503	101.5947
805.682	48.16072
805.861	169.46881
806.039	128.10127
806.218	73.65417
806.397	94.30375
806.575	87.36162
806.754	96.64324
806.932	61.59969
807.111	137.7451
807.289	111.82104
807.468	89.11538
807.646	120.19421
807.825	102.95235
808.003	93.27133
808.182	116.46943
808.36	92.11644
808.539	65.24228
808.717	142.82707
808.895	66.05578
809.074	95.38433
809.252	87.54085
809.43	109.22597
809.609	125.10228
809.787	137.09823
809.965	83.84224
810.144	92.19767
810.322	85.17233
810.5	104.0883
810.678	79.98422
810.856	162.178
811.035	124.54781
811.213	116.52911
811.391	140.94119
811.569	102.11416
811.747	199.46949
811.925	130.87792
812.103	72.10843
812.281	86.93172
812.459	150.08808
812.637	150.18094
812.816	123.89693
812.994	155.01462
813.171	130.56711
813.349	105.51172
813.527	132.61301
813.705	142.93105
813.883	179.30943
814.061	128.70628
814.239	160.37889
814.417	169.49108
814.595	106.10963
814.773	106.32302
814.95	100.5186
815.128	109.17847
815.306	81.95264
815.484	94.54532
815.662	71.99163
815.839	68.58996
816.017	73.7507
816.195	143.499
816.372	86.03694
816.55	122.38652
816.728	145.20315
816.905	88.68826
817.083	155.89439
817.261	96.23613
817.438	173.79878
817.616	161.07756
817.793	82.37556
817.971	122.5476
818.148	127.12855
818.326	145.77772
818.503	109.73245
818.681	145.97957
818.858	79.55898
819.036	99.50013
819.213	105.71528
819.391	76.21109
819.568	71.581
819.745	72.01871
819.923	120.18942
820.1	83.01999
820.277	69.3705
820.455	79.60599
820.632	81.92913
820.809	82.57629
820.986	55.42526
821.164	43.63127
821.341	39.25934
821.518	51.96229
821.695	37.5517
821.872	35.09186
822.05	30.19
822.227	22.35124
822.404	23.79094
822.581	26.31146
822.758	22.48653
822.935	22.36791
823.112	25.45093
823.289	20.20228
823.466	25.36875
823.643	23.4084
823.82	28.87206
823.997	25.79828
824.174	31.17156
824.351	40.43698
824.528	40.29236
824.705	37.12057
824.882	42.68918
825.059	55.86447
825.236	39.18164
825.412	42.86141
825.589	54.46278
825.766	74.24399
825.943	47.98954
826.12	57.42939
826.296	38.93006
826.473	48.3798
826.65	49.43138
826.827	60.36097
827.003	39.65152
827.18	43.42656
827.357	49.62102
827.533	43.14328
827.71	23.82446
827.887	36.79006
828.063	41.06896
828.24	36.29878
828.416	49.06236
828.593	39.28226
828.769	56.72261
828.946	65.38089
829.122	65.72877
829.299	63.72406
829.475	37.74948
829.652	65.70569
829.828	112.27816
830.005	71.36191
830.181	102.1516
830.357	72.75474
830.534	106.88773
830.71	78.97164
830.886	103.343
831.063	103.64696
831.239	131.95982
831.415	58.78591
831.592	135.06099
831.768	83.72344
831.944	68.17827
832.12	135.17605
832.296	124.52839
832.473	111.694
832.649	81.93166
832.825	103.93812
833.001	61.04498
833.177	92.65282
833.353	82.99006
833.529	44.75659
833.705	64.45992
833.881	46.48449
834.058	45.55654
834.234	48.47312
834.41	47.86853
834.586	36.5477
834.761	47.44198
834.937	51.927
835.113	51.7315
835.289	47.14122
835.465	56.85479
835.641	47.64254
835.817	58.10667
835.993	103.29389
836.169	52.28624
836.344	78.55946
836.52	93.33475
836.696	92.15686
836.872	69.12251
837.048	187.94498
837.223	75.23327
837.399	169.00122
837.575	122.16513
837.75	120.24568
837.926	161.51286
838.102	267.12045
838.277	196.42284
838.453	264.13499
838.628	236.95637
838.804	110.55631
838.98	249.65977
839.155	125.06397
839.331	167.98554
839.506	121.50586
839.682	113.0654
839.857	148.74899
840.033	176.80118
840.208	82.03937
840.384	48.69315
840.559	87.0967
840.734	130.48935
840.91	197.17734
841.085	115.68855
841.26	108.48953
841.436	96.18713
841.611	102.7045
841.786	148.2779
841.962	204.33537
842.137	116.26884
842.312	83.0888
842.487	105.80502
842.663	87.16901
842.838	105.77233
843.013	400.22189
843.188	194.0032
843.363	143.12108
843.538	344.48604
843.714	341.41124
843.889	353.6962
844.064	367.25772
844.239	310.49557
844.414	418.90364
844.589	247.81674
844.764	491.05615
844.939	439.00167
845.114	532.77135
845.289	544.36721
845.464	544.92876
845.639	416.32391
845.814	191.1532
845.989	258.43397
846.163	267.49752
846.338	312.49372
846.513	482.08903
846.688	302.05197
846.863	271.98258
847.038	244.35559
847.212	326.48407
847.387	318.10254
847.562	318.07676
847.737	423.4976
847.911	155.48715
848.086	166.15866
848.261	581.30435
848.435	264.08434
848.61	446.21998
848.785	178.26788
848.959	436.8366
849.134	609.5623
849.308	734.91304
849.483	349.865
849.658	531.96064
849.832	259.92314
850.007	213.842
850.181	980.00514
850.356	251.82887
850.53	764.03655
850.705	196.59802
850.879	136.71695
851.053	275.87483
851.228	265.17051
851.402	425.75608
851.577	451.62285
851.751	710.92522
851.925	305.06316
852.099	149.83742
852.274	202.20666
852.448	288.71932
852.622	453.03642
852.797	298.68633
852.971	315.74037
853.145	313.65469
853.319	1084.39343
853.493	471.70489
853.668	238.34845
853.842	721.78421
854.016	528.36495
854.19	649.71796
854.364	330.48538
854.538	347.9273
854.712	549.56948
854.886	297.61688
855.06	250.44985
855.234	95.03824
855.408	613.0978
855.582	595.09152
855.756	526.44703
855.93	641.54427
856.104	351.12031
856.278	495.26735
856.452	310.00679
856.626	417.09337
856.8	947.68494
856.973	398.20043
857.147	389.58404
857.321	437.54514
857.495	527.61496
857.669	354.50281
857.842	256.89853
858.016	512.20275
858.19	198.82722
858.364	1297.57341
858.537	285.66031
858.711	335.23873
858.885	282.408
859.058	266.67708
859.232	129.33493
859.405	152.9031
859.579	484.15882
859.753	392.99035
859.926	259.95722
860.1	138.8398
860.273	318.07247
860.447	570.15994
860.62	306.96094
860.794	717.03922
860.967	347.13122
861.141	642.9893
861.314	1028.44839
861.487	456.59017
861.661	619.68262
861.834	666.83848
862.008	482.93371
862.181	367.84502
862.354	364.43644
862.528	397.15787
862.701	297.11232
862.874	177.4265
863.047	288.96811
863.221	291.86916
863.394	147.16002
863.567	574.32609
863.74	112.67154
863.913	478.78261
864.087	456.03627
864.26	544.04896
864.433	277.49686
864.606	897.88369
864.779	302.92759
864.952	149.73405
865.125	254.37111
865.298	314.19069
865.471	310.15402
865.644	786.62611
865.817	525.24996
865.99	519.17397
866.163	697.35558
866.336	293.42854
866.509	268.95306
866.682	264.16801
866.855	591.39456
867.028	167.86543
867.2	429.92427
867.373	99.59159
867.546	337.85493
867.719	804.53928
867.892	432.06603
868.064	255.32877
868.237	374.10468
868.41	383.08663
868.583	181.94127
868.755	214.29236
868.928	298.19776
869.101	903.65049
869.273	537.30787
869.446	412.41751
869.619	644.64426
869.791	326.28422
869.964	540.25282
870.136	509.18601
870.309	416.0072
870.481	330.93825
870.654	163.01036
870.826	422.58695
870.999	258.56952
871.171	410.16136
871.344	243.92439
871.516	321.76796
871.689	204.48896
871.861	408.52636
872.033	222.10373
872.206	277.01421
872.378	464.80752
872.55	281.71883
872.723	186.60728
872.895	302.23818
873.067	501.17544
873.24	511.54375
873.412	264.77842
873.584	298.74123
873.756	279.48552
873.928	326.12023
874.101	367.64136
874.273	411.4222
874.445	132.52725
874.617	175.1725
874.789	317.2301
874.961	294.4805
875.133	387.59027
875.305	329.23192
875.477	196.51006
875.649	161.76963
875.821	189.92677
875.993	590.20536
876.165	199.08913
876.337	346.89673
876.509	297.32743
876.681	339.12805
876.853	374.16621
877.025	383.42668
877.197	213.77768
877.369	195.37772
877.541	459.17743
877.712	112.70873
877.884	194.47353
878.056	376.53816
878.228	191.84699
878.4	393.02165
878.571	203.40729
878.743	129.37841
878.915	315.97572
879.086	190.54361
879.258	224.02388
879.43	198.53782
879.601	180.86122
879.773	194.23585
879.945	49.16226
880.116	75.11683
880.288	47.40539
880.459	50.1881
880.631	37.91265
880.802	45.57859
880.974	42.00214
881.145	29.45344
881.317	37.7084
881.488	27.6771
881.66	30.92169
881.831	28.11854
882.002	37.56228
882.174	27.13046
882.345	35.07822
882.517	18.17057
882.688	41.66131
882.859	32.24087
883.03	52.61439
883.202	52.42998
883.373	44.83255
883.544	43.2152
883.715	71.52637
883.887	65.6874
884.058	55.75732
884.229	80.71295
884.4	81.6409
884.571	100.33393
884.742	83.93008
884.914	90.23656
885.085	136.04705
885.256	186.88795
885.427	158.95308
885.598	167.64043
885.769	182.25081
885.94	181.83558
886.111	120.74538
886.282	231.19235
886.453	168.06154
886.624	125.54987
886.795	228.80935
886.966	180.0648
887.136	244.81655
887.307	161.59256
887.478	384.07127
887.649	303.24467
887.82	328.1868
887.991	251.60307
888.161	331.82666
888.332	302.70841
888.503	141.99182
888.674	492.43222
888.844	584.95172
889.015	391.84003
889.186	171.08957
889.356	530.44115
889.527	148.68896
889.698	1050.23013
889.868	279.23132
890.039	361.83318
890.209	302.67753
890.38	397.89208
890.551	327.98298
890.721	460.91104
890.892	463.54988
891.062	280.67339
891.233	323.55725
891.403	299.49421
891.574	217.85691
891.744	285.92361
891.914	352.36539
892.085	321.81451
892.255	115.44843
892.425	600.16388
892.596	389.75761
892.766	404.88662
892.936	470.81353
893.107	392.64462
893.277	197.43626
893.447	163.75122
893.618	123.87695
893.788	259.75894
893.958	130.97195
894.128	131.12238
894.298	157.03473
894.468	190.07773
894.639	92.22559
894.809	62.28673
894.979	98.66531
895.149	117.0952
895.319	88.57684
895.489	128.04409
895.659	166.77079
895.829	100.47776
895.999	106.12365
896.169	79.60034
896.339	101.43026
896.509	212.06161
896.679	237.04012
896.849	234.35124
897.019	371.45374
897.189	272.34144
897.358	254.54037
897.528	362.15503
897.698	127.56896
897.868	321.55914
898.038	903.44988
898.208	716.27975
898.377	150.66802
898.547	799.51655
898.717	1015.00911
898.886	419.84989
899.056	624.6524
899.226	1492.43556
899.395	485.79118
899.565	866.63687
899.735	448.94114
899.904	1073.73484
900.074	1025.1121
900.244	253.54134
900.413	1230.36967
900.583	247.0598
900.752	419.54583
900.922	2058.28148
901.091	68.5298
901.261	630.06982
901.43	653.92433
901.599	609.57236
901.769	7045.96219
901.938	739.41641
902.108	800.73325
902.277	1591.39759
902.446	229.65272
902.616	240.57069
902.785	328.79783
902.954	683.36702
903.124	488.12671
903.293	339.35425
903.462	178.91746
903.631	241.55022
903.801	184.1009
903.97	90.781
904.139	151.47797
904.308	111.18775
904.477	89.00057
904.646	56.23873
904.816	67.87709
904.985	124.69738
905.154	192.4498
