Data from WindowProjectSample_Transmission__54__00054.txt Node

Date: Sat May 03 16:50:48 EDT 2025
User: jessi
Spectrometer: SR400872
Trigger mode: 0
Integration Time (sec): 5.000010E-1
Scans to average: 6
Electric dark correction enabled: true
Nonlinearity correction enabled: true
Boxcar width: 0
XAxis mode: Wavelengths
Number of Pixels in Spectrum: 3648
>>>>>Begin Spectral Data<<<<<
184.909	180648.34735
185.132	1592.54987
185.355	-2004.14834
185.578	3318.37888
185.801	-76.72238
186.024	6281.78144
186.247	1129.20889
186.47	1114.9709
186.693	-595.29096
186.916	422.31634
187.139	10074.9032
187.362	3347.56001
187.585	2787.80582
187.808	-1519.26568
188.031	-85.92854
188.254	7834.8206
188.476	532.95414
188.699	-4269.91506
188.922	-369.06874
189.145	-4305.84242
189.368	-393.77588
189.591	-839.10471
189.813	-2124.20983
190.036	4851.40582
190.259	3284.27467
190.482	2399.86428
190.705	8271.45329
190.927	-1494.38978
191.15	-1639.76004
191.373	4883.33619
191.595	-2093.15102
191.818	9509.96685
192.041	-224.65613
192.263	-2237.79299
192.486	-982.90654
192.709	9026.4736
192.931	-2597.65035
193.154	-1998.66242
193.377	4529.09308
193.599	5729.56659
193.822	-1953.73894
194.044	-1691.00447
194.267	662.28217
194.489	-0.6196
194.712	2142.6264
194.934	3501.29919
195.157	-6722.33925
195.379	1836.97915
195.602	5061.48583
195.824	5631.63658
196.047	-7864.5423
196.269	-11180.07372
196.492	-1001.5457
196.714	-4634.22319
196.936	4542.21439
197.159	-2607.71064
197.381	-473.86838
197.604	979.82005
197.826	-3185.21821
198.048	-1217.37156
198.271	-12229.29049
198.493	10099.09386
198.715	-2414.65085
198.938	-733.09078
199.16	-3655.58422
199.382	1794.00294
199.604	-1365.22988
199.827	-1172.06927
200.049	-4269.47051
200.271	2338.24311
200.493	-26833.93031
200.715	4698.44472
200.938	12916.47925
201.16	-218985.01319
201.382	-5961.436
201.604	-1105.08177
201.826	-7021.56507
202.048	-6438.42372
202.27	-4563.78253
202.492	-3512.18253
202.715	-1315.36887
202.937	-3466.75121
203.159	1097.92347
203.381	-86223.33525
203.603	-970.63419
203.825	-1341.22566
204.047	2342.71351
204.269	-908.45998
204.491	6998.62237
204.713	-8976.87396
204.935	37911.14604
205.156	1928.22308
205.378	-6854.58867
205.6	-1538.94578
205.822	6284.63581
206.044	-211.82794
206.266	-1965.63586
206.488	752.17978
206.71	-513763.25105
206.932	-16532.8186
207.153	10458.78189
207.375	-2148.90647
207.597	15460.89198
207.819	1604.72949
208.041	6347.254
208.262	698.37193
208.484	-901.45553
208.706	-850.00283
208.927	11929.90922
209.149	-7947.77913
209.371	-2833.05951
209.593	-2428.95294
209.814	-4321.43485
210.036	2917.30721
210.258	-687.29419
210.479	2012.97131
210.701	855.24548
210.922	3933.03225
211.144	-1505.45605
211.366	5656.56094
211.587	-682.66653
211.809	-3371.5315
212.03	-2082.8162
212.252	-414.50854
212.473	2893.16487
212.695	-753.68426
212.916	-851.08993
213.138	624.69594
213.359	-1176.21971
213.581	-3223.1529
213.802	-1218.80333
214.024	10221.97139
214.245	-1075.52283
214.466	-122.99877
214.688	-3631.41598
214.909	-792.96959
215.131	9185.8114
215.352	-1106.66037
215.573	-244951.76805
215.795	4315.90319
216.016	-3722.77071
216.237	-542.49913
216.459	-10912.93231
216.68	-1587.32769
216.901	-1742.38048
217.122	1996.28484
217.344	-8501.18673
217.565	-1577.21033
217.786	22535.83632
218.007	846.5853
218.228	-3694.15244
218.45	-5785.77754
218.671	-1420.19674
218.892	875.46259
219.113	1691.01897
219.334	262.9643
219.555	-6259.62159
219.776	32751.64082
219.997	-6738.55797
220.219	-8722.00233
220.44	-4974.50202
220.661	-1377.04408
220.882	12428.91652
221.103	-818.60447
221.324	2532.25382
221.545	-6453.67318
221.766	-1453.28351
221.987	-472.43373
222.208	1874.16928
222.429	6732.80944
222.65	-207.90651
222.87	-743.79144
223.091	38297.72581
223.312	723.9288
223.533	-2122.28715
223.754	3800.9278
223.975	1579.72039
224.196	-764.66872
224.417	-29243.75701
224.637	-2207.10515
224.858	474.35722
225.079	3724.58174
225.3	1636.23004
225.521	3652.20135
225.741	-2334.84457
225.962	1542.35671
226.183	943.54921
226.404	1840.26253
226.624	1772.3904
226.845	1315.45345
227.066	2400.42895
227.286	632.44466
227.507	405.84785
227.728	382.53799
227.948	523.52296
228.169	131.90033
228.389	127.45018
228.61	55.0344
228.831	82.71277
229.051	8.37359
229.272	47.71209
229.492	62.29828
229.713	18.90285
229.933	50.10011
230.154	38.58179
230.374	65.5885
230.595	54.14965
230.815	32.00727
231.036	46.66835
231.256	-13.5373
231.477	103.02607
231.697	63.31939
231.917	54.37645
232.138	78.36737
232.358	168.72441
232.579	173.52932
232.799	29.05188
233.019	159.61476
233.24	225.88484
233.46	62.08118
233.68	111.81157
233.901	91.58076
234.121	37.95802
234.341	16.08308
234.561	-8.12508
234.782	31.87097
235.002	118.50844
235.222	-0.81165
235.442	90.73026
235.662	46.06022
235.883	103.9686
236.103	88.71758
236.323	64.98988
236.543	45.46077
236.763	74.59562
236.983	65.04766
237.203	79.2849
237.423	108.94201
237.643	149.00594
237.864	145.07833
238.084	27.00372
238.304	46.84601
238.524	84.20787
238.744	69.58024
238.964	105.24858
239.184	110.68077
239.404	102.36252
239.624	47.68416
239.843	97.07179
240.063	50.3742
240.283	35.46471
240.503	36.28692
240.723	32.67416
240.943	20.30698
241.163	26.11072
241.383	18.59366
241.603	9.51174
241.822	12.9863
242.042	8.4103
242.262	10.52809
242.482	12.40826
242.702	14.91354
242.921	5.60583
243.141	9.54898
243.361	8.1076
243.581	12.46978
243.8	10.92327
244.02	7.47823
244.24	13.31153
244.459	14.83068
244.679	25.84856
244.899	17.00805
245.118	20.6928
245.338	15.50471
245.558	20.09247
245.777	11.79184
245.997	13.14462
246.216	13.17403
246.436	8.09481
246.655	5.48999
246.875	3.54706
247.094	8.30831
247.314	2.47504
247.533	4.5147
247.753	5.74498
247.972	4.2997
248.192	1.98777
248.411	2.84728
248.631	5.264
248.85	6.49545
249.07	5.04072
249.289	8.79999
249.508	6.90967
249.728	9.69915
249.947	11.42955
250.166	12.14697
250.386	6.82817
250.605	9.88117
250.824	14.87391
251.044	10.91766
251.263	36.06204
251.482	19.05865
251.701	17.0416
251.921	0.30558
252.14	5.54348
252.359	5.76677
252.578	13.72262
252.798	5.19428
253.017	12.89496
253.236	6.51238
253.455	8.15993
253.674	17.14926
253.893	7.21723
254.112	10.87002
254.331	17.11893
254.551	14.25839
254.77	7.1265
254.989	22.76947
255.208	18.25272
255.427	22.19419
255.646	21.26001
255.865	32.71039
256.084	11.90827
256.303	13.57379
256.522	21.30666
256.741	4.67266
256.96	5.83466
257.179	11.17871
257.397	16.1066
257.616	7.83105
257.835	8.90453
258.054	21.34756
258.273	12.48325
258.492	15.71564
258.711	8.60591
258.93	4.60703
259.148	5.48559
259.367	5.25575
259.586	7.00235
259.805	3.36194
260.023	6.66415
260.242	5.00423
260.461	3.65127
260.68	2.14855
260.898	5.91568
261.117	1.95722
261.336	1.68844
261.554	5.10736
261.773	4.97416
261.992	0.92378
262.21	5.4664
262.429	6.38214
262.648	10.55336
262.866	11.82128
263.085	7.45848
263.303	7.02969
263.522	11.96716
263.74	12.698
263.959	20.95973
264.178	10.5495
264.396	9.7275
264.615	7.13685
264.833	16.86937
265.051	13.71274
265.27	14.03567
265.488	16.36799
265.707	9.368
265.925	15.49174
266.144	6.32822
266.362	8.68091
266.58	8.82697
266.799	6.9479
267.017	8.18538
267.235	7.2654
267.454	4.71828
267.672	2.59777
267.89	6.04415
268.109	6.42861
268.327	5.82464
268.545	1.94076
268.763	5.9461
268.982	2.68881
269.2	7.53937
269.418	4.37535
269.636	3.41373
269.854	5.71249
270.073	4.81392
270.291	2.57683
270.509	2.84547
270.727	6.28932
270.945	9.87532
271.163	10.06337
271.381	2.37209
271.599	4.22231
271.817	7.25389
272.036	2.58289
272.254	4.42725
272.472	3.19572
272.69	3.46885
272.908	3.54908
273.126	6.10389
273.344	7.37375
273.562	2.74083
273.779	3.64211
273.997	5.21779
274.215	6.07791
274.433	4.44958
274.651	6.26771
274.869	6.74898
275.087	4.05767
275.305	6.02997
275.523	3.43011
275.74	4.75405
275.958	7.12922
276.176	10.61692
276.394	3.6686
276.612	4.23053
276.829	4.40965
277.047	3.31976
277.265	4.30307
277.483	4.8773
277.7	5.83813
277.918	4.96832
278.136	8.55748
278.353	4.47624
278.571	1.91272
278.789	7.10015
279.006	1.12003
279.224	3.79565
279.442	6.65971
279.659	4.87501
279.877	3.53522
280.094	7.7293
280.312	1.8224
280.529	4.4663
280.747	1.18837
280.964	3.72812
281.182	8.33036
281.399	3.53868
281.617	5.33153
281.834	3.76718
282.052	3.06317
282.269	4.09771
282.487	3.25483
282.704	2.779
282.921	2.9347
283.139	4.50737
283.356	6.09386
283.574	5.07565
283.791	2.5755
284.008	7.00965
284.226	3.7487
284.443	4.30564
284.66	5.87631
284.877	4.49837
285.095	2.8488
285.312	2.32012
285.529	1.48993
285.746	1.13487
285.964	2.85854
286.181	1.65395
286.398	2.61394
286.615	3.63418
286.832	3.45006
287.05	1.26516
287.267	2.56844
287.484	2.83923
287.701	4.01813
287.918	3.75203
288.135	3.86167
288.352	1.77802
288.569	1.98471
288.786	3.08177
289.003	2.73944
289.22	3.83763
289.437	2.46933
289.654	3.83386
289.871	4.28481
290.088	4.28089
290.305	3.1071
290.522	2.46647
290.739	2.84955
290.956	4.26412
291.173	5.08507
291.39	4.94217
291.607	3.35856
291.824	2.60656
292.04	1.82849
292.257	4.03085
292.474	4.50573
292.691	2.79285
292.908	1.55016
293.125	2.68038
293.341	1.46933
293.558	6.96222
293.775	3.04455
293.992	2.50981
294.208	0.98702
294.425	1.92721
294.642	2.51735
294.858	3.79164
295.075	1.13621
295.292	2.55092
295.508	3.41498
295.725	5.0664
295.942	2.70462
296.158	2.30841
296.375	3.50646
296.591	2.76159
296.808	3.16382
297.024	3.62982
297.241	3.92757
297.458	4.31438
297.674	1.65035
297.891	3.71294
298.107	3.916
298.323	2.77434
298.54	5.56163
298.756	3.52292
298.973	2.624
299.189	5.98608
299.406	3.83283
299.622	5.48931
299.838	5.90293
300.055	5.5044
300.271	3.35952
300.487	3.68681
300.704	4.18371
300.92	3.57264
301.136	8.33291
301.353	5.73914
301.569	5.16656
301.785	5.39953
302.001	6.33489
302.218	5.80455
302.434	6.21078
302.65	3.99796
302.866	5.00067
303.083	8.6847
303.299	8.41401
303.515	5.83605
303.731	6.72605
303.947	4.56853
304.163	5.24914
304.379	6.4101
304.595	6.76298
304.812	5.17804
305.028	5.15423
305.244	5.52108
305.46	7.05155
305.676	7.47851
305.892	8.26126
306.108	7.07995
306.324	5.82359
306.54	8.86912
306.756	6.61733
306.972	6.83492
307.187	6.67621
307.403	7.88232
307.619	5.89407
307.835	7.59122
308.051	8.20909
308.267	5.20611
308.483	8.50863
308.699	7.2339
308.914	7.34235
309.13	6.66658
309.346	5.54864
309.562	5.91271
309.778	5.51022
309.993	7.74626
310.209	7.70557
310.425	5.84477
310.641	7.49693
310.856	6.3159
311.072	6.21768
311.288	7.09704
311.503	8.15669
311.719	5.60657
311.935	6.00417
312.15	8.4529
312.366	8.295
312.581	8.30579
312.797	8.20953
313.013	8.49976
313.228	6.98658
313.444	7.02776
313.659	6.44712
313.875	8.04379
314.09	6.94354
314.306	8.35355
314.521	8.2427
314.737	8.44493
314.952	7.78675
315.168	7.62589
315.383	7.63889
315.599	6.57215
315.814	7.14967
316.029	8.08655
316.245	6.3169
316.46	4.73835
316.675	8.42974
316.891	9.46648
317.106	11.01246
317.321	7.69255
317.537	8.18937
317.752	8.44802
317.967	7.98709
318.183	6.06758
318.398	6.91114
318.613	8.4484
318.828	8.98071
319.043	7.89489
319.259	6.91381
319.474	7.59823
319.689	8.65492
319.904	5.16407
320.119	8.57448
320.334	7.35953
320.549	7.33768
320.765	8.66712
320.98	8.03281
321.195	7.42042
321.41	7.27495
321.625	8.17246
321.84	9.26484
322.055	8.87941
322.27	6.36816
322.485	5.4165
322.7	7.67498
322.915	8.08707
323.13	6.83632
323.345	9.39871
323.56	9.14681
323.775	8.75727
323.989	8.51848
324.204	7.77214
324.419	9.12965
324.634	6.18902
324.849	7.88679
325.064	11.40749
325.279	9.41203
325.493	8.67543
325.708	8.85918
325.923	6.99658
326.138	7.97593
326.352	9.8986
326.567	9.16435
326.782	7.3104
326.997	7.49862
327.211	8.67576
327.426	8.07397
327.641	7.90209
327.855	6.37377
328.07	9.31394
328.285	10.59816
328.499	7.39252
328.714	8.35113
328.928	8.11534
329.143	8.08109
329.358	9.27358
329.572	9.51969
329.787	10.17517
330.001	11.37525
330.216	5.80393
330.43	10.93264
330.645	9.51751
330.859	8.93331
331.074	6.67318
331.288	8.23262
331.503	10.45257
331.717	6.34002
331.931	8.08575
332.146	8.78069
332.36	10.79
332.575	8.80839
332.789	8.39343
333.003	8.75914
333.218	8.87001
333.432	8.21891
333.646	9.34987
333.86	10.53812
334.075	10.20474
334.289	7.92103
334.503	6.54701
334.717	9.58224
334.932	8.85114
335.146	9.77014
335.36	7.41353
335.574	10.08781
335.788	9.09443
336.003	10.37671
336.217	10.66585
336.431	8.95405
336.645	7.85926
336.859	7.37788
337.073	8.72608
337.287	8.74601
337.501	6.64743
337.715	8.76677
337.929	8.81937
338.143	6.8934
338.357	8.49307
338.571	8.00241
338.785	10.19559
338.999	8.26897
339.213	8.57348
339.427	7.88032
339.641	10.63906
339.855	8.29661
340.069	7.85906
340.283	10.16203
340.497	10.97501
340.711	9.90335
340.924	9.28357
341.138	7.79634
341.352	7.57635
341.566	9.29862
341.78	7.40786
341.993	8.47155
342.207	8.18552
342.421	9.75878
342.635	9.05912
342.848	8.62417
343.062	6.2278
343.276	8.44485
343.49	11.35723
343.703	8.35749
343.917	10.46327
344.131	10.6653
344.344	8.01782
344.558	8.77783
344.771	7.6935
344.985	10.69462
345.199	11.60231
345.412	9.87812
345.626	10.21315
345.839	7.64132
346.053	8.13922
346.266	8.28092
346.48	10.02359
346.693	10.02123
346.907	9.85355
347.12	8.15355
347.334	9.21423
347.547	9.76717
347.76	9.63436
347.974	10.48652
348.187	9.41451
348.401	9.24019
348.614	8.01319
348.827	8.97931
349.041	9.74215
349.254	7.56232
349.467	8.87457
349.681	8.54843
349.894	8.11169
350.107	11.1305
350.32	11.91258
350.534	7.92569
350.747	9.25897
350.96	9.01582
351.173	8.80196
351.386	9.12675
351.6	8.9872
351.813	9.36434
352.026	9.45818
352.239	8.75764
352.452	8.93618
352.665	10.85996
352.878	9.08458
353.092	12.13893
353.305	10.36126
353.518	9.88287
353.731	8.41612
353.944	11.26105
354.157	9.4177
354.37	9.37499
354.583	7.90741
354.796	8.7041
355.009	10.94639
355.222	10.30274
355.435	10.03735
355.647	11.31661
355.86	9.62861
356.073	10.52482
356.286	9.54011
356.499	11.17615
356.712	10.92266
356.925	10.85983
357.138	11.27732
357.35	9.46624
357.563	10.04247
357.776	10.76098
357.989	11.11647
358.201	11.64079
358.414	10.90376
358.627	12.24026
358.84	10.62868
359.052	9.43573
359.265	10.08428
359.478	11.78502
359.69	8.05654
359.903	11.72401
360.116	12.01393
360.328	9.42929
360.541	11.67563
360.753	10.49057
360.966	10.74802
361.179	10.92118
361.391	10.9228
361.604	10.73299
361.816	11.17361
362.029	11.13783
362.241	11.16822
362.454	11.5577
362.666	10.88756
362.879	12.30979
363.091	11.10021
363.304	11.46861
363.516	11.36014
363.728	10.56659
363.941	12.11739
364.153	11.85692
364.366	9.71652
364.578	10.3865
364.79	11.88051
365.003	11.76556
365.215	10.89686
365.427	12.38359
365.639	12.13306
365.852	11.59044
366.064	13.12553
366.276	11.21364
366.488	11.80874
366.701	11.21542
366.913	11.04566
367.125	11.20791
367.337	10.8853
367.549	11.22555
367.762	11.21911
367.974	11.43989
368.186	11.46566
368.398	12.6053
368.61	11.89329
368.822	12.40125
369.034	11.10911
369.246	12.91147
369.458	14.16756
369.67	11.03131
369.882	13.26839
370.094	9.62058
370.306	13.3439
370.518	11.13463
370.73	11.0839
370.942	11.14004
371.154	11.97641
371.366	12.07463
371.578	12.56926
371.79	12.13104
372.002	13.1669
372.214	14.54152
372.425	12.11948
372.637	14.23891
372.849	12.74176
373.061	10.32138
373.273	13.0226
373.484	12.70028
373.696	13.14284
373.908	9.98833
374.12	13.14421
374.331	13.0769
374.543	11.34558
374.755	11.49529
374.967	12.45283
375.178	13.54402
375.39	12.26252
375.602	12.8171
375.813	11.27894
376.025	11.91184
376.236	12.97306
376.448	13.22076
376.66	12.89879
376.871	12.74102
377.083	13.86419
377.294	15.05521
377.506	12.88656
377.717	14.33182
377.929	13.56362
378.14	13.08945
378.352	13.76036
378.563	14.03526
378.775	14.75633
378.986	12.56673
379.197	13.41983
379.409	12.55193
379.62	13.88101
379.832	13.57661
380.043	13.43839
380.254	13.59305
380.466	12.16442
380.677	16.21847
380.888	15.36456
381.1	16.24338
381.311	16.15901
381.522	14.18647
381.733	16.57212
381.945	13.64832
382.156	13.20935
382.367	13.6545
382.578	16.63794
382.789	16.73648
383.001	13.14289
383.212	15.78344
383.423	15.78907
383.634	14.651
383.845	14.8601
384.056	13.6177
384.267	14.31818
384.478	14.09834
384.69	13.31241
384.901	15.06229
385.112	14.68256
385.323	16.14948
385.534	14.73519
385.745	15.38821
385.956	14.74035
386.167	13.70892
386.378	15.0406
386.588	14.15589
386.799	13.62176
387.01	13.53544
387.221	15.63377
387.432	14.92919
387.643	16.26314
387.854	14.60397
388.065	14.69588
388.275	14.94342
388.486	14.05807
388.697	14.90488
388.908	14.38677
389.119	15.93345
389.329	16.33635
389.54	15.23801
389.751	15.31927
389.962	16.23483
390.172	15.16836
390.383	14.94192
390.594	14.35884
390.804	14.4707
391.015	14.81191
391.226	15.41247
391.436	15.82423
391.647	15.92284
391.858	16.26936
392.068	14.13873
392.279	14.84093
392.489	16.00974
392.7	16.30187
392.91	15.01211
393.121	15.14452
393.331	16.26947
393.542	16.68371
393.752	16.54099
393.963	16.0314
394.173	16.35836
394.384	16.36376
394.594	15.90764
394.804	15.04249
395.015	16.01266
395.225	16.41172
395.436	15.23834
395.646	16.51589
395.856	15.92608
396.067	14.85733
396.277	16.69082
396.487	16.41758
396.697	16.68984
396.908	17.02249
397.118	16.33926
397.328	16.30867
397.538	16.64454
397.749	15.70463
397.959	17.02488
398.169	16.69385
398.379	14.98798
398.589	16.58397
398.8	16.82679
399.01	16.74892
399.22	16.1643
399.43	18.49998
399.64	16.68359
399.85	17.09748
400.06	16.87473
400.27	15.90814
400.48	16.38259
400.69	17.29866
400.9	16.15315
401.11	15.69544
401.32	17.03754
401.53	16.01675
401.74	17.70386
401.95	16.92076
402.16	16.69658
402.37	17.2304
402.58	16.22963
402.79	17.15915
403	17.09709
403.209	16.21953
403.419	17.67146
403.629	16.38618
403.839	17.98954
404.049	17.70604
404.258	16.69247
404.468	16.54847
404.678	17.94456
404.888	18.2996
405.097	17.0715
405.307	17.09108
405.517	17.65101
405.727	17.75993
405.936	16.93143
406.146	17.78735
406.356	18.68425
406.565	17.32889
406.775	17.14522
406.984	16.9915
407.194	19.19644
407.404	17.47477
407.613	17.76249
407.823	18.20645
408.032	18.76783
408.242	18.2046
408.451	17.09452
408.661	17.62388
408.87	18.86229
409.08	16.78522
409.289	17.72682
409.499	17.64263
409.708	17.6456
409.918	15.74791
410.127	17.93227
410.336	18.781
410.546	18.55233
410.755	17.58062
410.964	17.38098
411.174	16.89478
411.383	18.26815
411.592	18.20956
411.802	17.32427
412.011	18.2318
412.22	17.57423
412.429	18.86415
412.639	19.21621
412.848	18.88738
413.057	19.49309
413.266	18.67685
413.475	18.00356
413.685	18.60922
413.894	18.87785
414.103	18.94912
414.312	18.55319
414.521	17.88264
414.73	18.50054
414.939	19.60237
415.148	18.34622
415.357	18.12844
415.566	18.19384
415.776	17.68641
415.985	18.07942
416.194	19.14123
416.403	20.12768
416.611	17.57532
416.82	18.22081
417.029	18.78989
417.238	18.23584
417.447	18.15863
417.656	18.66367
417.865	18.13202
418.074	18.79566
418.283	19.01331
418.492	19.8203
418.7	19.51697
418.909	20.55908
419.118	19.13753
419.327	19.7464
419.536	19.48355
419.744	19.3389
419.953	20.91991
420.162	21.23743
420.371	20.96074
420.579	21.94917
420.788	23.00274
420.997	23.31976
421.205	23.80553
421.414	23.52167
421.623	23.93247
421.831	23.14892
422.04	23.62313
422.249	22.18991
422.457	22.58565
422.666	21.49052
422.874	22.68117
423.083	22.60663
423.291	22.57423
423.5	22.87051
423.708	23.30465
423.917	24.32654
424.125	23.42441
424.334	23.37438
424.542	25.27499
424.751	24.72083
424.959	24.05254
425.167	24.00513
425.376	23.68959
425.584	21.81158
425.793	21.57268
426.001	20.1666
426.209	21.10195
426.418	20.08615
426.626	20.08293
426.834	20.16183
427.042	20.46752
427.251	19.76905
427.459	21.00252
427.667	20.2637
427.875	19.44689
428.084	19.96648
428.292	21.01788
428.5	20.7919
428.708	19.27645
428.916	19.33221
429.124	19.9911
429.333	19.80814
429.541	19.89076
429.749	20.15628
429.957	20.09013
430.165	22.17516
430.373	18.78175
430.581	19.95943
430.789	21.11438
430.997	19.99367
431.205	19.44826
431.413	20.71616
431.621	20.08831
431.829	20.65681
432.037	20.02125
432.245	20.51361
432.453	20.60304
432.661	19.96602
432.869	21.56792
433.076	19.89022
433.284	20.27328
433.492	21.07573
433.7	21.54705
433.908	20.29742
434.116	20.83302
434.323	20.96811
434.531	20.79491
434.739	21.39034
434.947	21.29416
435.154	21.72295
435.362	20.85161
435.57	20.5587
435.778	20.24794
435.985	20.96507
436.193	20.26801
436.401	21.69605
436.608	20.96616
436.816	20.34674
437.023	21.67608
437.231	22.25209
437.439	21.01469
437.646	21.41001
437.854	21.13803
438.061	21.45559
438.269	20.825
438.476	21.55155
438.684	20.83542
438.891	20.71767
439.099	20.66718
439.306	20.26777
439.514	20.36772
439.721	21.34431
439.929	20.66819
440.136	21.52793
440.343	21.2912
440.551	21.17077
440.758	23.17191
440.965	21.79465
441.173	21.67602
441.38	21.16598
441.587	21.66038
441.795	21.4625
442.002	21.69525
442.209	21.83756
442.416	21.78842
442.624	22.04652
442.831	21.71379
443.038	21.2762
443.245	20.57994
443.452	21.08245
443.66	21.92241
443.867	20.97425
444.074	20.69633
444.281	20.70303
444.488	20.81498
444.695	21.10223
444.902	21.01011
445.109	21.77026
445.316	21.20257
445.523	21.92523
445.73	22.07263
445.937	23.42923
446.144	24.42151
446.351	25.13804
446.558	23.56423
446.765	26.32787
446.972	24.92979
447.179	24.56017
447.386	25.09966
447.593	22.74963
447.8	23.77722
448.007	21.93548
448.214	21.74473
448.42	21.85694
448.627	22.75037
448.834	21.84646
449.041	21.74803
449.248	21.74789
449.454	22.564
449.661	23.32794
449.868	21.56165
450.075	21.34655
450.281	20.39413
450.488	20.91499
450.695	20.87229
450.901	20.76073
451.108	21.13145
451.315	22.52486
451.521	21.38801
451.728	22.40355
451.935	20.95593
452.141	21.18652
452.348	21.47546
452.554	21.41019
452.761	21.4184
452.967	22.79791
453.174	21.92174
453.38	21.92697
453.587	21.14016
453.793	21.95332
454	22.23117
454.206	23.37877
454.413	22.35799
454.619	22.30948
454.825	21.3925
455.032	22.12434
455.238	22.51106
455.445	20.84048
455.651	21.95734
455.857	20.32284
456.064	21.78462
456.27	21.41914
456.476	21.20919
456.682	20.61123
456.889	21.83483
457.095	22.03274
457.301	23.23165
457.507	21.71184
457.714	21.6926
457.92	21.84985
458.126	21.12956
458.332	21.62127
458.538	21.36834
458.744	21.40562
458.951	21.18571
459.157	23.06021
459.363	22.39036
459.569	23.22814
459.775	23.76484
459.981	24.21937
460.187	24.80994
460.393	24.43021
460.599	24.43734
460.805	22.99822
461.011	22.81688
461.217	23.84903
461.423	23.89105
461.629	22.85158
461.835	23.14307
462.041	22.5421
462.247	23.97612
462.453	22.46018
462.658	21.99701
462.864	22.64281
463.07	22.50998
463.276	22.17706
463.482	21.98561
463.688	23.65289
463.893	21.5603
464.099	21.89186
464.305	23.40834
464.511	21.76498
464.716	22.13917
464.922	22.75962
465.128	21.55221
465.333	23.52597
465.539	22.81454
465.745	22.63534
465.95	22.38036
466.156	24.61395
466.362	23.21399
466.567	22.11559
466.773	21.97465
466.978	23.30908
467.184	21.77829
467.389	21.06606
467.595	22.57804
467.8	22.00816
468.006	23.36759
468.211	23.64095
468.417	21.89702
468.622	22.97926
468.828	23.07142
469.033	23.03068
469.239	24.83374
469.444	22.22741
469.649	23.14309
469.855	22.65287
470.06	22.53772
470.266	21.67612
470.471	23.33378
470.676	23.25705
470.881	21.08206
471.087	24.13054
471.292	24.18401
471.497	21.73684
471.703	22.72874
471.908	22.26151
472.113	22.92155
472.318	23.30521
472.523	21.91238
472.729	22.96808
472.934	23.21486
473.139	22.64657
473.344	23.199
473.549	23.96639
473.754	22.32662
473.959	24.63342
474.164	22.28054
474.369	22.86804
474.575	23.34696
474.78	23.14266
474.985	22.31537
475.19	21.41407
475.395	22.36695
475.6	22.63573
475.804	24.10001
476.009	23.00802
476.214	22.71542
476.419	22.50326
476.624	21.68602
476.829	22.38629
477.034	23.34296
477.239	22.52262
477.444	23.54447
477.648	23.61602
477.853	23.55095
478.058	22.91281
478.263	22.72188
478.468	22.67131
478.672	22.62539
478.877	24.49352
479.082	24.71051
479.287	23.60683
479.491	23.23053
479.696	22.72807
479.901	24.15622
480.105	23.72733
480.31	22.7334
480.515	23.25808
480.719	25.01044
480.924	22.95417
481.128	22.21278
481.333	23.38645
481.538	23.46811
481.742	22.9591
481.947	24.26585
482.151	26.1232
482.356	28.50358
482.56	33.12604
482.765	36.99193
482.969	43.49342
483.174	49.14459
483.378	56.2406
483.582	59.24511
483.787	63.21978
483.991	64.83212
484.196	64.75485
484.4	63.65682
484.604	63.22518
484.809	58.45588
485.013	54.74026
485.217	49.40351
485.422	44.23346
485.626	39.99199
485.83	37.71074
486.034	36.2171
486.239	36.864
486.443	38.20452
486.647	39.2603
486.851	41.65153
487.055	44.82635
487.26	45.73204
487.464	47.8673
487.668	47.25371
487.872	48.7759
488.076	48.52747
488.28	46.86802
488.484	44.02871
488.688	42.38375
488.892	39.75817
489.096	36.85032
489.3	34.00779
489.504	31.70233
489.708	29.8674
489.912	29.11672
490.116	28.34857
490.32	28.54564
490.524	30.68627
490.728	32.60644
490.932	34.83068
491.136	37.26412
491.34	39.7581
491.544	41.01451
491.748	40.9518
491.951	40.77395
492.155	39.73012
492.359	38.16392
492.563	35.15128
492.767	32.92915
492.97	29.40097
493.174	26.29807
493.378	24.92607
493.582	24.50769
493.785	24.97799
493.989	24.93349
494.193	24.8326
494.396	24.10597
494.6	24.95989
494.804	23.94202
495.007	23.97137
495.211	24.03946
495.414	23.75465
495.618	24.06067
495.822	24.75286
496.025	23.85256
496.229	24.40275
496.432	23.67758
496.636	24.10378
496.839	24.24873
497.043	25.203
497.246	24.21379
497.45	24.12431
497.653	24.46415
497.856	24.54375
498.06	24.08212
498.263	24.20043
498.467	24.52701
498.67	25.17751
498.873	24.72757
499.077	24.47471
499.28	24.43227
499.483	24.76024
499.686	25.06349
499.89	24.85332
500.093	25.07703
500.296	23.72284
500.499	25.72035
500.703	24.2498
500.906	24.78677
501.109	25.52014
501.312	24.45001
501.515	24.35659
501.719	24.66196
501.922	24.89338
502.125	24.40313
502.328	24.34695
502.531	23.50408
502.734	24.48295
502.937	23.04863
503.14	24.36019
503.343	23.83569
503.546	24.15475
503.749	24.0222
503.952	24.79178
504.155	23.9006
504.358	24.60617
504.561	24.58966
504.764	23.84022
504.967	24.98717
505.17	24.68392
505.373	25.49669
505.576	24.43818
505.778	25.15741
505.981	23.89638
506.184	25.24012
506.387	23.09629
506.59	25.88443
506.793	25.26273
506.995	24.45127
507.198	23.02446
507.401	24.82293
507.604	24.76703
507.806	23.37469
508.009	24.12769
508.212	25.29073
508.414	24.19388
508.617	24.15036
508.82	24.61519
509.022	25.78932
509.225	25.03621
509.427	23.5797
509.63	25.85318
509.833	24.88174
510.035	24.56784
510.238	23.84566
510.44	25.993
510.643	23.54293
510.845	26.08189
511.048	24.92929
511.25	24.34441
511.453	24.59649
511.655	24.99925
511.858	24.6579
512.06	25.34472
512.262	24.82083
512.465	25.61646
512.667	24.84163
512.869	23.99315
513.072	25.49897
513.274	25.60233
513.476	25.44249
513.679	25.69411
513.881	24.22704
514.083	26.25992
514.286	24.43689
514.488	24.44913
514.69	24.09618
514.892	24.13691
515.094	25.68513
515.297	24.50609
515.499	24.95781
515.701	24.28644
515.903	26.23146
516.105	26.34613
516.307	25.0565
516.509	23.41182
516.711	23.7025
516.913	24.82263
517.116	24.90802
517.318	24.39606
517.52	25.31944
517.722	25.2257
517.924	24.11344
518.126	25.12279
518.328	24.47601
518.529	25.40856
518.731	26.40729
518.933	25.10271
519.135	25.22997
519.337	26.28124
519.539	25.92861
519.741	24.38317
519.943	25.34177
520.145	25.51491
520.346	26.00861
520.548	25.20425
520.75	25.92722
520.952	25.30717
521.153	25.61545
521.355	25.99196
521.557	24.54839
521.759	25.21516
521.96	25.06101
522.162	24.30964
522.364	26.24175
522.565	24.61966
522.767	25.76475
522.969	26.04936
523.17	25.74602
523.372	25.11117
523.573	24.87632
523.775	24.95964
523.977	24.50561
524.178	26.35226
524.38	24.58483
524.581	25.47368
524.783	24.59706
524.984	25.36959
525.186	24.95826
525.387	25.42219
525.589	25.35242
525.79	25.08859
525.991	25.30494
526.193	26.27003
526.394	25.37692
526.596	26.59426
526.797	27.35856
526.998	27.14328
527.2	28.77755
527.401	32.5939
527.602	35.44304
527.803	40.5798
528.005	43.93998
528.206	47.69368
528.407	50.25569
528.608	51.27872
528.81	51.70147
529.011	50.63042
529.212	51.52755
529.413	48.07776
529.614	45.14036
529.815	41.94372
530.017	38.20832
530.218	33.64394
530.419	30.30755
530.62	28.59763
530.821	26.81748
531.022	25.45121
531.223	26.15072
531.424	26.27775
531.625	26.172
531.826	25.76416
532.027	26.82279
532.228	29.21164
532.429	30.32448
532.63	31.73364
532.831	34.08339
533.032	34.45447
533.233	36.20224
533.433	35.47188
533.634	35.57562
533.835	34.09557
534.036	32.64289
534.237	30.95204
534.438	29.08599
534.638	26.28099
534.839	26.36046
535.04	26.83829
535.241	25.71945
535.441	27.2228
535.642	25.94198
535.843	24.69885
536.043	24.84417
536.244	25.01634
536.445	25.51716
536.645	26.19883
536.846	26.04104
537.047	26.54569
537.247	25.38591
537.448	25.83044
537.648	26.26226
537.849	26.24722
538.049	26.25469
538.25	26.82648
538.451	26.58852
538.651	25.57435
538.851	25.94122
539.052	26.71386
539.252	26.24062
539.453	25.34073
539.653	25.62014
539.854	25.23001
540.054	25.1475
540.254	27.00488
540.455	29.68961
540.655	31.42315
540.855	34.93812
541.056	37.36288
541.256	37.75159
541.456	39.19854
541.657	38.7841
541.857	39.19189
542.057	37.02075
542.257	35.51055
542.458	34.80993
542.658	32.74941
542.858	29.74964
543.058	28.58906
543.258	27.14292
543.458	25.70491
543.659	25.49755
543.859	26.77278
544.059	26.73248
544.259	26.18969
544.459	26.70068
544.659	25.53529
544.859	26.4367
545.059	25.52465
545.259	26.52193
545.459	26.09098
545.659	26.35687
545.859	25.85604
546.059	25.6134
546.259	25.11111
546.459	24.84997
546.659	25.25544
546.859	26.54797
547.059	26.26072
547.258	26.31419
547.458	26.53911
547.658	25.67804
547.858	25.38922
548.058	26.83097
548.258	26.19772
548.457	25.35247
548.657	28.14435
548.857	25.93792
549.057	26.75287
549.256	26.64705
549.456	25.66097
549.656	23.61395
549.855	27.41565
550.055	25.37592
550.255	27.07591
550.454	25.92336
550.654	26.09593
550.853	26.9281
551.053	26.23037
551.253	25.62491
551.452	25.83376
551.652	24.38979
551.851	23.98477
552.051	25.18258
552.25	24.93159
552.45	24.99015
552.649	25.29642
552.849	25.0074
553.048	25.44987
553.248	26.2098
553.447	24.65178
553.646	26.65186
553.846	27.51325
554.045	26.84446
554.244	24.57021
554.444	27.37784
554.643	25.09977
554.842	27.11941
555.042	28.147
555.241	25.28042
555.44	24.34752
555.64	26.24128
555.839	27.5326
556.038	25.80587
556.237	24.77528
556.436	25.69779
556.636	26.21538
556.835	24.80839
557.034	27.06099
557.233	25.59959
557.432	24.04244
557.631	26.45934
557.83	25.66982
558.029	24.97227
558.228	24.91752
558.427	24.88496
558.626	26.15107
558.825	24.37561
559.024	25.38074
559.223	27.3423
559.422	25.21265
559.621	25.65912
559.82	22.52434
560.019	25.41038
560.218	25.3185
560.417	23.04088
560.616	24.46603
560.815	28.83135
561.014	24.04528
561.212	27.62285
561.411	25.62541
561.61	24.11397
561.809	25.45254
562.008	27.16732
562.206	25.31891
562.405	26.13277
562.604	25.73499
562.803	26.04331
563.001	25.21146
563.2	24.17117
563.399	26.24041
563.597	24.27917
563.796	25.52872
563.995	24.31675
564.193	26.33572
564.392	25.27917
564.59	27.93728
564.789	23.44441
564.988	24.58775
565.186	25.70366
565.385	25.38303
565.583	25.133
565.782	25.38967
565.98	25.3873
566.179	25.70944
566.377	24.89607
566.575	25.27637
566.774	27.1238
566.972	26.91731
567.171	27.93397
567.369	27.34233
567.567	26.50033
567.766	26.37617
567.964	24.43133
568.162	26.42118
568.361	26.93686
568.559	25.72047
568.757	26.21567
568.956	25.91602
569.154	25.74679
569.352	26.33781
569.55	25.63056
569.748	25.55549
569.947	25.07777
570.145	24.58707
570.343	24.87002
570.541	26.47298
570.739	24.31265
570.937	25.47208
571.135	26.19431
571.333	27.38715
571.532	27.16563
571.73	25.93122
571.928	26.89917
572.126	26.21789
572.324	25.57781
572.522	27.37059
572.72	28.94365
572.918	25.96597
573.116	26.75895
573.313	26.44769
573.511	26.52509
573.709	25.31309
573.907	26.86187
574.105	25.65276
574.303	24.41551
574.501	24.38893
574.699	26.4124
574.896	26.59178
575.094	26.31094
575.292	24.65997
575.49	27.00114
575.688	25.76933
575.885	27.24409
576.083	28.65297
576.281	26.74828
576.478	25.24346
576.676	26.50452
576.874	24.71045
577.071	26.02955
577.269	28.57879
577.467	26.15224
577.664	25.91718
577.862	27.1745
578.059	25.016
578.257	27.01535
578.455	25.47698
578.652	25.8658
578.85	23.49815
579.047	25.93171
579.245	25.99579
579.442	25.52907
579.64	25.80931
579.837	23.90873
580.034	29.0239
580.232	25.6645
580.429	23.91111
580.627	26.43905
580.824	27.12995
581.021	26.21717
581.219	25.10905
581.416	24.57371
581.613	27.11028
581.811	27.29316
582.008	25.26898
582.205	26.8922
582.402	25.75775
582.6	27.55541
582.797	25.70697
582.994	26.1404
583.191	26.41674
583.388	25.7084
583.586	26.8149
583.783	26.87598
583.98	24.99963
584.177	25.98017
584.374	22.33562
584.571	25.84157
584.768	25.42729
584.965	24.62524
585.162	26.6825
585.359	27.72826
585.556	25.58744
585.753	26.61411
585.95	23.96852
586.147	24.70998
586.344	26.53627
586.541	25.20371
586.738	24.04156
586.935	25.69204
587.132	24.51415
587.329	27.08585
587.526	25.50181
587.722	31.89825
587.919	23.98987
588.116	26.43176
588.313	27.50286
588.51	28.65525
588.706	25.21279
588.903	26.55015
589.1	26.98137
589.297	29.10928
589.493	25.94885
589.69	26.64504
589.887	25.5367
590.083	24.88981
590.28	25.15658
590.477	26.90029
590.673	26.96936
590.87	27.85157
591.067	26.27474
591.263	26.62083
591.46	26.44675
591.656	25.57333
591.853	27.64285
592.049	24.80576
592.246	24.75589
592.442	27.44626
592.639	27.63544
592.835	24.78596
593.032	26.19148
593.228	24.32885
593.425	23.97777
593.621	23.84642
593.817	26.6683
594.014	24.78784
594.21	25.88785
594.406	27.52526
594.603	26.80351
594.799	25.18731
594.995	23.05262
595.192	27.61949
595.388	26.09666
595.584	25.79416
595.78	24.0814
595.977	28.41464
596.173	27.91039
596.369	25.78547
596.565	24.40523
596.761	24.24187
596.957	27.61779
597.154	25.55043
597.35	25.66838
597.546	26.10417
597.742	27.90979
597.938	27.08103
598.134	25.9826
598.33	27.29117
598.526	28.81721
598.722	27.07112
598.918	29.12423
599.114	27.28987
599.31	24.81695
599.506	26.23588
599.702	25.30472
599.898	25.89653
600.094	27.20029
600.29	26.90619
600.485	27.55772
600.681	24.71237
600.877	27.90584
601.073	26.17065
601.269	29.08222
601.465	27.89076
601.66	24.96144
601.856	22.89374
602.052	28.14507
602.248	25.4395
602.443	23.61499
602.639	24.47756
602.835	25.1222
603.03	24.8494
603.226	27.44245
603.422	24.83698
603.617	25.12651
603.813	25.76624
604.009	25.54745
604.204	27.69242
604.4	24.84991
604.595	27.85312
604.791	25.40612
604.986	26.93932
605.182	25.99987
605.377	26.39253
605.573	25.97203
605.768	27.2607
605.964	27.80852
606.159	27.89248
606.355	28.93411
606.55	26.52577
606.746	27.66559
606.941	26.2456
607.136	29.37854
607.332	30.53422
607.527	24.37513
607.722	26.44697
607.918	25.56481
608.113	25.16988
608.308	27.06014
608.503	26.66608
608.699	26.41954
608.894	27.0458
609.089	25.51237
609.284	26.67833
609.479	26.06969
609.675	27.52078
609.87	26.14711
610.065	27.9149
610.26	28.40292
610.455	27.93413
610.65	26.47663
610.845	27.51872
611.04	28.39824
611.235	26.74816
611.43	26.28562
611.625	25.01145
611.82	28.6723
612.015	25.6433
612.21	28.94556
612.405	24.16305
612.6	29.44095
612.795	28.15362
612.99	27.05892
613.185	24.96746
613.38	25.36423
613.575	26.55972
613.77	31.22322
613.965	23.79251
614.159	25.35075
614.354	28.59701
614.549	28.04963
614.744	28.0608
614.938	24.62689
615.133	23.55046
615.328	28.57401
615.523	27.8658
615.717	31.47563
615.912	25.15972
616.107	26.68483
616.301	25.48007
616.496	25.73779
616.691	28.36825
616.885	27.6592
617.08	31.85757
617.274	27.77691
617.469	29.61084
617.664	27.83939
617.858	25.41835
618.053	27.39835
618.247	25.84308
618.442	22.90174
618.636	29.2303
618.831	25.82322
619.025	25.62704
619.219	31.56958
619.414	21.39759
619.608	26.28297
619.803	25.87991
619.997	30.52786
620.191	28.21902
620.386	27.00929
620.58	26.35192
620.774	23.44552
620.969	23.70001
621.163	27.42789
621.357	24.65935
621.551	25.63111
621.746	26.60814
621.94	25.63693
622.134	32.39271
622.328	30.83006
622.522	23.86358
622.716	27.18924
622.911	28.7987
623.105	28.64492
623.299	27.60816
623.493	32.42318
623.687	25.28291
623.881	25.43827
624.075	27.38535
624.269	29.23585
624.463	23.46607
624.657	23.94454
624.851	27.89674
625.045	28.41447
625.239	28.54604
625.433	26.23011
625.627	28.87542
625.821	26.11956
626.015	25.46084
626.209	27.00137
626.403	24.67734
626.596	27.64145
626.79	28.5454
626.984	25.21727
627.178	28.12486
627.372	28.07786
627.565	28.79871
627.759	24.55838
627.953	25.72848
628.147	28.18585
628.34	29.22312
628.534	31.03258
628.728	26.80721
628.921	28.93522
629.115	28.15705
629.309	28.80306
629.502	28.8437
629.696	26.88467
629.89	26.69575
630.083	27.89118
630.277	27.94303
630.47	29.84716
630.664	26.77731
630.857	23.90151
631.051	29.28747
631.244	29.57301
631.438	28.90553
631.631	25.09015
631.825	30.0541
632.018	28.73746
632.212	31.45568
632.405	29.85176
632.598	25.63403
632.792	27.342
632.985	23.17932
633.178	27.26304
633.372	26.1577
633.565	26.83071
633.758	30.36207
633.952	25.65427
634.145	25.47125
634.338	27.27572
634.531	26.03623
634.724	26.53356
634.918	27.87676
635.111	26.93122
635.304	26.64989
635.497	32.47873
635.69	27.62249
635.883	30.18324
636.077	26.07859
636.27	28.37559
636.463	27.54664
636.656	27.77198
636.849	27.04159
637.042	29.11784
637.235	30.88184
637.428	29.07304
637.621	30.20803
637.814	30.43567
638.007	31.27089
638.2	30.19158
638.393	31.26897
638.586	24.43043
638.778	27.10199
638.971	27.35237
639.164	31.4421
639.357	27.08743
639.55	31.34033
639.743	29.85772
639.935	28.82018
640.128	32.89593
640.321	29.38953
640.514	27.21927
640.707	33.32041
640.899	29.55066
641.092	24.30896
641.285	46.55368
641.477	22.58881
641.67	33.77546
641.863	30.94903
642.055	27.07006
642.248	27.07259
642.441	27.2205
642.633	29.71988
642.826	30.04546
643.018	31.10179
643.211	33.11749
643.403	31.96067
643.596	32.91183
643.788	33.71643
643.981	27.09377
644.173	30.32796
644.366	28.17355
644.558	22.7463
644.751	30.88733
644.943	24.3897
645.135	31.97107
645.328	32.44557
645.52	29.0174
645.712	31.50358
645.905	35.89245
646.097	25.2594
646.289	28.68753
646.482	34.14801
646.674	26.13132
646.866	32.25665
647.058	29.25951
647.251	25.0781
647.443	27.22435
647.635	27.24986
647.827	24.85275
648.019	26.66813
648.211	28.41473
648.404	28.58312
648.596	33.1152
648.788	28.64443
648.98	29.10743
649.172	29.37057
649.364	29.73543
649.556	23.88202
649.748	36.43425
649.94	25.86335
650.132	29.87886
650.324	25.57277
650.516	27.17463
650.708	31.50141
650.9	24.97749
651.092	24.78341
651.284	24.83149
651.476	26.20887
651.667	30.41991
651.859	31.94719
652.051	28.67323
652.243	28.85003
652.435	27.17363
652.627	30.48336
652.818	30.23301
653.01	24.07624
653.202	26.08287
653.394	27.53542
653.585	30.58409
653.777	41.76316
653.969	32.6727
654.16	31.04188
654.352	25.99419
654.544	27.11434
654.735	32.60276
654.927	30.07787
655.118	33.44288
655.31	30.33425
655.502	32.98363
655.693	26.77356
655.885	30.5223
656.076	32.37643
656.268	30.1273
656.459	33.90105
656.651	32.8505
656.842	27.45104
657.034	27.57966
657.225	31.14415
657.416	33.02472
657.608	32.54217
657.799	29.85927
657.99	33.01143
658.182	28.60527
658.373	28.34616
658.564	32.18128
658.756	30.08677
658.947	29.48691
659.138	28.01505
659.33	28.59133
659.521	28.45476
659.712	30.50833
659.903	30.07239
660.094	29.3096
660.286	26.8339
660.477	35.97638
660.668	32.48695
660.859	30.80403
661.05	26.3898
661.241	31.9624
661.432	31.33
661.623	29.40557
661.814	29.65795
662.006	25.69663
662.197	29.91942
662.388	33.81346
662.579	30.38091
662.77	38.19449
662.96	38.26245
663.151	31.99591
663.342	25.33154
663.533	31.18668
663.724	29.786
663.915	35.15906
664.106	29.85838
664.297	35.42265
664.488	32.12428
664.678	27.68169
664.869	32.8082
665.06	32.6938
665.251	30.66952
665.442	32.67898
665.632	26.51766
665.823	36.55384
666.014	20.45878
666.204	32.19693
666.395	34.59373
666.586	38.38659
666.776	33.02352
666.967	36.0492
667.158	30.14979
667.348	34.49675
667.539	27.53342
667.729	31.86419
667.92	27.11316
668.111	33.44265
668.301	32.01705
668.492	30.42003
668.682	31.38196
668.873	30.41192
669.063	27.41913
669.253	31.34192
669.444	33.31583
669.634	30.00131
669.825	38.06837
670.015	34.65875
670.206	27.29276
670.396	37.84689
670.586	30.74989
670.777	32.24835
670.967	24.60913
671.157	31.12742
671.347	28.28059
671.538	35.53093
671.728	32.4866
671.918	37.47931
672.108	33.74046
672.299	30.39036
672.489	33.53321
672.679	28.61692
672.869	32.4498
673.059	38.36129
673.249	32.86389
673.44	26.56097
673.63	30.32648
673.82	35.69139
674.01	28.08621
674.2	33.25328
674.39	41.71874
674.58	34.67445
674.77	31.32315
674.96	29.98274
675.15	45.78438
675.34	35.70219
675.53	31.96563
675.72	30.5934
675.91	26.7767
676.099	38.94303
676.289	40.88663
676.479	35.74719
676.669	30.62566
676.859	32.24999
677.049	28.24206
677.238	31.94442
677.428	38.23733
677.618	34.34575
677.808	36.59231
677.997	33.99582
678.187	28.60438
678.377	31.70384
678.567	30.3887
678.756	29.47251
678.946	31.43686
679.136	26.63132
679.325	30.06087
679.515	28.52545
679.704	28.80564
679.894	34.36309
680.084	33.69197
680.273	35.68437
680.463	31.23636
680.652	30.59424
680.842	32.68143
681.031	36.55431
681.221	30.6569
681.41	36.15447
681.6	31.92094
681.789	36.63357
681.978	38.36262
682.168	34.3562
682.357	33.46236
682.547	35.55604
682.736	33.67685
682.925	38.1197
683.115	36.28035
683.304	36.41457
683.493	33.74658
683.682	35.01503
683.872	34.67339
684.061	37.90012
684.25	34.8955
684.439	40.49714
684.629	35.3532
684.818	47.93739
685.007	32.05117
685.196	32.28876
685.385	40.81951
685.574	35.53033
685.763	35.60288
685.952	33.83863
686.142	29.36026
686.331	38.86228
686.52	27.30307
686.709	41.54083
686.898	39.46276
687.087	36.33046
687.276	40.52139
687.465	38.7205
687.654	33.00809
687.842	41.14394
688.031	29.41453
688.22	40.35309
688.409	35.04819
688.598	34.83772
688.787	44.95068
688.976	34.7924
689.165	42.7629
689.353	31.46473
689.542	37.47884
689.731	38.50349
689.92	43.5547
690.108	37.57373
690.297	33.39021
690.486	35.74339
690.675	38.35183
690.863	42.43565
691.052	42.9508
691.241	36.34057
691.429	36.27111
691.618	42.30597
691.806	30.26613
691.995	34.37877
692.184	36.24397
692.372	34.9699
692.561	36.90049
692.749	36.4141
692.938	48.43433
693.126	37.71437
693.315	35.69625
693.503	39.48511
693.692	39.29138
693.88	41.47016
694.068	45.85327
694.257	35.94699
694.445	39.68696
694.634	26.76073
694.822	42.2806
695.01	42.22641
695.199	44.83405
695.387	43.16423
695.575	41.50719
695.763	35.69999
695.952	34.32318
696.14	31.33728
696.328	34.9857
696.516	36.72657
696.705	38.35334
696.893	37.4682
697.081	27.72688
697.269	40.81181
697.457	32.08737
697.645	31.17915
697.833	38.90649
698.021	31.69073
698.21	34.10269
698.398	35.16093
698.586	31.86847
698.774	31.36502
698.962	34.84111
699.15	33.28495
699.338	30.46337
699.526	38.69222
699.714	35.17536
699.901	36.16926
700.089	41.83346
700.277	35.17338
700.465	37.98336
700.653	40.34071
700.841	39.44022
701.029	34.66653
701.217	43.56676
701.404	39.23827
701.592	46.29901
701.78	47.86239
701.968	38.0018
702.155	35.56303
702.343	31.11759
702.531	44.09424
702.718	40.0919
702.906	38.16092
703.094	35.59912
703.281	46.36282
703.469	38.78163
703.657	43.48483
703.844	54.68905
704.032	49.21672
704.219	35.96459
704.407	41.14105
704.595	45.28054
704.782	38.77663
704.97	37.01837
705.157	36.89718
705.345	46.37912
705.532	55.555
705.719	41.76222
705.907	46.83329
706.094	39.55446
706.282	49.41824
706.469	38.51508
706.656	39.8862
706.844	37.68025
707.031	44.42654
707.218	38.73532
707.406	47.74545
707.593	43.60778
707.78	43.53088
707.968	39.78123
708.155	34.77368
708.342	43.48705
708.529	43.83377
708.716	41.14338
708.904	49.15595
709.091	45.39376
709.278	33.53987
709.465	54.22224
709.652	50.94881
709.839	48.58819
710.026	42.58909
710.213	31.47402
710.4	43.10744
710.587	46.25756
710.774	48.63224
710.961	47.2015
711.148	40.75634
711.335	46.55136
711.522	39.905
711.709	42.89675
711.896	52.94158
712.083	47.51448
712.27	37.67414
712.457	41.18295
712.644	32.68444
712.831	53.58996
713.017	42.53477
713.204	46.06738
713.391	39.71594
713.578	47.9638
713.765	51.55915
713.951	46.47498
714.138	62.97041
714.325	46.93702
714.512	43.88432
714.698	37.57414
714.885	52.53586
715.072	44.02085
715.258	42.56402
715.445	39.14611
715.631	51.22836
715.818	28.60412
716.005	40.11609
716.191	48.1394
716.378	41.40573
716.564	51.14605
716.751	39.30401
716.937	41.18479
717.124	51.47301
717.31	39.26215
717.497	55.44212
717.683	39.78491
717.869	60.51837
718.056	40.82798
718.242	46.87161
718.429	43.77912
718.615	35.64462
718.801	45.73719
718.988	52.23606
719.174	50.02229
719.36	44.2718
719.547	51.7484
719.733	47.48294
719.919	47.30054
720.105	52.0665
720.291	44.42163
720.478	46.0327
720.664	45.78656
720.85	42.37425
721.036	64.6805
721.222	54.76817
721.408	46.80624
721.595	61.605
721.781	57.94609
721.967	52.33715
722.153	57.66523
722.339	50.96092
722.525	47.38894
722.711	40.91483
722.897	37.58678
723.083	42.58589
723.269	54.71472
723.455	67.75939
723.641	73.08389
723.827	47.5475
724.012	51.44857
724.198	44.96137
724.384	56.73366
724.57	50.66291
724.756	34.90936
724.942	32.19504
725.127	54.72672
725.313	56.8192
725.499	55.02002
725.685	61.12005
725.87	48.42089
726.056	40.03128
726.242	56.2443
726.428	34.55215
726.613	54.9896
726.799	41.31123
726.985	39.88006
727.17	35.68771
727.356	60.66976
727.541	39.29891
727.727	44.72471
727.913	52.56057
728.098	44.02814
728.284	52.98005
728.469	38.11245
728.655	42.15196
728.84	53.37693
729.026	53.51217
729.211	53.81212
729.397	51.80881
729.582	52.25678
729.767	47.55883
729.953	53.38541
730.138	55.31387
730.323	32.13656
730.509	38.83196
730.694	60.95918
730.879	52.91732
731.065	48.55867
731.25	66.8598
731.435	53.06022
731.621	36.59351
731.806	42.45865
731.991	49.73555
732.176	36.64812
732.361	59.98719
732.547	53.84763
732.732	35.02034
732.917	66.39809
733.102	40.68875
733.287	42.81365
733.472	49.22629
733.657	51.6295
733.842	38.17762
734.027	44.01135
734.212	48.41006
734.397	42.48443
734.582	51.40383
734.767	58.8036
734.952	63.22175
735.137	29.2546
735.322	64.58265
735.507	52.40617
735.692	52.24877
735.877	70.19414
736.062	68.16855
736.247	54.51396
736.431	48.2497
736.616	60.12981
736.801	52.35865
736.986	47.77641
737.171	44.15446
737.355	39.76236
737.54	59.8028
737.725	50.84213
737.909	74.80144
738.094	44.0225
738.279	57.46183
738.463	46.43403
738.648	55.95555
738.833	55.51737
739.017	67.23082
739.202	45.29669
739.386	48.1634
739.571	41.2022
739.756	56.11648
739.94	51.72641
740.125	59.40302
740.309	45.89175
740.494	57.05758
740.678	50.99825
740.863	55.2609
741.047	54.94512
741.231	64.72777
741.416	42.25346
741.6	66.11127
741.785	42.57277
741.969	63.24771
742.153	63.15797
742.338	34.48537
742.522	52.43407
742.706	61.30231
742.89	39.86593
743.075	54.12724
743.259	63.54014
743.443	62.6818
743.627	65.06559
743.812	76.73415
743.996	28.6391
744.18	51.36711
744.364	43.75653
744.548	79.63991
744.732	48.89617
744.916	60.6409
745.1	59.87204
745.285	54.11289
745.469	56.95235
745.653	73.33539
745.837	38.13239
746.021	76.62541
746.205	65.28803
746.389	54.55727
746.573	51.86263
746.757	70.75577
746.94	51.93141
747.124	63.21171
747.308	39.78137
747.492	66.75168
747.676	49.17564
747.86	84.29051
748.044	47.68291
748.227	34.85508
748.411	94.98073
748.595	55.57924
748.779	43.27685
748.963	57.79748
749.146	55.86498
749.33	47.1819
749.514	42.8061
749.697	67.56469
749.881	46.21701
750.065	44.09041
750.248	54.20461
750.432	79.7235
750.616	54.85677
750.799	42.10584
750.983	77.43929
751.166	81.44127
751.35	37.64133
751.533	60.04373
751.717	70.29549
751.9	71.58357
752.084	49.85528
752.267	42.74651
752.451	47.10132
752.634	57.56108
752.818	61.69828
753.001	63.68721
753.184	69.32858
753.368	58.7847
753.551	19.9499
753.734	47.68396
753.918	78.26106
754.101	47.77867
754.284	61.06676
754.467	52.34239
754.651	49.07503
754.834	44.84141
755.017	68.02677
755.2	67.04206
755.384	46.25851
755.567	65.38241
755.75	71.4191
755.933	54.39493
756.116	59.83121
756.299	48.40029
756.482	45.25212
756.665	63.60039
756.848	55.97725
757.032	62.20713
757.215	42.52232
757.398	46.46731
757.581	43.33518
757.764	90.25199
757.947	52.63449
758.129	73.61528
758.312	23.17463
758.495	54.31629
758.678	56.90297
758.861	51.37846
759.044	78.01148
759.227	46.89662
759.41	48.75732
759.592	68.42472
759.775	55.33289
759.958	70.17456
760.141	43.85125
760.324	83.206
760.506	75.28748
760.689	68.38563
760.872	87.46507
761.054	64.96452
761.237	52.42737
761.42	64.60322
761.602	67.46394
761.785	59.43826
761.968	69.11767
762.15	79.97884
762.333	52.45291
762.515	58.84781
762.698	46.54216
762.88	63.46619
763.063	55.19367
763.245	61.22178
763.428	43.39736
763.61	43.87821
763.793	40.90095
763.975	55.63094
764.158	48.69765
764.34	48.01756
764.522	45.45633
764.705	54.7645
764.887	70.54235
765.069	41.61731
765.252	64.61923
765.434	66.28917
765.616	58.53
765.799	51.60944
765.981	65.78157
766.163	46.23686
766.345	69.14359
766.528	51.64593
766.71	30.55951
766.892	58.18341
767.074	75.18993
767.256	50.91171
767.438	82.31714
767.62	63.97098
767.802	89.79304
767.985	72.83241
768.167	86.77076
768.349	54.52339
768.531	73.00935
768.713	62.54451
768.895	77.19343
769.077	61.69827
769.259	98.80315
769.441	132.27707
769.623	78.31886
769.804	86.52811
769.986	88.08406
770.168	98.32474
770.35	119.3269
770.532	90.90123
770.714	94.91056
770.896	99.9433
771.077	51.2981
771.259	104.70825
771.441	88.46377
771.623	112.20115
771.804	135.39331
771.986	41.13691
772.168	71.33596
772.35	100.19579
772.531	149.9159
772.713	80.4772
772.894	113.68484
773.076	79.85115
773.258	72.19096
773.439	110.37051
773.621	126.58277
773.802	58.74922
773.984	81.0589
774.166	85.41135
774.347	130.85899
774.529	110.61973
774.71	40.68018
774.891	79.23191
775.073	77.00173
775.254	123.86381
775.436	66.2796
775.617	134.88726
775.799	71.90292
775.98	128.61061
776.161	132.04963
776.343	122.93983
776.524	83.66989
776.705	76.77297
776.886	45.29329
777.068	92.97494
777.249	150.41244
777.43	134.9492
777.611	58.51508
777.793	82.5692
777.974	126.58363
778.155	74.32435
778.336	63.42661
778.517	142.69968
778.698	66.93718
778.879	43.76442
779.061	24.79473
779.242	99.19416
779.423	101.41318
779.604	67.93308
779.785	84.3641
779.966	90.63531
780.147	113.75464
780.328	116.24986
780.509	147.18918
780.69	115.08114
780.871	74.80603
781.051	51.22231
781.232	91.63447
781.413	89.95255
781.594	80.19345
781.775	72.29625
781.956	67.79167
782.137	44.26149
782.317	70.75705
782.498	94.37549
782.679	95.01615
782.86	92.78472
783.04	70.34272
783.221	98.61976
783.402	133.93136
783.583	87.48368
783.763	109.2807
783.944	76.34045
784.124	54.01101
784.305	132.53809
784.486	101.66626
784.666	80.93082
784.847	52.52188
785.027	183.24799
785.208	69.00973
785.388	70.47632
785.569	73.07954
785.749	79.01104
785.93	72.68623
786.11	50.07352
786.291	103.3969
786.471	91.46454
786.652	108.38264
786.832	84.52508
787.012	95.92026
787.193	55.97262
787.373	89.69804
787.553	75.43256
787.734	93.60855
787.914	75.20197
788.094	94.52946
788.275	92.93465
788.455	74.11273
788.635	52.25105
788.815	85.65171
788.995	58.63112
789.176	52.31537
789.356	62.27986
789.536	78.65374
789.716	87.52471
789.896	68.77951
790.076	74.75727
790.256	87.37437
790.436	34.95108
790.616	65.80724
790.796	92.66643
790.976	74.45023
791.156	67.825
791.336	105.1866
791.516	94.11583
791.696	79.70874
791.876	46.66812
792.056	91.49585
792.236	108.37594
792.416	104.93903
792.596	97.23031
792.776	102.97271
792.956	102.76369
793.135	132.5165
793.315	65.08291
793.495	120.03184
793.675	107.90891
793.854	103.12937
794.034	109.21718
794.214	63.62348
794.394	105.82785
794.573	120.86635
794.753	90.37573
794.933	63.97064
795.112	84.29058
795.292	103.74006
795.472	131.69714
795.651	51.53392
795.831	84.91633
796.01	74.89578
796.19	71.60528
796.369	80.93327
796.549	102.78721
796.728	79.71263
796.908	60.66539
797.087	58.55037
797.267	85.07602
797.446	53.83609
797.626	99.44445
797.805	97.44678
797.984	62.48315
798.164	96.9581
798.343	64.99079
798.522	85.22775
798.702	85.16766
798.881	54.61011
799.06	79.9801
799.239	43.95673
799.419	58.51291
799.598	123.93026
799.777	98.97457
799.956	119.10645
800.136	75.48833
800.315	71.16522
800.494	104.14352
800.673	118.1371
800.852	107.46051
801.031	117.09435
801.21	100.67403
801.389	75.69563
801.568	89.02334
801.747	138.4074
801.926	84.12416
802.105	128.27668
802.284	75.5062
802.463	121.25084
802.642	93.46019
802.821	92.42289
803	126.43612
803.179	109.55151
803.358	125.77719
803.537	72.12581
803.716	98.0134
803.895	70.96681
804.073	87.08079
804.252	76.39631
804.431	105.84888
804.61	87.21183
804.789	115.93295
804.967	74.47059
805.146	78.70965
805.325	153.65517
805.503	103.68992
805.682	56.47623
805.861	163.23294
806.039	125.30499
806.218	74.1478
806.397	92.97362
806.575	86.20302
806.754	90.93404
806.932	65.16331
807.111	134.28002
807.289	109.72652
807.468	96.67175
807.646	115.18528
807.825	105.89531
808.003	100.98591
808.182	116.29839
808.36	90.63412
808.539	72.01704
808.717	129.10565
808.895	66.38656
809.074	104.54634
809.252	84.19697
809.43	115.85806
809.609	132.5412
809.787	145.66527
809.965	95.98473
810.144	91.15709
810.322	87.28886
810.5	109.19904
810.678	94.38703
810.856	158.59041
811.035	124.98819
811.213	121.16342
811.391	126.81885
811.569	97.98148
811.747	195.95594
811.925	134.49971
812.103	70.2261
812.281	80.47262
812.459	171.14899
812.637	147.0102
812.816	134.21439
812.994	158.88089
813.171	137.05474
813.349	113.1911
813.527	145.7669
813.705	136.20328
813.883	162.54252
814.061	136.11028
814.239	149.22028
814.417	162.31969
814.595	113.48705
814.773	112.17295
814.95	107.9909
815.128	105.76981
815.306	98.28915
815.484	91.41357
815.662	76.10642
815.839	64.21033
816.017	84.38856
816.195	127.77795
816.372	87.14899
816.55	141.67773
816.728	143.47446
816.905	99.35803
817.083	135.62934
817.261	101.376
817.438	200.89779
817.616	161.56341
817.793	87.54001
817.971	125.15899
818.148	119.0374
818.326	142.709
818.503	110.24954
818.681	149.1955
818.858	81.35497
819.036	101.67602
819.213	110.03083
819.391	79.6202
819.568	70.78517
819.745	65.35212
819.923	112.3976
820.1	78.48795
820.277	67.53695
820.455	80.92087
820.632	82.88057
820.809	85.96712
820.986	56.02469
821.164	47.61532
821.341	44.08579
821.518	57.69753
821.695	44.8454
821.872	43.12413
822.05	38.75051
822.227	35.65256
822.404	37.43129
822.581	40.7428
822.758	39.4003
822.935	40.18925
823.112	43.23367
823.289	41.27587
823.466	44.81415
823.643	44.72782
823.82	50.22594
823.997	50.08579
824.174	53.92262
824.351	66.04477
824.528	64.37134
824.705	63.74084
824.882	64.20932
825.059	80.43826
825.236	62.81731
825.412	61.65567
825.589	70.49744
825.766	88.92581
825.943	64.09262
826.12	73.01825
826.296	55.9242
826.473	60.90471
826.65	58.2917
826.827	67.34235
827.003	49.59284
827.18	53.19004
827.357	58.14585
827.533	52.95794
827.71	40.82122
827.887	50.97257
828.063	58.59206
828.24	52.29586
828.416	64.82778
828.593	58.83516
828.769	77.64991
828.946	80.65703
829.122	84.01464
829.299	89.67422
829.475	59.11635
829.652	86.71723
829.828	127.12392
830.005	85.96286
830.181	119.71563
830.357	81.31182
830.534	108.95216
830.71	88.61876
830.886	111.8736
831.063	112.104
831.239	145.24121
831.415	70.55698
831.592	135.46883
831.768	93.95872
831.944	75.52551
832.12	138.01845
832.296	129.27462
832.473	110.85888
832.649	78.8977
832.825	98.03801
833.001	60.32145
833.177	86.67961
833.353	76.80123
833.529	47.48618
833.705	65.12854
833.881	50.94903
834.058	50.71232
834.234	55.1677
834.41	56.40263
834.586	46.73873
834.761	53.4805
834.937	58.94226
835.113	63.93508
835.289	61.02782
835.465	69.24619
835.641	69.1035
835.817	74.02304
835.993	120.48279
836.169	65.3725
836.344	96.33415
836.52	109.4303
836.696	110.89299
836.872	81.65204
837.048	208.31918
837.223	92.78624
837.399	174.22529
837.575	139.77811
837.75	138.19214
837.926	198.57674
838.102	283.59417
838.277	216.51446
838.453	301.66372
838.628	288.17418
838.804	112.32426
838.98	276.03163
839.155	146.34132
839.331	177.42659
839.506	129.3064
839.682	115.27451
839.857	154.28896
840.033	169.02892
840.208	89.0738
840.384	56.8853
840.559	94.87958
840.734	133.2229
840.91	178.89433
841.085	120.01962
841.26	111.39332
841.436	133.04095
841.611	113.58561
841.786	164.38466
841.962	254.42152
842.137	163.82744
842.312	93.43411
842.487	151.30613
842.663	110.05962
842.838	131.4527
843.013	530.68824
843.188	316.24795
843.363	202.1469
843.538	513.7534
843.714	498.72122
843.889	447.80497
844.064	519.96473
844.239	279.22532
844.414	541.99703
844.589	298.39187
844.764	761.11145
844.939	493.48923
845.114	456.64411
845.289	667.70615
845.464	799.4898
845.639	729.67713
845.814	243.77385
845.989	507.54714
846.163	422.13697
846.338	766.56189
846.513	624.15895
846.688	362.62737
846.863	739.22299
847.038	431.76775
847.212	375.10293
847.387	696.98805
847.562	388.36709
847.737	580.43554
847.911	249.83574
848.086	252.12858
848.261	450.14689
848.435	359.2024
848.61	544.76416
848.785	276.44574
848.959	517.16622
849.134	666.61737
849.308	1097.36213
849.483	683.37216
849.658	723.236
849.832	400.71629
850.007	278.03489
850.181	1062.57474
850.356	694.79013
850.53	957.7215
850.705	408.45993
850.879	244.76516
851.053	540.74584
851.228	435.86019
851.402	831.70086
851.577	656.58448
851.751	853.61103
851.925	438.11907
852.099	262.61319
852.274	314.98014
852.448	356.71691
852.622	968.70995
852.797	374.4398
852.971	456.01376
853.145	876.09709
853.319	1033.57328
853.493	1197.93887
853.668	507.57032
853.842	1522.52342
854.016	1120.3102
854.19	1579.89229
854.364	633.62148
854.538	636.28342
854.712	756.01933
854.886	408.58476
855.06	386.00437
855.234	199.62231
855.408	827.72673
855.582	565.75445
855.756	927.05988
855.93	609.06764
856.104	727.87161
856.278	798.95446
856.452	358.78993
856.626	686.03502
856.8	1150.43702
856.973	1208.31397
857.147	1150.72555
857.321	1560.4221
857.495	554.51085
857.669	789.29115
857.842	610.90388
858.016	496.97062
858.19	396.64802
858.364	1316.88508
858.537	560.12018
858.711	1146.21808
858.885	888.21785
859.058	315.19795
859.232	282.16827
859.405	415.7215
859.579	780.468
859.753	704.42992
859.926	901.80729
860.1	587.9872
860.273	1079.9184
860.447	869.15071
860.62	611.00982
860.794	866.02925
860.967	650.39834
861.141	605.99983
861.314	753.64959
861.487	664.85758
861.661	546.61426
861.834	838.58933
862.008	1146.34557
862.181	845.69478
862.354	1427.00629
862.528	757.98864
862.701	423.80683
862.874	370.01604
863.047	467.47482
863.221	518.08815
863.394	354.06888
863.567	447.55244
863.74	160.83365
863.913	1072.09635
864.087	644.18876
864.26	623.60507
864.433	746.14087
864.606	1030.9108
864.779	1658.78749
864.952	313.575
865.125	925.95083
865.298	622.33999
865.471	599.9147
865.644	1027.52376
865.817	609.10151
865.99	975.2442
866.163	864.59215
866.336	457.59798
866.509	420.66467
866.682	572.58269
866.855	1337.61721
867.028	218.10041
867.2	642.71968
867.373	163.95434
867.546	492.77397
867.719	1252.30268
867.892	653.29086
868.064	457.86577
868.237	472.84845
868.41	561.27735
868.583	306.14335
868.755	311.72796
868.928	688.63003
869.101	925.37878
869.273	1766.96453
869.446	493.15815
869.619	935.9332
869.791	451.07721
869.964	749.0122
870.136	1029.78924
870.309	454.64097
870.481	418.5718
870.654	371.93328
870.826	424.15318
870.999	322.46197
871.171	549.10539
871.344	308.56553
871.516	402.83022
871.689	401.36065
871.861	534.5016
872.033	381.41862
872.206	361.18528
872.378	537.57718
872.55	486.78335
872.723	494.86281
872.895	650.63147
873.067	556.27733
873.24	510.56826
873.412	449.37424
873.584	376.95997
873.756	656.77883
873.928	771.91748
874.101	373.33566
874.273	506.58084
874.445	161.9819
874.617	314.13928
874.789	370.92422
874.961	389.22259
875.133	447.34351
875.305	550.04301
875.477	390.72012
875.649	268.32809
875.821	332.32081
875.993	737.40271
876.165	386.50151
876.337	528.57567
876.509	518.95726
876.681	465.56649
876.853	451.98298
877.025	690.90473
877.197	255.55618
877.369	300.90209
877.541	428.51631
877.712	108.20326
877.884	215.26523
878.056	519.57731
878.228	251.09143
878.4	511.4708
878.571	260.42553
878.743	174.48317
878.915	322.71158
879.086	173.66022
879.258	215.68763
879.43	194.16672
879.601	168.61648
879.773	153.02211
879.945	49.04739
880.116	67.55889
880.288	48.35237
880.459	49.21833
880.631	41.38557
880.802	47.78243
880.974	44.60065
881.145	34.81289
881.317	44.61745
881.488	37.59039
881.66	42.26473
881.831	39.92721
882.002	49.0956
882.174	42.02385
882.345	50.00419
882.517	36.2742
882.688	59.34393
882.859	51.12423
883.03	75.8181
883.202	71.66878
883.373	68.78651
883.544	69.59111
883.715	102.78099
883.887	98.08085
884.058	85.70162
884.229	111.38904
884.4	110.57385
884.571	143.341
884.742	105.78939
884.914	122.04672
885.085	172.91242
885.256	211.5518
885.427	195.85957
885.598	199.11088
885.769	218.30543
885.94	224.81596
886.111	146.71907
886.282	228.6739
886.453	244.59932
886.624	179.68656
886.795	272.4049
886.966	243.49229
887.136	292.69454
887.307	237.3323
887.478	431.4795
887.649	337.34349
887.82	391.19201
887.991	264.84393
888.161	466.1051
888.332	418.53982
888.503	230.32036
888.674	485.12633
888.844	701.07984
889.015	653.92342
889.186	350.6402
889.356	621.06692
889.527	366.27176
889.698	1048.37107
889.868	290.0341
890.039	555.71831
890.209	387.77124
890.38	624.90494
890.551	482.08209
890.721	805.62431
890.892	532.90787
891.062	1172.5512
891.233	549.28016
891.403	712.30527
891.574	582.39957
891.744	398.19678
891.914	377.02231
892.085	562.44556
892.255	130.04951
892.425	557.44411
892.596	427.92126
892.766	515.0488
892.936	794.43173
893.107	456.64356
893.277	252.15018
893.447	203.83322
893.618	132.24239
893.788	244.12931
893.958	117.93849
894.128	108.35016
894.298	132.75938
894.468	166.97425
894.639	84.19498
894.809	59.92328
894.979	88.76201
895.149	114.55881
895.319	92.43958
895.489	108.78317
895.659	160.2826
895.829	100.91603
895.999	115.84723
896.169	97.43521
896.339	129.26407
896.509	265.46792
896.679	264.05448
896.849	302.37092
897.019	360.16833
897.189	348.96387
897.358	313.21649
897.528	538.24613
897.698	199.98808
897.868	391.11592
898.038	875.17703
898.208	1019.58814
898.377	272.46351
898.547	1941.61874
898.717	3177.12215
898.886	842.87273
899.056	808.94666
899.226	2084.81627
899.395	2204.65958
899.565	2411.60552
899.735	4390.348
899.904	1713.28971
900.074	5615.33145
900.244	696.00762
900.413	3376.62308
900.583	785.4375
900.752	-2094.7133
900.922	1093.72677
901.091	192.07657
901.261	2181.98548
901.43	1207.98595
901.599	3198.54314
901.769	2723.31178
901.938	2572.36333
902.108	1062.442
902.277	1536.38829
902.446	473.34369
902.616	641.92652
902.785	580.06067
902.954	849.25811
903.124	510.20176
903.293	381.29855
903.462	147.08669
903.631	223.82725
903.801	159.24846
903.97	92.06052
904.139	123.39422
904.308	99.14009
904.477	83.97871
904.646	53.89364
904.816	80.89594
904.985	118.71718
905.154	187.23856
