Data from WindowProjectSample_Transmission__56__00056.txt Node

Date: Sat May 03 16:54:04 EDT 2025
User: jessi
Spectrometer: SR400872
Trigger mode: 0
Integration Time (sec): 5.000010E-1
Scans to average: 6
Electric dark correction enabled: true
Nonlinearity correction enabled: true
Boxcar width: 0
XAxis mode: Wavelengths
Number of Pixels in Spectrum: 3648
>>>>>Begin Spectral Data<<<<<
184.909	182932.88831
185.132	1636.16282
185.355	-1994.16561
185.578	3342.33812
185.801	-602.68806
186.024	5736.62229
186.247	1109.03728
186.47	825.29401
186.693	-322.07397
186.916	155.6996
187.139	10028.83074
187.362	3503.67261
187.585	2991.53297
187.808	-1282.50502
188.031	-86.00975
188.254	7926.85542
188.476	474.94159
188.699	-4082.18853
188.922	-275.55774
189.145	-4179.39394
189.368	-394.24645
189.591	-915.3143
189.813	-1930.35954
190.036	4925.19551
190.259	3138.06973
190.482	2236.71254
190.705	8395.55076
190.927	-1592.57371
191.15	-1642.42254
191.373	4645.85582
191.595	-1616.99382
191.818	9227.69825
192.041	-273.89856
192.263	-2252.76812
192.486	-847.79393
192.709	8636.38208
192.931	-2497.60972
193.154	-1982.35164
193.377	4643.06996
193.599	5790.4269
193.822	-1602.15188
194.044	-1890.96512
194.267	579.36925
194.489	390.9931
194.712	2080.9007
194.934	3430.11065
195.157	-8072.0107
195.379	1849.23162
195.602	5127.25945
195.824	5157.33476
196.047	-9176.96804
196.269	-10824.92432
196.492	-1108.17461
196.714	-5067.49795
196.936	4362.11764
197.159	-2610.67137
197.381	-542.38186
197.604	1225.16613
197.826	-3191.81372
198.048	-1270.92311
198.271	-11834.67684
198.493	9468.91221
198.715	-2341.26544
198.938	-598.60081
199.16	-3353.59064
199.382	1752.78548
199.604	-1389.95332
199.827	-1227.11357
200.049	-4131.9792
200.271	2464.8161
200.493	-23890.33004
200.715	4860.59383
200.938	12668.02787
201.16	-230416.07794
201.382	-4710.07118
201.604	-1019.34002
201.826	-6542.91501
202.048	-6992.14785
202.27	-4827.08281
202.492	-3662.45137
202.715	-1293.9955
202.937	-3418.69621
203.159	1004.09877
203.381	-89139.53429
203.603	-1005.29221
203.825	-1489.01567
204.047	2423.58001
204.269	-874.23557
204.491	6258.92314
204.713	-8376.36102
204.935	39147.82025
205.156	1815.62939
205.378	-7264.26832
205.6	-1593.7123
205.822	6296.55214
206.044	-228.03643
206.266	-2118.5004
206.488	751.90117
206.71	-506557.87462
206.932	-15456.16356
207.153	11571.676
207.375	-2126.5474
207.597	14869.90061
207.819	1641.27035
208.041	6059.5615
208.262	665.33836
208.484	-959.29171
208.706	-922.91854
208.927	10149.64455
209.149	-7658.05012
209.371	-2655.20618
209.593	-2466.45584
209.814	-3976.98814
210.036	2601.67568
210.258	-641.0987
210.479	1889.32988
210.701	728.41619
210.922	4114.82407
211.144	-1605.42569
211.366	5754.28886
211.587	-471.77937
211.809	-3520.25545
212.03	-2325.94767
212.252	-439.23797
212.473	2697.72902
212.695	-690.18227
212.916	-850.45018
213.138	726.31435
213.359	-1219.30994
213.581	-3099.82597
213.802	-1110.71011
214.024	10363.96863
214.245	-913.51076
214.466	-208.82723
214.688	-3491.82733
214.909	-713.46525
215.131	8130.54401
215.352	-1039.92702
215.573	-244889.88887
215.795	4284.5058
216.016	-3843.11905
216.237	-486.91529
216.459	-11632.85314
216.68	-1502.75186
216.901	-1647.71589
217.122	1768.95088
217.344	-8501.32113
217.565	-1605.89503
217.786	22473.92151
218.007	878.55261
218.228	-3846.66576
218.45	-5443.34103
218.671	-1388.7736
218.892	817.06448
219.113	1684.5239
219.334	145.29664
219.555	-6017.46699
219.776	32619.46612
219.997	-6662.33379
220.219	-8306.56377
220.44	-4761.86426
220.661	-1208.50706
220.882	11955.89858
221.103	-801.92135
221.324	2364.59067
221.545	-6697.10518
221.766	-1488.08477
221.987	-416.50529
222.208	1789.19014
222.429	6551.89699
222.65	-102.65703
222.87	-580.61528
223.091	42236.13947
223.312	723.18558
223.533	-1988.74075
223.754	3498.77239
223.975	1651.13215
224.196	-749.44552
224.417	-27485.78322
224.637	-2029.41005
224.858	258.3008
225.079	3467.05627
225.3	1556.58756
225.521	3589.65066
225.741	-2072.26307
225.962	1542.81448
226.183	869.99693
226.404	1842.38575
226.624	1793.98468
226.845	1313.40166
227.066	2311.25842
227.286	657.0237
227.507	407.11076
227.728	371.48306
227.948	528.46469
228.169	128.79778
228.389	127.11011
228.61	54.52262
228.831	83.19496
229.051	7.79792
229.272	45.68095
229.492	61.07568
229.713	20.9017
229.933	47.89564
230.154	37.87333
230.374	68.94539
230.595	51.82412
230.815	34.96402
231.036	53.21168
231.256	-10.27217
231.477	104.43156
231.697	59.9212
231.917	69.9672
232.138	79.0477
232.358	174.71862
232.579	164.65927
232.799	30.8671
233.019	160.51442
233.24	210.43004
233.46	61.03525
233.68	109.26269
233.901	94.78047
234.121	48.04823
234.341	17.16486
234.561	-5.63941
234.782	31.03128
235.002	115.74518
235.222	1.20497
235.442	88.10319
235.662	44.00351
235.883	101.34074
236.103	85.35991
236.323	57.68479
236.543	49.56481
236.763	68.60224
236.983	64.61243
237.203	73.4182
237.423	106.45662
237.643	148.47366
237.864	127.51968
238.084	28.88319
238.304	51.75545
238.524	84.20968
238.744	66.4378
238.964	106.30115
239.184	101.68714
239.404	102.3637
239.624	46.41559
239.843	93.85913
240.063	55.29592
240.283	32.51878
240.503	34.9933
240.723	33.42174
240.943	18.25328
241.163	26.41649
241.383	18.28659
241.603	7.16735
241.822	10.15945
242.042	8.97839
242.262	11.10211
242.482	12.24628
242.702	14.13804
242.921	4.86215
243.141	9.95999
243.361	8.56513
243.581	12.75533
243.8	11.57105
244.02	6.79841
244.24	14.64743
244.459	14.70158
244.679	25.30509
244.899	15.62651
245.118	19.77549
245.338	17.03673
245.558	20.1954
245.777	11.82703
245.997	13.21766
246.216	13.33249
246.436	7.26641
246.655	5.12713
246.875	4.20267
247.094	7.60598
247.314	2.60253
247.533	4.44636
247.753	5.88297
247.972	4.22568
248.192	1.54827
248.411	2.83938
248.631	4.88143
248.85	6.35816
249.07	4.75259
249.289	8.24298
249.508	5.8656
249.728	10.37751
249.947	10.01064
250.166	11.43706
250.386	6.2138
250.605	9.20789
250.824	15.63084
251.044	10.97882
251.263	36.66739
251.482	18.83869
251.701	16.91041
251.921	0.30579
252.14	5.52307
252.359	6.06183
252.578	13.3581
252.798	5.09403
253.017	13.39732
253.236	6.10639
253.455	7.7845
253.674	15.96347
253.893	7.08139
254.112	10.68413
254.331	15.80666
254.551	13.36527
254.77	5.49899
254.989	20.72325
255.208	17.86273
255.427	21.42287
255.646	18.98895
255.865	30.5387
256.084	13.05841
256.303	14.87025
256.522	20.62791
256.741	3.52998
256.96	4.34122
257.179	14.50795
257.397	15.94676
257.616	7.43379
257.835	8.27286
258.054	20.30805
258.273	13.77753
258.492	16.42874
258.711	8.79481
258.93	3.49141
259.148	5.35673
259.367	5.467
259.586	7.06252
259.805	3.15535
260.023	6.56231
260.242	5.15657
260.461	3.41988
260.68	1.92816
260.898	6.12413
261.117	2.12004
261.336	1.07147
261.554	5.01996
261.773	5.11486
261.992	0.39854
262.21	5.19752
262.429	5.77137
262.648	10.08949
262.866	12.11561
263.085	7.21886
263.303	7.17972
263.522	11.54823
263.74	12.69552
263.959	20.88923
264.178	10.51017
264.396	8.96668
264.615	6.48329
264.833	16.45516
265.051	13.77472
265.27	13.5047
265.488	15.49908
265.707	9.64122
265.925	15.22472
266.144	6.47752
266.362	8.82492
266.58	9.12509
266.799	6.68649
267.017	8.1438
267.235	7.54475
267.454	4.70393
267.672	3.12474
267.89	5.75811
268.109	6.46319
268.327	5.88481
268.545	1.79785
268.763	6.18168
268.982	2.72074
269.2	6.8072
269.418	4.01305
269.636	2.97664
269.854	5.75518
270.073	5.13329
270.291	2.48479
270.509	2.90385
270.727	6.23528
270.945	9.69565
271.163	9.56305
271.381	2.47499
271.599	3.48511
271.817	7.09405
272.036	2.30569
272.254	4.37172
272.472	3.62094
272.69	3.36226
272.908	3.3967
273.126	6.11908
273.344	7.21032
273.562	2.58543
273.779	3.18305
273.997	5.17867
274.215	5.69668
274.433	3.98067
274.651	6.42606
274.869	6.23159
275.087	3.64589
275.305	5.85657
275.523	3.26039
275.74	4.44479
275.958	7.32091
276.176	10.99231
276.394	3.51387
276.612	4.3026
276.829	4.2713
277.047	3.28349
277.265	4.04214
277.483	4.91942
277.7	5.63265
277.918	4.92908
278.136	8.49163
278.353	4.06454
278.571	2.06359
278.789	6.92804
279.006	1.09364
279.224	4.09194
279.442	7.34375
279.659	4.72799
279.877	3.22758
280.094	7.75938
280.312	1.88064
280.529	4.33545
280.747	1.41332
280.964	4.03885
281.182	8.25113
281.399	3.68937
281.617	5.27465
281.834	3.37633
282.052	3.20221
282.269	4.27923
282.487	3.70458
282.704	2.71543
282.921	3.23549
283.139	4.58836
283.356	5.61441
283.574	4.80937
283.791	2.64582
284.008	7.5544
284.226	3.71713
284.443	4.49705
284.66	5.63889
284.877	4.65727
285.095	2.99509
285.312	2.01079
285.529	1.3621
285.746	0.99364
285.964	2.7551
286.181	1.68743
286.398	2.78646
286.615	3.49619
286.832	3.45609
287.05	1.27458
287.267	2.27639
287.484	2.85939
287.701	3.83074
287.918	3.39696
288.135	3.65876
288.352	1.74591
288.569	1.92604
288.786	3.51587
289.003	2.47207
289.22	3.97927
289.437	2.47117
289.654	4.06627
289.871	4.33416
290.088	4.07892
290.305	2.80505
290.522	2.54317
290.739	3.23221
290.956	4.24469
291.173	5.2045
291.39	4.76275
291.607	3.16539
291.824	2.02154
292.04	1.5893
292.257	3.80351
292.474	4.50859
292.691	2.77921
292.908	1.47677
293.125	2.7962
293.341	1.40757
293.558	6.95165
293.775	2.82488
293.992	2.96516
294.208	1.29417
294.425	2.09667
294.642	2.88753
294.858	4.03046
295.075	1.37351
295.292	3.0218
295.508	4.08915
295.725	6.02589
295.942	4.30481
296.158	3.94833
296.375	5.4867
296.591	4.37275
296.808	5.56945
297.024	6.31499
297.241	6.7969
297.458	7.22604
297.674	4.58991
297.891	6.95091
298.107	7.21254
298.323	6.02547
298.54	9.13115
298.756	7.11082
298.973	6.30386
299.189	9.8744
299.406	7.97485
299.622	9.53615
299.838	10.24007
300.055	9.64104
300.271	7.90062
300.487	7.8792
300.704	8.91842
300.92	8.27862
301.136	13.19642
301.353	11.12915
301.569	10.11225
301.785	10.60205
302.001	11.23241
302.218	10.72539
302.434	11.42168
302.65	9.55742
302.866	10.53723
303.083	14.04459
303.299	14.56187
303.515	11.6163
303.731	12.62061
303.947	10.48867
304.163	11.50871
304.379	12.53609
304.595	12.76558
304.812	11.53059
305.028	11.61837
305.244	11.64581
305.46	13.24359
305.676	13.97442
305.892	14.43777
306.108	13.48341
306.324	12.42773
306.54	15.01606
306.756	13.21218
306.972	12.79661
307.187	13.50393
307.403	14.52341
307.619	12.2273
307.835	14.00781
308.051	15.03616
308.267	11.68483
308.483	15.68488
308.699	14.3133
308.914	14.2926
309.13	13.81642
309.346	12.74852
309.562	13.31833
309.778	12.81793
309.993	14.73303
310.209	15.07727
310.425	13.07642
310.641	14.73763
310.856	13.83952
311.072	13.97355
311.288	14.97486
311.503	15.56516
311.719	13.05993
311.935	13.55814
312.15	15.93534
312.366	15.7523
312.581	15.71361
312.797	15.40371
313.013	15.97173
313.228	14.39891
313.444	14.16705
313.659	13.7267
313.875	15.34862
314.09	14.49775
314.306	16.06685
314.521	15.8773
314.737	15.93017
314.952	14.85453
315.168	15.00662
315.383	15.42711
315.599	13.72486
315.814	14.83041
316.029	15.35115
316.245	14.08323
316.46	12.2294
316.675	16.00197
316.891	17.08628
317.106	18.60664
317.321	15.04958
317.537	15.73212
317.752	16.2496
317.967	15.83651
318.183	13.92853
318.398	14.43432
318.613	16.33774
318.828	16.91809
319.043	15.7315
319.259	14.49965
319.474	15.09628
319.689	16.70975
319.904	12.74573
320.119	16.55075
320.334	15.03347
320.549	15.05744
320.765	16.38139
320.98	15.50868
321.195	15.28638
321.41	15.58781
321.625	15.6451
321.84	17.25558
322.055	16.58294
322.27	14.41428
322.485	13.69504
322.7	16.10694
322.915	16.59869
323.13	15.73119
323.345	18.14986
323.56	17.48668
323.775	17.06687
323.989	17.17418
324.204	16.16606
324.419	17.80267
324.634	14.87316
324.849	16.30882
325.064	19.70973
325.279	18.15568
325.493	16.96564
325.708	17.44796
325.923	15.29917
326.138	16.4517
326.352	18.33497
326.567	17.3511
326.782	15.72646
326.997	16.42936
327.211	17.13022
327.426	16.31183
327.641	16.25681
327.855	14.42413
328.07	18.19663
328.285	19.32876
328.499	15.87928
328.714	16.52181
328.928	16.78738
329.143	16.84637
329.358	18.03351
329.572	17.5231
329.787	18.88656
330.001	19.85629
330.216	14.42699
330.43	19.65122
330.645	17.76794
330.859	17.64262
331.074	15.23417
331.288	16.74741
331.503	19.08371
331.717	15.32076
331.931	16.45282
332.146	17.46914
332.36	19.55473
332.575	17.56706
332.789	16.97059
333.003	17.45286
333.218	17.70242
333.432	17.39976
333.646	18.72744
333.86	19.81398
334.075	19.19466
334.289	16.93103
334.503	15.42495
334.717	18.60702
334.932	16.97396
335.146	17.59264
335.36	15.28607
335.574	17.21743
335.788	16.87029
336.003	17.8223
336.217	18.46816
336.431	17.65255
336.645	16.58629
336.859	16.33621
337.073	18.1298
337.287	19.01028
337.501	16.79385
337.715	19.15402
337.929	19.33493
338.143	17.3402
338.357	18.19392
338.571	17.82541
338.785	19.31496
338.999	17.625
339.213	17.75796
339.427	17.10553
339.641	19.3512
339.855	17.04517
340.069	16.39011
340.283	19.03266
340.497	19.98348
340.711	18.70629
340.924	18.40382
341.138	17.58549
341.352	16.68789
341.566	18.41985
341.78	16.85251
341.993	17.33944
342.207	17.74698
342.421	19.15983
342.635	18.30848
342.848	18.24505
343.062	15.23637
343.276	18.01777
343.49	20.79682
343.703	17.60824
343.917	19.95432
344.131	20.14122
344.344	17.76697
344.558	18.43272
344.771	17.27708
344.985	20.19647
345.199	20.84264
345.412	19.14241
345.626	19.70421
345.839	17.18624
346.053	17.56316
346.266	17.89762
346.48	19.57511
346.693	19.88464
346.907	19.27845
347.12	17.69469
347.334	18.9001
347.547	19.44311
347.76	18.6454
347.974	19.98281
348.187	18.9703
348.401	18.77939
348.614	17.56798
348.827	18.98896
349.041	19.61905
349.254	17.19145
349.467	18.14719
349.681	17.9756
349.894	17.77058
350.107	20.65141
350.32	21.56596
350.534	17.43526
350.747	18.96498
350.96	18.17512
351.173	18.48176
351.386	18.55147
351.6	18.14255
351.813	19.02114
352.026	18.93306
352.239	18.20806
352.452	18.55293
352.665	20.86493
352.878	18.85329
353.092	22.24924
353.305	20.22438
353.518	19.78279
353.731	18.07444
353.944	20.75773
354.157	18.88016
354.37	19.27824
354.583	17.9374
354.796	18.51742
355.009	20.98447
355.222	20.21632
355.435	19.89578
355.647	21.15045
355.86	19.36046
356.073	19.9429
356.286	19.05444
356.499	21.26241
356.712	21.07924
356.925	20.91105
357.138	21.1941
357.35	19.50206
357.563	19.80988
357.776	20.80397
357.989	20.70709
358.201	21.07066
358.414	20.70225
358.627	22.09425
358.84	20.17936
359.052	18.97021
359.265	19.50374
359.478	21.75119
359.69	17.97109
359.903	21.53483
360.116	21.99163
360.328	19.40566
360.541	21.63229
360.753	20.68229
360.966	20.8798
361.179	21.32899
361.391	20.94434
361.604	20.64393
361.816	20.93285
362.029	20.89523
362.241	20.6416
362.454	21.20094
362.666	20.31835
362.879	22.00729
363.091	20.97189
363.304	20.6384
363.516	20.69343
363.728	19.95366
363.941	21.45118
364.153	21.41526
364.366	19.37044
364.578	19.95464
364.79	21.40594
365.003	21.58412
365.215	20.4413
365.427	22.09605
365.639	22.02107
365.852	21.19056
366.064	22.70251
366.276	20.82938
366.488	21.49318
366.701	21.39271
366.913	20.70459
367.125	20.7764
367.337	20.3381
367.549	20.81964
367.762	21.17542
367.974	20.74926
368.186	21.14375
368.398	21.82342
368.61	21.54797
368.822	22.02625
369.034	20.81674
369.246	22.06097
369.458	24.51565
369.67	20.68458
369.882	22.82906
370.094	18.98123
370.306	22.77421
370.518	21.19447
370.73	21.00731
370.942	21.02764
371.154	21.59575
371.366	21.5647
371.578	22.62685
371.79	21.67792
372.002	22.73838
372.214	24.36184
372.425	21.14677
372.637	23.28186
372.849	21.99797
373.061	19.87395
373.273	22.25725
373.484	22.45248
373.696	22.69172
373.908	19.65951
374.12	22.51727
374.331	22.72741
374.543	21.02287
374.755	20.97427
374.967	21.94842
375.178	23.40342
375.39	21.86227
375.602	22.2874
375.813	20.88584
376.025	21.29164
376.236	22.37052
376.448	22.63197
376.66	22.71435
376.871	22.56661
377.083	23.65906
377.294	24.46409
377.506	22.2454
377.717	23.63928
377.929	23.20157
378.14	22.51407
378.352	22.99852
378.563	23.59771
378.775	24.06151
378.986	21.70022
379.197	22.67063
379.409	21.97657
379.62	23.16437
379.832	23.06132
380.043	22.69273
380.254	23.3933
380.466	21.68508
380.677	25.64014
380.888	24.69628
381.1	25.74695
381.311	25.20777
381.522	23.65264
381.733	25.59422
381.945	23.25994
382.156	22.70544
382.367	22.65657
382.578	26.21566
382.789	26.08312
383.001	22.56129
383.212	25.45627
383.423	25.3622
383.634	24.4439
383.845	24.17426
384.056	23.1917
384.267	23.45307
384.478	23.86394
384.69	22.64301
384.901	24.37562
385.112	23.84624
385.323	25.56438
385.534	24.02292
385.745	24.26307
385.956	23.82646
386.167	23.20553
386.378	24.38331
386.588	23.41553
386.799	23.07999
387.01	22.71511
387.221	24.83931
387.432	24.06593
387.643	25.47665
387.854	24.06769
388.065	23.77154
388.275	23.61212
388.486	23.34955
388.697	24.12117
388.908	23.29068
389.119	25.34549
389.329	25.38073
389.54	24.50233
389.751	24.63455
389.962	25.29077
390.172	24.10366
390.383	24.13177
390.594	23.60359
390.804	23.89736
391.015	23.98474
391.226	24.71802
391.436	25.36492
391.647	25.06275
391.858	25.2824
392.068	23.07363
392.279	23.8684
392.489	25.3804
392.7	25.21624
392.91	24.27028
393.121	24.01346
393.331	25.45134
393.542	26.37981
393.752	25.65847
393.963	25.49528
394.173	25.19625
394.384	25.41452
394.594	25.28803
394.804	23.92282
395.015	24.78324
395.225	25.38054
395.436	23.98376
395.646	25.39397
395.856	25.04035
396.067	23.7626
396.277	25.79058
396.487	25.15058
396.697	25.38558
396.908	25.71205
397.118	25.81643
397.328	25.40754
397.538	25.95179
397.749	24.86117
397.959	26.1243
398.169	25.63332
398.379	24.18707
398.589	25.41359
398.8	26.06365
399.01	25.70473
399.22	25.09321
399.43	27.11902
399.64	25.50547
399.85	25.90835
400.06	25.61411
400.27	24.67768
400.48	25.4949
400.69	26.34439
400.9	25.06108
401.11	24.46805
401.32	26.0189
401.53	24.88342
401.74	26.99793
401.95	26.15503
402.16	25.44369
402.37	26.00041
402.58	25.21416
402.79	26.33339
403	26.56785
403.209	25.38565
403.419	26.84603
403.629	25.55096
403.839	27.1715
404.049	26.95284
404.258	26.17011
404.468	25.68206
404.678	26.84896
404.888	27.22595
405.097	26.29674
405.307	26.21518
405.517	26.50377
405.727	26.87996
405.936	25.86395
406.146	26.35538
406.356	27.28419
406.565	26.18806
406.775	25.81969
406.984	25.70112
407.194	27.93464
407.404	26.39547
407.613	26.54508
407.823	27.09493
408.032	27.31923
408.242	26.82056
408.451	25.93139
408.661	26.28741
408.87	28.03311
409.08	25.95075
409.289	26.89537
409.499	27.0788
409.708	26.41157
409.918	24.54706
410.127	27.11478
410.336	27.8663
410.546	27.42265
410.755	26.35248
410.964	26.30122
411.174	25.56979
411.383	27.02834
411.592	26.84051
411.802	25.87747
412.011	27.24934
412.22	26.54156
412.429	27.5414
412.639	27.87644
412.848	27.69317
413.057	28.31597
413.266	27.68922
413.475	26.8168
413.685	27.66508
413.894	27.92561
414.103	27.68589
414.312	27.59905
414.521	26.59869
414.73	27.27641
414.939	29.01081
415.148	27.72751
415.357	27.60933
415.566	27.30138
415.776	27.47722
415.985	26.99953
416.194	28.05823
416.403	29.36412
416.611	26.77319
416.82	27.53832
417.029	28.16067
417.238	27.56389
417.447	27.49323
417.656	27.71422
417.865	27.49041
418.074	28.09767
418.283	27.96337
418.492	29.08826
418.7	28.84082
418.909	29.71986
419.118	28.4857
419.327	28.86021
419.536	28.68981
419.744	28.75
419.953	30.60171
420.162	31.12739
420.371	30.99429
420.579	32.83026
420.788	33.44623
420.997	33.80259
421.205	34.61102
421.414	33.98748
421.623	34.28384
421.831	33.45189
422.04	33.85361
422.249	32.1876
422.457	32.00387
422.666	30.85389
422.874	32.12208
423.083	32.54234
423.291	32.88951
423.5	33.43495
423.708	34.10394
423.917	34.95794
424.125	33.91695
424.334	33.88754
424.542	35.98456
424.751	35.47031
424.959	34.28717
425.167	33.914
425.376	33.45146
425.584	30.82941
425.793	30.26679
426.001	28.66726
426.209	29.46207
426.418	28.40037
426.626	28.36035
426.834	28.35112
427.042	28.77917
427.251	28.39355
427.459	29.70728
427.667	28.84062
427.875	28.04282
428.084	28.77746
428.292	29.87966
428.5	29.62556
428.708	28.32143
428.916	28.70711
429.124	29.34525
429.333	29.01267
429.541	29.00426
429.749	29.29311
429.957	29.36792
430.165	31.36373
430.373	28.05276
430.581	29.61256
430.789	30.2488
430.997	29.10816
431.205	28.62602
431.413	29.8134
431.621	29.18302
431.829	29.80654
432.037	29.47251
432.245	30.0685
432.453	30.24866
432.661	29.45718
432.869	31.2531
433.076	29.29901
433.284	29.63566
433.492	30.16219
433.7	30.6681
433.908	29.39764
434.116	29.91823
434.323	29.96477
434.531	29.69091
434.739	30.01727
434.947	30.31896
435.154	30.29814
435.362	29.66744
435.57	29.45034
435.778	29.16128
435.985	30.1002
436.193	29.30844
436.401	31.11443
436.608	30.06952
436.816	29.80638
437.023	31.19481
437.231	31.61638
437.439	30.10922
437.646	31.02591
437.854	30.6338
438.061	31.05685
438.269	30.30269
438.476	31.25618
438.684	30.47491
438.891	30.17694
439.099	30.26629
439.306	29.93335
439.514	29.78962
439.721	30.96941
439.929	30.29791
440.136	31.27193
440.343	31.06891
440.551	30.91747
440.758	32.64794
440.965	31.38038
441.173	30.65323
441.38	30.17414
441.587	30.83835
441.795	30.14534
442.002	30.55254
442.209	30.62322
442.416	30.81104
442.624	30.91517
442.831	30.86172
443.038	30.24459
443.245	29.94515
443.452	30.47294
443.66	31.41731
443.867	30.52813
444.074	30.48419
444.281	30.53012
444.488	30.38536
444.695	31.19847
444.902	30.671
445.109	31.88187
445.316	30.94762
445.523	32.32892
445.73	33.05386
445.937	34.25527
446.144	35.36118
446.351	36.16595
446.558	34.42871
446.765	37.36975
446.972	35.51143
447.179	34.953
447.386	35.28509
447.593	32.10512
447.8	33.23613
448.007	30.9487
448.214	30.69988
448.42	30.36479
448.627	31.71133
448.834	30.93338
449.041	30.82235
449.248	30.76287
449.454	31.37632
449.661	32.13992
449.868	30.90925
450.075	30.57534
450.281	29.80739
450.488	30.43409
450.695	30.43716
450.901	30.503
451.108	30.69096
451.315	32.10913
451.521	31.13277
451.728	32.43855
451.935	31.06918
452.141	31.22069
452.348	31.34265
452.554	31.51074
452.761	31.18768
452.967	32.80531
453.174	31.72021
453.38	31.6008
453.587	30.56209
453.793	31.55449
454	32.06088
454.206	33.21439
454.413	32.28397
454.619	32.1402
454.825	31.04391
455.032	32.00964
455.238	32.31851
455.445	30.50247
455.651	31.50185
455.857	29.98745
456.064	31.43537
456.27	31.34221
456.476	31.32137
456.682	30.91053
456.889	31.99208
457.095	32.19613
457.301	33.51692
457.507	32.08734
457.714	31.84383
457.92	32.21528
458.126	31.50455
458.332	32.0446
458.538	31.74049
458.744	32.32495
458.951	32.37403
459.157	33.87692
459.363	33.71541
459.569	34.30161
459.775	34.59249
459.981	35.32826
460.187	35.77478
460.393	34.98204
460.599	34.44817
460.805	32.72514
461.011	31.81457
461.217	32.35362
461.423	32.72341
461.629	31.86351
461.835	32.31428
462.041	31.7988
462.247	33.35483
462.453	31.97707
462.658	31.65247
462.864	32.59039
463.07	32.47273
463.276	32.67156
463.482	32.47994
463.688	33.60166
463.893	32.07674
464.099	32.07426
464.305	33.53939
464.511	32.06712
464.716	32.02233
464.922	33.07396
465.128	31.63032
465.333	33.71234
465.539	33.02351
465.745	32.83035
465.95	32.59196
466.156	34.61209
466.362	33.5754
466.567	32.68372
466.773	32.34227
466.978	33.97044
467.184	32.20681
467.389	31.09684
467.595	32.89544
467.8	31.89673
468.006	33.47137
468.211	33.72336
468.417	31.97996
468.622	33.16942
468.828	33.30131
469.033	33.14831
469.239	35.05471
469.444	32.54257
469.649	33.53375
469.855	32.89133
470.06	32.6126
470.266	32.07701
470.471	33.31868
470.676	33.36432
470.881	31.65605
471.087	34.40015
471.292	34.30018
471.497	31.87412
471.703	32.74458
471.908	32.4428
472.113	33.19409
472.318	34.03599
472.523	32.77185
472.729	33.52383
472.934	33.46312
473.139	32.90701
473.344	33.5599
473.549	34.32843
473.754	32.52481
473.959	35.21943
474.164	32.76649
474.369	33.05065
474.575	34.37939
474.78	33.42746
474.985	32.70985
475.19	32.125
475.395	33.24131
475.6	33.68544
475.804	34.98065
476.009	33.90209
476.214	33.77858
476.419	33.24523
476.624	32.6283
476.829	32.99038
477.034	34.25286
477.239	33.00771
477.444	34.18634
477.648	34.16457
477.853	34.19385
478.058	33.41634
478.263	33.16338
478.468	33.19179
478.672	33.26233
478.877	34.74792
479.082	35.05682
479.287	34.02224
479.491	33.60026
479.696	33.30893
479.901	34.60869
480.105	34.08368
480.31	33.12402
480.515	34.18968
480.719	35.86565
480.924	33.95816
481.128	33.42743
481.333	34.38156
481.538	34.54675
481.742	34.37979
481.947	35.95126
482.151	38.91552
482.356	43.09797
482.56	50.10068
482.765	57.26081
482.969	67.67557
483.174	75.5996
483.378	85.84963
483.582	88.92309
483.787	92.42285
483.991	93.25611
484.196	93.28524
484.4	90.20324
484.604	87.85337
484.809	80.06961
485.013	73.27197
485.217	65.17192
485.422	57.96189
485.626	52.96592
485.83	51.28341
486.034	50.89568
486.239	53.09831
486.443	55.6983
486.647	58.41136
486.851	61.69685
487.055	65.95997
487.26	67.20668
487.464	69.68212
487.668	68.90903
487.872	69.58021
488.076	68.5766
488.28	65.49018
488.484	60.72948
488.688	58.02012
488.892	53.85682
489.096	49.4924
489.3	45.76778
489.504	42.7115
489.708	40.64154
489.912	40.10439
490.116	40.0808
490.32	41.35136
490.524	45.45922
490.728	48.61474
490.932	52.52109
491.136	55.8599
491.34	58.1061
491.544	58.80291
491.748	58.61707
491.951	58.04801
492.155	56.06461
492.359	53.10315
492.563	48.27373
492.767	44.29489
492.97	39.05731
493.174	34.94267
493.378	33.51571
493.582	33.46033
493.785	34.23508
493.989	34.29116
494.193	34.53332
494.396	34.3246
494.6	34.95854
494.804	34.27906
495.007	33.95872
495.211	34.65663
495.414	34.60432
495.618	34.97189
495.822	35.98348
496.025	35.14214
496.229	35.62032
496.432	34.66024
496.636	35.13189
496.839	34.90469
497.043	35.76026
497.246	35.21475
497.45	34.77116
497.653	35.14885
497.856	34.90905
498.06	34.33023
498.263	34.49694
498.467	34.80429
498.67	35.55569
498.873	35.31624
499.077	34.47338
499.28	35.00506
499.483	35.13002
499.686	35.72093
499.89	34.98915
500.093	35.1365
500.296	34.458
500.499	36.37469
500.703	34.94943
500.906	35.30395
501.109	36.19876
501.312	34.77592
501.515	35.12664
501.719	35.19539
501.922	35.62907
502.125	35.25947
502.328	35.52295
502.531	34.55812
502.734	35.25357
502.937	34.11607
503.14	35.90389
503.343	35.01312
503.546	35.34958
503.749	34.9922
503.952	35.85641
504.155	34.84892
504.358	35.62521
504.561	35.83086
504.764	34.53349
504.967	35.57616
505.17	35.57061
505.373	36.44191
505.576	35.1952
505.778	36.05227
505.981	34.79899
506.184	36.31003
506.387	34.27213
506.59	37.15112
506.793	36.59423
506.995	36.04886
507.198	34.02504
507.401	36.38536
507.604	36.28846
507.806	34.90475
508.009	35.39769
508.212	36.27091
508.414	35.47248
508.617	35.48632
508.82	35.69884
509.022	36.91186
509.225	35.8837
509.427	34.58523
509.63	36.36761
509.833	35.45773
510.035	35.07581
510.238	34.79877
510.44	36.96801
510.643	34.48231
510.845	36.97719
511.048	36.39244
511.25	35.54816
511.453	35.94332
511.655	36.01477
511.858	35.76097
512.06	36.34866
512.262	36.07535
512.465	36.60474
512.667	35.74311
512.869	35.08383
513.072	36.19286
513.274	36.54069
513.476	36.54384
513.679	36.46055
513.881	35.11129
514.083	37.07613
514.286	35.37098
514.488	35.12062
514.69	35.11661
514.892	34.90574
515.094	36.45686
515.297	35.74033
515.499	36.27094
515.701	35.63974
515.903	37.38151
516.105	37.59864
516.307	36.84067
516.509	35.21733
516.711	36.02601
516.913	36.8143
517.116	37.07208
517.318	36.3867
517.52	37.63359
517.722	37.43291
517.924	36.06892
518.126	36.968
518.328	36.27455
518.529	36.82023
518.731	37.93359
518.933	35.86542
519.135	36.28998
519.337	37.22341
519.539	36.45568
519.741	35.02952
519.943	35.88827
520.145	36.06036
520.346	36.91685
520.548	36.13524
520.75	36.92229
520.952	36.29887
521.153	36.55633
521.355	37.15719
521.557	35.81277
521.759	36.43898
521.96	36.56471
522.162	35.73217
522.364	37.26136
522.565	36.11814
522.767	37.28706
522.969	37.30605
523.17	37.02994
523.372	36.97052
523.573	36.88558
523.775	36.99458
523.977	36.17439
524.178	38.70261
524.38	36.74033
524.581	37.7154
524.783	37.1232
524.984	37.74723
525.186	37.23885
525.387	37.83175
525.589	37.32553
525.79	37.0241
525.991	37.00255
526.193	37.89523
526.394	37.19411
526.596	38.47097
526.797	39.64353
526.998	39.81134
527.2	43.22304
527.401	49.06296
527.602	54.47369
527.803	62.1854
528.005	67.46056
528.206	71.70753
528.407	74.77645
528.608	75.19848
528.81	75.24292
529.011	72.85834
529.212	72.56047
529.413	67.44001
529.614	61.98516
529.815	56.24887
530.017	50.7579
530.218	44.93345
530.419	41.05875
530.62	38.89897
530.821	37.37875
531.022	36.01479
531.223	37.10996
531.424	37.30906
531.625	37.46373
531.826	37.54846
532.027	39.55821
532.228	43.24105
532.429	45.65533
532.63	47.90843
532.831	50.69099
533.032	51.11103
533.233	52.45917
533.433	51.34567
533.634	51.04931
533.835	48.66855
534.036	46.47018
534.237	43.26392
534.438	40.36492
534.638	36.59063
534.839	36.37364
535.04	37.10428
535.241	36.8169
535.441	38.56956
535.642	38.14509
535.843	36.97898
536.043	37.12829
536.244	37.32932
536.445	37.51717
536.645	38.28159
536.846	38.01136
537.047	38.1965
537.247	36.57546
537.448	36.68734
537.648	37.04448
537.849	36.62469
538.049	36.89165
538.25	37.57602
538.451	37.38554
538.651	36.54418
538.851	37.73821
539.052	38.62775
539.252	38.31569
539.453	37.83095
539.653	38.16537
539.854	37.92938
540.054	38.49137
540.254	41.40836
540.455	45.57869
540.655	48.45941
540.855	53.24983
541.056	55.85714
541.256	56.06168
541.456	57.27752
541.657	56.56774
541.857	56.13422
542.057	53.44939
542.257	50.54439
542.458	48.87736
542.658	45.33255
542.858	41.29405
543.058	39.7713
543.258	38.14486
543.458	36.60435
543.659	36.60471
543.859	37.69877
544.059	38.12076
544.259	37.17595
544.459	38.29366
544.659	36.99268
544.859	37.55164
545.059	37.1814
545.259	38.36422
545.459	38.24295
545.659	38.54411
545.859	38.21099
546.059	38.092
546.259	37.40009
546.459	36.95395
546.659	37.0768
546.859	38.30163
547.059	37.83425
547.258	37.97026
547.458	37.90303
547.658	37.0713
547.858	36.62386
548.058	37.48623
548.258	37.20119
548.457	36.40795
548.657	39.21894
548.857	37.2865
549.057	38.06568
549.256	38.52289
549.456	36.89387
549.656	35.87584
549.855	39.54882
550.055	37.32691
550.255	39.43903
550.454	37.60159
550.654	38.19686
550.853	39.38524
551.053	38.62488
551.253	38.1727
551.452	38.7476
551.652	37.06889
551.851	37.07663
552.051	38.01253
552.25	37.65627
552.45	37.8121
552.649	37.95419
552.849	37.24387
553.048	37.70501
553.248	38.5005
553.447	36.9817
553.646	38.46268
553.846	39.82545
554.045	38.76671
554.244	36.65652
554.444	39.49701
554.643	37.18341
554.842	39.07811
555.042	39.86048
555.241	37.46027
555.44	36.97209
555.64	38.69926
555.839	39.85102
556.038	38.66434
556.237	37.30965
556.436	38.68854
556.636	38.60507
556.835	37.39733
557.034	39.95845
557.233	38.34653
557.432	36.6747
557.631	39.5432
557.83	37.95005
558.029	37.39546
558.228	37.38171
558.427	37.1067
558.626	38.64077
558.825	37.32085
559.024	38.13867
559.223	39.47867
559.422	38.11525
559.621	39.16181
559.82	35.90576
560.019	38.26566
560.218	37.98353
560.417	36.0144
560.616	37.61582
560.815	41.75241
561.014	36.63926
561.212	40.2994
561.411	38.66884
561.61	36.92333
561.809	38.10977
562.008	39.47322
562.206	37.96754
562.405	38.89249
562.604	38.19242
562.803	38.70019
563.001	37.79321
563.2	37.19261
563.399	38.91887
563.597	37.77009
563.796	38.60038
563.995	37.25614
564.193	39.48065
564.392	38.39731
564.59	41.12807
564.789	37.20945
564.988	38.32733
565.186	38.90979
565.385	39.16516
565.583	38.80765
565.782	39.06578
565.98	38.57344
566.179	38.83867
566.377	37.66655
566.575	37.95788
566.774	39.62939
566.972	39.36472
567.171	40.40891
567.369	39.92532
567.567	38.88909
567.766	38.64238
567.964	36.77295
568.162	38.73767
568.361	39.56962
568.559	38.42432
568.757	38.97462
568.956	38.68423
569.154	38.70032
569.352	39.46868
569.55	38.78272
569.748	38.43133
569.947	37.98638
570.145	37.90968
570.343	37.85558
570.541	39.87015
570.739	38.00293
570.937	39.02275
571.135	39.28562
571.333	41.00407
571.532	40.23791
571.73	39.07547
571.928	40.03535
572.126	39.08784
572.324	38.29746
572.522	39.8362
572.72	41.53401
572.918	38.8249
573.116	39.48339
573.313	38.56074
573.511	38.69111
573.709	37.7559
573.907	40.07416
574.105	38.56413
574.303	37.40787
574.501	37.64747
574.699	39.36225
574.896	39.8526
575.094	39.49824
575.292	37.73081
575.49	39.77825
575.688	38.72372
575.885	40.34588
576.083	40.84394
576.281	39.39391
576.478	37.59963
576.676	39.07793
576.874	36.81159
577.071	38.58444
577.269	41.26836
577.467	38.97968
577.664	38.57411
577.862	40.25695
578.059	37.40325
578.257	39.85384
578.455	38.02672
578.652	38.38138
578.85	36.32086
579.047	38.91658
579.245	38.94674
579.442	38.52588
579.64	38.67461
579.837	36.60479
580.034	42.12507
580.232	38.41176
580.429	37.03996
580.627	39.26189
580.824	40.62134
581.021	39.12228
581.219	38.15281
581.416	36.98278
581.613	40.45052
581.811	40.59947
582.008	38.11448
582.205	39.89864
582.402	38.75283
582.6	40.917
582.797	38.13484
582.994	39.12668
583.191	39.75794
583.388	39.06693
583.586	39.66343
583.783	39.80286
583.98	37.93068
584.177	39.08492
584.374	35.51987
584.571	38.86563
584.768	38.37135
584.965	37.82985
585.162	39.59225
585.359	41.3754
585.556	38.65064
585.753	39.06031
585.95	37.19597
586.147	38.29211
586.344	39.22089
586.541	38.14326
586.738	37.53344
586.935	38.88291
587.132	37.95077
587.329	40.38962
587.526	38.74796
587.722	45.31768
587.919	37.60438
588.116	39.84806
588.313	41.15268
588.51	41.96542
588.706	38.80887
588.903	40.12904
589.1	40.31312
589.297	41.99747
589.493	39.49906
589.69	39.79148
589.887	38.16969
590.083	37.80786
590.28	38.16556
590.477	40.0028
590.673	40.54546
590.87	41.02661
591.067	38.87041
591.263	39.38116
591.46	39.1345
591.656	38.73865
591.853	40.70089
592.049	37.80146
592.246	38.27544
592.442	40.62721
592.639	40.65972
592.835	38.48075
593.032	39.52441
593.228	37.81558
593.425	37.08934
593.621	37.1472
593.817	39.72244
594.014	38.47102
594.21	39.75909
594.406	40.65756
594.603	39.62813
594.799	38.66424
594.995	36.22943
595.192	40.8128
595.388	38.68715
595.584	38.94599
595.78	37.74055
595.977	42.77126
596.173	41.71893
596.369	39.25973
596.565	38.49012
596.761	38.02405
596.957	41.07246
597.154	38.18529
597.35	38.56843
597.546	38.45655
597.742	39.7057
597.938	39.20848
598.134	38.33604
598.33	39.14672
598.526	40.28795
598.722	39.31236
598.918	41.6224
599.114	39.97959
599.31	37.5041
599.506	38.47882
599.702	38.40275
599.898	39.17847
600.094	40.36936
600.29	39.99379
600.485	41.15727
600.681	38.93758
600.877	42.32158
601.073	39.88422
601.269	42.09344
601.465	41.54609
601.66	38.27914
601.856	37.2207
602.052	42.1807
602.248	39.63923
602.443	37.64621
602.639	38.32477
602.835	39.22116
603.03	38.47727
603.226	41.20101
603.422	38.83113
603.617	39.1531
603.813	39.85699
604.009	39.5534
604.204	41.21878
604.4	37.67248
604.595	40.85821
604.791	38.67487
604.986	39.64482
605.182	38.49322
605.377	39.3888
605.573	38.29944
605.768	39.12596
605.964	40.01909
606.159	40.28112
606.355	40.4173
606.55	38.15799
606.746	40.4087
606.941	39.30415
607.136	43.16164
607.332	43.98461
607.527	37.76611
607.722	40.17747
607.918	39.8374
608.113	39.28585
608.308	41.32395
608.503	41.13365
608.699	40.60647
608.894	41.09052
609.089	38.95841
609.284	39.98897
609.479	39.56688
609.675	40.90966
609.87	38.77134
610.065	41.17308
610.26	40.43589
610.455	40.43595
610.65	38.87578
610.845	39.19152
611.04	40.89989
611.235	39.0081
611.43	38.98887
611.625	37.1256
611.82	41.68334
612.015	38.62646
612.21	41.79464
612.405	37.32665
612.6	42.37757
612.795	41.26978
612.99	40.66034
613.185	38.11764
613.38	38.39518
613.575	39.34942
613.77	44.01468
613.965	37.19738
614.159	38.06508
614.354	41.76347
614.549	41.37551
614.744	41.54517
614.938	37.25936
615.133	37.53892
615.328	42.33373
615.523	41.18671
615.717	44.06699
615.912	38.53912
616.107	39.84473
616.301	39.06797
616.496	38.60066
616.691	42.26072
616.885	41.31693
617.08	45.23447
617.274	41.48559
617.469	43.09082
617.664	40.7531
617.858	39.18639
618.053	40.81622
618.247	39.43246
618.442	35.68955
618.636	42.60366
618.831	38.47868
619.025	39.56653
619.219	44.10482
619.414	34.52457
619.608	39.30689
619.803	38.87566
619.997	43.709
620.191	40.98921
620.386	40.17827
620.58	39.83689
620.774	36.81735
620.969	37.25401
621.163	40.16308
621.357	37.72019
621.551	39.08783
621.746	39.92574
621.94	39.66477
622.134	45.92689
622.328	44.10271
622.522	36.06725
622.716	41.25545
622.911	41.69496
623.105	41.53449
623.299	40.9487
623.493	44.9781
623.687	38.64413
623.881	39.41757
624.075	40.88237
624.269	42.76442
624.463	36.07947
624.657	37.56784
624.851	41.19624
625.045	41.70366
625.239	42.36576
625.433	40.75811
625.627	42.79096
625.821	39.9098
626.015	39.61617
626.209	40.81161
626.403	38.89424
626.596	41.54657
626.79	41.66903
626.984	38.46859
627.178	41.59625
627.372	41.04649
627.565	41.52088
627.759	37.33262
627.953	37.85452
628.147	40.79567
628.34	40.93986
628.534	44.40414
628.728	39.25046
628.921	41.75434
629.115	40.77568
629.309	41.6521
629.502	42.87258
629.696	40.30191
629.89	39.59245
630.083	41.01897
630.277	41.4441
630.47	43.45394
630.664	38.82901
630.857	37.00488
631.051	40.97645
631.244	42.95348
631.438	42.1438
631.631	38.43757
631.825	43.68377
632.018	41.82618
632.212	44.5989
632.405	42.23407
632.598	39.87233
632.792	40.43223
632.985	36.39239
633.178	40.50898
633.372	40.01123
633.565	40.72107
633.758	43.57195
633.952	38.72521
634.145	38.6316
634.338	39.89417
634.531	39.6472
634.724	39.43681
634.918	40.5625
635.111	39.78782
635.304	39.93481
635.497	45.41342
635.69	41.54512
635.883	43.11734
636.077	38.82259
636.27	41.85912
636.463	40.67423
636.656	40.84777
636.849	40.35054
637.042	42.32574
637.235	44.37313
637.428	43.30721
637.621	43.40832
637.814	43.68746
638.007	43.89855
638.2	43.62659
638.393	44.64321
638.586	37.92739
638.778	40.21244
638.971	41.07543
639.164	44.61423
639.357	41.23814
639.55	44.10114
639.743	43.27675
639.935	41.56125
640.128	46.54268
640.321	43.22067
640.514	40.95671
640.707	46.68613
640.899	42.89152
641.092	36.73489
641.285	60.28286
641.477	36.33748
641.67	47.3594
641.863	44.52292
642.055	41.94211
642.248	40.50304
642.441	40.00427
642.633	42.31135
642.826	44.7936
643.018	45.56602
643.211	45.66864
643.403	46.33642
643.596	46.37671
643.788	45.43118
643.981	40.45437
644.173	44.80141
644.366	40.93966
644.558	37.47149
644.751	44.39564
644.943	38.05348
645.135	45.32044
645.328	46.0856
645.52	42.43899
645.712	44.87652
645.905	49.78691
646.097	37.88855
646.289	41.65626
646.482	48.13376
646.674	40.35534
646.866	45.58411
647.058	43.29734
647.251	39.63562
647.443	40.1035
647.635	40.83129
647.827	39.56992
648.019	39.94714
648.211	41.72052
648.404	42.2336
648.596	46.61046
648.788	41.30408
648.98	42.78731
649.172	43.26884
649.364	44.16398
649.556	38.26494
649.748	50.51112
649.94	39.45221
650.132	43.82857
650.324	39.31521
650.516	41.37849
650.708	45.80678
650.9	40.04983
651.092	41.09193
651.284	38.56855
651.476	39.02352
651.667	43.26127
651.859	45.22812
652.051	40.86325
652.243	42.04044
652.435	40.5021
652.627	43.66376
652.818	43.43484
653.01	38.1728
653.202	40.2214
653.394	40.95051
653.585	43.54216
653.777	55.32025
653.969	45.43346
654.16	44.59906
654.352	38.79622
654.544	41.21964
654.735	45.3886
654.927	43.2193
655.118	47.22514
655.31	43.66811
655.502	45.74858
655.693	42.21947
655.885	45.08054
656.076	46.2992
656.268	43.41199
656.459	46.58112
656.651	47.02771
656.842	42.05161
657.034	40.93036
657.225	45.5477
657.416	47.12736
657.608	46.87367
657.799	43.67394
657.99	48.06962
658.182	42.45791
658.373	42.94257
658.564	46.21504
658.756	43.95966
658.947	42.88441
659.138	41.04322
659.33	41.60345
659.521	41.5895
659.712	42.804
659.903	41.94199
660.094	41.6762
660.286	38.64097
660.477	48.55068
660.668	44.0758
660.859	42.48497
661.05	39.0622
661.241	44.50961
661.432	45.09761
661.623	41.62853
661.814	40.88499
662.006	38.1847
662.197	44.17625
662.388	46.96395
662.579	44.0152
662.77	46.93102
662.96	50.90498
663.151	45.85662
663.342	37.99744
663.533	46.35036
663.724	43.69981
663.915	48.60662
664.106	43.56052
664.297	49.31167
664.488	45.77324
664.678	41.06625
664.869	46.3513
665.06	46.12881
665.251	44.10735
665.442	45.67242
665.632	39.68055
665.823	49.67573
666.014	33.89013
666.204	45.5438
666.395	48.75541
666.586	51.64174
666.776	46.55182
666.967	49.38256
667.158	44.19967
667.348	47.18183
667.539	40.40668
667.729	46.96346
667.92	41.60532
668.111	47.40599
668.301	46.44229
668.492	44.82851
668.682	44.53148
668.873	44.49254
669.063	40.3177
669.253	45.49543
669.444	47.23278
669.634	43.15575
669.825	50.81312
670.015	47.73511
670.206	40.50187
670.396	50.40633
670.586	43.56718
670.777	44.26074
670.967	37.92667
671.157	43.84622
671.347	41.87028
671.538	50.28339
671.728	46.49387
671.918	51.62708
672.108	47.75479
672.299	43.25455
672.489	46.66387
672.679	41.36939
672.869	45.88866
673.059	52.32318
673.249	45.56121
673.44	39.73784
673.63	44.58478
673.82	47.65588
674.01	42.53893
674.2	45.19739
674.39	55.19363
674.58	48.65332
674.77	45.54251
674.96	43.43829
675.15	59.78428
675.34	50.16247
675.53	45.10923
675.72	43.85591
675.91	40.03983
676.099	51.81283
676.289	54.63461
676.479	48.916
676.669	42.28036
676.859	45.9043
677.049	42.63626
677.238	45.71789
677.428	52.5778
677.618	48.05542
677.808	50.70481
677.997	48.32429
678.187	42.14833
678.377	47.56711
678.567	44.3838
678.756	43.23647
678.946	45.38348
679.136	40.54022
679.325	42.90257
679.515	42.3086
679.704	42.28932
679.894	48.16043
680.084	46.96371
680.273	49.34592
680.463	44.36275
680.652	43.02718
680.842	45.58491
681.031	48.77547
681.221	44.04534
681.41	48.02712
681.6	44.46815
681.789	49.94572
681.978	49.38826
682.168	46.56739
682.357	44.82473
682.547	48.41879
682.736	46.16479
682.925	48.95355
683.115	49.69529
683.304	49.0612
683.493	47.41522
683.682	48.33155
683.872	47.96682
684.061	51.06474
684.25	48.88092
684.439	54.79116
684.629	49.50455
684.818	60.15574
685.007	45.56732
685.196	46.03873
685.385	54.14073
685.574	47.99255
685.763	50.16497
685.952	47.52951
686.142	43.72444
686.331	52.0725
686.52	40.00457
686.709	55.22212
686.898	53.03652
687.087	49.56246
687.276	54.0996
687.465	51.64496
687.654	47.31838
687.842	53.20519
688.031	43.39508
688.22	52.67992
688.409	48.56468
688.598	48.09775
688.787	57.80998
688.976	48.35398
689.165	56.86132
689.353	45.49752
689.542	49.69703
689.731	52.50819
689.92	56.11644
690.108	51.84634
690.297	45.72791
690.486	48.62105
690.675	52.93704
690.863	56.52289
691.052	54.99713
691.241	49.19027
691.429	48.57122
691.618	54.91624
691.806	43.15038
691.995	47.02846
692.184	49.79368
692.372	47.14412
692.561	51.86578
692.749	48.77892
692.938	62.31987
693.126	51.88741
693.315	47.88145
693.503	52.48762
693.692	52.42677
693.88	55.11408
694.068	59.45234
694.257	50.023
694.445	53.09498
694.634	41.58498
694.822	53.74862
695.01	56.15035
695.199	59.04189
695.387	58.1872
695.575	55.21385
695.763	49.9833
695.952	48.33926
696.14	43.88575
696.328	48.55648
696.516	50.91423
696.705	52.75629
696.893	50.7091
697.081	44.13697
697.269	54.25324
697.457	46.57928
697.645	46.72403
697.833	54.94068
698.021	46.499
698.21	48.32736
698.398	49.59312
698.586	45.93584
698.774	44.22542
698.962	48.00663
699.15	45.40892
699.338	43.4631
699.526	50.56098
699.714	46.25944
699.901	46.52387
700.089	53.57544
700.277	46.90655
700.465	48.90026
700.653	52.99394
700.841	52.0774
701.029	47.80206
701.217	56.90235
701.404	51.23082
701.592	59.33743
701.78	61.66522
701.968	51.74572
702.155	49.90424
702.343	44.21486
702.531	56.55519
702.718	52.12692
702.906	50.78804
703.094	47.83485
703.281	58.79336
703.469	52.24188
703.657	58.6704
703.844	69.69796
704.032	61.35401
704.219	49.09821
704.407	54.44929
704.595	59.26349
704.782	53.05311
704.97	50.34315
705.157	51.20909
705.345	59.52087
705.532	68.68481
705.719	56.05454
705.907	58.35107
706.094	52.93977
706.282	63.12917
706.469	53.52019
706.656	54.89028
706.844	52.80666
707.031	59.72957
707.218	53.79419
707.406	63.90855
707.593	57.49054
707.78	57.84651
707.968	53.44243
708.155	49.95225
708.342	57.78156
708.529	58.08408
708.716	56.06144
708.904	63.33492
709.091	58.96875
709.278	48.46003
709.465	68.44005
709.652	65.11026
709.839	63.08976
710.026	56.61459
710.213	45.8883
710.4	57.07013
710.587	60.6021
710.774	62.36809
710.961	59.96178
711.148	54.11793
711.335	58.70545
711.522	53.71063
711.709	56.68115
711.896	68.94122
712.083	61.45821
712.27	50.89347
712.457	55.8486
712.644	46.12626
712.831	67.87548
713.017	56.8049
713.204	59.23229
713.391	53.39908
713.578	62.9115
713.765	67.04567
713.951	59.94644
714.138	76.45952
714.325	62.85225
714.512	59.21589
714.698	51.76425
714.885	67.5793
715.072	59.26497
715.258	57.04645
715.445	52.95175
715.631	64.30035
715.818	43.87226
716.005	53.54883
716.191	62.43224
716.378	54.75431
716.564	65.65847
716.751	51.8378
716.937	54.54084
717.124	63.11865
717.31	52.53676
717.497	69.66741
717.683	52.37645
717.869	74.41008
718.056	54.28627
718.242	60.89919
718.429	57.7443
718.615	50.81977
718.801	59.8078
718.988	64.99082
719.174	62.35918
719.36	57.1363
719.547	65.2014
719.733	57.91038
719.919	60.71802
720.105	66.08817
720.291	58.85252
720.478	59.13049
720.664	60.27504
720.85	54.81604
721.036	80.01792
721.222	71.84784
721.408	59.51878
721.595	73.86177
721.781	72.28362
721.967	66.96298
722.153	71.89097
722.339	65.18418
722.525	62.79892
722.711	54.84675
722.897	53.76936
723.083	55.88116
723.269	66.75568
723.455	79.137
723.641	89.09317
723.827	62.32635
724.012	65.55413
724.198	58.20555
724.384	69.88052
724.57	64.11518
724.756	49.22709
724.942	47.17366
725.127	68.56604
725.313	71.2204
725.499	72.28369
725.685	75.73468
725.87	61.16423
726.056	55.48515
726.242	71.88284
726.428	49.78017
726.613	69.46565
726.799	58.78701
726.985	52.77511
727.17	48.7473
727.356	74.80086
727.541	51.44214
727.727	58.36774
727.913	65.48184
728.098	56.23389
728.284	65.75892
728.469	53.08002
728.655	57.48646
728.84	68.11672
729.026	66.48424
729.211	67.1278
729.397	65.03204
729.582	66.79741
729.767	62.95105
729.953	66.30739
730.138	69.48412
730.323	46.50493
730.509	54.12024
730.694	76.285
730.879	67.00709
731.065	64.77218
731.25	82.66538
731.435	69.29832
731.621	51.39098
731.806	57.13758
731.991	64.24181
732.176	51.79089
732.361	74.63305
732.547	67.72759
732.732	50.50378
732.917	81.93551
733.102	54.49657
733.287	56.62603
733.472	61.91309
733.657	62.09024
733.842	50.9056
734.027	57.41579
734.212	62.37254
734.397	56.868
734.582	66.7923
734.767	72.20169
734.952	75.03789
735.137	41.55282
735.322	78.60741
735.507	70.11992
735.692	63.52965
735.877	84.29904
736.062	83.19546
736.247	70.00327
736.431	64.15672
736.616	76.09112
736.801	66.09186
736.986	61.60716
737.171	59.31649
737.355	52.86392
737.54	77.54833
737.725	67.4772
737.909	90.75644
738.094	59.04746
738.279	74.25489
738.463	62.00055
738.648	71.66706
738.833	69.86002
739.017	83.49984
739.202	61.92575
739.386	62.87728
739.571	56.4821
739.756	68.92269
739.94	64.70837
740.125	72.68017
740.309	58.65733
740.494	73.21805
740.678	65.16656
740.863	68.55392
741.047	68.35754
741.231	79.4641
741.416	57.04079
741.6	77.99628
741.785	55.96314
741.969	75.3029
742.153	77.3582
742.338	47.45617
742.522	68.14701
742.706	75.70619
742.89	53.151
743.075	70.48007
743.259	79.70847
743.443	75.85052
743.627	83.05104
743.812	91.86905
743.996	42.99008
744.18	63.18041
744.364	62.29711
744.548	92.4865
744.732	67.56871
744.916	79.17571
745.1	76.17438
745.285	64.88888
745.469	72.45016
745.653	89.53293
745.837	54.76322
746.021	95.32438
746.205	79.70302
746.389	69.52507
746.573	66.3715
746.757	84.19209
746.94	68.00675
747.124	82.79692
747.308	56.59211
747.492	79.5544
747.676	62.43398
747.86	95.59343
748.044	64.56889
748.227	50.21163
748.411	112.59139
748.595	69.56805
748.779	58.98462
748.963	73.78945
749.146	69.29054
749.33	58.39202
749.514	58.22615
749.697	82.70391
749.881	62.91771
750.065	61.2512
750.248	68.10441
750.432	95.22833
750.616	69.33648
750.799	54.26342
750.983	91.48603
751.166	94.82286
751.35	53.02737
751.533	72.53493
751.717	84.05995
751.9	86.27256
752.084	62.86846
752.267	57.90458
752.451	64.94936
752.634	72.29175
752.818	78.09224
753.001	80.07104
753.184	82.79699
753.368	72.22663
753.551	34.7674
753.734	63.61327
753.918	95.32832
754.101	63.70895
754.284	78.39576
754.467	68.74881
754.651	62.81268
754.834	59.29907
755.017	84.24659
755.2	84.19204
755.384	59.23299
755.567	81.66044
755.75	84.79499
755.933	70.41949
756.116	75.99512
756.299	63.83767
756.482	58.72771
756.665	76.65925
756.848	69.36238
757.032	77.39511
757.215	56.64058
757.398	59.73771
757.581	57.64453
757.764	104.01008
757.947	70.08854
758.129	90.94982
758.312	37.49615
758.495	69.03302
758.678	70.60504
758.861	68.0285
759.044	93.6026
759.227	58.64516
759.41	63.73357
759.592	82.76091
759.775	70.87804
759.958	80.7504
760.141	55.2984
760.324	98.17349
760.506	92.3042
760.689	83.92797
760.872	102.8461
761.054	76.61603
761.237	66.10525
761.42	78.70719
761.602	84.25265
761.785	77.56973
761.968	85.2551
762.15	95.59172
762.333	68.43837
762.515	76.32443
762.698	64.43916
762.88	80.83089
763.063	72.12505
763.245	78.51237
763.428	59.39036
763.61	59.13686
763.793	57.23765
763.975	69.39821
764.158	65.26987
764.34	61.24773
764.522	59.20323
764.705	66.86456
764.887	84.7557
765.069	53.79343
765.252	78.36074
765.434	76.72164
765.616	72.32909
765.799	66.0993
765.981	79.78106
766.163	63.96682
766.345	84.98778
766.528	64.46981
766.71	47.44877
766.892	75.04707
767.074	91.94267
767.256	69.34074
767.438	96.05038
767.62	76.31282
767.802	104.93817
767.985	83.99009
768.167	103.00914
768.349	71.3792
768.531	87.96813
768.713	83.11872
768.895	88.46314
769.077	81.52559
769.259	118.45939
769.441	146.93819
769.623	93.05793
769.804	102.47122
769.986	102.10794
770.168	119.94205
770.35	136.62034
770.532	108.97908
770.714	110.24148
770.896	118.41504
771.077	66.76417
771.259	121.57145
771.441	103.15456
771.623	132.46424
771.804	148.16992
771.986	58.40075
772.168	80.14293
772.35	120.30534
772.531	165.8804
772.713	100.56055
772.894	129.48853
773.076	94.25246
773.258	87.85566
773.439	125.85927
773.621	143.95297
773.802	73.85018
773.984	95.94451
774.166	102.61062
774.347	138.12489
774.529	125.99075
774.71	53.48259
774.891	100.79191
775.073	96.7327
775.254	134.08371
775.436	84.53741
775.617	153.00447
775.799	87.42055
775.98	151.04207
776.161	151.56978
776.343	144.53345
776.524	100.91978
776.705	90.84416
776.886	59.55956
777.068	115.99115
777.249	168.0819
777.43	149.96487
777.611	74.16274
777.793	97.2168
777.974	139.69874
778.155	84.4532
778.336	77.60501
778.517	156.45639
778.698	89.78319
778.879	54.79925
779.061	44.28625
779.242	115.95429
779.423	111.5531
779.604	83.64704
779.785	99.61204
779.966	108.22133
780.147	128.50746
780.328	132.20804
780.509	171.46669
780.69	136.48288
780.871	90.56814
781.051	67.41336
781.232	112.98857
781.413	109.07189
781.594	95.09987
781.775	96.0657
781.956	85.76628
782.137	60.34587
782.317	83.80968
782.498	109.7077
782.679	107.67205
782.86	108.77799
783.04	96.01083
783.221	112.71481
783.402	148.68138
783.583	110.16294
783.763	127.41339
783.944	87.47703
784.124	72.19576
784.305	144.67174
784.486	116.98555
784.666	103.4415
784.847	74.03862
785.027	199.32618
785.208	88.27537
785.388	82.33965
785.569	89.01106
785.749	99.45498
785.93	87.69397
786.11	72.25659
786.291	127.04599
786.471	110.58098
786.652	128.64898
786.832	101.02656
787.012	111.35023
787.193	74.89833
787.373	108.38896
787.553	96.79303
787.734	114.58939
787.914	93.4456
788.094	112.31788
788.275	114.20399
788.455	89.6869
788.635	68.97542
788.815	108.40262
788.995	76.07315
789.176	66.34168
789.356	80.88164
789.536	90.52487
789.716	114.13555
789.896	84.70834
790.076	87.22926
790.256	103.92389
790.436	55.07935
790.616	82.12119
790.796	108.95172
790.976	85.39712
791.156	81.92373
791.336	120.80415
791.516	106.69074
791.696	95.84473
791.876	66.0565
792.056	106.67587
792.236	126.45635
792.416	125.55768
792.596	115.96748
792.776	120.23951
792.956	116.25145
793.135	141.29066
793.315	80.30274
793.495	137.97001
793.675	123.57836
793.854	119.55594
794.034	123.14043
794.214	81.06708
794.394	119.92673
794.573	136.2273
794.753	108.2775
794.933	83.07424
795.112	106.48493
795.292	120.82887
795.472	148.09843
795.651	71.15505
795.831	101.48086
796.01	91.32514
796.19	96.0626
796.369	99.06391
796.549	120.93519
796.728	92.36832
796.908	72.36628
797.087	75.74202
797.267	101.25147
797.446	71.99668
797.626	113.23851
797.805	107.04029
797.984	81.70545
798.164	117.76938
798.343	81.30147
798.522	102.34776
798.702	101.66461
798.881	74.8916
799.06	99.46814
799.239	65.98787
799.419	78.35492
799.598	139.05628
799.777	109.92899
799.956	138.24733
800.136	91.96609
800.315	88.33408
800.494	115.75563
800.673	130.24994
800.852	126.34207
801.031	134.27842
801.21	113.61609
801.389	89.58696
801.568	105.12624
801.747	164.05741
801.926	105.15925
802.105	139.96132
802.284	93.71103
802.463	142.95326
802.642	112.39045
802.821	111.24219
803	140.23551
803.179	130.52542
803.358	134.79847
803.537	92.90503
803.716	117.75756
803.895	85.80465
804.073	104.39713
804.252	96.30546
804.431	122.6612
804.61	104.85365
804.789	132.36255
804.967	87.34148
805.146	93.01334
805.325	169.40857
805.503	124.98212
805.682	72.78776
805.861	185.71386
806.039	146.80748
806.218	95.00098
806.397	118.56134
806.575	114.05705
806.754	107.34357
806.932	83.81258
807.111	156.48915
807.289	131.60662
807.468	115.49033
807.646	132.9685
807.825	121.32472
808.003	124.56631
808.182	133.30789
808.36	106.97351
808.539	90.79819
808.717	146.46423
808.895	83.64607
809.074	120.4085
809.252	109.97135
809.43	133.82987
809.609	148.00881
809.787	165.1913
809.965	113.8479
810.144	107.86263
810.322	109.95789
810.5	138.13495
810.678	110.61391
810.856	181.78794
811.035	144.8002
811.213	140.13436
811.391	149.72437
811.569	113.52185
811.747	216.62787
811.925	161.25957
812.103	99.60986
812.281	100.5173
812.459	198.53822
812.637	168.42451
812.816	149.85074
812.994	177.72411
813.171	163.39887
813.349	135.32603
813.527	163.0681
813.705	177.18228
813.883	184.67358
814.061	153.22168
814.239	168.94438
814.417	181.65677
814.595	140.41043
814.773	139.73195
814.95	124.48764
815.128	129.56111
815.306	122.20152
815.484	116.7928
815.662	102.27909
815.839	78.9635
816.017	94.55544
816.195	143.93212
816.372	111.52686
816.55	155.45744
816.728	165.98257
816.905	116.93629
817.083	161.21654
817.261	120.66394
817.438	219.13376
817.616	175.36378
817.793	114.63443
817.971	148.51958
818.148	148.28292
818.326	160.58542
818.503	134.03316
818.681	177.7262
818.858	105.93347
819.036	123.14704
819.213	129.1566
819.391	98.43829
819.568	99.99475
819.745	87.08468
819.923	128.84486
820.1	96.34257
820.277	85.40868
820.455	101.4363
820.632	104.63141
820.809	104.56784
820.986	78.38769
821.164	69.19807
821.341	66.12565
821.518	80.8085
821.695	68.19304
821.872	68.41886
822.05	61.70762
822.227	56.59062
822.404	57.62856
822.581	60.66428
822.758	57.47891
822.935	56.83834
823.112	59.82017
823.289	56.93804
823.466	60.78908
823.643	59.43824
823.82	63.8398
823.997	63.12074
824.174	67.18829
824.351	79.85207
824.528	80.49789
824.705	79.08727
824.882	83.31925
825.059	99.17864
825.236	80.26312
825.412	84.5616
825.589	94.05967
825.766	110.93314
825.943	83.3291
826.12	93.72503
826.296	76.45683
826.473	84.32534
826.65	85.26142
826.827	91.69421
827.003	73.15989
827.18	75.29515
827.357	78.01621
827.533	73.08796
827.71	57.83693
827.887	69.81962
828.063	77.41444
828.24	67.83287
828.416	80.87566
828.593	73.26874
828.769	91.8854
828.946	95.72724
829.122	102.23212
829.299	109.30653
829.475	77.20751
829.652	105.25166
829.828	148.0714
830.005	104.24273
830.181	141.27477
830.357	115.1243
830.534	134.62168
830.71	112.64936
830.886	140.9507
831.063	133.83115
831.239	173.07621
831.415	94.80094
831.592	158.6657
831.768	115.49319
831.944	99.10817
832.12	156.01792
832.296	154.4256
832.473	134.23301
832.649	101.33299
832.825	123.94338
833.001	86.34399
833.177	109.83127
833.353	97.76602
833.529	72.14297
833.705	87.65278
833.881	73.02779
834.058	73.61085
834.234	75.72774
834.41	75.02364
834.586	65.03177
834.761	71.77982
834.937	77.87991
835.113	78.33864
835.289	76.3376
835.465	87.74522
835.641	85.56496
835.817	90.08971
835.993	137.17534
836.169	89.45362
836.344	117.50328
836.52	125.12397
836.696	137.75096
836.872	110.11348
837.048	232.42355
837.223	124.11105
837.399	194.81884
837.575	170.54996
837.75	165.54272
837.926	212.9034
838.102	305.3067
838.277	244.90354
838.453	327.08132
838.628	323.26925
838.804	138.1061
838.98	304.3106
839.155	168.99421
839.331	207.40204
839.506	146.22591
839.682	133.03777
839.857	184.51147
840.033	194.02345
840.208	112.66569
840.384	77.26674
840.559	113.37556
840.734	164.6726
840.91	201.0431
841.085	140.27954
841.26	129.48168
841.436	147.37979
841.611	121.37476
841.786	179.84151
841.962	264.57554
842.137	185.61855
842.312	125.9251
842.487	177.78379
842.663	159.37304
842.838	167.92785
843.013	595.16781
843.188	352.02341
843.363	219.22339
843.538	544.83278
843.714	539.44491
843.889	511.60659
844.064	534.14598
844.239	329.94623
844.414	561.63971
844.589	292.55732
844.764	763.16521
844.939	481.60092
845.114	487.95637
845.289	662.98414
845.464	822.28618
845.639	745.3988
845.814	222.84917
845.989	523.82366
846.163	447.84171
846.338	782.04264
846.513	680.27259
846.688	378.43828
846.863	743.45389
847.038	434.86888
847.212	382.92475
847.387	799.35504
847.562	477.33232
847.737	609.38402
847.911	290.57373
848.086	240.26309
848.261	498.00856
848.435	366.94495
848.61	566.81046
848.785	308.54878
848.959	532.20674
849.134	662.3356
849.308	1136.08888
849.483	706.56817
849.658	718.97605
849.832	386.16544
850.007	289.95706
850.181	1107.72533
850.356	715.54916
850.53	986.07409
850.705	429.34839
850.879	271.53776
851.053	521.37624
851.228	430.86621
851.402	918.75482
851.577	685.24673
851.751	899.4435
851.925	431.18821
852.099	297.95913
852.274	300.5964
852.448	440.92558
852.622	1093.68686
852.797	417.77336
852.971	487.39658
853.145	849.08601
853.319	1045.95955
853.493	1193.13792
853.668	529.84911
853.842	1541.14217
854.016	1117.30524
854.19	1663.4644
854.364	683.31786
854.538	614.80097
854.712	759.16464
854.886	419.9359
855.06	376.70378
855.234	230.98806
855.408	841.44015
855.582	595.46235
855.756	897.46948
855.93	619.76478
856.104	729.69805
856.278	874.73176
856.452	370.47121
856.626	655.48126
856.8	1164.81634
856.973	1140.71474
857.147	1088.37086
857.321	1532.90257
857.495	577.89755
857.669	791.77188
857.842	676.9361
858.016	551.87975
858.19	426.7226
858.364	1377.83599
858.537	658.63029
858.711	1252.75985
858.885	919.2339
859.058	335.11673
859.232	281.54429
859.405	500.03367
859.579	845.60803
859.753	707.23168
859.926	934.50243
860.1	625.86014
860.273	1040.85731
860.447	893.44721
860.62	615.04195
860.794	933.53714
860.967	704.16838
861.141	589.66604
861.314	763.60407
861.487	695.87471
861.661	568.54438
861.834	862.60811
862.008	1154.87604
862.181	854.26929
862.354	1464.41589
862.528	789.63827
862.701	421.80002
862.874	394.44804
863.047	525.69579
863.221	548.33429
863.394	351.53297
863.567	498.01069
863.74	233.57831
863.913	1017.4932
864.087	677.46484
864.26	678.73059
864.433	732.81421
864.606	1046.93375
864.779	1631.86906
864.952	338.82688
865.125	1031.07907
865.298	627.20104
865.471	627.69981
865.644	1013.47247
865.817	629.98176
865.99	976.86269
866.163	856.72467
866.336	488.91387
866.509	471.70655
866.682	610.02648
866.855	1385.89827
867.028	217.1085
867.2	633.44708
867.373	161.14277
867.546	538.84913
867.719	1297.38792
867.892	729.57145
868.064	415.2078
868.237	513.99181
868.41	535.97943
868.583	362.1266
868.755	296.56759
868.928	728.26479
869.101	941.11674
869.273	1750.74901
869.446	499.53783
869.619	971.2683
869.791	500.66508
869.964	790.72137
870.136	999.04786
870.309	440.73205
870.481	419.04417
870.654	393.13276
870.826	456.88813
870.999	347.71478
871.171	553.92722
871.344	334.04727
871.516	475.37627
871.689	431.36438
871.861	576.70226
872.033	386.0488
872.206	365.93432
872.378	553.53021
872.55	499.2956
872.723	440.38553
872.895	643.67001
873.067	579.57596
873.24	554.89706
873.412	457.01451
873.584	395.29186
873.756	659.37133
873.928	823.36902
874.101	414.58967
874.273	521.28374
874.445	193.46164
874.617	346.52769
874.789	401.23062
874.961	394.91236
875.133	473.94076
875.305	564.2263
875.477	391.4916
875.649	262.49499
875.821	354.31479
875.993	773.86547
876.165	354.31761
876.337	549.08119
876.509	528.92022
876.681	469.81117
876.853	508.61218
877.025	759.42411
877.197	277.80405
877.369	323.38441
877.541	457.64761
877.712	147.079
877.884	258.7604
878.056	567.39354
878.228	262.88269
878.4	514.3158
878.571	301.57872
878.743	203.65989
878.915	345.22269
879.086	220.85787
879.258	248.865
879.43	223.16613
879.601	198.48769
879.773	189.23685
879.945	81.24301
880.116	100.17933
880.288	75.71484
880.459	80.28466
880.631	72.132
880.802	77.65021
880.974	75.89435
881.145	64.7828
881.317	71.8361
881.488	65.18788
881.66	68.2654
881.831	63.8871
882.002	73.3693
882.174	63.9683
882.345	72.11578
882.517	58.91149
882.688	80.58987
882.859	73.26089
883.03	97.41837
883.202	93.30474
883.373	93.67608
883.544	95.47829
883.715	129.08799
883.887	122.38554
884.058	121.18985
884.229	145.93129
884.4	144.19285
884.571	173.30058
884.742	142.35127
884.914	160.00888
885.085	215.33728
885.256	251.59653
885.427	226.5895
885.598	240.37699
885.769	259.42897
885.94	277.69011
886.111	191.28253
886.282	257.61107
886.453	292.06952
886.624	242.54587
886.795	308.2522
886.966	286.57161
887.136	355.28264
887.307	249.94065
887.478	480.36473
887.649	402.05707
887.82	442.45753
887.991	305.69441
888.161	503.0296
888.332	482.63764
888.503	263.32168
888.674	514.68575
888.844	783.74668
889.015	776.58148
889.186	360.78414
889.356	721.62854
889.527	435.12995
889.698	1108.21537
889.868	355.0426
890.039	558.14574
890.209	411.60916
890.38	670.40771
890.551	499.98441
890.721	878.6516
890.892	546.31468
891.062	1250.4315
891.233	552.99114
891.403	784.93434
891.574	645.11414
891.744	422.03062
891.914	433.64361
892.085	585.11072
892.255	173.55383
892.425	596.2834
892.596	508.52394
892.766	555.7271
892.936	799.12978
893.107	485.7007
893.277	289.39167
893.447	240.82541
893.618	190.00472
893.788	291.08017
893.958	162.40997
894.128	147.20938
894.298	175.59114
894.468	199.56536
894.639	113.53856
894.809	101.11554
894.979	118.16107
895.149	147.93598
895.319	116.91913
895.489	143.70526
895.659	190.50523
895.829	126.94103
895.999	147.84002
896.169	128.96398
896.339	164.74698
896.509	316.46301
896.679	290.47204
896.849	332.3381
897.019	398.13058
897.189	408.97445
897.358	342.39295
897.528	607.83505
897.698	314.48396
897.868	426.30412
898.038	951.19302
898.208	1081.49837
898.377	346.0613
898.547	1936.03418
898.717	3550.82733
898.886	1014.96892
899.056	835.50329
899.226	2123.28047
899.395	2274.56855
899.565	2464.78036
899.735	4761.27798
899.904	1781.2563
900.074	5861.9542
900.244	658.58672
900.413	3435.73876
900.583	815.00093
900.752	-2063.98752
900.922	1178.5263
901.091	298.97808
901.261	2155.05759
901.43	1320.39728
901.599	3178.77604
901.769	2795.80221
901.938	2736.22074
902.108	1054.48153
902.277	1572.04193
902.446	485.64398
902.616	742.1833
902.785	612.85187
902.954	903.11517
903.124	537.60363
903.293	397.03672
903.462	190.0273
903.631	252.99387
903.801	187.15173
903.97	123.42896
904.139	159.96146
904.308	136.16185
904.477	113.49648
904.646	84.50224
904.816	104.29243
904.985	156.69311
905.154	212.17065
