Data from WindowProjectSample_Transmission__34__00034.txt Node

Date: Sat May 03 15:40:17 EDT 2025
User: jessi
Spectrometer: SR400872
Trigger mode: 0
Integration Time (sec): 5.000010E-1
Scans to average: 6
Electric dark correction enabled: true
Nonlinearity correction enabled: true
Boxcar width: 0
XAxis mode: Wavelengths
Number of Pixels in Spectrum: 3648
>>>>>Begin Spectral Data<<<<<
184.909	18842.02902
185.132	2617.74518
185.355	24691.52897
185.578	-8344.24101
185.801	163.35864
186.024	-1494.22039
186.247	778.54331
186.47	1881.25247
186.693	15.13073
186.916	-596.25164
187.139	-2650.40004
187.362	1668.05988
187.585	2852.51539
187.808	-3854.94852
188.031	363.02357
188.254	-1268.80371
188.476	-822.25524
188.699	2638.69143
188.922	-590.24406
189.145	-9914.25984
189.368	-390.8329
189.591	-1192.64878
189.813	-1668.0076
190.036	1308.43822
190.259	1645.58096
190.482	568.82737
190.705	10640.94274
190.927	-1012.13105
191.15	3565.73952
191.373	2224.01334
191.595	-2232.27815
191.818	2625.60535
192.041	-226.18493
192.263	2895.68625
192.486	2378.69163
192.709	-5305.31587
192.931	2843.62324
193.154	-6139.23734
193.377	192014.08681
193.599	1461.7108
193.822	1904.85883
194.044	-2447.75213
194.267	503.21781
194.489	-237.33088
194.712	1457.59294
194.934	3435.34737
195.157	-13427.35781
195.379	911.25847
195.602	2231.15964
195.824	1956.96372
196.047	2446.71448
196.269	3032.90288
196.492	3507.83144
196.714	2801.96063
196.936	1170.50607
197.159	1415.34405
197.381	-2508.55739
197.604	-1154.41901
197.826	6300.4176
198.048	3257.94546
198.271	4297.43725
198.493	2221.33652
198.715	-5967.11515
198.938	-541.67596
199.16	1736.68437
199.382	1393.18079
199.604	-662.10165
199.827	7822.52262
200.049	982.98448
200.271	-3024.76347
200.493	-54349.09637
200.715	2383.85983
200.938	7056.73452
201.16	-7288.43629
201.382	-2981.96417
201.604	-1983.45798
201.826	6630.98732
202.048	907.41551
202.27	-17871.6506
202.492	4735.21159
202.715	-1141.50784
202.937	4431.3354
203.159	-2239.37146
203.381	812.76398
203.603	-3377.96042
203.825	-2403.61946
204.047	3425.62106
204.269	-2316.16231
204.491	2289.70689
204.713	1887.9776
204.935	15643.7533
205.156	1762.40484
205.378	-8358.37787
205.6	-4255.33313
205.822	9123.06508
206.044	-733.00319
206.266	3855.28451
206.488	1024.89567
206.71	28639.56333
206.932	2466.39234
207.153	-4829.41102
207.375	-1856.22076
207.597	8755.66891
207.819	4384.84519
208.041	2322.78495
208.262	-2839.73698
208.484	-1180.97392
208.706	-2597.21294
208.927	26910.79806
209.149	970.5692
209.371	-6706.19869
209.593	1269.69295
209.814	5443.52228
210.036	-2910.74296
210.258	-4938.08722
210.479	-1286.81956
210.701	922.95786
210.922	6896.19708
211.144	-1176.8975
211.366	-6161.30843
211.587	-610.4785
211.809	9571.35259
212.03	-1310.30224
212.252	-2734.63384
212.473	780.32313
212.695	-1918.68132
212.916	2847.08273
213.138	3057.83413
213.359	-1950.21812
213.581	6425.82435
213.802	-1727.59541
214.024	17272.82192
214.245	-3470.86831
214.466	-493.43696
214.688	1699.37331
214.909	853.56996
215.131	-105406.90547
215.352	1824.11587
215.573	2539.08798
215.795	2901.56894
216.016	4432.15165
216.237	-588.00013
216.459	6529.55009
216.68	104625.43765
216.901	-83202.24701
217.122	2163.65053
217.344	5798.41852
217.565	-60306.15734
217.786	1580.95496
218.007	1585.33119
218.228	-1442.02086
218.45	-1223.37822
218.671	-1236.72963
218.892	1164.48064
219.113	-19304.5772
219.334	-477.9842
219.555	-5349.68592
219.776	1709.95468
219.997	3437.38852
220.219	1084.97796
220.44	2261.49799
220.661	-3294.64926
220.882	3489.33949
221.103	-1176.94571
221.324	1012.73379
221.545	2339.40762
221.766	-6006.5096
221.987	4200.82739
222.208	-1826.44687
222.429	3519.70155
222.65	-141.78544
222.87	-511.50748
223.091	8162.86288
223.312	2805.97748
223.533	6514.52745
223.754	1876.46758
223.975	1419.18714
224.196	-11553.30143
224.417	998.45362
224.637	821.99494
224.858	-118.41472
225.079	6527.75236
225.3	552.88515
225.521	2064.69591
225.741	1628.59761
225.962	757.23051
226.183	300.22643
226.404	674.92493
226.624	574.75523
226.845	390.48304
227.066	426.19139
227.286	191.92868
227.507	95.08081
227.728	87.02981
227.948	124.15875
228.169	40.36633
228.389	49.10902
228.61	26.29503
228.831	36.15601
229.051	3.41057
229.272	21.2436
229.492	31.76392
229.713	8.86026
229.933	24.51335
230.154	19.63201
230.374	31.9406
230.595	23.77163
230.815	13.99108
231.036	23.25991
231.256	-6.8156
231.477	41.17897
231.697	24.29385
231.917	22.91771
232.138	35.03367
232.358	74.69308
232.579	64.0907
232.799	9.73105
233.019	67.86128
233.24	82.12126
233.46	27.58078
233.68	39.22877
233.901	32.82488
234.121	17.45095
234.341	6.4282
234.561	-2.11403
234.782	15.06518
235.002	46.8166
235.222	-1.00087
235.442	41.33083
235.662	20.79919
235.883	43.70971
236.103	39.51149
236.323	26.48775
236.543	18.27171
236.763	30.71206
236.983	30.10529
237.203	31.14819
237.423	43.27572
237.643	62.58627
237.864	54.5402
238.084	14.05155
238.304	22.18497
238.524	34.9316
238.744	27.43089
238.964	48.09267
239.184	42.80144
239.404	44.01416
239.624	24.93942
239.843	42.14632
240.063	23.28842
240.283	16.8822
240.503	16.5879
240.723	17.27403
240.943	9.21467
241.163	13.7805
241.383	9.69025
241.603	4.74378
241.822	6.15979
242.042	4.58862
242.262	5.84625
242.482	7.22681
242.702	8.35014
242.921	2.80696
243.141	6.18137
243.361	5.02151
243.581	7.4313
243.8	6.17595
244.02	4.21379
244.24	8.22775
244.459	7.17836
244.679	14.35624
244.899	9.38599
245.118	11.44375
245.338	9.20095
245.558	11.39197
245.777	6.48992
245.997	7.27082
246.216	7.51457
246.436	3.95046
246.655	3.47484
246.875	2.54296
247.094	5.00403
247.314	1.83348
247.533	2.56318
247.753	3.78023
247.972	2.69798
248.192	1.07295
248.411	1.71586
248.631	3.1357
248.85	3.92121
249.07	2.8752
249.289	5.55744
249.508	3.91055
249.728	6.44165
249.947	6.66852
250.166	7.04167
250.386	4.36814
250.605	5.22703
250.824	8.85169
251.044	6.45735
251.263	21.04862
251.482	10.39676
251.701	9.84762
251.921	-0.11825
252.14	2.82332
252.359	3.9584
252.578	8.12203
252.798	2.96777
253.017	7.80882
253.236	3.50381
253.455	4.8466
253.674	10.16346
253.893	4.90666
254.112	6.31677
254.331	9.38622
254.551	7.74225
254.77	2.78844
254.989	11.73371
255.208	10.35837
255.427	12.28083
255.646	10.4875
255.865	18.0676
256.084	6.17211
256.303	9.02976
256.522	11.25117
256.741	2.61443
256.96	2.86357
257.179	6.37047
257.397	8.42225
257.616	4.40312
257.835	5.15623
258.054	12.23198
258.273	7.77481
258.492	9.20756
258.711	5.07895
258.93	2.2131
259.148	3.2158
259.367	3.31378
259.586	4.20413
259.805	1.99719
260.023	4.16812
260.242	3.24554
260.461	2.49887
260.68	1.26042
260.898	3.80965
261.117	1.06054
261.336	0.84106
261.554	3.25921
261.773	3.11783
261.992	0.77124
262.21	3.2899
262.429	3.66445
262.648	6.43636
262.866	7.09283
263.085	4.59219
263.303	4.60927
263.522	7.86416
263.74	7.82685
263.959	12.61668
264.178	6.68701
264.396	5.64636
264.615	4.03974
264.833	9.67932
265.051	8.44044
265.27	8.19779
265.488	8.976
265.707	6.09515
265.925	9.03817
266.144	4.01749
266.362	5.42339
266.58	5.1368
266.799	4.10865
267.017	5.32901
267.235	4.64769
267.454	2.72889
267.672	1.89179
267.89	4.14083
268.109	4.32261
268.327	3.68033
268.545	1.08904
268.763	3.64192
268.982	1.4929
269.2	4.61118
269.418	2.62171
269.636	1.95726
269.854	3.67264
270.073	2.92726
270.291	1.55534
270.509	1.81524
270.727	3.72865
270.945	5.89946
271.163	6.44995
271.381	1.60898
271.599	2.70952
271.817	4.59669
272.036	1.39871
272.254	2.69699
272.472	2.05792
272.69	2.04302
272.908	2.38201
273.126	3.86885
273.344	4.67759
273.562	1.91789
273.779	2.16038
273.997	3.37668
274.215	3.81385
274.433	2.66961
274.651	4.19168
274.869	4.09656
275.087	2.43902
275.305	3.81668
275.523	1.90905
275.74	2.88149
275.958	4.82879
276.176	6.84217
276.394	2.33487
276.612	2.70306
276.829	2.95878
277.047	2.11804
277.265	2.49002
277.483	3.53813
277.7	3.73675
277.918	3.1525
278.136	5.45094
278.353	2.82183
278.571	1.50829
278.789	4.4361
279.006	1.01929
279.224	2.37357
279.442	4.45877
279.659	2.92938
279.877	2.12621
280.094	4.91193
280.312	1.13192
280.529	2.89685
280.747	0.78743
280.964	2.52695
281.182	5.32101
281.399	2.35389
281.617	3.41363
281.834	2.53929
282.052	1.87729
282.269	2.8511
282.487	2.31485
282.704	1.778
282.921	1.88304
283.139	2.83392
283.356	3.84066
283.574	3.32689
283.791	1.84424
284.008	4.75884
284.226	2.42549
284.443	2.90217
284.66	3.79584
284.877	3.04012
285.095	1.93828
285.312	1.25051
285.529	1.05394
285.746	0.96109
285.964	1.88278
286.181	1.19551
286.398	1.79185
286.615	2.40784
286.832	2.39403
287.05	0.66491
287.267	1.43657
287.484	2.38547
287.701	2.4678
287.918	2.35488
288.135	2.49136
288.352	1.31621
288.569	1.23088
288.786	2.16358
289.003	1.81582
289.22	2.60054
289.437	1.58193
289.654	2.68129
289.871	2.72244
290.088	2.79559
290.305	2.14021
290.522	1.5088
290.739	1.98557
290.956	2.80239
291.173	3.49649
291.39	3.13305
291.607	2.30593
291.824	1.79004
292.04	0.96115
292.257	2.58196
292.474	3.12828
292.691	1.81928
292.908	1.1719
293.125	1.89002
293.341	0.90909
293.558	4.66048
293.775	1.86343
293.992	1.89578
294.208	0.76211
294.425	1.17189
294.642	1.76687
294.858	2.31605
295.075	0.68174
295.292	1.80487
295.508	2.38209
295.725	3.4255
295.942	1.66511
296.158	1.12625
296.375	1.95716
296.591	1.51913
296.808	1.52408
297.024	1.74609
297.241	1.98915
297.458	2.18578
297.674	0.2227
297.891	1.74676
298.107	1.28989
298.323	1.03348
298.54	2.57751
298.756	1.19197
298.973	0.60475
299.189	2.64241
299.406	1.09404
299.622	2.89277
299.838	2.72858
300.055	2.43229
300.271	0.83138
300.487	0.83642
300.704	1.18803
300.92	0.68208
301.136	3.68848
301.353	2.66625
301.569	1.87769
301.785	2.17952
302.001	2.48461
302.218	2.21292
302.434	2.05431
302.65	0.58988
302.866	1.4932
303.083	3.65765
303.299	3.37165
303.515	1.86958
303.731	1.86
303.947	0.76473
304.163	1.04547
304.379	2.07285
304.595	2.45908
304.812	1.47811
305.028	1.06808
305.244	1.55612
305.46	2.67966
305.676	2.736
305.892	3.07537
306.108	2.00196
306.324	1.28796
306.54	3.47312
306.756	2.60864
306.972	2.43498
307.187	1.59295
307.403	3.09313
307.619	1.4187
307.835	2.71811
308.051	3.24407
308.267	0.67655
308.483	2.74917
308.699	2.35187
308.914	1.94549
309.13	1.71778
309.346	0.49143
309.562	1.03738
309.778	0.5128
309.993	2.35748
310.209	1.70991
310.425	0.79884
310.641	1.64849
310.856	0.90069
311.072	0.91407
311.288	1.76391
311.503	1.96033
311.719	0.35162
311.935	0.24945
312.15	2.06853
312.366	1.85759
312.581	2.30032
312.797	1.73375
313.013	2.284
313.228	1.26801
313.444	2.04127
313.659	1.21702
313.875	2.1764
314.09	1.70435
314.306	2.72622
314.521	2.52591
314.737	2.49361
314.952	2.05438
315.168	1.57899
315.383	2.49317
315.599	1.66885
315.814	1.68248
316.029	2.53274
316.245	0.80433
316.46	0.65273
316.675	3.12221
316.891	3.57304
317.106	4.46436
317.321	2.57688
317.537	2.32993
317.752	2.45241
317.967	2.57897
318.183	1.2586
318.398	1.67634
318.613	2.70219
318.828	3.18882
319.043	2.75457
319.259	1.55753
319.474	2.35385
319.689	2.70921
319.904	0.32759
320.119	2.65673
320.334	2.21317
320.549	1.70486
320.765	2.83691
320.98	2.07349
321.195	2.71844
321.41	1.8318
321.625	2.61963
321.84	3.52973
322.055	3.56633
322.27	1.2196
322.485	1.05511
322.7	1.946
322.915	2.92223
323.13	1.25786
323.345	3.36055
323.56	2.3693
323.775	2.65126
323.989	2.43152
324.204	2.0919
324.419	2.65663
324.634	0.67485
324.849	1.7558
325.064	3.99197
325.279	2.93248
325.493	2.60108
325.708	2.95907
325.923	1.23105
326.138	1.28939
326.352	3.42388
326.567	2.81043
326.782	1.68676
326.997	1.31509
327.211	2.49294
327.426	2.3537
327.641	1.59154
327.855	0.56309
328.07	2.43365
328.285	3.44521
328.499	1.66643
328.714	2.6191
328.928	2.69655
329.143	2.21169
329.358	2.82562
329.572	3.04778
329.787	3.20984
330.001	4.37494
330.216	0.88524
330.43	3.52492
330.645	3.65556
330.859	2.70655
331.074	1.48646
331.288	2.16704
331.503	3.27245
331.717	1.18954
331.931	1.85028
332.146	1.99873
332.36	3.61745
332.575	2.51403
332.789	2.26409
333.003	1.74639
333.218	2.54129
333.432	1.63458
333.646	2.55594
333.86	3.30017
334.075	3.44956
334.289	1.64599
334.503	1.29843
334.717	2.47218
334.932	2.39378
335.146	3.41911
335.36	1.89317
335.574	2.43569
335.788	2.37777
336.003	3.17485
336.217	2.67934
336.431	2.6266
336.645	1.38987
336.859	1.09112
337.073	1.86981
337.287	2.1779
337.501	1.07158
337.715	2.23665
337.929	2.6499
338.143	1.03324
338.357	2.24213
338.571	1.15527
338.785	2.34948
338.999	1.65052
339.213	1.7197
339.427	0.68499
339.641	2.94152
339.855	1.95472
340.069	1.5734
340.283	2.99724
340.497	3.58267
340.711	2.29391
340.924	1.49461
341.138	1.07075
341.352	0.83474
341.566	2.20013
341.78	0.51244
341.993	1.62612
342.207	1.17505
342.421	2.26325
342.635	2.18452
342.848	1.44806
343.062	0.22066
343.276	1.45417
343.49	3.97236
343.703	1.3913
343.917	2.55816
344.131	2.69516
344.344	1.25457
344.558	1.37545
344.771	1.1879
344.985	3.18109
345.199	3.36656
345.412	2.20056
345.626	2.23132
345.839	0.63926
346.053	0.91335
346.266	1.01669
346.48	2.59038
346.693	2.1219
346.907	2.53979
347.12	1.19359
347.334	2.1959
347.547	2.16929
347.76	1.64713
347.974	2.92796
348.187	2.28069
348.401	1.72564
348.614	1.50113
348.827	1.69841
349.041	2.61774
349.254	0.57589
349.467	1.76054
349.681	0.70679
349.894	1.3618
350.107	3.1907
350.32	3.09468
350.534	0.45887
350.747	1.53163
350.96	1.15471
351.173	1.3926
351.386	1.75961
351.6	1.50271
351.813	1.30614
352.026	1.95067
352.239	0.82403
352.452	1.59039
352.665	2.39432
352.878	1.61323
353.092	3.86011
353.305	2.32009
353.518	2.04338
353.731	1.18458
353.944	2.98728
354.157	1.18393
354.37	0.95923
354.583	0.96414
354.796	0.63678
355.009	2.64296
355.222	1.87305
355.435	1.87625
355.647	2.56431
355.86	0.85419
356.073	1.49686
356.286	1.41735
356.499	2.34219
356.712	1.94362
356.925	2.10427
357.138	2.50733
357.35	0.92851
357.563	1.39741
357.776	1.91695
357.989	1.20816
358.201	2.08788
358.414	1.65637
358.627	2.65428
358.84	1.47603
359.052	0.88067
359.265	0.70334
359.478	2.54801
359.69	-0.45967
359.903	2.06236
360.116	2.27689
360.328	0.36673
360.541	2.33273
360.753	0.84738
360.966	1.12198
361.179	1.29494
361.391	1.1643
361.604	0.77032
361.816	1.0913
362.029	1.01301
362.241	0.82988
362.454	1.09594
362.666	0.79232
362.879	1.4955
363.091	1.36281
363.304	0.88431
363.516	1.44343
363.728	0.67656
363.941	1.98113
364.153	1.07722
364.366	-0.04674
364.578	0.77267
364.79	1.91501
365.003	1.44796
365.215	1.28715
365.427	1.89367
365.639	2.53743
365.852	1.8722
366.064	3.16578
366.276	1.03297
366.488	2.03144
366.701	1.19063
366.913	1.304
367.125	1.36365
367.337	1.04376
367.549	1.23056
367.762	1.4323
367.974	1.71519
368.186	1.07038
368.398	2.35904
368.61	1.94326
368.822	1.90448
369.034	1.67725
369.246	2.12696
369.458	3.49492
369.67	0.98667
369.882	2.8425
370.094	0.0926
370.306	2.91329
370.518	1.41429
370.73	0.87878
370.942	1.11317
371.154	1.33655
371.366	1.1649
371.578	1.80217
371.79	1.00383
372.002	2.42986
372.214	3.04181
372.425	1.68226
372.637	2.5436
372.849	1.71207
373.061	-0.10445
373.273	1.99215
373.484	2.04238
373.696	2.22985
373.908	0.11772
374.12	2.33467
374.331	2.14
374.543	1.17707
374.755	0.82271
374.967	1.76941
375.178	2.31099
375.39	1.69152
375.602	1.85354
375.813	0.72782
376.025	0.7225
376.236	1.66003
376.448	1.74996
376.66	1.40255
376.871	1.55436
377.083	2.43683
377.294	2.87914
377.506	1.38664
377.717	2.63452
377.929	1.93148
378.14	1.1821
378.352	2.32154
378.563	2.26203
378.775	2.85438
378.986	1.25229
379.197	1.81056
379.409	1.44816
379.62	2.51995
379.832	2.1004
380.043	1.73621
380.254	2.15079
380.466	1.12716
380.677	4.10135
380.888	3.57921
381.1	4.05343
381.311	3.98624
381.522	2.24778
381.733	4.23293
381.945	1.9497
382.156	2.06267
382.367	2.04644
382.578	4.41714
382.789	4.43883
383.001	1.77025
383.212	3.43977
383.423	3.6502
383.634	3.10404
383.845	2.91669
384.056	2.06742
384.267	2.5934
384.478	2.50206
384.69	1.60982
384.901	2.98075
385.112	2.75845
385.323	3.92155
385.534	2.96608
385.745	3.07362
385.956	2.96778
386.167	1.98412
386.378	3.33724
386.588	2.23012
386.799	2.22019
387.01	1.83243
387.221	3.60215
387.432	2.99185
387.643	4.23961
387.854	2.75243
388.065	2.87003
388.275	3.01372
388.486	2.74058
388.697	3.24724
388.908	2.84131
389.119	4.12342
389.329	4.46825
389.54	3.29265
389.751	3.74882
389.962	4.39948
390.172	3.53326
390.383	3.58928
390.594	3.13592
390.804	3.15492
391.015	3.28594
391.226	3.88135
391.436	4.26322
391.647	4.18879
391.858	4.34985
392.068	2.94078
392.279	3.42878
392.489	4.45491
392.7	4.67184
392.91	3.79931
393.121	3.65797
393.331	4.6132
393.542	5.12526
393.752	5.01092
393.963	4.66709
394.173	4.92409
394.384	5.1121
394.594	4.51444
394.804	3.78415
395.015	4.64477
395.225	5.15743
395.436	4.02726
395.646	5.14261
395.856	4.70797
396.067	3.94094
396.277	5.42989
396.487	5.15964
396.697	5.47214
396.908	5.77294
397.118	5.57288
397.328	5.27106
397.538	5.86626
397.749	4.87746
397.959	6.08369
398.169	5.80409
398.379	4.51637
398.589	5.59978
398.8	5.87787
399.01	5.90333
399.22	5.55265
399.43	7.06716
399.64	5.76152
399.85	6.15858
400.06	5.93961
400.27	5.35458
400.48	5.82909
400.69	6.77231
400.9	5.86717
401.11	5.54131
401.32	6.46582
401.53	5.81868
401.74	7.11251
401.95	6.67011
402.16	6.06895
402.37	6.66116
402.58	6.00339
402.79	6.79955
403	7.07303
403.209	6.04904
403.419	7.26363
403.629	6.21387
403.839	7.70884
404.049	7.53044
404.258	6.79046
404.468	6.58477
404.678	7.75017
404.888	7.99759
405.097	7.27157
405.307	7.04501
405.517	7.73364
405.727	7.73135
405.936	6.9515
406.146	7.70075
406.356	8.28252
406.565	7.29997
406.775	7.1957
406.984	7.06834
407.194	8.88608
407.404	7.59612
407.613	7.80502
407.823	8.06892
408.032	8.57948
408.242	8.11864
408.451	7.45848
408.661	7.66295
408.87	8.87684
409.08	7.08634
409.289	8.3214
409.499	8.18757
409.708	7.97719
409.918	6.66158
410.127	8.16719
410.336	9.27165
410.546	8.92386
410.755	7.94513
410.964	7.79293
411.174	7.5671
411.383	8.65481
411.592	8.42963
411.802	7.78097
412.011	8.80473
412.22	8.41343
412.429	9.66957
412.639	9.45148
412.848	9.19592
413.057	9.81457
413.266	9.06083
413.475	8.84704
413.685	9.05055
413.894	9.4331
414.103	9.34658
414.312	9.25739
414.521	8.63047
414.73	9.19168
414.939	10.19483
415.148	9.27463
415.357	9.42798
415.566	8.8826
415.776	8.90252
415.985	8.84663
416.194	9.67571
416.403	10.47218
416.611	8.47577
416.82	9.0101
417.029	9.60571
417.238	9.17877
417.447	9.13077
417.656	9.44718
417.865	9.49924
418.074	9.87139
418.283	10.78928
418.492	11.97004
418.7	11.49868
418.909	13.45565
419.118	12.01036
419.327	12.57729
419.536	12.64703
419.744	12.76361
419.953	14.32347
420.162	14.53103
420.371	13.83299
420.579	14.71725
420.788	15.48718
420.997	15.8894
421.205	16.04425
421.414	15.79751
421.623	16.20298
421.831	15.49451
422.04	15.90429
422.249	14.88887
422.457	15.2053
422.666	14.30558
422.874	15.36082
423.083	15.56309
423.291	15.5994
423.5	15.66679
423.708	15.95763
423.917	16.75849
424.125	15.91931
424.334	15.94815
424.542	17.67462
424.751	17.11343
424.959	16.36162
425.167	16.81126
425.376	16.54866
425.584	14.93732
425.793	14.72424
426.001	13.38317
426.209	13.5261
426.418	12.19884
426.626	11.30273
426.834	11.04727
427.042	10.9094
427.251	10.44513
427.459	11.32934
427.667	10.83012
427.875	9.89164
428.084	10.40246
428.292	11.47831
428.5	11.09426
428.708	9.96161
428.916	10.18579
429.124	10.64541
429.333	10.51371
429.541	10.8304
429.749	10.87644
429.957	10.8468
430.165	12.51407
430.373	9.90094
430.581	10.82139
430.789	11.70581
430.997	10.66276
431.205	10.29504
431.413	11.25793
431.621	10.6748
431.829	11.42973
432.037	10.87601
432.245	11.40331
432.453	11.33616
432.661	11.1969
432.869	12.59548
433.076	11.30325
433.284	11.88389
433.492	12.86871
433.7	12.89609
433.908	12.16254
434.116	12.38345
434.323	12.1673
434.531	11.84724
434.739	11.97565
434.947	11.69042
435.154	12.1047
435.362	11.40286
435.57	11.1857
435.778	10.97039
435.985	11.49733
436.193	11.05431
436.401	12.06363
436.608	11.55159
436.816	11.1881
437.023	12.34983
437.231	12.6436
437.439	11.62676
437.646	11.80408
437.854	11.79085
438.061	11.99342
438.269	11.60809
438.476	12.14376
438.684	12.08266
438.891	12.32972
439.099	12.35741
439.306	12.20398
439.514	12.47803
439.721	14.30735
439.929	13.73467
440.136	15.0404
440.343	15.08186
440.551	14.86236
440.758	16.6626
440.965	15.16484
441.173	14.79281
441.38	14.4554
441.587	13.94428
441.795	13.82506
442.002	13.23583
442.209	12.99899
442.416	12.73527
442.624	12.38369
442.831	12.1062
443.038	11.53003
443.245	11.31385
443.452	11.6498
443.66	12.26471
443.867	11.59076
444.074	11.44723
444.281	12.00571
444.488	12.40934
444.695	13.01332
444.902	13.17937
445.109	14.98488
445.316	14.6759
445.523	15.51427
445.73	15.59119
445.937	16.75187
446.144	17.37072
446.351	18.0509
446.558	16.34017
446.765	18.93668
446.972	17.68394
447.179	17.26905
447.386	17.63209
447.593	15.74517
447.8	16.69556
448.007	14.89714
448.214	13.88015
448.42	13.3471
448.627	13.7409
448.834	12.75976
449.041	12.41051
449.248	11.86415
449.454	12.31325
449.661	12.80045
449.868	11.71496
450.075	11.57527
450.281	10.89107
450.488	11.23629
450.695	11.2324
450.901	11.35051
451.108	11.64806
451.315	12.35496
451.521	11.7359
451.728	12.59789
451.935	11.66292
452.141	11.76689
452.348	12.06254
452.554	12.21371
452.761	11.74784
452.967	13.07239
453.174	12.12923
453.38	12.09467
453.587	11.41002
453.793	12.21507
454	12.47733
454.206	13.26111
454.413	12.53138
454.619	12.2697
454.825	11.58138
455.032	12.33192
455.238	12.66536
455.445	11.37203
455.651	11.99507
455.857	11.10116
456.064	12.02733
456.27	11.81407
456.476	11.59546
456.682	11.3192
456.889	12.0051
457.095	12.4464
457.301	13.38635
457.507	12.01389
457.714	12.2211
457.92	12.26292
458.126	11.76586
458.332	12.04219
458.538	12.20623
458.744	13.23948
458.951	13.80805
459.157	16.41912
459.363	15.85196
459.569	16.39196
459.775	16.95305
459.981	16.95846
460.187	17.37151
460.393	17.19109
460.599	17.17182
460.805	15.93677
461.011	14.68409
461.217	14.22123
461.423	13.18228
461.629	12.26025
461.835	12.76405
462.041	12.23226
462.247	13.39888
462.453	12.26295
462.658	12.21484
462.864	12.799
463.07	12.61322
463.276	12.35318
463.482	12.34965
463.688	13.54476
463.893	11.87275
464.099	12.3775
464.305	13.25648
464.511	12.26672
464.716	12.46579
464.922	12.92822
465.128	11.8914
465.333	13.24952
465.539	13.10279
465.745	12.84432
465.95	12.41324
466.156	14.47152
466.362	13.25656
466.567	12.54568
466.773	12.53589
466.978	13.70783
467.184	12.0421
467.389	11.81894
467.595	13.02655
467.8	12.30516
468.006	13.32769
468.211	13.48643
468.417	12.02752
468.622	13.00109
468.828	12.92412
469.033	12.96953
469.239	14.63149
469.444	12.28539
469.649	13.21518
469.855	12.70924
470.06	12.85959
470.266	12.10849
470.471	13.13925
470.676	12.91119
470.881	11.53853
471.087	13.88363
471.292	14.12442
471.497	11.90772
471.703	12.49724
471.908	12.40298
472.113	12.90982
472.318	13.22428
472.523	12.11613
472.729	12.98223
472.934	13.13313
473.139	12.53622
473.344	13.09121
473.549	13.80187
473.754	12.31472
473.959	14.49993
474.164	12.55869
474.369	12.52696
474.575	13.04846
474.78	12.87192
474.985	12.46289
475.19	11.74953
475.395	12.52645
475.6	12.75499
475.804	13.72539
476.009	12.90652
476.214	12.59183
476.419	12.70434
476.624	11.93719
476.829	12.50087
477.034	13.42804
477.239	12.55911
477.444	13.23285
477.648	13.49574
477.853	13.32377
478.058	12.73955
478.263	12.64569
478.468	12.45494
478.672	12.72072
478.877	13.96308
479.082	14.22699
479.287	13.36957
479.491	13.18224
479.696	12.46029
479.901	13.71174
480.105	13.51684
480.31	12.69634
480.515	13.27228
480.719	14.74777
480.924	13.05871
481.128	13.0531
481.333	14.09652
481.538	14.65242
481.742	15.20107
481.947	17.02582
482.151	18.70309
482.356	20.26349
482.56	23.83066
482.765	26.8023
482.969	31.89529
483.174	35.80151
483.378	41.18515
483.582	42.70502
483.787	45.41982
483.991	45.83461
484.196	46.02775
484.4	44.51779
484.604	43.95459
484.809	39.8831
485.013	37.11174
485.217	33.34829
485.422	29.69566
485.626	26.74253
485.83	25.54378
486.034	24.85006
486.239	25.7544
486.443	26.95057
486.647	27.61706
486.851	29.66758
487.055	32.07586
487.26	32.11398
487.464	33.74522
487.668	33.10809
487.872	33.64305
488.076	33.69555
488.28	31.76261
488.484	29.64486
488.688	28.41423
488.892	26.72496
489.096	24.76127
489.3	22.8935
489.504	21.26412
489.708	20.34001
489.912	20.0433
490.116	19.47896
490.32	19.51728
490.524	21.68294
490.728	23.20248
490.932	24.73013
491.136	26.3221
491.34	28.19507
491.544	28.59109
491.748	28.27025
491.951	28.12592
492.155	27.31391
492.359	26.08647
492.563	23.60952
492.767	22.01092
492.97	19.466
493.174	17.28603
493.378	15.71799
493.582	13.96837
493.785	13.59834
493.989	13.37775
494.193	12.90001
494.396	12.33278
494.6	12.76862
494.804	12.49021
495.007	13.07413
495.211	13.28071
495.414	13.24731
495.618	13.60385
495.822	14.31983
496.025	13.61619
496.229	14.27481
496.432	13.88698
496.636	14.23998
496.839	14.48622
497.043	15.37396
497.246	14.56687
497.45	14.37126
497.653	14.6156
497.856	14.12253
498.06	13.73708
498.263	13.59484
498.467	13.69407
498.67	14.09181
498.873	13.88683
499.077	13.48707
499.28	13.72648
499.483	13.84155
499.686	14.15286
499.89	13.54364
500.093	14.18466
500.296	13.14677
500.499	14.70719
500.703	13.54718
500.906	13.79398
501.109	14.73688
501.312	13.82154
501.515	13.74579
501.719	14.07786
501.922	14.42061
502.125	13.69858
502.328	13.63817
502.531	13.09994
502.734	13.92196
502.937	12.52174
503.14	13.9663
503.343	13.2717
503.546	13.54641
503.749	13.40617
503.952	14.1596
504.155	13.25829
504.358	14.1341
504.561	14.09615
504.764	12.93046
504.967	13.7894
505.17	13.7656
505.373	14.88588
505.576	13.53861
505.778	14.20404
505.981	13.136
506.184	14.54366
506.387	12.78737
506.59	14.90277
506.793	14.61062
506.995	14.01863
507.198	12.73605
507.401	13.99037
507.604	14.04988
507.806	13.27386
508.009	13.43294
508.212	14.2814
508.414	13.44303
508.617	13.6161
508.82	13.95694
509.022	14.79904
509.225	14.13052
509.427	13.05154
509.63	14.50915
509.833	13.73615
510.035	13.35279
510.238	12.97511
510.44	14.60435
510.643	12.72843
510.845	14.69392
511.048	13.98601
511.25	13.52354
511.453	13.60546
511.655	14.10755
511.858	13.69207
512.06	14.61017
512.262	14.0801
512.465	14.70182
512.667	13.79451
512.869	13.08579
513.072	14.2963
513.274	14.36218
513.476	14.25527
513.679	14.41005
513.881	13.2807
514.083	14.83141
514.286	13.31566
514.488	13.41297
514.69	13.27111
514.892	13.00429
515.094	14.4353
515.297	13.62278
515.499	13.88571
515.701	13.29636
515.903	14.89994
516.105	14.99557
516.307	14.22864
516.509	12.66488
516.711	13.09488
516.913	13.7936
517.116	14.01915
517.318	13.67868
517.52	14.47083
517.722	14.39686
517.924	13.86357
518.126	15.4557
518.328	14.90167
518.529	15.74498
518.731	16.68029
518.933	15.01063
519.135	15.21168
519.337	15.63035
519.539	14.9202
519.741	13.07144
519.943	13.9518
520.145	13.69323
520.346	14.54823
520.548	13.83024
520.75	14.342
520.952	13.67699
521.153	14.30156
521.355	14.34045
521.557	13.40912
521.759	14.05715
521.96	13.88946
522.162	13.14045
522.364	14.48133
522.565	13.52897
522.767	14.29601
522.969	14.64073
523.17	14.14515
523.372	13.97281
523.573	13.6452
523.775	13.96138
523.977	13.01528
524.178	15.09555
524.38	13.65728
524.581	14.52782
524.783	13.80366
524.984	15.2974
525.186	15.36654
525.387	16.3507
525.589	16.49214
525.79	16.52748
525.991	16.56588
526.193	17.46136
526.394	16.72745
526.596	17.64837
526.797	18.36181
526.998	17.95304
527.2	19.13948
527.401	22.54667
527.602	24.6008
527.803	28.73806
528.005	30.83236
528.206	33.16004
528.407	34.676
528.608	34.9123
528.81	35.03432
529.011	33.7269
529.212	34.40134
529.413	32.01473
529.614	29.46477
529.815	27.2443
530.017	24.75842
530.218	21.85033
530.419	19.5529
530.62	18.58447
530.821	17.7057
531.022	16.00845
531.223	17.14911
531.424	16.80293
531.625	17.13092
531.826	16.91202
532.027	18.18219
532.228	20.36811
532.429	20.81614
532.63	21.68699
532.831	23.28699
533.032	23.3119
533.233	24.28696
533.433	23.69101
533.634	23.83287
533.835	22.5091
534.036	21.40416
534.237	20.24049
534.438	18.84997
534.638	16.58015
534.839	15.80328
535.04	15.38587
535.241	14.62068
535.441	16.14739
535.642	15.66723
535.843	15.17946
536.043	15.99723
536.244	16.31731
536.445	16.82484
536.645	17.64659
536.846	17.16403
537.047	17.3026
537.247	15.63632
537.448	15.19436
537.648	14.98984
537.849	14.07463
538.049	14.10025
538.25	14.48976
538.451	14.60288
538.651	13.78598
538.851	14.21134
539.052	15.07318
539.252	14.75831
539.453	14.09855
539.653	14.44235
539.854	14.63108
540.054	16.0459
540.254	18.68959
540.455	20.84768
540.655	21.61602
540.855	24.06954
541.056	25.66568
541.256	25.56141
541.456	26.68151
541.657	26.00526
541.857	26.34741
542.057	24.46358
542.257	23.24873
542.458	22.98135
542.658	21.67631
542.858	19.1999
543.058	18.84231
543.258	17.75575
543.458	15.79014
543.659	15.15747
543.859	15.78495
544.059	15.52181
544.259	14.32787
544.459	14.79779
544.659	14.0326
544.859	14.54441
545.059	13.87258
545.259	14.78912
545.459	14.37769
545.659	14.93502
545.859	14.48981
546.059	14.58924
546.259	14.05083
546.459	13.79176
546.659	13.93165
546.859	15.1162
547.059	14.60028
547.258	14.89051
547.458	14.93962
547.658	13.8581
547.858	13.56501
548.058	14.52374
548.258	14.15155
548.457	13.46145
548.657	15.79393
548.857	14.13671
549.057	14.9088
549.256	14.96973
549.456	13.83365
549.656	12.73069
549.855	15.62037
550.055	14.109
550.255	15.79812
550.454	14.74494
550.654	14.80222
550.853	15.30679
551.053	14.92133
551.253	14.46979
551.452	14.51086
551.652	13.63524
551.851	13.25591
552.051	14.17824
552.25	13.89585
552.45	13.98335
552.649	14.21518
552.849	13.85822
553.048	14.33635
553.248	14.96124
553.447	13.68851
553.646	14.93169
553.846	15.67966
554.045	15.06316
554.244	13.46557
554.444	15.50489
554.643	13.60022
554.842	15.70408
555.042	15.93207
555.241	13.75463
555.44	13.5053
555.64	14.78552
555.839	15.87464
556.038	14.76518
556.237	13.79285
556.436	14.48093
556.636	14.7388
556.835	13.80302
557.034	15.70083
557.233	14.29009
557.432	13.32193
557.631	15.19623
557.83	14.40347
558.029	14.03039
558.228	13.67683
558.427	13.4952
558.626	14.81831
558.825	13.53113
559.024	14.20263
559.223	15.92726
559.422	14.36363
559.621	14.65192
559.82	12.42689
560.019	14.32893
560.218	14.38018
560.417	12.34932
560.616	13.70292
560.815	17.36324
561.014	13.20811
561.212	16.05566
561.411	14.46401
561.61	13.07458
561.809	14.04789
562.008	15.22195
562.206	14.07622
562.405	14.91878
562.604	14.2698
562.803	14.67383
563.001	14.22974
563.2	13.46211
563.399	15.02241
563.597	13.4896
563.796	14.21608
563.995	13.3852
564.193	15.01644
564.392	14.20822
564.59	16.31976
564.789	12.92099
564.988	13.93614
565.186	14.46574
565.385	14.43366
565.583	14.35417
565.782	14.56576
565.98	14.39226
566.179	14.42201
566.377	13.79571
566.575	14.08236
566.774	15.58973
566.972	15.23074
567.171	16.28199
567.369	15.52893
567.567	14.74987
567.766	14.75211
567.964	12.85751
568.162	14.7418
568.361	15.48882
568.559	14.32546
568.757	14.85587
568.956	14.79423
569.154	14.58672
569.352	14.77797
569.55	14.51804
569.748	14.19044
569.947	13.94682
570.145	13.91954
570.343	14.00186
570.541	15.37457
570.739	13.64839
570.937	14.33329
571.135	14.84872
571.333	16.1335
571.532	16.14992
571.73	14.74407
571.928	15.38021
572.126	14.91386
572.324	14.25897
572.522	15.86787
572.72	17.02845
572.918	14.50328
573.116	14.93981
573.313	14.56054
573.511	14.74364
573.709	14.09339
573.907	15.39142
574.105	14.3151
574.303	13.17039
574.501	13.19423
574.699	14.93797
574.896	15.14163
575.094	15.17174
575.292	13.38045
575.49	15.54233
575.688	14.58308
575.885	15.50769
576.083	16.6577
576.281	15.24803
576.478	13.73478
576.676	15.22013
576.874	13.42059
577.071	14.44208
577.269	16.73253
577.467	14.92251
577.664	14.29657
577.862	15.65326
578.059	13.49838
578.257	15.50764
578.455	14.03171
578.652	14.85056
578.85	12.41393
579.047	14.76491
579.245	14.4766
579.442	14.46461
579.64	14.53544
579.837	12.623
580.034	17.07263
580.232	14.47004
580.429	12.89886
580.627	15.0357
580.824	15.88919
581.021	14.98003
581.219	14.14108
581.416	13.80525
581.613	16.36221
581.811	16.04818
582.008	13.781
582.205	15.63069
582.402	14.88788
582.6	16.25745
582.797	14.68643
582.994	14.62012
583.191	15.31627
583.388	14.27036
583.586	15.72776
583.783	15.39044
583.98	14.27536
584.177	15.15624
584.374	11.77154
584.571	14.60718
584.768	14.38875
584.965	13.63815
585.162	14.97921
585.359	16.72843
585.556	14.7838
585.753	15.04324
585.95	13.30317
586.147	13.98555
586.344	15.58378
586.541	14.22465
586.738	13.16031
586.935	14.22116
587.132	13.46523
587.329	15.88756
587.526	14.62181
587.722	20.30576
587.919	13.39672
588.116	15.71719
588.313	16.14112
588.51	17.28452
588.706	14.46526
588.903	15.56767
589.1	15.8497
589.297	17.23903
589.493	15.04457
589.69	15.56484
589.887	14.21599
590.083	13.62825
590.28	14.08227
590.477	15.45367
590.673	15.95307
590.87	16.48952
591.067	14.90948
591.263	15.16391
591.46	14.9321
591.656	14.53118
591.853	16.39229
592.049	14.22897
592.246	14.37308
592.442	15.96888
592.639	16.06984
592.835	14.0812
593.032	15.44604
593.228	13.29927
593.425	12.72117
593.621	12.97325
593.817	15.23029
594.014	14.1936
594.21	15.00249
594.406	15.76186
594.603	15.57742
594.799	14.10043
594.995	12.416
595.192	16.41797
595.388	14.33135
595.584	14.87725
595.78	13.62534
595.977	17.63082
596.173	16.91139
596.369	14.72744
596.565	13.98684
596.761	13.63611
596.957	16.55021
597.154	14.06378
597.35	14.54261
597.546	14.65011
597.742	15.93025
597.938	15.39718
598.134	14.35901
598.33	15.05562
598.526	16.45655
598.722	15.23044
598.918	16.9557
599.114	15.06009
599.31	13.66379
599.506	14.68503
599.702	13.62459
599.898	14.82185
600.094	15.31979
600.29	15.53307
600.485	15.82374
600.681	13.79636
600.877	16.8239
601.073	14.9506
601.269	17.45615
601.465	16.57104
601.66	13.70713
601.856	12.57159
602.052	16.93456
602.248	14.83135
602.443	13.00549
602.639	14.04237
602.835	14.41427
603.03	14.14803
603.226	16.41619
603.422	14.06687
603.617	14.86075
603.813	14.70069
604.009	14.77094
604.204	16.56789
604.4	13.60553
604.595	16.24486
604.791	14.3513
604.986	15.6129
605.182	14.45833
605.377	15.10521
605.573	14.51598
605.768	15.44525
605.964	15.93287
606.159	15.68842
606.355	16.34875
606.55	14.43022
606.746	16.66599
606.941	14.81404
607.136	17.61182
607.332	18.76534
607.527	13.43723
607.722	15.31744
607.918	14.49118
608.113	14.7381
608.308	16.30604
608.503	15.91264
608.699	16.00043
608.894	16.41423
609.089	14.7409
609.284	15.52917
609.479	14.81714
609.675	16.10669
609.87	15.16688
610.065	16.13276
610.26	16.41692
610.455	16.19838
610.65	15.32058
610.845	15.2399
611.04	16.55932
611.235	15.23462
611.43	14.80381
611.625	13.36572
611.82	16.82556
612.015	13.93784
612.21	17.14657
612.405	12.69287
612.6	17.47849
612.795	16.60331
612.99	15.98766
613.185	13.98836
613.38	13.89305
613.575	14.69086
613.77	19.25359
613.965	13.14975
614.159	13.87717
614.354	17.02233
614.549	16.3586
614.744	16.11467
614.938	13.29548
615.133	12.98824
615.328	17.30522
615.523	16.40849
615.717	19.29803
615.912	13.54671
616.107	15.70284
616.301	14.62903
616.496	14.48786
616.691	17.39497
616.885	16.19097
617.08	20.06856
617.274	16.69516
617.469	18.24639
617.664	16.33151
617.858	14.4666
618.053	16.30824
618.247	14.92341
618.442	11.67519
618.636	17.89756
618.831	14.41186
619.025	14.42857
619.219	19.53585
619.414	11.53634
619.608	14.98385
619.803	14.67767
619.997	18.86967
620.191	17.20619
620.386	16.23665
620.58	15.34389
620.774	12.88564
620.969	13.2127
621.163	15.33321
621.357	13.65002
621.551	14.91068
621.746	15.47173
621.94	14.81128
622.134	20.49449
622.328	18.80092
622.522	13.02731
622.716	16.73672
622.911	17.32069
623.105	16.94634
623.299	15.77368
623.493	20.8217
623.687	14.24235
623.881	14.72346
624.075	15.67705
624.269	17.50618
624.463	12.36807
624.657	13.35925
624.851	16.21865
625.045	17.07041
625.239	17.38371
625.433	15.49819
625.627	17.83209
625.821	14.59428
626.015	14.72751
626.209	16.17032
626.403	13.86515
626.596	16.83763
626.79	17.12507
626.984	14.33264
627.178	16.36931
627.372	16.43129
627.565	17.2638
627.759	13.46969
627.953	13.9279
628.147	16.45689
628.34	16.60084
628.534	19.05341
628.728	15.3731
628.921	16.96761
629.115	16.64545
629.309	17.18997
629.502	17.19537
629.696	15.90911
629.89	15.92008
630.083	15.88136
630.277	16.30851
630.47	18.18621
630.664	14.82
630.857	12.74067
631.051	16.77408
631.244	17.79101
631.438	16.63484
631.631	14.03791
631.825	18.20988
632.018	16.87836
632.212	18.93571
632.405	17.99177
632.598	14.75051
632.792	16.26418
632.985	11.97416
633.178	15.88284
633.372	15.6361
633.565	15.69744
633.758	18.31123
633.952	14.11626
634.145	14.09269
634.338	16.01939
634.531	14.80433
634.724	14.84703
634.918	15.81942
635.111	15.36417
635.304	14.82475
635.497	20.23296
635.69	16.33264
635.883	18.54654
636.077	14.18173
636.27	16.60089
636.463	15.83344
636.656	16.44201
636.849	15.48717
637.042	17.30949
637.235	18.91932
637.428	17.52507
637.621	17.08738
637.814	18.60245
638.007	19.4002
638.2	18.44691
638.393	19.34706
638.586	13.47144
638.778	15.16631
638.971	16.14082
639.164	19.15962
639.357	16.27502
639.55	19.08469
639.743	17.3782
639.935	16.83985
640.128	20.20151
640.321	17.73778
640.514	16.34138
640.707	21.10627
640.899	17.33536
641.092	12.72013
641.285	32.1317
641.477	11.84579
641.67	21.57183
641.863	19.47741
642.055	16.44322
642.248	15.7335
642.441	15.55303
642.633	17.75355
642.826	18.47374
643.018	19.30734
643.211	21.27491
643.403	20.14196
643.596	21.6572
643.788	20.38378
643.981	16.74179
644.173	18.64307
644.366	16.89317
644.558	12.44468
644.751	18.84428
644.943	13.09867
645.135	20.04502
645.328	20.9969
645.52	17.73651
645.712	18.89275
645.905	23.42455
646.097	14.52018
646.289	16.5752
646.482	21.81525
646.674	16.04227
646.866	19.65637
647.058	17.94695
647.251	14.28332
647.443	15.82265
647.635	16.93356
647.827	14.09796
648.019	16.01945
648.211	16.02492
648.404	16.99008
648.596	21.21688
648.788	17.10504
648.98	17.49394
649.172	17.56334
649.364	17.95311
649.556	13.29393
649.748	23.46594
649.94	14.93113
650.132	18.30323
650.324	15.00977
650.516	15.59912
650.708	20.04624
650.9	14.0168
651.092	16.12309
651.284	14.23358
651.476	14.74369
651.667	18.96718
651.859	19.9254
652.051	16.8624
652.243	16.73171
652.435	15.78988
652.627	18.95213
652.818	18.38354
653.01	13.08448
653.202	14.28763
653.394	16.20749
653.585	18.80525
653.777	27.73414
653.969	20.17117
654.16	19.68425
654.352	13.98731
654.544	16.55749
654.735	19.86772
654.927	17.28646
655.118	20.74538
655.31	18.10199
655.502	20.67308
655.693	16.39023
655.885	19.79743
656.076	20.59852
656.268	17.55804
656.459	21.64226
656.651	20.45409
656.842	16.44461
657.034	16.1439
657.225	19.84174
657.416	20.84289
657.608	20.39527
657.799	17.64622
657.99	20.7286
658.182	16.68018
658.373	16.64071
658.564	19.52344
658.756	17.97965
658.947	17.28976
659.138	15.75686
659.33	16.83187
659.521	16.16706
659.712	17.62445
659.903	17.10524
660.094	16.30781
660.286	14.27072
660.477	21.82735
660.668	19.41104
660.859	17.15275
661.05	13.87438
661.241	19.09544
661.432	19.06925
661.623	17.01793
661.814	16.75837
662.006	13.70678
662.197	18.28369
662.388	20.52106
662.579	17.98121
662.77	20.86225
662.96	25.6133
663.151	19.33755
663.342	13.94557
663.533	18.83953
663.724	18.16622
663.915	22.52606
664.106	17.52213
664.297	23.11951
664.488	19.74487
664.678	15.93786
664.869	20.2142
665.06	21.6398
665.251	18.89185
665.442	19.1556
665.632	14.78721
665.823	23.17706
666.014	9.84234
666.204	20.55808
666.395	22.60261
666.586	25.86303
666.776	20.52117
666.967	23.18244
667.158	19.03815
667.348	22.28911
667.539	16.15602
667.729	20.78444
667.92	16.06303
668.111	21.0188
668.301	20.23186
668.492	18.53629
668.682	19.56529
668.873	18.76152
669.063	15.31205
669.253	19.8894
669.444	21.49981
669.634	17.95351
669.825	24.10581
670.015	21.3959
670.206	16.38778
670.396	24.0798
670.586	17.82072
670.777	20.40463
670.967	13.36343
671.157	17.30007
671.347	16.49263
671.538	24.05397
671.728	20.52132
671.918	24.73892
672.108	21.29981
672.299	18.22457
672.489	20.82901
672.679	17.00064
672.869	19.85058
673.059	26.14468
673.249	20.80023
673.44	15.92618
673.63	19.45055
673.82	22.41039
674.01	16.82748
674.2	21.19202
674.39	28.1962
674.58	22.21035
674.77	19.70208
674.96	19.21906
675.15	32.5651
675.34	23.91692
675.53	19.7592
675.72	18.73696
675.91	14.71854
676.099	25.65207
676.289	26.78683
676.479	23.5397
676.669	18.52492
676.859	21.00725
677.049	17.64888
677.238	19.51466
677.428	25.91742
677.618	21.83661
677.808	23.9634
677.997	21.32856
678.187	16.17248
678.377	19.78815
678.567	18.43846
678.756	18.39643
678.946	19.42495
679.136	15.9107
679.325	18.34429
679.515	17.32647
679.704	16.86333
679.894	21.93164
680.084	21.79866
680.273	23.15132
680.463	18.13165
680.652	17.36749
680.842	19.4736
681.031	22.97079
681.221	17.71541
681.41	22.34425
681.6	19.69466
681.789	22.72693
681.978	24.36501
682.168	21.62656
682.357	20.36766
682.547	22.15831
682.736	21.0663
682.925	25.31687
683.115	24.1181
683.304	24.39219
683.493	22.52885
683.682	23.11542
683.872	22.46414
684.061	25.2
684.25	22.59269
684.439	27.98506
684.629	23.97037
684.818	32.87105
685.007	20.41057
685.196	21.04816
685.385	27.83496
685.574	22.85106
685.763	23.54524
685.952	22.7169
686.142	18.37097
686.331	26.03283
686.52	15.32439
686.709	28.09116
686.898	27.02619
687.087	25.25604
687.276	28.30047
687.465	26.42958
687.654	21.64073
687.842	28.35003
688.031	17.99785
688.22	27.35409
688.409	23.05606
688.598	23.49812
688.787	32.66452
688.976	22.8203
689.165	29.49975
689.353	21.38317
689.542	23.46638
689.731	26.39309
689.92	30.94206
690.108	27.90566
690.297	21.17385
690.486	23.00977
690.675	26.86975
690.863	30.13625
691.052	29.30494
691.241	24.45106
691.429	24.14603
691.618	29.79598
691.806	18.47698
691.995	21.97855
692.184	23.1142
692.372	21.39622
692.561	24.8047
692.749	23.82133
692.938	33.76935
693.126	26.06829
693.315	23.4233
693.503	25.73957
693.692	26.85776
693.88	29.31714
694.068	32.17688
694.257	24.40217
694.445	25.85345
694.634	15.24662
694.822	27.94318
695.01	30.01276
695.199	30.60126
695.387	30.88373
695.575	28.95044
695.763	24.41038
695.952	21.25329
696.14	19.31029
696.328	22.26496
696.516	24.86633
696.705	25.81355
696.893	25.31673
697.081	16.58194
697.269	27.38013
697.457	20.41411
697.645	20.20545
697.833	27.4961
698.021	20.94442
698.21	22.58775
698.398	23.67227
698.586	19.95072
698.774	19.09105
698.962	22.98164
699.15	20.86336
699.338	18.33608
699.526	24.73612
699.714	21.52572
699.901	20.55076
700.089	27.32397
700.277	20.9435
700.465	22.58582
700.653	27.72234
700.841	26.02435
701.029	20.77988
701.217	29.37232
701.404	25.82834
701.592	30.9349
701.78	33.89899
701.968	24.44869
702.155	24.37484
702.343	18.54104
702.531	31.11956
702.718	26.71193
702.906	24.08341
703.094	21.78441
703.281	31.60438
703.469	26.11206
703.657	31.21909
703.844	40.07314
704.032	34.13673
704.219	22.46837
704.407	26.469
704.595	32.00458
704.782	27.48129
704.97	25.07151
705.157	24.28995
705.345	33.04435
705.532	39.9114
705.719	29.89034
705.907	32.73832
706.094	27.6635
706.282	35.8901
706.469	24.54523
706.656	28.19262
706.844	25.60558
707.031	31.52525
707.218	29.51995
707.406	34.78449
707.593	31.54861
707.78	31.46978
707.968	26.62297
708.155	22.93674
708.342	30.7949
708.529	29.94703
708.716	28.3438
708.904	34.72309
709.091	30.96159
709.278	20.505
709.465	39.13724
709.652	36.03212
709.839	34.28151
710.026	30.04631
710.213	20.86807
710.4	29.75779
710.587	33.51336
710.774	34.93113
710.961	34.30128
711.148	28.94559
711.335	34.67847
711.522	28.49608
711.709	29.95456
711.896	40.36555
712.083	33.6278
712.27	24.79578
712.457	29.41094
712.644	21.9002
712.831	40.2241
713.017	30.04592
713.204	33.61121
713.391	26.25019
713.578	36.12542
713.765	37.57564
713.951	32.75104
714.138	48.01034
714.325	32.735
714.512	28.95337
714.698	24.8793
714.885	37.96134
715.072	32.27672
715.258	31.41348
715.445	27.82992
715.631	36.99939
715.818	18.13734
716.005	27.20289
716.191	33.38058
716.378	27.57357
716.564	35.06332
716.751	26.8249
716.937	27.47913
717.124	36.50612
717.31	25.575
717.497	38.72626
717.683	26.17239
717.869	44.72871
718.056	28.49038
718.242	34.44388
718.429	29.52788
718.615	25.8329
718.801	31.19537
718.988	36.41701
719.174	34.03336
719.36	30.73973
719.547	38.07279
719.733	34.08749
719.919	34.42093
720.105	38.97481
720.291	32.14852
720.478	32.97744
720.664	30.85497
720.85	29.63506
721.036	48.54093
721.222	40.67139
721.408	32.1946
721.595	44.76284
721.781	42.75825
721.967	39.50179
722.153	43.69914
722.339	35.73625
722.525	32.72138
722.711	27.88672
722.897	25.48864
723.083	29.28824
723.269	39.67478
723.455	50.57415
723.641	52.88833
723.827	34.23497
724.012	35.6623
724.198	30.09146
724.384	39.9055
724.57	36.26702
724.756	24.32719
724.942	21.63284
725.127	41.92352
725.313	43.22115
725.499	42.16576
725.685	46.82143
725.87	35.67222
726.056	27.96082
726.242	42.83892
726.428	22.75672
726.613	39.70327
726.799	31.57454
726.985	27.6978
727.17	22.21526
727.356	46.0019
727.541	28.02317
727.727	33.31213
727.913	36.63622
728.098	31.6709
728.284	39.21766
728.469	26.42107
728.655	28.64835
728.84	39.88586
729.026	38.33034
729.211	40.32341
729.397	36.99096
729.582	38.69124
729.767	33.99166
729.953	36.07326
730.138	41.37232
730.323	19.70252
730.509	27.26337
730.694	46.06613
730.879	39.76131
731.065	34.96027
731.25	49.59241
731.435	38.2084
731.621	23.93333
731.806	30.41991
731.991	35.71479
732.176	24.9108
732.361	45.07804
732.547	38.34089
732.732	23.25552
732.917	51.63624
733.102	25.47699
733.287	29.07195
733.472	35.73349
733.657	33.98405
733.842	23.94381
734.027	31.06303
734.212	33.10526
734.397	30.44857
734.582	34.95812
734.767	40.40579
734.952	45.7324
735.137	17.28095
735.322	45.38426
735.507	35.84028
735.692	36.09574
735.877	50.69792
736.062	48.5227
736.247	40.39753
736.431	32.46304
736.616	45.52746
736.801	37.59652
736.986	35.41367
737.171	28.71387
737.355	24.58033
737.54	44.71199
737.725	35.06694
737.909	57.2054
738.094	32.31012
738.279	41.29652
738.463	33.00357
738.648	43.38271
738.833	39.00656
739.017	51.78602
739.202	34.5995
739.386	34.58271
739.571	27.36139
739.756	43.66589
739.94	36.51274
740.125	42.8586
740.309	29.75384
740.494	42.45622
740.678	36.76341
740.863	39.13972
741.047	38.98336
741.231	47.25422
741.416	33.21766
741.6	50.95769
741.785	27.02413
741.969	45.144
742.153	46.43696
742.338	19.69326
742.522	36.8945
742.706	41.10172
742.89	26.22556
743.075	39.51027
743.259	49.14377
743.443	46.03616
743.627	49.17402
743.812	57.11285
743.996	15.75742
744.18	34.15136
744.364	31.32065
744.548	59.46494
744.732	35.6611
744.916	44.54256
745.1	44.29544
745.285	33.9106
745.469	42.60108
745.653	53.41701
745.837	24.6623
746.021	59.47885
746.205	47.86609
746.389	37.22173
746.573	34.08047
746.757	52.80878
746.94	35.62945
747.124	50.3655
747.308	27.51438
747.492	46.26912
747.676	34.56043
747.86	61.01525
748.044	35.35013
748.227	21.57626
748.411	75.2487
748.595	40.98098
748.779	29.12638
748.963	44.77318
749.146	42.31873
749.33	31.76989
749.514	29.51333
749.697	47.90825
749.881	33.28806
750.065	27.2105
750.248	39.87185
750.432	60.40961
750.616	41.06397
750.799	25.36842
750.983	62.52363
751.166	64.57121
751.35	26.49692
751.533	50.00358
751.717	51.1844
751.9	53.74473
752.084	31.81304
752.267	28.12873
752.451	32.53311
752.634	39.15544
752.818	43.84802
753.001	50.95333
753.184	48.3986
753.368	41.81035
753.551	8.16136
753.734	30.81785
753.918	62.2396
754.101	31.70009
754.284	45.95663
754.467	37.20305
754.651	34.0492
754.834	30.13583
755.017	50.17871
755.2	50.79525
755.384	25.67306
755.567	47.94361
755.75	50.32711
755.933	34.92218
756.116	39.4545
756.299	32.66933
756.482	29.08878
756.665	43.48842
756.848	40.75041
757.032	43.9526
757.215	25.21867
757.398	34.39635
757.581	31.5804
757.764	67.32516
757.947	40.01447
758.129	56.2274
758.312	11.12672
758.495	36.59826
758.678	39.71206
758.861	36.98586
759.044	61.15667
759.227	33.57957
759.41	32.19894
759.592	48.55199
759.775	38.91599
759.958	50.50558
760.141	27.40135
760.324	63.67416
760.506	57.27215
760.689	50.13232
760.872	66.37533
761.054	44.22994
761.237	34.7646
761.42	42.55046
761.602	49.8667
761.785	44.51293
761.968	50.2285
762.15	58.39688
762.333	37.6696
762.515	42.38468
762.698	35.08168
762.88	47.40554
763.063	42.05036
763.245	47.39916
763.428	29.89717
763.61	34.34145
763.793	27.93396
763.975	42.92376
764.158	36.20825
764.34	32.77539
764.522	29.14672
764.705	37.32522
764.887	50.254
765.069	23.67151
765.252	45.15709
765.434	44.99763
765.616	38.93532
765.799	31.0837
765.981	47.25049
766.163	31.33484
766.345	51.97746
766.528	33.69186
766.71	14.17589
766.892	41.25268
767.074	53.81789
767.256	40.26955
767.438	58.97423
767.62	44.94205
767.802	61.11247
767.985	49.12716
768.167	64.94378
768.349	35.8786
768.531	48.00788
768.713	43.39811
768.895	49.93
769.077	45.91215
769.259	72.28087
769.441	106.57948
769.623	55.95516
769.804	63.65634
769.986	62.02362
770.168	80.83863
770.35	84.18797
770.532	69.40106
770.714	73.52075
770.896	77.91545
771.077	28.64683
771.259	79.44378
771.441	62.31398
771.623	81.9871
771.804	102.59783
771.986	30.74718
772.168	48.53385
772.35	78.74896
772.531	102.42472
772.713	62.51763
772.894	83.13292
773.076	59.2959
773.258	50.89748
773.439	84.66508
773.621	91.37098
773.802	42.32345
773.984	63.84906
774.166	65.62935
774.347	92.48666
774.529	78.23303
774.71	22.95851
774.891	56.58885
775.073	56.05135
775.254	91.99734
775.436	55.19141
775.617	102.05728
775.799	50.23415
775.98	85.76522
776.161	98.10471
776.343	93.79986
776.524	61.88354
776.705	55.04234
776.886	27.12742
777.068	70.01902
777.249	117.97241
777.43	101.17976
777.611	41.71475
777.793	58.11102
777.974	93.10959
778.155	53.50184
778.336	43.70054
778.517	107.03057
778.698	46.63902
778.879	27.79905
779.061	14.44906
779.242	72.29314
779.423	66.76386
779.604	53.16605
779.785	60.71625
779.966	67.69748
780.147	84.11258
780.328	87.26726
780.509	114.58722
780.69	78.69988
780.871	53.57096
781.051	33.37654
781.232	67.35829
781.413	68.18219
781.594	54.8651
781.775	56.502
781.956	48.74709
782.137	23.42066
782.317	50.44458
782.498	71.55546
782.679	75.00652
782.86	64.61553
783.04	45.56473
783.221	68.11275
783.402	100.61108
783.583	63.44083
783.763	84.95401
783.944	52.13223
784.124	35.22799
784.305	99.90645
784.486	74.51268
784.666	58.03484
784.847	30.78605
785.027	121.94706
785.208	44.27698
785.388	43.86242
785.569	49.59902
785.749	55.79001
785.93	51.4985
786.11	38.7392
786.291	69.27382
786.471	67.36178
786.652	76.70998
786.832	58.56779
787.012	71.75292
787.193	38.34322
787.373	67.91464
787.553	60.40291
787.734	68.00777
787.914	52.0423
788.094	76.98628
788.275	69.56154
788.455	57.01085
788.635	37.25081
788.815	65.41945
788.995	40.48312
789.176	34.35015
789.356	47.97919
789.536	55.54918
789.716	71.67203
789.896	46.30259
790.076	49.87396
790.256	69.16593
790.436	19.32703
790.616	44.12979
790.796	66.60296
790.976	51.97447
791.156	47.96284
791.336	79.92798
791.516	69.2134
791.696	56.63753
791.876	32.17332
792.056	60.61453
792.236	81.95319
792.416	76.87401
792.596	71.48122
792.776	68.14833
792.956	75.92175
793.135	95.03527
793.315	37.44443
793.495	89.3513
793.675	78.98892
793.854	77.87128
794.034	82.79559
794.214	39.66471
794.394	76.08039
794.573	87.71692
794.753	61.36543
794.933	47.27685
795.112	66.99302
795.292	81.65817
795.472	102.56934
795.651	36.48413
795.831	63.04091
796.01	52.34775
796.19	53.68575
796.369	56.7326
796.549	70.68582
796.728	59.35369
796.908	37.46259
797.087	41.52094
797.267	56.89318
797.446	36.2531
797.626	71.92298
797.805	69.99744
797.984	49.98955
798.164	75.07666
798.343	42.48639
798.522	70.55048
798.702	64.15324
798.881	38.73598
799.06	54.02942
799.239	26.73085
799.419	42.00215
799.598	92.87962
799.777	70.33512
799.956	82.1165
800.136	54.71715
800.315	42.50439
800.494	68.14317
800.673	83.30524
800.852	79.52567
801.031	85.30625
801.21	74.31442
801.389	54.1586
801.568	66.01734
801.747	100.70235
801.926	59.32614
802.105	96.1864
802.284	54.25821
802.463	94.49638
802.642	67.46547
802.821	66.51672
803	85.57402
803.179	84.24225
803.358	88.87997
803.537	49.68565
803.716	70.5028
803.895	44.32692
804.073	59.30062
804.252	50.18774
804.431	73.72668
804.61	59.17498
804.789	86.36821
804.967	54.78932
805.146	52.19733
805.325	110.95533
805.503	75.24748
805.682	35.48133
805.861	131.84285
806.039	92.58859
806.218	51.19519
806.397	71.77249
806.575	65.68336
806.754	65.80853
806.932	46.68101
807.111	96.27174
807.289	89.153
807.468	67.5717
807.646	85.28407
807.825	80.74372
808.003	72.14933
808.182	86.9095
808.36	66.67286
808.539	43.77577
808.717	99.47529
808.895	44.91611
809.074	70.00831
809.252	62.57957
809.43	83.72065
809.609	94.31162
809.787	104.08449
809.965	59.18412
810.144	66.86681
810.322	60.30451
810.5	80.30641
810.678	71.59896
810.856	113.38195
811.035	97.26214
811.213	93.10581
811.391	87.8549
811.569	79.01198
811.747	153.06687
811.925	104.16319
812.103	48.5559
812.281	69.49989
812.459	115.85264
812.637	119.5613
812.816	95.49193
812.994	118.41541
813.171	104.60693
813.349	87.91288
813.527	103.44164
813.705	95.52026
813.883	120.18658
814.061	96.41402
814.239	124.00387
814.417	133.64356
814.595	91.31103
814.773	80.30023
814.95	74.75211
815.128	80.77443
815.306	74.27368
815.484	73.80134
815.662	47.03026
815.839	47.19852
816.017	59.30151
816.195	100.6061
816.372	65.23682
816.55	94.88373
816.728	113.9269
816.905	66.32335
817.083	112.10984
817.261	71.92934
817.438	141.0729
817.616	124.47893
817.793	50.50471
817.971	90.53248
818.148	87.35181
818.326	116.37453
818.503	78.01382
818.681	109.28607
818.858	56.81569
819.036	74.28615
819.213	76.6797
819.391	58.22652
819.568	54.93304
819.745	50.92282
819.923	84.42694
820.1	57.19357
820.277	51.63868
820.455	60.08359
820.632	62.86041
820.809	66.79082
820.986	41.62706
821.164	35.90562
821.341	32.23593
821.518	44.76911
821.695	35.73313
821.872	34.80992
822.05	29.97267
822.227	26.86619
822.404	28.38903
822.581	30.53663
822.758	27.78938
822.935	28.39468
823.112	30.74687
823.289	27.40451
823.466	30.8146
823.643	29.15998
823.82	32.99612
823.997	30.49504
824.174	34.50655
824.351	41.21136
824.528	39.86724
824.705	37.60313
824.882	37.81595
825.059	49.11888
825.236	35.25618
825.412	39.1526
825.589	44.66813
825.766	62.48857
825.943	38.8294
826.12	45.84974
826.296	33.29347
826.473	44.05022
826.65	42.56126
826.827	53.01874
827.003	36.8053
827.18	41.09904
827.357	45.31643
827.533	38.43314
827.71	23.49214
827.887	35.85664
828.063	42.17536
828.24	35.62382
828.416	45.40571
828.593	38.52574
828.769	53.83352
828.946	56.07714
829.122	58.79195
829.299	58.33592
829.475	27.02001
829.652	56.29406
829.828	86.9391
830.005	51.10693
830.181	78.44585
830.357	56.2126
830.534	77.64546
830.71	64.14795
830.886	76.78327
831.063	78.73569
831.239	97.22388
831.415	40.90097
831.592	107.42329
831.768	60.76883
831.944	54.09516
832.12	111.17199
832.296	103.09757
832.473	82.88113
832.649	55.50292
832.825	79.28466
833.001	46.38383
833.177	70.9009
833.353	63.79005
833.529	36.73799
833.705	53.31228
833.881	40.18955
834.058	40.00027
834.234	40.94442
834.41	41.94974
834.586	33.80701
834.761	39.69258
834.937	43.19485
835.113	45.13343
835.289	38.76864
835.465	48.08835
835.641	41.11616
835.817	45.32265
835.993	83.59418
836.169	39.51479
836.344	65.95548
836.52	73.52593
836.696	80.28189
836.872	52.7059
837.048	148.6183
837.223	57.09291
837.399	129.75068
837.575	105.37007
837.75	95.74112
837.926	125.9782
838.102	207.16936
838.277	168.00102
838.453	224.71704
838.628	211.13845
838.804	63.18057
838.98	209.29192
839.155	104.26343
839.331	140.49159
839.506	99.10702
839.682	92.01248
839.857	113.90611
840.033	140.02037
840.208	67.11715
840.384	36.83335
840.559	65.69146
840.734	105.77953
840.91	147.00991
841.085	93.07065
841.26	90.25141
841.436	86.7292
841.611	78.6185
841.786	126.16629
841.962	158.24441
842.137	115.29196
842.312	50.20413
842.487	96.37763
842.663	67.08206
842.838	101.75352
843.013	322.45556
843.188	196.4722
843.363	136.4679
843.538	317.98862
843.714	354.76796
843.889	313.21244
844.064	301.34731
844.239	228.36228
844.414	464.53719
844.589	276.82888
844.764	406.38532
844.939	385.97917
845.114	419.03408
845.289	421.89035
845.464	493.31822
845.639	389.2196
845.814	161.13541
845.989	312.67518
846.163	246.10092
846.338	323.5933
846.513	418.52443
846.688	252.7242
846.863	302.04716
847.038	229.23543
847.212	273.83675
847.387	340.52244
847.562	279.60009
847.737	443.40253
847.911	170.01276
848.086	181.71712
848.261	481.7785
848.435	246.17018
848.61	370.59682
848.785	210.05196
848.959	400.86522
849.134	476.79283
849.308	660.76869
849.483	302.72871
849.658	532.51278
849.832	245.16416
850.007	248.38088
850.181	667.85554
850.356	259.88055
850.53	745.98348
850.705	372.97038
850.879	133.04134
851.053	323.64203
851.228	315.13525
851.402	464.32027
851.577	471.89785
851.751	568.43227
851.925	354.18479
852.099	153.19526
852.274	238.49346
852.448	296.08159
852.622	459.1556
852.797	323.30606
852.971	345.15093
853.145	408.49342
853.319	726.34565
853.493	608.35428
853.668	479.12015
853.842	775.01226
854.016	489.08584
854.19	682.25445
854.364	346.25128
854.538	357.8101
854.712	749.34888
854.886	394.43867
855.06	305.91516
855.234	121.08079
855.408	636.32766
855.582	380.69459
855.756	598.07537
855.93	592.58218
856.104	689.46412
856.278	561.87429
856.452	366.71747
856.626	404.19118
856.8	922.59343
856.973	391.7027
857.147	458.86974
857.321	478.75724
857.495	521.58282
857.669	336.45932
857.842	443.84626
858.016	578.10367
858.19	227.26189
858.364	788.14047
858.537	412.88807
858.711	522.14511
858.885	397.93666
859.058	268.28867
859.232	156.0745
859.405	172.28031
859.579	516.10959
859.753	532.6288
859.926	222.9506
860.1	267.74864
860.273	382.84188
860.447	488.15534
860.62	389.14967
860.794	604.59567
860.967	313.18516
861.141	500.50326
861.314	798.844
861.487	476.2878
861.661	461.93964
861.834	546.86858
862.008	687.38511
862.181	441.503
862.354	505.60436
862.528	479.16072
862.701	311.1685
862.874	209.25002
863.047	313.81316
863.221	316.29387
863.394	160.86053
863.567	408.98108
863.74	133.22973
863.913	524.04596
864.087	502.83506
864.26	465.28756
864.433	366.77228
864.606	601.79827
864.779	363.17232
864.952	142.15775
865.125	443.65936
865.298	290.00706
865.471	321.39438
865.644	758.48115
865.817	489.53139
865.99	503.75263
866.163	444.21167
866.336	228.36595
866.509	321.05866
866.682	524.41748
866.855	729.62998
867.028	183.24358
867.2	383.91335
867.373	101.19768
867.546	368.94698
867.719	687.57419
867.892	450.60058
868.064	271.25464
868.237	341.33764
868.41	352.37381
868.583	154.67921
868.755	227.3791
868.928	445.26289
869.101	828.69191
869.273	556.34556
869.446	532.90968
869.619	598.87794
869.791	400.56624
869.964	487.64441
870.136	847.82283
870.309	364.17134
870.481	383.62568
870.654	221.22657
870.826	328.86287
870.999	211.91356
871.171	409.6821
871.344	260.41977
871.516	305.68588
871.689	248.44978
871.861	327.09364
872.033	276.39336
872.206	242.45678
872.378	329.69573
872.55	338.44628
872.723	199.43929
872.895	321.1978
873.067	443.85874
873.24	374.67325
873.412	358.55002
873.584	362.88482
873.756	347.62774
873.928	509.02893
874.101	352.7986
874.273	426.59801
874.445	131.59367
874.617	233.71448
874.789	305.56701
874.961	301.20217
875.133	363.50383
875.305	359.62312
875.477	296.36001
875.649	159.00761
875.821	203.78041
875.993	611.57512
876.165	308.48539
876.337	377.60234
876.509	306.08539
876.681	394.41082
876.853	358.05719
877.025	365.98253
877.197	228.92928
877.369	167.38937
877.541	340.59972
877.712	91.54137
877.884	177.65451
878.056	339.34386
878.228	180.01819
878.4	393.70463
878.571	176.25049
878.743	112.87174
878.915	284.36281
879.086	142.25245
879.258	181.6368
879.43	179.56687
879.601	142.97424
879.773	143.35841
879.945	29.31767
880.116	60.1276
880.288	35.96366
880.459	37.55624
880.631	35.03979
880.802	40.46789
880.974	37.78676
881.145	29.60854
881.317	37.00778
881.488	29.67384
881.66	33.18442
881.831	30.94069
882.002	38.36278
882.174	31.25153
882.345	34.95842
882.517	22.20524
882.688	42.06915
882.859	33.53648
883.03	52.10725
883.202	48.08526
883.373	39.51534
883.544	39.15796
883.715	69.31766
883.887	58.81546
884.058	45.15037
884.229	69.96371
884.4	73.3397
884.571	82.80566
884.742	68.5901
884.914	68.89481
885.085	113.72986
885.256	155.80754
885.427	131.51521
885.598	167.83155
885.769	155.14737
885.94	155.6791
886.111	91.37478
886.282	191.52637
886.453	158.69565
886.624	108.90508
886.795	215.68091
886.966	175.56697
887.136	226.95571
887.307	189.17166
887.478	311.52466
887.649	266.59365
887.82	262.9552
887.991	217.86148
888.161	315.38645
888.332	344.87476
888.503	143.95851
888.674	363.33728
888.844	530.66231
889.015	328.00806
889.186	207.74269
889.356	504.94424
889.527	196.38572
889.698	662.61285
889.868	241.03455
890.039	418.93186
890.209	318.34768
890.38	396.10908
890.551	390.32826
890.721	403.68505
890.892	459.10839
891.062	430.62815
891.233	496.69008
891.403	487.1556
891.574	309.7379
891.744	267.63841
891.914	335.4323
892.085	373.03371
892.255	116.00481
892.425	448.03082
892.596	332.45902
892.766	414.6464
892.936	458.83603
893.107	385.80381
893.277	168.37104
893.447	188.87989
893.618	104.18961
893.788	196.75877
893.958	125.28101
894.128	101.09954
894.298	129.46622
894.468	158.30782
894.639	75.80015
894.809	44.81881
894.979	73.1432
895.149	94.64762
895.319	74.72936
895.489	108.80677
895.659	145.64669
895.829	89.80241
895.999	92.30013
896.169	83.87485
896.339	99.26234
896.509	198.97192
896.679	200.76422
896.849	222.41894
897.019	280.98003
897.189	254.84159
897.358	217.58083
897.528	358.4864
897.698	213.78869
897.868	309.19949
898.038	637.68455
898.208	623.77103
898.377	210.99217
898.547	997.3717
898.717	1436.15729
898.886	426.48444
899.056	622.70076
899.226	1450.46814
899.395	773.56758
899.565	1318.81225
899.735	793.16465
899.904	895.27257
900.074	956.6232
900.244	270.83777
900.413	1301.32166
900.583	423.77324
900.752	1081.64477
900.922	1005.3323
901.091	22.30088
901.261	1754.57937
901.43	518.7675
901.599	2471.95679
901.769	1461.08018
901.938	1118.66521
902.108	1557.48531
902.277	775.91054
902.446	404.91336
902.616	389.83709
902.785	550.53932
902.954	713.71726
903.124	524.54185
903.293	278.37379
903.462	140.77288
903.631	203.34517
903.801	147.26498
903.97	69.33121
904.139	119.90667
904.308	84.90054
904.477	73.489
904.646	40.39615
904.816	68.07972
904.985	105.75682
905.154	153.95652
