Data from WindowProjectSample3_Transmission__30__00030.txt Node

Date: Sun May 04 10:30:09 EDT 2025
User: jessi
Spectrometer: SR400872
Trigger mode: 0
Integration Time (sec): 5.000050E-1
Scans to average: 20
Electric dark correction enabled: true
Nonlinearity correction enabled: true
Boxcar width: 0
XAxis mode: Wavelengths
Number of Pixels in Spectrum: 3648
>>>>>Begin Spectral Data<<<<<
184.909	-1618.67278
185.132	-1270.54859
185.355	-1295.98496
185.578	-1079.70259
185.801	-2591.68466
186.024	-1062.60121
186.247	-1403.09612
186.47	-2811.34428
186.693	-238.42108
186.916	-346.67937
187.139	-1009.53487
187.362	-1742.80088
187.585	-1008.51654
187.808	-841.93618
188.031	-292348.07084
188.254	-1290.6714
188.476	-978.58866
188.699	-1097.32412
188.922	542.39476
189.145	-1252.64401
189.368	-1087.9183
189.591	-3950.60564
189.813	-699.3757
190.036	-1270.93252
190.259	-3325.45936
190.482	-1623.55629
190.705	-1709.88046
190.927	-970.31029
191.15	-1683.51414
191.373	-2242.94353
191.595	-2489.67123
191.818	-1213.81877
192.041	-17371.39192
192.263	-1463.62545
192.486	-447.51531
192.709	-1639.98254
192.931	-4260.31347
193.154	-1202.79498
193.377	-1190.92459
193.599	12149.34544
193.822	-781.76016
194.044	-3829.47617
194.267	-5091.65121
194.489	-288.57381
194.712	-1735.78817
194.934	-1623.06353
195.157	-967.69754
195.379	-757.73795
195.602	-847.57977
195.824	-994.96835
196.047	-883.89442
196.269	-1043.57686
196.492	-1093.70683
196.714	-981.28697
196.936	-1536.06607
197.159	-920.7032
197.381	-921.97368
197.604	-913.61817
197.826	-1938.08967
198.048	-1579.1296
198.271	-1241.71315
198.493	-1049.70351
198.715	-914.0112
198.938	-6159.6692
199.16	-1192.72235
199.382	-898.07005
199.604	-10103.66923
199.827	-1648.5128
200.049	-968.01712
200.271	-897.1102
200.493	-2203.31881
200.715	-968.71694
200.938	-779.54218
201.16	-1278.46011
201.382	-2651.16942
201.604	-1284.14984
201.826	-1219.2774
202.048	-565.93076
202.27	-859.68831
202.492	-1936.7308
202.715	-1960.3506
202.937	-2142.99708
203.159	-1127.53292
203.381	-1675.5111
203.603	-1265.79094
203.825	4127.02359
204.047	-1206.96223
204.269	-3046.91789
204.491	-1457.75095
204.713	-759.65247
204.935	-1286.66772
205.156	-1302.08249
205.378	-3822.32531
205.6	-920.59284
205.822	-1112.72732
206.044	2470.51349
206.266	-1247.15869
206.488	-733.41198
206.71	-1865.82411
206.932	-2430.53945
207.153	-1190.65851
207.375	-927.29104
207.597	-1090.47572
207.819	-901.22813
208.041	-1308.52707
208.262	-1092.52954
208.484	-1981.37281
208.706	-867.46809
208.927	-885.66721
209.149	-2259.20947
209.371	-804.23177
209.593	-707.61025
209.814	-626.92799
210.036	-812.57329
210.258	-585.90404
210.479	-1392.45237
210.701	11443.27373
210.922	-878.81811
211.144	-875.13966
211.366	-1913.80484
211.587	10239.97
211.809	-1006.02924
212.03	-3093.12153
212.252	1582.07979
212.473	-1136.52291
212.695	-4691.58419
212.916	-2906.95979
213.138	-5886.87958
213.359	-1005.15779
213.581	-1533.52331
213.802	-955.0186
214.024	-1350.42526
214.245	-10646.792
214.466	-710.62738
214.688	-1255.76611
214.909	-1460.62404
215.131	-2026.0013
215.352	-949.82558
215.573	-1208.60428
215.795	-3093.66502
216.016	-1116.86011
216.237	-4565.20905
216.459	-13622.79273
216.68	-1658.12044
216.901	-1383.22258
217.122	-3487.68599
217.344	-1203.81928
217.565	-1551.17122
217.786	-1481.2079
218.007	-1259.1731
218.228	-4536.4835
218.45	-1161.94098
218.671	-1477.91296
218.892	-1616.47533
219.113	-2177.73966
219.334	-109.18664
219.555	-1379.45558
219.776	-896.16008
219.997	-1374.13109
220.219	-2722.8672
220.44	-1019.81527
220.661	-874.42872
220.882	-968.32569
221.103	-3042.38651
221.324	5811.28497
221.545	-1941.22767
221.766	-1317.90942
221.987	-2216.7378
222.208	-3048.58378
222.429	-948.09156
222.65	-1365.90015
222.87	4684.05909
223.091	-8016.87415
223.312	4239.89538
223.533	-1662.01563
223.754	-1632.10141
223.975	-2390.4844
224.196	151783.17156
224.417	-10320.98371
224.637	1985.0309
224.858	247.36495
225.079	-7202.62881
225.3	2498.15473
225.521	-864.89727
225.741	8847.10754
225.962	6597.84664
226.183	307.67755
226.404	8983.81094
226.624	1650.43181
226.845	7802.67321
227.066	1744.70837
227.286	746.39632
227.507	243.89915
227.728	276.23481
227.948	492.62301
228.169	141.92206
228.389	155.16409
228.61	85.46592
228.831	118.10732
229.051	8.90856
229.272	67.6642
229.492	105.03246
229.713	31.17693
229.933	70.79125
230.154	63.07738
230.374	103.28879
230.595	75.25316
230.815	47.36652
231.036	80.93744
231.256	-10.26777
231.477	141.1897
231.697	83.42433
231.917	81.05748
232.138	116.00701
232.358	254.51334
232.579	202.28385
232.799	34.53631
233.019	206.56649
233.24	242.29621
233.46	81.65833
233.68	121.53154
233.901	77.85123
234.121	52.46651
234.341	19.04883
234.561	-7.36224
234.782	39.37476
235.002	141.48577
235.222	-1.14776
235.442	125.41062
235.662	61.45522
235.883	124.9985
236.103	96.06232
236.323	70.1813
236.543	53.70573
236.763	81.77255
236.983	77.85624
237.203	82.11861
237.423	124.09704
237.643	176.72491
237.864	145.30768
238.084	38.51667
238.304	48.53177
238.524	89.89998
238.744	78.39083
238.964	132.86947
239.184	116.12172
239.404	121.81743
239.624	64.10672
239.843	104.9196
240.063	58.48446
240.283	41.24222
240.503	44.47067
240.723	43.20572
240.943	29.04027
241.163	33.58399
241.383	23.44593
241.603	12.60961
241.822	14.9293
242.042	11.14126
242.262	13.83031
242.482	15.44555
242.702	16.77393
242.921	5.08326
243.141	11.88639
243.361	10.77303
243.581	15.96906
243.8	13.80799
244.02	8.94972
244.24	16.92269
244.459	16.69567
244.679	32.92859
244.899	20.37279
245.118	23.478
245.338	20.89591
245.558	23.77996
245.777	14.18525
245.997	16.33063
246.216	15.90617
246.436	9.28518
246.655	6.66998
246.875	5.35488
247.094	10.24001
247.314	3.78925
247.533	5.96345
247.753	7.107
247.972	5.70825
248.192	2.33626
248.411	3.31478
248.631	5.75629
248.85	7.77879
249.07	7.19185
249.289	10.62628
249.508	7.29132
249.728	12.59479
249.947	12.40733
250.166	15.83973
250.386	8.31514
250.605	11.168
250.824	19.5396
251.044	13.29599
251.263	39.22053
251.482	22.50438
251.701	19.50556
251.921	0.39305
252.14	6.12575
252.359	7.68406
252.578	16.64983
252.798	6.00658
253.017	14.73396
253.236	7.74756
253.455	9.86728
253.674	19.65116
253.893	8.70371
254.112	13.83716
254.331	20.62499
254.551	16.39132
254.77	7.9462
254.989	24.40822
255.208	17.68678
255.427	26.50445
255.646	23.51854
255.865	33.92805
256.084	15.0828
256.303	18.7821
256.522	21.62205
256.741	5.71003
256.96	6.59135
257.179	15.46266
257.397	17.14039
257.616	9.17555
257.835	9.79639
258.054	24.41249
258.273	16.76745
258.492	16.65575
258.711	10.58591
258.93	4.6458
259.148	7.2762
259.367	6.80413
259.586	8.51377
259.805	4.12059
260.023	7.242
260.242	5.56737
260.461	4.57044
260.68	2.13968
260.898	6.70542
261.117	2.48385
261.336	1.80988
261.554	5.72439
261.773	6.07469
261.992	1.45198
262.21	5.63282
262.429	6.67116
262.648	10.86415
262.866	12.91704
263.085	9.75531
263.303	7.89837
263.522	14.66232
263.74	13.86852
263.959	23.88501
264.178	12.80641
264.396	11.49196
264.615	7.91247
264.833	17.35294
265.051	15.15023
265.27	17.21294
265.488	16.95962
265.707	10.33534
265.925	16.5319
266.144	7.79174
266.362	9.12817
266.58	9.88217
266.799	7.41794
267.017	9.1737
267.235	8.31966
267.454	5.46733
267.672	3.11927
267.89	7.21637
268.109	7.52682
268.327	7.21901
268.545	1.5313
268.763	6.381
268.982	3.0973
269.2	7.74918
269.418	4.95304
269.636	4.22803
269.854	7.28225
270.073	4.94282
270.291	2.92954
270.509	3.22609
270.727	6.77747
270.945	11.25346
271.163	10.82568
271.381	2.7165
271.599	4.52703
271.817	7.76952
272.036	2.83971
272.254	5.44795
272.472	3.57659
272.69	3.54866
272.908	4.03956
273.126	6.23598
273.344	8.01957
273.562	3.04599
273.779	4.30195
273.997	6.67956
274.215	6.40186
274.433	4.76289
274.651	7.35303
274.869	7.09227
275.087	4.36805
275.305	6.71792
275.523	4.11385
275.74	4.60478
275.958	8.62043
276.176	11.77467
276.394	3.99883
276.612	5.50004
276.829	4.96073
277.047	4.58886
277.265	4.76409
277.483	5.60409
277.7	6.48746
277.918	5.49305
278.136	9.5061
278.353	4.61105
278.571	2.9496
278.789	7.44545
279.006	1.53973
279.224	4.79914
279.442	7.67159
279.659	5.35532
279.877	3.64896
280.094	8.23883
280.312	1.75352
280.529	5.51428
280.747	1.89198
280.964	4.60193
281.182	8.44141
281.399	4.76156
281.617	5.43141
281.834	3.97553
282.052	3.05966
282.269	4.93126
282.487	3.95467
282.704	3.47448
282.921	3.44711
283.139	4.95202
283.356	6.45565
283.574	6.02089
283.791	2.79488
284.008	7.99192
284.226	4.65091
284.443	5.0957
284.66	6.14847
284.877	5.4727
285.095	3.46972
285.312	2.52831
285.529	1.64134
285.746	1.43388
285.964	3.16047
286.181	2.24291
286.398	3.01351
286.615	4.33398
286.832	3.95438
287.05	1.07857
287.267	2.9676
287.484	2.92766
287.701	4.25064
287.918	3.9663
288.135	4.0144
288.352	1.78938
288.569	2.31664
288.786	3.95152
289.003	3.02036
289.22	4.69561
289.437	2.68907
289.654	4.1968
289.871	4.46009
290.088	4.35836
290.305	3.60986
290.522	3.07432
290.739	3.09282
290.956	4.55646
291.173	5.42309
291.39	5.29112
291.607	3.5191
291.824	2.7152
292.04	2.18535
292.257	4.52369
292.474	4.91674
292.691	3.2018
292.908	1.62703
293.125	2.74975
293.341	1.63518
293.558	7.3656
293.775	3.30231
293.992	3.33453
294.208	1.43912
294.425	2.17207
294.642	2.86762
294.858	4.59727
295.075	1.12565
295.292	3.08285
295.508	3.58685
295.725	5.27041
295.942	2.67551
296.158	1.84476
296.375	3.09805
296.591	2.39268
296.808	2.46684
297.024	2.88591
297.241	3.22356
297.458	3.49019
297.674	0.46153
297.891	2.85711
298.107	2.19103
298.323	1.68508
298.54	3.91008
298.756	1.96214
298.973	0.90164
299.189	4.26625
299.406	1.91154
299.622	4.37247
299.838	4.29638
300.055	3.88042
300.271	0.98024
300.487	1.64198
300.704	1.82417
300.92	1.06509
301.136	5.60909
301.353	4.36192
301.569	3.0048
301.785	3.27878
302.001	3.81298
302.218	3.55028
302.434	3.53101
302.65	1.27006
302.866	2.22433
303.083	5.84952
303.299	5.56391
303.515	2.94446
303.731	3.15226
303.947	1.14234
304.163	2.08007
304.379	3.03178
304.595	3.35647
304.812	1.85272
305.028	1.91428
305.244	2.42598
305.46	3.89736
305.676	3.94663
305.892	4.67824
306.108	3.45543
306.324	2.4612
306.54	5.2981
306.756	3.80572
306.972	3.69466
307.187	2.52431
307.403	5.08739
307.619	2.16203
307.835	4.45848
308.051	4.6406
308.267	1.64345
308.483	4.15348
308.699	3.46495
308.914	2.87562
309.13	2.94582
309.346	0.66111
309.562	1.52583
309.778	0.8459
309.993	3.47677
310.209	2.74941
310.425	1.29871
310.641	2.36112
310.856	1.47884
311.072	1.43014
311.288	2.54894
311.503	2.86475
311.719	0.66633
311.935	0.40938
312.15	3.13783
312.366	2.77155
312.581	3.37155
312.797	2.65769
313.013	3.75612
313.228	2.00015
313.444	2.79721
313.659	1.74465
313.875	3.21425
314.09	2.4981
314.306	4.53433
314.521	3.86016
314.737	3.73692
314.952	3.1134
315.168	2.89976
315.383	3.34022
315.599	2.55253
315.814	2.36887
316.029	4.07636
316.245	1.30169
316.46	0.8712
316.675	4.49571
316.891	5.31418
317.106	6.69391
317.321	3.68405
317.537	3.43308
317.752	3.89277
317.967	3.93731
318.183	1.97317
318.398	2.42549
318.613	4.29121
318.828	4.71609
319.043	4.03648
319.259	2.49545
319.474	3.06699
319.689	4.50958
319.904	0.48897
320.119	3.98296
320.334	3.40857
320.549	2.62147
320.765	4.45851
320.98	3.22309
321.195	4.23362
321.41	2.81231
321.625	3.86685
321.84	5.34844
322.055	5.34757
322.27	2.03873
322.485	1.70344
322.7	3.25168
322.915	4.42237
323.13	1.86835
323.345	4.72004
323.56	3.5742
323.775	3.70024
323.989	3.60865
324.204	3.09748
324.419	3.86724
324.634	1.37031
324.849	2.8324
325.064	5.43828
325.279	4.07687
325.493	3.58582
325.708	4.34821
325.923	2.05775
326.138	2.15107
326.352	5.06441
326.567	4.0513
326.782	2.53075
326.997	1.94566
327.211	3.68664
327.426	3.48416
327.641	2.40407
327.855	0.94007
328.07	3.60771
328.285	5.09823
328.499	2.62368
328.714	3.40773
328.928	4.07888
329.143	3.00762
329.358	4.45919
329.572	4.26484
329.787	4.36308
330.001	6.30271
330.216	1.38621
330.43	5.21045
330.645	5.18417
330.859	4.27545
331.074	2.07412
331.288	3.14509
331.503	4.96431
331.717	1.72868
331.931	2.94483
332.146	3.1313
332.36	5.28801
332.575	3.48375
332.789	3.25338
333.003	2.70311
333.218	3.56947
333.432	2.11437
333.646	3.93739
333.86	4.69777
334.075	5.18118
334.289	2.31388
334.503	1.81598
334.717	3.58185
334.932	3.49444
335.146	4.35471
335.36	2.62231
335.574	3.93957
335.788	3.8444
336.003	4.37978
336.217	4.04051
336.431	3.69842
336.645	2.41562
336.859	1.56074
337.073	2.75984
337.287	3.10416
337.501	1.87392
337.715	3.11274
337.929	3.69053
338.143	1.59467
338.357	2.85053
338.571	1.92264
338.785	3.44815
338.999	2.35957
339.213	2.14149
339.427	1.34948
339.641	4.54526
339.855	2.62033
340.069	2.14988
340.283	4.15807
340.497	4.46428
340.711	3.34207
340.924	2.5422
341.138	1.7629
341.352	1.18521
341.566	3.09352
341.78	0.57646
341.993	2.17229
342.207	1.72767
342.421	3.1719
342.635	2.60295
342.848	2.17393
343.062	0.32171
343.276	2.05178
343.49	5.54001
343.703	2.04248
343.917	3.81272
344.131	3.93642
344.344	2.06128
344.558	2.219
344.771	1.66644
344.985	4.03593
345.199	4.68143
345.412	3.12621
345.626	3.08429
345.839	0.74223
346.053	1.47697
346.266	1.61206
346.48	3.54162
346.693	3.08899
346.907	3.2489
347.12	1.72593
347.334	2.99022
347.547	3.08943
347.76	2.52222
347.974	4.08299
348.187	3.04631
348.401	2.41371
348.614	1.97636
348.827	2.32118
349.041	3.28663
349.254	0.86055
349.467	2.55189
349.681	1.30599
349.894	2.2118
350.107	4.13382
350.32	4.72463
350.534	0.97303
350.747	2.29634
350.96	1.5239
351.173	1.90202
351.386	2.11704
351.6	2.12661
351.813	1.74837
352.026	2.66241
352.239	1.14013
352.452	2.42607
352.665	3.61465
352.878	2.30319
353.092	4.98956
353.305	3.26484
353.518	2.7586
353.731	1.68168
353.944	3.65634
354.157	1.80298
354.37	1.51
354.583	1.41511
354.796	0.70133
355.009	3.82675
355.222	2.69892
355.435	2.5625
355.647	3.63816
355.86	1.31381
356.073	2.39561
356.286	1.97447
356.499	3.2536
356.712	2.91524
356.925	2.72973
357.138	3.46462
357.35	1.3142
357.563	2.00959
357.776	2.52742
357.989	1.97161
358.201	2.93337
358.414	2.512
358.627	3.45123
358.84	2.03586
359.052	1.20868
359.265	1.26174
359.478	3.39498
359.69	-0.35814
359.903	3.05311
360.116	3.12794
360.328	0.60822
360.541	3.10458
360.753	1.19423
360.966	1.58963
361.179	1.61832
361.391	1.60812
361.604	1.10465
361.816	1.65704
362.029	1.35732
362.241	1.2138
362.454	1.51602
362.666	1.27846
362.879	2.04887
363.091	1.75009
363.304	1.18936
363.516	2.02294
363.728	0.8596
363.941	2.73347
364.153	1.48599
364.366	-0.13847
364.578	0.99587
364.79	2.58085
365.003	2.00641
365.215	1.64835
365.427	2.48182
365.639	3.31274
365.852	2.32117
366.064	3.88801
366.276	1.60519
366.488	2.50383
366.701	1.75142
366.913	1.83192
367.125	1.9556
367.337	1.45892
367.549	1.61029
367.762	2.10906
367.974	2.04478
368.186	1.30525
368.398	3.07836
368.61	2.70626
368.822	2.92128
369.034	2.03154
369.246	2.62395
369.458	4.5192
369.67	1.11889
369.882	3.93613
370.094	0.14912
370.306	3.72477
370.518	1.77875
370.73	1.41643
370.942	1.30543
371.154	1.85279
371.366	1.45012
371.578	2.27678
371.79	1.24481
372.002	3.14883
372.214	3.7267
372.425	2.23393
372.637	3.31859
372.849	2.3645
373.061	-0.00784
373.273	2.4764
373.484	2.52257
373.696	2.87943
373.908	-0.06956
374.12	3.14041
374.331	2.37712
374.543	1.26455
374.755	1.02447
374.967	2.23788
375.178	2.65299
375.39	1.73674
375.602	2.106
375.813	0.66108
376.025	0.9034
376.236	1.98953
376.448	2.18261
376.66	1.44669
376.871	1.47713
377.083	2.77689
377.294	2.82754
377.506	1.49763
377.717	3.24343
377.929	2.11035
378.14	1.10986
378.352	2.46025
378.563	2.29226
378.775	3.14993
378.986	1.30228
379.197	2.1136
379.409	1.48488
379.62	2.73208
379.832	2.12337
380.043	1.82202
380.254	2.14379
380.466	0.88395
380.677	4.53018
380.888	4.10224
381.1	4.4884
381.311	4.14758
381.522	1.78752
381.733	4.90497
381.945	1.61993
382.156	2.15394
382.367	1.53049
382.578	4.68724
382.789	4.41564
383.001	1.49814
383.212	3.26626
383.423	3.46293
383.634	3.11941
383.845	2.29126
384.056	1.46457
384.267	1.89151
384.478	1.92323
384.69	1.02391
384.901	2.55291
385.112	2.29114
385.323	3.42523
385.534	2.35742
385.745	2.23018
385.956	2.39701
386.167	1.04388
386.378	2.45327
386.588	0.84445
386.799	1.3494
387.01	0.3775
387.221	2.87535
387.432	1.81732
387.643	3.82836
387.854	1.6825
388.065	1.67022
388.275	1.78245
388.486	1.65596
388.697	1.86577
388.908	1.75347
389.119	3.13817
389.329	3.5986
389.54	2.0249
389.751	2.32127
389.962	3.09354
390.172	2.36359
390.383	1.46984
390.594	1.44117
390.804	1.34865
391.015	1.47521
391.226	1.99394
391.436	2.48866
391.647	2.29928
391.858	2.67121
392.068	0.47431
392.279	0.86926
392.489	1.99718
392.7	3.03053
392.91	1.00001
393.121	1.36192
393.331	2.44403
393.542	3.01425
393.752	2.60962
393.963	2.15081
394.173	2.04383
394.384	2.61972
394.594	1.99022
394.804	0.94668
395.015	2.0857
395.225	2.6269
395.436	1.02401
395.646	2.68732
395.856	1.35335
396.067	1.01683
396.277	3.09094
396.487	2.58475
396.697	2.21556
396.908	3.02389
397.118	2.84795
397.328	2.38838
397.538	3.08072
397.749	1.62443
397.959	2.97625
398.169	2.86652
398.379	1.1657
398.589	2.89906
398.8	2.35187
399.01	2.26748
399.22	1.94058
399.43	4.45984
399.64	1.99817
399.85	2.90407
400.06	2.27945
400.27	1.7791
400.48	2.30821
400.69	3.69783
400.9	1.90494
401.11	1.79434
401.32	3.15228
401.53	1.9293
401.74	4.05867
401.95	3.10728
402.16	1.5189
402.37	3.04032
402.58	1.91402
402.79	3.10083
403	3.21754
403.209	2.02323
403.419	3.16083
403.629	2.0306
403.839	3.2125
404.049	3.10013
404.258	1.80785
404.468	1.65713
404.678	3.14421
404.888	3.12779
405.097	1.77873
405.307	2.51246
405.517	2.93605
405.727	2.90889
405.936	2.38136
406.146	2.83828
406.356	3.84095
406.565	2.59574
406.775	2.20753
406.984	2.42419
407.194	4.19714
407.404	2.90442
407.613	3.0302
407.823	3.4053
408.032	3.94293
408.242	3.82054
408.451	2.34385
408.661	2.74529
408.87	4.45928
409.08	2.57563
409.289	3.25201
409.499	3.1093
409.708	3.11683
409.918	1.276
410.127	2.90824
410.336	4.37232
410.546	3.56107
410.755	2.74451
410.964	2.67983
411.174	2.50583
411.383	3.58952
411.592	3.54297
411.802	2.31787
412.011	4.01379
412.22	3.18081
412.429	4.48375
412.639	4.39791
412.848	4.34252
413.057	4.57037
413.266	4.28799
413.475	3.30281
413.685	4.08071
413.894	4.1067
414.103	4.34342
414.312	3.97225
414.521	3.32547
414.73	3.59042
414.939	5.06029
415.148	3.8672
415.357	3.66566
415.566	3.0801
415.776	3.15699
415.985	2.93098
416.194	4.09099
416.403	4.75627
416.611	2.43894
416.82	2.95195
417.029	3.41782
417.238	2.8948
417.447	2.72919
417.656	2.96875
417.865	2.84983
418.074	3.02722
418.283	3.32206
418.492	3.95599
418.7	3.82258
418.909	4.50708
419.118	3.43562
419.327	3.69001
419.536	3.53573
419.744	2.9962
419.953	4.08802
420.162	4.10659
420.371	3.16208
420.579	3.15262
420.788	4.13359
420.997	4.24828
421.205	4.27545
421.414	3.8804
421.623	3.91528
421.831	3.57393
422.04	4.33082
422.249	3.41172
422.457	3.96573
422.666	3.32452
422.874	4.36911
423.083	4.36557
423.291	4.26136
423.5	3.91676
423.708	4.23823
423.917	4.64484
424.125	4.18517
424.334	3.82881
424.542	5.69181
424.751	4.96902
424.959	4.61902
425.167	4.88862
425.376	4.77763
425.584	3.9963
425.793	4.28157
426.001	3.40917
426.209	4.48937
426.418	3.46741
426.626	3.62233
426.834	3.46228
427.042	4.09498
427.251	3.63752
427.459	4.67498
427.667	4.30749
427.875	3.19847
428.084	3.7054
428.292	4.99305
428.5	4.29175
428.708	3.43077
428.916	3.39895
429.124	4.19433
429.333	3.85795
429.541	3.94385
429.749	4.1234
429.957	4.03595
430.165	5.77665
430.373	3.15944
430.581	4.21217
430.789	5.1066
430.997	3.83603
431.205	3.67936
431.413	4.21752
431.621	3.8814
431.829	4.55705
432.037	3.82338
432.245	4.58101
432.453	4.36867
432.661	3.95963
432.869	5.57162
433.076	3.41104
433.284	4.05965
433.492	4.53128
433.7	4.9972
433.908	3.81335
434.116	4.19887
434.323	4.33907
434.531	4.18927
434.739	4.50335
434.947	4.7907
435.154	4.73179
435.362	4.34205
435.57	4.05231
435.778	3.96476
435.985	4.51316
436.193	3.89549
436.401	5.07158
436.608	4.31062
436.816	4.05861
437.023	5.44319
437.231	5.58894
437.439	4.43034
437.646	4.76118
437.854	4.64766
438.061	4.71264
438.269	4.13434
438.476	4.75742
438.684	4.4353
438.891	4.07189
439.099	3.87305
439.306	3.29637
439.514	3.62963
439.721	4.59098
439.929	3.81859
440.136	4.68303
440.343	4.45521
440.551	4.03464
440.758	5.52457
440.965	4.68805
441.173	4.38752
441.38	3.92069
441.587	4.61952
441.795	4.05554
442.002	4.57828
442.209	4.60854
442.416	4.8783
442.624	4.8273
442.831	4.73596
443.038	4.09015
443.245	3.68151
443.452	4.13039
443.66	5.03823
443.867	3.91008
444.074	4.10674
444.281	3.90125
444.488	4.27095
444.695	4.35894
444.902	3.97018
445.109	4.73222
445.316	4.12594
445.523	4.08966
445.73	3.88279
445.937	4.65515
446.144	4.95819
446.351	4.92857
446.558	4.07688
446.765	5.38322
446.972	5.31936
447.179	4.5249
447.386	5.52754
447.593	4.15451
447.8	5.14396
448.007	4.26579
448.214	4.35113
448.42	4.05021
448.627	5.23423
448.834	4.34771
449.041	4.26768
449.248	4.24595
449.454	5.10955
449.661	5.6876
449.868	4.23143
450.075	4.04449
450.281	3.06715
450.488	3.62762
450.695	4.01762
450.901	3.87274
451.108	4.29915
451.315	5.126
451.521	4.29838
451.728	5.05694
451.935	3.96963
452.141	4.3067
452.348	4.38227
452.554	4.33695
452.761	4.15048
452.967	5.64395
453.174	4.61715
453.38	4.66584
453.587	3.60757
453.793	4.47211
454	5.05633
454.206	6.04192
454.413	5.45547
454.619	4.75767
454.825	3.94041
455.032	4.86112
455.238	5.19792
455.445	3.56384
455.651	4.61071
455.857	3.13124
456.064	4.32695
456.27	4.25111
456.476	4.32185
456.682	3.48407
456.889	4.69849
457.095	4.90156
457.301	6.14672
457.507	4.54684
457.714	4.53184
457.92	4.40295
458.126	3.86199
458.332	4.22526
458.538	3.90948
458.744	4.11057
458.951	4.05673
459.157	5.24614
459.363	4.4117
459.569	4.29738
459.775	4.972
459.981	4.06827
460.187	4.52894
460.393	4.93972
460.599	5.19539
460.805	4.43541
461.011	4.44298
461.217	5.2202
461.423	5.329
461.629	4.31295
461.835	5.04835
462.041	4.39294
462.247	5.72798
462.453	4.43542
462.658	4.55929
462.864	5.08106
463.07	4.66191
463.276	4.79792
463.482	4.79589
463.688	5.57913
463.893	4.23857
464.099	4.36111
464.305	5.8061
464.511	4.2074
464.716	4.58986
464.922	5.11122
465.128	4.05597
465.333	5.954
465.539	4.98856
465.745	4.33005
465.95	4.80491
466.156	6.5379
466.362	5.48513
466.567	4.54874
466.773	4.22494
466.978	5.77017
467.184	3.87076
467.389	3.08601
467.595	4.97441
467.8	3.91736
468.006	5.53038
468.211	5.47863
468.417	3.88084
468.622	5.04947
468.828	5.16288
469.033	4.80072
469.239	6.79442
469.444	4.23105
469.649	5.2876
469.855	4.49319
470.06	4.70804
470.266	3.82103
470.471	5.10741
470.676	4.94621
470.881	3.59592
471.087	5.70373
471.292	5.945
471.497	3.75512
471.703	4.52719
471.908	4.19538
472.113	4.68819
472.318	5.25529
472.523	3.86062
472.729	4.91164
472.934	4.97011
473.139	4.35768
473.344	5.0749
473.549	5.48494
473.754	4.06638
473.959	6.03562
474.164	4.10153
474.369	4.42171
474.575	5.2306
474.78	4.71075
474.985	4.35595
475.19	3.44114
475.395	3.94922
475.6	4.47619
475.804	5.45987
476.009	4.52053
476.214	4.56781
476.419	4.23272
476.624	3.34896
476.829	3.95806
477.034	4.84592
477.239	3.89023
477.444	4.64297
477.648	4.81627
477.853	4.90473
478.058	4.16761
478.263	3.93153
478.468	3.60572
478.672	3.74926
478.877	5.16802
479.082	5.74227
479.287	4.64253
479.491	4.53295
479.696	3.56252
479.901	5.02958
480.105	4.79445
480.31	3.95907
480.515	4.14933
480.719	5.89743
480.924	3.76704
481.128	3.48859
481.333	4.29249
481.538	4.30625
481.742	3.84559
481.947	4.23786
482.151	4.64529
482.356	4.68978
482.56	5.87948
482.765	6.33121
482.969	7.68962
483.174	8.75674
483.378	10.14786
483.582	9.88672
483.787	10.79849
483.991	10.75236
484.196	10.69155
484.4	10.36106
484.604	10.56985
484.809	9.04437
485.013	8.73694
485.217	7.67158
485.422	6.81729
485.626	6.21247
485.83	5.92513
486.034	5.86905
486.239	6.01409
486.443	6.20559
486.647	6.20016
486.851	7.03251
487.055	7.60058
487.26	7.11559
487.464	7.64505
487.668	7.09686
487.872	7.03768
488.076	7.45225
488.28	6.96231
488.484	6.31624
488.688	6.24452
488.892	6.1649
489.096	5.72796
489.3	5.0362
489.504	4.80492
489.708	4.91677
489.912	4.9284
490.116	4.72479
490.32	4.15977
490.524	5.04176
490.728	5.29137
490.932	5.41548
491.136	5.43535
491.34	6.43571
491.544	6.48995
491.748	5.99547
491.951	6.06526
492.155	5.73003
492.359	5.72426
492.563	4.70856
492.767	4.48637
492.97	4.16265
493.174	3.56118
493.378	3.80967
493.582	3.41073
493.785	3.86741
493.989	4.07681
494.193	4.19709
494.396	3.78992
494.6	4.50429
494.804	3.88466
495.007	3.60374
495.211	3.50943
495.414	3.85189
495.618	3.9059
495.822	4.63913
496.025	3.87403
496.229	4.39802
496.432	3.22503
496.636	3.76543
496.839	3.63126
497.043	4.84154
497.246	3.84634
497.45	3.45092
497.653	3.58187
497.856	3.88728
498.06	2.9631
498.263	3.49255
498.467	3.25156
498.67	4.39162
498.873	4.04212
499.077	3.43481
499.28	3.46698
499.483	4.02621
499.686	4.17883
499.89	4.15469
500.093	4.28084
500.296	3.281
500.499	4.82088
500.703	3.79307
500.906	3.8457
501.109	5.17224
501.312	3.86377
501.515	3.6802
501.719	4.0353
501.922	4.90597
502.125	4.03718
502.328	3.64716
502.531	2.91531
502.734	3.82803
502.937	2.47296
503.14	3.75534
503.343	2.90114
503.546	3.37081
503.749	3.14874
503.952	4.08414
504.155	3.05311
504.358	4.06055
504.561	3.62847
504.764	2.8531
504.967	3.59697
505.17	3.71348
505.373	4.80436
505.576	3.73054
505.778	3.99696
505.981	3.28974
506.184	4.57215
506.387	2.67311
506.59	4.91659
506.793	4.48814
506.995	3.94112
507.198	2.3819
507.401	3.62173
507.604	3.87368
507.806	2.83645
508.009	3.00225
508.212	3.74571
508.414	3.07323
508.617	2.95306
508.82	3.34833
509.022	4.21699
509.225	3.63767
509.427	2.32875
509.63	4.2381
509.833	3.34998
510.035	3.25248
510.238	2.33461
510.44	4.10521
510.643	1.86642
510.845	4.97554
511.048	3.56528
511.25	3.12699
511.453	3.26508
511.655	3.59302
511.858	3.04651
512.06	3.90083
512.262	3.2803
512.465	3.81724
512.667	2.84099
512.869	2.6631
513.072	3.55789
513.274	3.98472
513.476	3.69389
513.679	3.90819
513.881	2.5736
514.083	4.58597
514.286	2.89674
514.488	3.06848
514.69	2.75529
514.892	2.56834
515.094	3.60565
515.297	3.06135
515.499	3.47461
515.701	2.8167
515.903	4.53375
516.105	4.38717
516.307	3.78309
516.509	1.94963
516.711	2.43854
516.913	3.21144
517.116	3.01436
517.318	2.87914
517.52	3.80593
517.722	3.38591
517.924	2.1275
518.126	3.25036
518.328	2.42339
518.529	3.21957
518.731	3.9078
518.933	2.49808
519.135	2.86049
519.337	3.54981
519.539	3.177
519.741	1.92961
519.943	2.92642
520.145	2.88041
520.346	3.34872
520.548	2.82645
520.75	3.30796
520.952	2.80214
521.153	3.23386
521.355	3.49539
521.557	2.39579
521.759	3.40127
521.96	3.22984
522.162	2.45877
522.364	3.90633
522.565	2.69723
522.767	3.69679
522.969	4.07992
523.17	3.42623
523.372	3.55355
523.573	2.5351
523.775	2.97295
523.977	2.33175
524.178	4.10294
524.38	2.50357
524.581	3.36917
524.783	2.58054
524.984	3.1806
525.186	2.72029
525.387	3.12187
525.589	2.67739
525.79	2.45765
525.991	2.15577
526.193	2.854
526.394	1.80348
526.596	2.76004
526.797	2.68868
526.998	2.48052
527.2	1.97149
527.401	3.36639
527.602	3.34507
527.803	4.62243
528.005	4.18232
528.206	4.65068
528.407	4.87742
528.608	4.39359
528.81	4.48793
529.011	3.83401
529.212	4.81237
529.413	4.10038
529.614	3.75721
529.815	3.85753
530.017	3.60248
530.218	3.14149
530.419	2.57104
530.62	2.77636
530.821	2.72974
531.022	2.02089
531.223	3.04891
531.424	3.02501
531.625	2.83426
531.826	2.80128
532.027	2.77562
532.228	3.52707
532.429	2.99841
532.63	2.8907
532.831	3.17343
533.032	3.23091
533.233	3.61948
533.433	3.37072
533.634	3.48728
533.835	2.88936
534.036	2.64772
534.237	2.87246
534.438	2.47618
534.638	2.12152
534.839	2.24962
535.04	3.00029
535.241	2.3799
535.441	3.57629
535.642	2.94747
535.843	2.06669
536.043	1.94939
536.244	2.21457
536.445	2.26565
536.645	3.13483
536.846	2.5744
537.047	3.34301
537.247	2.16694
537.448	2.582
537.648	2.68445
537.849	2.7231
538.049	2.69748
538.25	3.39988
538.451	3.08062
538.651	2.39657
538.851	3.19174
539.052	3.66265
539.252	3.38287
539.453	2.88694
539.653	2.7707
539.854	2.79189
540.054	2.56987
540.254	3.1928
540.455	3.33134
540.655	2.6697
540.855	3.27009
541.056	3.6912
541.256	3.15035
541.456	4.08647
541.657	3.111
541.857	4.0967
542.057	2.66505
542.257	2.7019
542.458	3.3465
542.658	3.46981
542.858	2.15991
543.058	3.3096
543.258	2.92556
543.458	2.02389
543.659	1.863
543.859	3.18491
544.059	3.02698
544.259	2.68749
544.459	3.26826
544.659	2.42042
544.859	3.30805
545.059	2.5189
545.259	3.26512
545.459	3.04733
545.659	3.43117
545.859	2.90824
546.059	3.03684
546.259	2.32248
546.459	1.75221
546.659	2.17385
546.859	3.19658
547.059	3.00436
547.258	3.25717
547.458	3.07949
547.658	2.13198
547.858	2.39002
548.058	3.17507
548.258	3.02088
548.457	2.57674
548.657	5.40336
548.857	3.1261
549.057	3.98782
549.256	3.78692
549.456	3.33737
549.656	2.10905
549.855	5.0541
550.055	3.45852
550.255	5.05838
550.454	4.07619
550.654	4.52555
550.853	4.8137
551.053	4.48682
551.253	3.93515
551.452	3.95988
551.652	2.71765
551.851	2.073
552.051	3.1992
552.25	3.11365
552.45	2.77602
552.649	3.15457
552.849	2.75413
553.048	3.42474
553.248	3.96482
553.447	2.78514
553.646	4.33744
553.846	4.85949
554.045	4.6054
554.244	2.81085
554.444	5.28608
554.643	3.01228
554.842	4.95052
555.042	5.65622
555.241	3.31972
555.44	3.07121
555.64	3.97253
555.839	5.28157
556.038	4.32684
556.237	3.52793
556.436	3.73917
556.636	4.32304
556.835	3.11867
557.034	5.28813
557.233	3.87152
557.432	3.02773
557.631	5.00953
557.83	3.82951
558.029	3.50529
558.228	3.80801
558.427	3.06838
558.626	4.48949
558.825	3.3837
559.024	4.18856
559.223	5.63849
559.422	4.04798
559.621	4.60921
559.82	1.96925
560.019	4.11316
560.218	3.81777
560.417	1.56725
560.616	3.84242
560.815	7.02273
561.014	2.74362
561.212	4.87469
561.411	4.20265
561.61	2.63214
561.809	3.81785
562.008	5.56264
562.206	4.39711
562.405	4.55605
562.604	3.95411
562.803	4.18721
563.001	3.98099
563.2	2.89133
563.399	4.57953
563.597	3.17029
563.796	4.42994
563.995	2.95807
564.193	4.71467
564.392	3.58256
564.59	6.22295
564.789	2.29471
564.988	3.69498
565.186	4.13876
565.385	3.76736
565.583	3.35415
565.782	3.83679
565.98	3.43173
566.179	3.82846
566.377	2.67269
566.575	3.1123
566.774	4.86093
566.972	4.6302
567.171	5.82778
567.369	5.21182
567.567	3.98466
567.766	4.4837
567.964	2.35553
568.162	4.66136
568.361	5.18541
568.559	4.20308
568.757	4.78656
568.956	4.47181
569.154	3.93982
569.352	5.23042
569.55	4.21917
569.748	4.23512
569.947	3.49749
570.145	3.4878
570.343	3.10192
570.541	5.40756
570.739	2.92061
570.937	4.4113
571.135	4.58055
571.333	5.72106
571.532	5.55445
571.73	4.40198
571.928	5.057
572.126	4.55612
572.324	3.78504
572.522	5.36902
572.72	6.62762
572.918	4.18103
573.116	4.47516
573.313	4.30531
573.511	4.12657
573.709	4.16556
573.907	4.85092
574.105	4.02071
574.303	2.87755
574.501	3.02018
574.699	4.55004
574.896	4.71915
575.094	5.02388
575.292	3.40951
575.49	5.27397
575.688	4.37081
575.885	6.02167
576.083	6.32488
576.281	4.99318
576.478	4.26255
576.676	5.28933
576.874	3.62829
577.071	4.59053
577.269	7.26181
577.467	4.71055
577.664	5.10743
577.862	5.79859
578.059	4.349
578.257	6.03138
578.455	4.94708
578.652	5.20403
578.85	3.26619
579.047	5.4211
579.245	5.24849
579.442	5.33687
579.64	5.33629
579.837	3.44898
580.034	7.96611
580.232	4.99223
580.429	4.29409
580.627	5.9998
580.824	6.93387
581.021	5.99074
581.219	5.01712
581.416	4.71475
581.613	7.26104
581.811	6.89156
582.008	4.72773
582.205	6.54294
582.402	5.8232
582.6	7.91402
582.797	5.85642
582.994	6.50945
583.191	6.48192
583.388	6.05471
583.586	6.57231
583.783	7.12888
583.98	4.93813
584.177	6.04481
584.374	2.75755
584.571	5.7612
584.768	5.75911
584.965	5.62657
585.162	6.81048
585.359	7.76815
585.556	5.78496
585.753	6.34184
585.95	4.57275
586.147	5.18476
586.344	6.63567
586.541	5.73548
586.738	4.57992
586.935	5.90571
587.132	5.32855
587.329	7.38821
587.526	5.8761
587.722	11.84216
587.919	4.46136
588.116	6.83948
588.313	7.88063
588.51	8.70016
588.706	5.70413
588.903	6.79459
589.1	7.39472
589.297	9.68268
589.493	6.02961
589.69	6.75946
589.887	5.48586
590.083	4.92341
590.28	5.27605
590.477	7.51187
590.673	7.18837
590.87	7.89782
591.067	5.93649
591.263	7.03879
591.46	7.04417
591.656	6.17368
591.853	8.24535
592.049	5.29581
592.246	5.80058
592.442	7.88076
592.639	7.67185
592.835	4.97208
593.032	7.17073
593.228	4.83646
593.425	4.83065
593.621	4.5732
593.817	6.58491
594.014	5.54751
594.21	6.53144
594.406	7.55492
594.603	7.03046
594.799	5.80484
594.995	3.73675
595.192	7.79581
595.388	5.82198
595.584	5.87403
595.78	4.53646
595.977	8.79675
596.173	8.31348
596.369	6.0882
596.565	5.32573
596.761	4.63511
596.957	7.71936
597.154	5.35388
597.35	5.75303
597.546	5.47331
597.742	6.8638
597.938	6.79555
598.134	5.37372
598.33	6.6491
598.526	8.73358
598.722	7.45013
598.918	9.24991
599.114	7.60627
599.31	5.86781
599.506	7.30922
599.702	6.01609
599.898	7.54758
600.094	8.45472
600.29	8.35055
600.485	8.2624
600.681	6.68316
600.877	9.22916
601.073	7.38231
601.269	9.83531
601.465	8.95154
601.66	6.13314
601.856	4.97941
602.052	9.03806
602.248	6.61794
602.443	4.66124
602.639	5.39447
602.835	5.70588
603.03	5.93597
603.226	8.00069
603.422	5.77784
603.617	6.39833
603.813	6.24634
604.009	6.07951
604.204	8.11469
604.4	4.81921
604.595	7.75406
604.791	5.54297
604.986	7.07749
605.182	5.823
605.377	6.35253
605.573	6.24285
605.768	6.94459
605.964	7.69506
606.159	7.88744
606.355	8.94068
606.55	6.77187
606.746	8.58977
606.941	7.26561
607.136	10.31989
607.332	11.40356
607.527	5.87552
607.722	7.76401
607.918	7.41086
608.113	6.49165
608.308	8.18508
608.503	8.0292
608.699	7.79041
608.894	7.9566
609.089	6.21053
609.284	7.55283
609.479	6.61168
609.675	8.14074
609.87	6.71386
610.065	8.096
610.26	8.68947
610.455	8.53033
610.65	7.35132
610.845	7.90242
611.04	9.03326
611.235	7.42526
611.43	7.28444
611.625	6.11555
611.82	9.84406
612.015	6.66296
612.21	10.13772
612.405	5.91809
612.6	11.00319
612.795	9.92298
612.99	9.30507
613.185	6.86829
613.38	7.27785
613.575	8.64602
613.77	12.3778
613.965	6.10541
614.159	7.17741
614.354	10.23674
614.549	10.06787
614.744	9.47552
614.938	6.8972
615.133	6.16972
615.328	10.30365
615.523	10.42411
615.717	12.98913
615.912	7.52242
616.107	8.78424
616.301	7.93062
616.496	7.59637
616.691	11.36159
616.885	9.76905
617.08	12.78476
617.274	10.47422
617.469	12.24857
617.664	9.87301
617.858	7.63605
618.053	9.3345
618.247	8.33305
618.442	5.52883
618.636	10.88653
618.831	7.83667
619.025	7.99943
619.219	13.00374
619.414	3.75659
619.608	9.21404
619.803	7.34772
619.997	12.29473
620.191	10.89865
620.386	9.81257
620.58	9.35164
620.774	6.11741
620.969	6.57899
621.163	9.37407
621.357	7.1195
621.551	8.31978
621.746	9.29521
621.94	9.05434
622.134	15.0833
622.328	12.57303
622.522	6.63073
622.716	10.89782
622.911	10.78317
623.105	10.8306
623.299	10.09912
623.493	14.6933
623.687	7.99773
623.881	8.67009
624.075	10.35978
624.269	11.2734
624.463	6.19292
624.657	6.8489
624.851	10.0895
625.045	10.85629
625.239	10.93133
625.433	8.20486
625.627	11.56127
625.821	8.49429
626.015	7.8759
626.209	9.29043
626.403	7.07592
626.596	9.64199
626.79	10.20645
626.984	7.23658
627.178	9.81401
627.372	9.86816
627.565	10.50404
627.759	6.74438
627.953	7.22756
628.147	10.05649
628.34	10.23558
628.534	13.07456
628.728	9.0183
628.921	11.10293
629.115	10.81877
629.309	11.17968
629.502	11.08935
629.696	10.18128
629.89	9.51507
630.083	10.15456
630.277	10.85073
630.47	13.20443
630.664	9.36453
630.857	7.64211
631.051	11.14178
631.244	11.57422
631.438	11.70836
631.631	8.61829
631.825	12.2672
632.018	11.49503
632.212	13.31896
632.405	12.24386
632.598	8.72915
632.792	10.34427
632.985	6.05804
633.178	9.56352
633.372	10.00997
633.565	9.99635
633.758	12.32564
633.952	8.60099
634.145	8.6518
634.338	9.27338
634.531	9.21875
634.724	8.92482
634.918	10.5752
635.111	9.90601
635.304	9.51074
635.497	14.54557
635.69	10.82941
635.883	12.30982
636.077	7.94504
636.27	11.71197
636.463	10.60822
636.656	11.24568
636.849	9.73095
637.042	11.41104
637.235	13.84917
637.428	11.90038
637.621	11.58833
637.814	13.3957
638.007	13.66326
638.2	14.07569
638.393	15.17648
638.586	8.17761
638.778	9.89429
638.971	11.42681
639.164	14.84148
639.357	11.95083
639.55	13.94727
639.743	12.72631
639.935	12.76943
640.128	15.22158
640.321	12.65253
640.514	11.48293
640.707	16.71999
640.899	13.0126
641.092	7.88166
641.285	26.96447
641.477	7.11022
641.67	16.76655
641.863	14.31731
642.055	12.35559
642.248	11.73317
642.441	10.87954
642.633	12.29084
642.826	14.19468
643.018	14.6576
643.211	16.04362
643.403	15.26199
643.596	17.16087
643.788	17.25394
643.981	11.27467
644.173	13.84548
644.366	11.36314
644.558	8.26458
644.751	14.12527
644.943	9.1491
645.135	16.33872
645.328	16.29122
645.52	13.92702
645.712	14.52749
645.905	19.87973
646.097	9.80789
646.289	12.90372
646.482	16.92508
646.674	11.09331
646.866	14.92006
647.058	13.91902
647.251	10.08367
647.443	11.64118
647.635	11.98655
647.827	10.44313
648.019	10.16911
648.211	12.87376
648.404	13.0388
648.596	16.22465
648.788	13.17122
648.98	13.0092
649.172	13.38682
649.364	13.19218
649.556	8.61424
649.748	19.29945
649.94	10.46356
650.132	14.02901
650.324	10.67493
650.516	11.05819
650.708	15.45763
650.9	9.39651
651.092	8.73207
651.284	9.18956
651.476	10.19409
651.667	14.0405
651.859	15.78049
652.051	12.74775
652.243	12.856
652.435	11.37779
652.627	13.47163
652.818	13.9029
653.01	9.14168
653.202	10.7749
653.394	12.24543
653.585	14.62402
653.777	24.2934
653.969	16.18144
654.16	16.37113
654.352	10.3846
654.544	13.00641
654.735	15.75454
654.927	13.60817
655.118	17.28354
655.31	15.51837
655.502	16.0933
655.693	11.51202
655.885	14.78748
656.076	17.34583
656.268	13.79574
656.459	16.72058
656.651	16.45567
656.842	11.63925
657.034	11.34596
657.225	15.20851
657.416	16.52701
657.608	16.53125
657.799	12.55482
657.99	15.65818
658.182	10.89553
658.373	11.13189
658.564	14.58276
658.756	12.77009
658.947	12.30137
659.138	10.19001
659.33	11.26524
659.521	10.62863
659.712	12.11221
659.903	12.02989
660.094	10.98514
660.286	8.82117
660.477	18.02139
660.668	14.60032
660.859	13.08086
661.05	9.42615
661.241	14.90234
661.432	14.96732
661.623	12.63287
661.814	12.04914
662.006	9.17762
662.197	15.10875
662.388	16.94128
662.579	14.48403
662.77	17.93102
662.96	22.04333
663.151	16.70092
663.342	9.12529
663.533	15.7704
663.724	14.07654
663.915	19.38007
664.106	14.20269
664.297	19.54039
664.488	16.50231
664.678	13.51022
664.869	16.57551
665.06	17.83822
665.251	15.01708
665.442	16.09012
665.632	11.93861
665.823	20.12426
666.014	6.31754
666.204	16.14285
666.395	18.69547
666.586	23.24423
666.776	17.29132
666.967	20.08071
667.158	15.04252
667.348	19.25023
667.539	11.79912
667.729	17.33737
667.92	12.50693
668.111	18.029
668.301	16.74614
668.492	14.04202
668.682	14.59659
668.873	14.15807
669.063	11.14437
669.253	15.36478
669.444	17.39928
669.634	14.52514
669.825	20.36681
670.015	18.0644
670.206	12.88386
670.396	21.72649
670.586	14.9762
670.777	16.75005
670.967	9.03345
671.157	14.84499
671.347	13.50247
671.538	20.27637
671.728	16.54124
671.918	21.73272
672.108	19.20192
672.299	15.76653
672.489	16.70712
672.679	13.57306
672.869	17.25947
673.059	21.11862
673.249	16.97455
673.44	12.92639
673.63	15.05119
673.82	18.42069
674.01	12.77852
674.2	17.40002
674.39	25.51972
674.58	17.53501
674.77	16.27243
674.96	15.95044
675.15	29.76614
675.34	19.5522
675.53	16.30456
675.72	14.7095
675.91	11.71407
676.099	22.17706
676.289	23.66983
676.479	19.67505
676.669	15.09338
676.859	18.30907
677.049	12.65992
677.238	16.31023
677.428	22.48965
677.618	17.52663
677.808	19.4188
677.997	18.10336
678.187	12.50068
678.377	16.22523
678.567	14.64414
678.756	14.46072
678.946	15.27855
679.136	11.52248
679.325	13.02121
679.515	12.75239
679.704	11.13346
679.894	17.29902
680.084	15.60549
680.273	19.29124
680.463	12.44018
680.652	12.63336
680.842	14.92309
681.031	18.27047
681.221	12.86493
681.41	17.72428
681.6	14.97928
681.789	18.46169
681.978	20.91448
682.168	16.85871
682.357	17.35584
682.547	18.4677
682.736	16.60383
682.925	21.10645
683.115	20.28945
683.304	19.66186
683.493	18.26152
683.682	18.86217
683.872	17.99996
684.061	22.12144
684.25	19.27872
684.439	24.13884
684.629	19.96796
684.818	29.93527
685.007	16.94388
685.196	16.13514
685.385	23.3834
685.574	19.19144
685.763	19.54265
685.952	18.54258
686.142	13.94129
686.331	23.11193
686.52	11.88311
686.709	23.55304
686.898	23.56919
687.087	20.16682
687.276	24.84258
687.465	21.47259
687.654	16.87496
687.842	24.22672
688.031	13.34019
688.22	23.03357
688.409	18.67008
688.598	19.19193
688.787	28.19151
688.976	18.45839
689.165	24.55341
689.353	17.38883
689.542	20.40481
689.731	21.64323
689.92	26.84168
690.108	23.00768
690.297	17.52961
690.486	19.68952
690.675	22.20758
690.863	26.48861
691.052	26.49719
691.241	21.49065
691.429	20.68017
691.618	25.48303
691.806	15.72462
691.995	18.63968
692.184	19.86381
692.372	18.24645
692.561	20.33574
692.749	20.50593
692.938	29.77055
693.126	23.07759
693.315	18.86279
693.503	22.70389
693.692	23.1678
693.88	25.17492
694.068	29.86918
694.257	20.50302
694.445	22.75888
694.634	12.99545
694.822	25.70509
695.01	26.36886
695.199	26.45493
695.387	28.02404
695.575	26.89251
695.763	21.03911
695.952	19.33992
696.14	14.23099
696.328	18.62892
696.516	20.95713
696.705	21.492
696.893	21.08177
697.081	13.26942
697.269	21.9432
697.457	15.43923
697.645	14.53715
697.833	22.08777
698.021	15.41249
698.21	16.69697
698.398	17.44734
698.586	14.37436
698.774	13.51012
698.962	17.02244
699.15	14.33245
699.338	12.85713
699.526	20.16583
699.714	16.06229
699.901	17.05242
700.089	22.76698
700.277	16.03161
700.465	18.57146
700.653	23.63974
700.841	22.43681
701.029	16.95963
701.217	25.29395
701.404	21.96927
701.592	27.50743
701.78	29.88195
701.968	19.54398
702.155	19.86778
702.343	16.20236
702.531	27.34181
702.718	23.87373
702.906	21.23685
703.094	19.9203
703.281	28.23748
703.469	21.41269
703.657	27.93972
703.844	38.65853
704.032	29.91443
704.219	20.09992
704.407	24.24288
704.595	28.67517
704.782	23.94428
704.97	20.74544
705.157	22.09738
705.345	32.04139
705.532	36.22546
705.719	24.77331
705.907	30.8389
706.094	24.30647
706.282	33.17249
706.469	21.32909
706.656	24.57435
706.844	22.91987
707.031	28.60821
707.218	25.03633
707.406	31.92278
707.593	27.22264
707.78	26.92577
707.968	23.13387
708.155	19.9126
708.342	27.77104
708.529	27.06083
708.716	25.0074
708.904	32.55313
709.091	27.17819
709.278	18.69135
709.465	34.19639
709.652	34.09833
709.839	31.22999
710.026	26.15202
710.213	16.57706
710.4	26.9541
710.587	28.80784
710.774	29.60549
710.961	30.04417
711.148	25.3759
711.335	31.18541
711.522	23.60358
711.709	25.96364
711.896	36.44378
712.083	30.13439
712.27	20.09887
712.457	26.44994
712.644	18.11423
712.831	36.13574
713.017	26.32213
713.204	30.17531
713.391	22.67636
713.578	32.88691
713.765	32.79845
713.951	28.56416
714.138	44.28286
714.325	30.11773
714.512	26.54484
714.698	22.34182
714.885	35.60954
715.072	28.57479
715.258	27.50486
715.445	23.25387
715.631	33.77427
715.818	13.4965
716.005	23.05403
716.191	30.54759
716.378	25.44895
716.564	32.24279
716.751	22.28964
716.937	24.09543
717.124	34.18163
717.31	23.72273
717.497	36.65178
717.683	23.29423
717.869	42.99046
718.056	25.28825
718.242	31.61256
718.429	28.25636
718.615	22.63759
718.801	29.71269
718.988	33.89024
719.174	32.39194
719.36	27.95692
719.547	37.8869
719.733	31.55012
719.919	31.95135
720.105	35.13544
720.291	29.07309
720.478	30.44235
720.664	28.13576
720.85	26.95988
721.036	49.15709
721.222	39.385
721.408	30.08624
721.595	43.81804
721.781	41.31294
721.967	37.27631
722.153	42.21336
722.339	35.34868
722.525	34.36281
722.711	24.63496
722.897	22.18385
723.083	28.42971
723.269	38.5199
723.455	48.87618
723.641	51.1762
723.827	33.02276
724.012	34.23335
724.198	28.92886
724.384	41.18958
724.57	35.34909
724.756	22.53162
724.942	19.25829
725.127	37.67547
725.313	41.8559
725.499	41.64734
725.685	44.4701
725.87	34.49874
726.056	25.69884
726.242	41.55929
726.428	20.21866
726.613	38.97757
726.799	30.36779
726.985	24.27088
727.17	22.41157
727.356	42.69859
727.541	25.44314
727.727	30.38058
727.913	36.55875
728.098	28.09771
728.284	36.71308
728.469	22.65803
728.655	25.16418
728.84	36.60154
729.026	37.90947
729.211	38.73046
729.397	33.674
729.582	35.81427
729.767	31.42382
729.953	34.19732
730.138	38.7471
730.323	17.74954
730.509	25.04882
730.694	43.35578
730.879	34.10069
731.065	32.88574
731.25	48.23643
731.435	36.68704
731.621	21.62988
731.806	27.27825
731.991	33.54866
732.176	21.91411
732.361	40.78822
732.547	32.0695
732.732	21.13854
732.917	49.09105
733.102	24.45117
733.287	27.58705
733.472	32.37307
733.657	33.5893
733.842	22.01742
734.027	30.60836
734.212	31.93501
734.397	27.35888
734.582	34.02132
734.767	39.89367
734.952	44.43887
735.137	15.56373
735.322	43.46244
735.507	36.88697
735.692	36.6366
735.877	51.24959
736.062	48.48682
736.247	37.50194
736.431	33.21652
736.616	44.78341
736.801	35.20533
736.986	34.72906
737.171	27.62456
737.355	25.01299
737.54	44.18079
737.725	34.11951
737.909	58.151
738.094	30.10288
738.279	42.47135
738.463	32.72312
738.648	39.58852
738.833	36.85732
739.017	50.42192
739.202	30.31572
739.386	35.57127
739.571	27.16561
739.756	40.08012
739.94	34.84099
740.125	43.82523
740.309	28.71623
740.494	41.39902
740.678	36.3082
740.863	39.87687
741.047	37.38645
741.231	46.40698
741.416	28.32243
741.6	50.39266
741.785	30.07942
741.969	42.96892
742.153	46.66595
742.338	19.36828
742.522	37.22237
742.706	42.79963
742.89	25.80374
743.075	39.31726
743.259	51.03181
743.443	44.53937
743.627	47.65873
743.812	57.63636
743.996	24.15281
744.18	36.04092
744.364	33.23355
744.548	60.77918
744.732	35.39014
744.916	45.34246
745.1	41.17334
745.285	36.38177
745.469	42.83415
745.653	54.38736
745.837	24.47549
746.021	62.45564
746.205	49.8643
746.389	40.10872
746.573	35.01767
746.757	53.59413
746.94	33.33724
747.124	50.22389
747.308	27.51324
747.492	49.50033
747.676	31.91122
747.86	62.19849
748.044	32.84246
748.227	23.18819
748.411	73.91497
748.595	41.47101
748.779	29.95427
748.963	41.79981
749.146	40.39632
749.33	31.46193
749.514	28.1253
749.697	50.31335
749.881	34.81033
750.065	29.39279
750.248	38.73571
750.432	63.78184
750.616	38.74847
750.799	26.72838
750.983	58.5939
751.166	66.42305
751.35	25.406
751.533	45.97469
751.717	50.42007
751.9	55.78879
752.084	36.31625
752.267	29.11487
752.451	31.36476
752.634	40.77569
752.818	46.15856
753.001	48.84877
753.184	51.26902
753.368	42.88031
753.551	10.46141
753.734	31.8897
753.918	61.28339
754.101	32.70042
754.284	46.39317
754.467	35.22283
754.651	32.54689
754.834	31.46822
755.017	50.61375
755.2	49.35845
755.384	27.86521
755.567	49.39916
755.75	51.57973
755.933	35.74635
756.116	43.53748
756.299	36.51709
756.482	31.85679
756.665	46.59688
756.848	39.71028
757.032	42.81528
757.215	27.01571
757.398	32.90976
757.581	31.71221
757.764	68.78593
757.947	39.12783
758.129	52.43799
758.312	14.24828
758.495	38.86338
758.678	38.76054
758.861	36.16556
759.044	59.55381
759.227	32.75423
759.41	32.19111
759.592	46.06536
759.775	38.60384
759.958	50.69074
760.141	27.48934
760.324	65.8348
760.506	55.29938
760.689	49.79468
760.872	67.69806
761.054	45.63618
761.237	37.01357
761.42	44.40939
761.602	48.53946
761.785	43.68049
761.968	49.13435
762.15	57.87211
762.333	37.02461
762.515	42.16108
762.698	32.26887
762.88	45.25099
763.063	39.34739
763.245	44.54865
763.428	26.33863
763.61	30.83278
763.793	24.63649
763.975	38.12583
764.158	31.00331
764.34	30.69866
764.522	26.03142
764.705	31.86375
764.887	48.42449
765.069	22.96342
765.252	45.82541
765.434	45.47278
765.616	39.20928
765.799	35.21126
765.981	47.67233
766.163	32.00876
766.345	49.68462
766.528	34.7815
766.71	18.09189
766.892	42.78965
767.074	54.70461
767.256	39.07162
767.438	62.44847
767.62	45.05921
767.802	68.57706
767.985	49.1369
768.167	65.38014
768.349	35.98086
768.531	48.72816
768.713	46.6308
768.895	53.37757
769.077	48.16288
769.259	74.01121
769.441	110.74944
769.623	55.43114
769.804	65.36167
769.986	64.93798
770.168	75.95585
770.35	93.65974
770.532	64.98282
770.714	74.60258
770.896	77.10984
771.077	34.42596
771.259	78.67565
771.441	64.11674
771.623	83.17744
771.804	103.14052
771.986	31.14648
772.168	49.4403
772.35	79.68168
772.531	102.58506
772.713	64.20245
772.894	87.07992
773.076	61.95139
773.258	53.37419
773.439	81.9984
773.621	94.0164
773.802	44.15615
773.984	53.06737
774.166	66.61815
774.347	95.66591
774.529	82.03312
774.71	31.86554
774.891	60.4924
775.073	56.63771
775.254	93.26123
775.436	50.89085
775.617	103.18566
775.799	53.65166
775.98	92.51591
776.161	95.66408
776.343	98.81182
776.524	61.11909
776.705	56.28231
776.886	33.78565
777.068	68.40278
777.249	122.50717
777.43	105.39682
777.611	41.72224
777.793	56.66648
777.974	95.46916
778.155	53.13608
778.336	46.51616
778.517	111.64468
778.698	48.13923
778.879	29.64646
779.061	19.18103
779.242	70.88848
779.423	73.5819
779.604	54.93376
779.785	62.33589
779.966	70.07122
780.147	82.33925
780.328	89.06798
780.509	121.46739
780.69	76.9268
780.871	50.19266
781.051	37.66826
781.232	68.64365
781.413	67.2292
781.594	60.18508
781.775	52.6341
781.956	52.10598
782.137	29.79076
782.317	51.66055
782.498	71.54093
782.679	63.74025
782.86	65.35383
783.04	50.73656
783.221	69.92567
783.402	105.88448
783.583	65.82411
783.763	79.58435
783.944	55.02921
784.124	38.41619
784.305	97.50155
784.486	80.19216
784.666	62.18576
784.847	35.34072
785.027	123.85298
785.208	49.85731
785.388	54.27246
785.569	52.01776
785.749	59.8159
785.93	54.1892
786.11	38.16239
786.291	74.69976
786.471	72.094
786.652	80.81861
786.832	62.62143
787.012	69.26218
787.193	44.90101
787.373	67.01081
787.553	56.80711
787.734	69.67175
787.914	52.98827
788.094	73.37153
788.275	68.37892
788.455	57.55342
788.635	39.87977
788.815	65.54815
788.995	42.11283
789.176	34.43684
789.356	50.03178
789.536	58.90709
789.716	74.84729
789.896	49.44709
790.076	52.30208
790.256	66.38814
790.436	23.7362
790.616	47.67431
790.796	69.13323
790.976	55.03197
791.156	48.8304
791.336	79.95664
791.516	72.40404
791.696	57.51422
791.876	37.98541
792.056	67.83937
792.236	82.47667
792.416	76.86361
792.596	74.0773
792.776	71.25249
792.956	78.87566
793.135	98.45317
793.315	45.90689
793.495	89.52431
793.675	80.24308
793.854	80.02369
794.034	87.19667
794.214	42.26515
794.394	81.68233
794.573	87.29373
794.753	66.96426
794.933	46.74032
795.112	66.98099
795.292	81.68008
795.472	103.91408
795.651	38.59923
795.831	62.77106
796.01	57.3976
796.19	59.25156
796.369	59.84028
796.549	73.52346
796.728	59.02904
796.908	38.33862
797.087	45.03593
797.267	55.61991
797.446	41.60019
797.626	73.39269
797.805	74.60538
797.984	48.02639
798.164	78.3911
798.343	47.07596
798.522	69.40676
798.702	63.3126
798.881	41.11245
799.06	58.50532
799.239	29.28373
799.419	45.29266
799.598	94.32815
799.777	73.04613
799.956	87.73854
800.136	54.51468
800.315	53.51142
800.494	72.14201
800.673	87.15128
800.852	76.22134
801.031	85.4244
801.21	77.45913
801.389	55.68183
801.568	68.57511
801.747	106.87845
801.926	67.05072
802.105	97.1667
802.284	58.27724
802.463	100.91286
802.642	70.19363
802.821	70.45986
803	94.12191
803.179	82.58811
803.358	92.27073
803.537	54.55218
803.716	68.27369
803.895	50.46697
804.073	62.76214
804.252	51.69739
804.431	75.27914
804.61	62.7763
804.789	87.39733
804.967	55.9999
805.146	52.2735
805.325	108.81009
805.503	77.61579
805.682	37.15489
805.861	123.26219
806.039	90.65571
806.218	52.16727
806.397	70.7908
806.575	64.98676
806.754	71.21109
806.932	48.86
807.111	100.99023
807.289	82.18677
807.468	68.26066
807.646	88.89876
807.825	75.94685
808.003	70.50562
808.182	86.64999
808.36	69.406
808.539	51.10637
808.717	102.97911
808.895	50.82135
809.074	71.98369
809.252	66.39717
809.43	82.41903
809.609	90.89219
809.787	110.54764
809.965	65.56102
810.144	72.69872
810.322	64.78255
810.5	78.51091
810.678	65.24833
810.856	122.94451
811.035	95.85631
811.213	85.89793
811.391	96.90205
811.569	72.69768
811.747	145.17796
811.925	99.44799
812.103	52.18168
812.281	68.55729
812.459	114.09255
812.637	115.84564
812.816	93.46765
812.994	119.47121
813.171	98.26183
813.349	84.29885
813.527	104.31399
813.705	105.2165
813.883	128.16679
814.061	97.15899
814.239	125.24428
814.417	120.78313
814.595	77.27795
814.773	79.7469
814.95	74.43685
815.128	83.53933
815.306	76.99147
815.484	70.01938
815.662	59.14911
815.839	47.75563
816.017	56.43499
816.195	106.51156
816.372	65.75951
816.55	89.51768
816.728	111.30773
816.905	70.22932
817.083	113.77251
817.261	71.39388
817.438	125.68697
817.616	121.86645
817.793	59.91366
817.971	96.18574
818.148	89.12982
818.326	103.97175
818.503	79.56271
818.681	104.83388
818.858	60.06696
819.036	69.45804
819.213	72.61528
819.391	52.78345
819.568	56.54865
819.745	49.42078
819.923	83.65669
820.1	55.29036
820.277	49.23846
820.455	56.937
820.632	59.13259
820.809	59.81156
820.986	40.13919
821.164	31.84268
821.341	27.2207
821.518	37.0562
821.695	26.23167
821.872	25.2449
822.05	21.617
822.227	16.76317
822.404	17.73025
822.581	21.05823
822.758	17.40147
822.935	17.22699
823.112	20.34167
823.289	16.02962
823.466	20.47062
823.643	19.36453
823.82	23.98965
823.997	21.7244
824.174	27.0362
824.351	35.67227
824.528	35.07743
824.705	31.70797
824.882	34.97145
825.059	46.83876
825.236	32.21267
825.412	34.33622
825.589	42.16582
825.766	58.26636
825.943	37.78791
826.12	43.62055
826.296	29.11578
826.473	36.50199
826.65	36.07654
826.827	45.69682
827.003	29.53968
827.18	32.52002
827.357	36.51879
827.533	33.28981
827.71	18.49655
827.887	29.1239
828.063	33.77262
828.24	29.20118
828.416	41.14911
828.593	32.59889
828.769	48.26408
828.946	56.07162
829.122	58.43348
829.299	55.75199
829.475	32.79421
829.652	55.48753
829.828	92.779
830.005	58.51709
830.181	79.60907
830.357	54.9464
830.534	85.58105
830.71	65.18372
830.886	81.26994
831.063	79.40849
831.239	100.9955
831.415	47.061
831.592	99.0522
831.768	65.60277
831.944	54.10781
832.12	100.44791
832.296	89.33646
832.473	80.64001
832.649	56.83944
832.825	73.26459
833.001	42.53159
833.177	66.01435
833.353	58.1229
833.529	32.57349
833.705	46.65706
833.881	34.77099
834.058	34.07859
834.234	36.73936
834.41	37.19551
834.586	29.50984
834.761	35.76748
834.937	40.04079
835.113	42.3066
835.289	40.00512
835.465	46.59232
835.641	40.54525
835.817	49.60043
835.993	88.85339
836.169	44.02117
836.344	64.03997
836.52	74.63606
836.696	75.13179
836.872	53.65607
837.048	146.78616
837.223	61.79821
837.399	126.0552
837.575	95.67704
837.75	92.00077
837.926	120.23878
838.102	200.9592
838.277	150.1924
838.453	188.43019
838.628	197.08134
838.804	82.34891
838.98	187.02961
839.155	90.76681
839.331	121.80416
839.506	82.67191
839.682	80.65979
839.857	107.8224
840.033	126.35575
840.208	61.93005
840.384	33.7631
840.559	65.42076
840.734	95.10072
840.91	138.90457
841.085	82.22601
841.26	86.82382
841.436	79.16836
841.611	77.87276
841.786	113.08459
841.962	157.42442
842.137	97.41364
842.312	58.32831
842.487	89.85649
842.663	73.22001
842.838	78.39527
843.013	277.60142
843.188	140.78624
843.363	131.92698
843.538	238.98821
843.714	238.59975
843.889	254.08454
844.064	261.44514
844.239	225.01784
844.414	261.6079
844.589	171.10036
844.764	325.54709
844.939	306.16025
845.114	370.09645
845.289	369.08209
845.464	383.59194
845.639	306.36381
845.814	142.6074
845.989	181.57019
846.163	194.32146
846.338	231.13317
846.513	342.3208
846.688	212.31368
846.863	201.47025
847.038	186.47093
847.212	216.46561
847.387	247.86377
847.562	268.55989
847.737	283.78375
847.911	105.87561
848.086	135.47832
848.261	468.68883
848.435	187.70346
848.61	306.12686
848.785	143.98869
848.959	317.92214
849.134	435.0203
849.308	524.03113
849.483	233.22941
849.658	350.80215
849.832	185.79567
850.007	160.20485
850.181	637.14434
850.356	171.97411
850.53	518.02607
850.705	133.30288
850.879	92.31722
851.053	202.51618
851.228	183.29663
851.402	293.64408
851.577	332.69117
851.751	418.16198
851.925	242.88296
852.099	110.87457
852.274	158.75336
852.448	202.60274
852.622	297.66352
852.797	228.01427
852.971	251.49642
853.145	244.27945
853.319	660.09589
853.493	351.89416
853.668	201.79293
853.842	426.25191
854.016	328.42117
854.19	401.42802
854.364	231.36322
854.538	274.52181
854.712	343.04307
854.886	220.84516
855.06	203.8675
855.234	87.02074
855.408	434.97477
855.582	358.15264
855.756	368.94311
855.93	452.51378
856.104	243.91467
856.278	343.78858
856.452	213.69293
856.626	302.64333
856.8	545.45302
856.973	288.25623
857.147	281.79951
857.321	292.91608
857.495	360.80666
857.669	255.16618
857.842	209.80951
858.016	338.44149
858.19	152.84167
858.364	833.27461
858.537	197.30698
858.711	243.85833
858.885	215.65303
859.058	190.8278
859.232	114.60808
859.405	119.43102
859.579	347.59914
859.753	303.3811
859.926	160.49943
860.1	104.04614
860.273	239.36087
860.447	452.46247
860.62	221.24503
860.794	464.07901
860.967	259.82288
861.141	355.19474
861.314	683.2624
861.487	296.17752
861.661	393.65758
861.834	536.88315
862.008	357.44506
862.181	235.71574
862.354	252.54651
862.528	313.57284
862.701	194.36547
862.874	134.56348
863.047	204.39837
863.221	193.79873
863.394	102.81414
863.567	366.91341
863.74	90.40369
863.913	345.52342
864.087	287.29396
864.26	328.87235
864.433	189.14549
864.606	546.1491
864.779	238.78178
864.952	115.53819
865.125	190.44248
865.298	226.23749
865.471	228.62606
865.644	487.12618
865.817	364.63815
865.99	329.54391
866.163	469.0888
866.336	206.2834
866.509	232.32047
866.682	195.95562
866.855	408.15408
867.028	141.35596
867.2	275.62319
867.373	90.29614
867.546	235.57254
867.719	593.66256
867.892	290.3411
868.064	157.039
868.237	267.08974
868.41	260.91275
868.583	137.02257
868.755	148.39183
868.928	207.41033
869.101	596.78347
869.273	342.43246
869.446	287.82111
869.619	395.51547
869.791	229.42726
869.964	376.1141
870.136	348.96342
870.309	257.49032
870.481	245.07943
870.654	106.02577
870.826	277.56609
870.999	173.60707
871.171	281.14983
871.344	173.01782
871.516	209.82227
871.689	147.68486
871.861	199.63648
872.033	165.1084
872.206	193.43013
872.378	335.91453
872.55	187.41301
872.723	136.84975
872.895	193.59454
873.067	343.17306
873.24	336.61206
873.412	181.2054
873.584	208.20424
873.756	195.50719
873.928	248.22813
874.101	256.3511
874.273	280.30456
874.445	104.97403
874.617	134.01477
874.789	235.16182
874.961	192.05377
875.133	269.03146
875.305	212.86984
875.477	142.26862
875.649	119.23797
875.821	141.12769
875.993	404.69856
876.165	145.23365
876.337	228.07793
876.509	218.31966
876.681	247.91749
876.853	241.71158
877.025	242.2609
877.197	151.69087
877.369	132.52787
877.541	293.12878
877.712	75.7934
877.884	132.85562
878.056	254.37936
878.228	129.30006
878.4	250.70127
878.571	124.29926
878.743	93.97499
878.915	197.60039
879.086	122.42713
879.258	153.98187
879.43	130.68999
879.601	111.91156
879.773	122.8366
879.945	33.05102
880.116	48.50473
880.288	30.51071
880.459	34.13856
880.631	26.56755
880.802	31.11364
880.974	28.50199
881.145	19.48158
881.317	26.37135
881.488	19.62128
881.66	22.42737
881.831	19.83335
882.002	27.40829
882.174	20.0699
882.345	26.20604
882.517	14.48113
882.688	34.23111
882.859	27.02587
883.03	43.80924
883.202	45.66376
883.373	38.34368
883.544	38.14502
883.715	64.05011
883.887	55.9807
884.058	48.33101
884.229	68.63724
884.4	67.8226
884.571	80.59028
884.742	67.55068
884.914	71.95128
885.085	102.1137
885.256	139.08982
885.427	109.91249
885.598	139.40366
885.769	138.65647
885.94	139.18635
886.111	88.27008
886.282	163.3689
886.453	121.92751
886.624	91.89783
886.795	176.81671
886.966	138.24283
887.136	190.36265
887.307	119.77449
887.478	258.02805
887.649	190.17135
887.82	233.97263
887.991	175.44655
888.161	245.10491
888.332	225.35131
888.503	114.03672
888.674	314.46658
888.844	382.90196
889.015	283.66632
889.186	116.88392
889.356	338.85329
889.527	106.93997
889.698	588.86374
889.868	167.76221
890.039	249.49226
890.209	212.71195
890.38	280.15056
890.551	246.36874
890.721	317.74496
890.892	293.18807
891.062	189.346
891.233	259.88194
891.403	174.95659
891.574	139.61005
891.744	200.20319
891.914	214.37064
892.085	226.38919
892.255	75.61852
892.425	366.39242
892.596	225.45878
892.766	235.7992
892.936	301.49922
893.107	255.83159
893.277	141.73828
893.447	102.06423
893.618	72.91726
893.788	155.73735
893.958	83.77027
894.128	76.70034
894.298	91.79046
894.468	122.47894
894.639	57.15398
894.809	40.30253
894.979	63.29936
895.149	74.8128
895.319	58.834
895.489	85.72468
895.659	111.43555
895.829	73.64907
895.999	79.56552
896.169	64.82696
896.339	81.28357
896.509	163.09814
896.679	186.95677
896.849	188.14653
897.019	263.53902
897.189	211.46043
897.358	177.61657
897.528	260.82659
897.698	103.5104
897.868	234.17731
898.038	469.63178
898.208	464.84662
898.377	112.92922
898.547	460.71018
898.717	653.3887
898.886	230.61925
899.056	419.42088
899.226	671.55541
899.395	338.97928
899.565	571.91452
899.735	327.67171
899.904	537.85338
900.074	557.20119
900.244	180.17476
900.413	790.22443
900.583	142.8242
900.752	296.54738
900.922	770.48518
901.091	32.121
901.261	461.97474
901.43	387.20172
901.599	355.27688
901.769	1385.99481
901.938	544.75712
902.108	450.52628
902.277	781.89864
902.446	138.97945
902.616	158.269
902.785	200.78429
902.954	399.84681
903.124	254.12878
903.293	180.22541
903.462	95.67413
903.631	136.86573
903.801	102.199
903.97	54.40299
904.139	88.77838
904.308	70.90871
904.477	56.8042
904.646	35.72257
904.816	53.61179
904.985	83.29177
905.154	130.01003
