Data from WindowProjectSample_Transmission__91__00091.txt Node

Date: Sat May 03 18:24:00 EDT 2025
User: jessi
Spectrometer: SR400872
Trigger mode: 0
Integration Time (sec): 5.000050E-1
Scans to average: 10
Electric dark correction enabled: true
Nonlinearity correction enabled: true
Boxcar width: 0
XAxis mode: Wavelengths
Number of Pixels in Spectrum: 3648
>>>>>Begin Spectral Data<<<<<
184.909	-5398.97805
185.132	11912.3366
185.355	-12917.94249
185.578	82213.92013
185.801	-835.63975
186.024	6203.98932
186.247	-10607.743
186.47	-5809.49696
186.693	2724.94406
186.916	-1175.77116
187.139	30806.36339
187.362	13304.91322
187.585	-3081.26713
187.808	-4907.7222
188.031	244.99216
188.254	9977.88269
188.476	-648.8585
188.699	-4850.29659
188.922	406.68404
189.145	5667.44712
189.368	3032.22211
189.591	1064.66308
189.813	11555.70702
190.036	-72642.02343
190.259	1948.01218
190.482	2434.8461
190.705	6100.31627
190.927	4700.39808
191.15	3728.4415
191.373	6691.72558
191.595	1528.17843
191.818	2976.21412
192.041	543.66082
192.263	3601.92538
192.486	1288.93635
192.709	7827.2294
192.931	35742.30477
193.154	3401.10823
193.377	2331.67725
193.599	1770.77184
193.822	861.04362
194.044	1758.51209
194.267	1486.82517
194.489	-152.54275
194.712	2959.61013
194.934	7419.65069
195.157	-9451.66599
195.379	1789.09252
195.602	19134.06786
195.824	4146.4211
196.047	1227.12409
196.269	4847.37246
196.492	28018.16182
196.714	2809.76942
196.936	3563.51022
197.159	5982.15755
197.381	2985.91321
197.604	586.93955
197.826	1856.91695
198.048	1123.72752
198.271	3237.11359
198.493	4110.53019
198.715	6068.13099
198.938	600.86915
199.16	1603.3532
199.382	4814.59743
199.604	-29457.4896
199.827	2709.41303
200.049	1120.68934
200.271	2382.05925
200.493	7881.64484
200.715	3322.95999
200.938	70318.90351
201.16	1824.42867
201.382	2667.15897
201.604	1886.3488
201.826	5479.15614
202.048	1232.31483
202.27	4553.0801
202.492	1772.81999
202.715	1463.36947
202.937	-31008.07512
203.159	5227.67038
203.381	2346.43684
203.603	8787.91402
203.825	1500.27422
204.047	1787.74626
204.269	2409.23147
204.491	1841.70676
204.713	1445.99075
204.935	2102.12476
205.156	1279.52907
205.378	2027.84595
205.6	1497.32894
205.822	8220.56253
206.044	886.71331
206.266	1251.80983
206.488	2763.98046
206.71	5059.99749
206.932	1884.83078
207.153	4939.63458
207.375	1236.16039
207.597	4629.36732
207.819	1381.79225
208.041	3294.99399
208.262	976.04023
208.484	3629.18285
208.706	1244.67226
208.927	2420.60834
209.149	1602.85844
209.371	2256.96724
209.593	281.29554
209.814	5671.06675
210.036	16930.12041
210.258	736.4973
210.479	1387.7298
210.701	2216.31583
210.922	2207.86233
211.144	1614.01905
211.366	2841.11253
211.587	629.25992
211.809	2733.6461
212.03	1906.61306
212.252	619.36027
212.473	1269.75546
212.695	756.01683
212.916	1498.03293
213.138	712.93755
213.359	3501.60101
213.581	1596.12862
213.802	-3680.16295
214.024	2958.49129
214.245	1327.77403
214.466	472.27713
214.688	1494.51838
214.909	2156.34473
215.131	2890.9424
215.352	1074.88471
215.573	3779.57974
215.795	2335.169
216.016	3192.4803
216.237	753.21388
216.459	2844.25873
216.68	12430.25512
216.901	1413.09675
217.122	1161.98787
217.344	1523.71949
217.565	4021.99203
217.786	2174.638
218.007	939.87022
218.228	3195.2686
218.45	2049.95041
218.671	736.74558
218.892	1291.86003
219.113	958.78414
219.334	-238.48244
219.555	1298.42175
219.776	1537.48869
219.997	4099.56671
220.219	1977.8244
220.44	751.30218
220.661	599.65001
220.882	1101.97166
221.103	705.08605
221.324	745.48737
221.545	1227.12423
221.766	1596.10733
221.987	502.26242
222.208	678.98604
222.429	1307.08801
222.65	267.72281
222.87	389.40428
223.091	583.50972
223.312	503.89918
223.533	595.57056
223.754	1874.26342
223.975	1126.76085
224.196	513.14191
224.417	660.91496
224.637	343.34092
224.858	43.23312
225.079	420.47405
225.3	491.11168
225.521	1241.95583
225.741	301.65939
225.962	387.63977
226.183	110.81697
226.404	509.84495
226.624	348.128
226.845	335.53096
227.066	295.95896
227.286	202.48696
227.507	106.96137
227.728	91.3439
227.948	176.02775
228.169	58.92821
228.389	70.08153
228.61	39.72575
228.831	55.00551
229.051	4.38677
229.272	34.46572
229.492	46.2404
229.713	14.38984
229.933	33.57085
230.154	28.35978
230.374	48.21769
230.595	35.31901
230.815	22.55234
231.036	34.84654
231.256	-6.108
231.477	61.25522
231.697	36.55589
231.917	33.13614
232.138	52.18974
232.358	99.12307
232.579	91.89369
232.799	17.58637
233.019	86.88449
233.24	97.66894
233.46	36.12443
233.68	59.29342
233.901	43.04489
234.121	26.74142
234.341	10.09975
234.561	-1.80502
234.782	22.83133
235.002	61.88653
235.222	-2.44162
235.442	56.19266
235.662	30.18441
235.883	59.08751
236.103	52.37106
236.323	35.96788
236.543	28.00288
236.763	38.87971
236.983	43.74058
237.203	40.78981
237.423	59.51871
237.643	81.87533
237.864	72.31063
238.084	21.49581
238.304	25.88734
238.524	41.81313
238.744	35.56121
238.964	62.50011
239.184	56.44589
239.404	61.89253
239.624	33.35513
239.843	57.18244
240.063	32.1838
240.283	21.82536
240.503	26.32375
240.723	23.70971
240.943	14.24494
241.163	19.91527
241.383	15.48416
241.603	8.03388
241.822	10.41346
242.042	7.22716
242.262	9.01549
242.482	10.66138
242.702	11.43311
242.921	3.94653
243.141	7.71149
243.361	6.85748
243.581	10.38158
243.8	8.53859
244.02	6.33096
244.24	10.11928
244.459	9.69419
244.679	19.26318
244.899	12.98506
245.118	14.78569
245.338	12.87299
245.558	14.82157
245.777	9.17646
245.997	10.22072
246.216	10.84526
246.436	6.44176
246.655	4.90979
246.875	3.66922
247.094	6.95982
247.314	2.4888
247.533	4.29928
247.753	4.84463
247.972	3.961
248.192	1.37319
248.411	2.52347
248.631	3.9711
248.85	5.05367
249.07	4.2444
249.289	7.00984
249.508	4.95852
249.728	8.37692
249.947	8.11514
250.166	9.78292
250.386	4.88884
250.605	6.69194
250.824	12.09403
251.044	8.48273
251.263	25.79046
251.482	14.07995
251.701	12.437
251.921	0.63825
252.14	4.50879
252.359	4.94124
252.578	11.36317
252.798	3.88342
253.017	9.7653
253.236	5.09819
253.455	5.68362
253.674	12.46593
253.893	6.16129
254.112	8.71975
254.331	12.11197
254.551	10.7266
254.77	5.0985
254.989	15.03212
255.208	11.7081
255.427	16.3624
255.646	14.6233
255.865	22.69303
256.084	8.44837
256.303	11.53673
256.522	13.98567
256.741	3.86679
256.96	3.23279
257.179	7.94654
257.397	11.70917
257.616	6.19182
257.835	6.93027
258.054	16.07223
258.273	11.1208
258.492	12.07484
258.711	7.38233
258.93	3.08833
259.148	4.81092
259.367	5.08451
259.586	6.30983
259.805	2.73792
260.023	5.40016
260.242	4.17442
260.461	2.95337
260.68	1.64296
260.898	4.85672
261.117	1.79475
261.336	1.2748
261.554	4.13348
261.773	4.26803
261.992	1.0607
262.21	3.93967
262.429	4.51374
262.648	7.94228
262.866	8.50845
263.085	6.32771
263.303	5.64062
263.522	9.21161
263.74	10.03648
263.959	16.38982
264.178	8.62918
264.396	7.21763
264.615	5.7813
264.833	12.06861
265.051	10.51824
265.27	11.31663
265.488	11.8942
265.707	7.47116
265.925	12.22604
266.144	5.3156
266.362	6.72929
266.58	6.59377
266.799	5.69795
267.017	6.94883
267.235	6.03414
267.454	3.87308
267.672	2.53124
267.89	4.90419
268.109	5.2399
268.327	4.99246
268.545	1.48522
268.763	4.81219
268.982	2.18474
269.2	5.0366
269.418	3.53891
269.636	2.40986
269.854	5.43054
270.073	3.83727
270.291	2.08737
270.509	2.59627
270.727	5.07786
270.945	8.3582
271.163	7.80877
271.381	1.57614
271.599	3.49049
271.817	5.97137
272.036	1.96181
272.254	3.33903
272.472	2.89082
272.69	2.83321
272.908	3.14502
273.126	4.67965
273.344	5.98963
273.562	2.12499
273.779	2.93272
273.997	4.69417
274.215	4.63716
274.433	3.43878
274.651	5.39546
274.869	5.26527
275.087	3.20166
275.305	4.64205
275.523	3.03692
275.74	3.3881
275.958	5.86893
276.176	9.10965
276.394	2.96177
276.612	3.91551
276.829	3.94221
277.047	3.39465
277.265	3.50425
277.483	4.03897
277.7	4.919
277.918	3.77213
278.136	7.06125
278.353	3.45359
278.571	2.12038
278.789	5.62234
279.006	1.29564
279.224	3.39671
279.442	5.31849
279.659	3.9675
279.877	2.67626
280.094	6.03384
280.312	1.10586
280.529	3.87898
280.747	1.34545
280.964	3.01523
281.182	6.64751
281.399	3.23947
281.617	4.21165
281.834	3.18986
282.052	2.73543
282.269	3.44207
282.487	3.10864
282.704	2.51922
282.921	2.39199
283.139	3.87023
283.356	4.69417
283.574	4.38549
283.791	2.13561
284.008	5.89485
284.226	3.39325
284.443	3.86629
284.66	4.8677
284.877	3.84603
285.095	2.48175
285.312	1.83781
285.529	1.32407
285.746	1.00524
285.964	2.36406
286.181	1.50971
286.398	2.32391
286.615	2.97261
286.832	2.90977
287.05	0.82537
287.267	2.19353
287.484	2.14564
287.701	3.05736
287.918	3.05854
288.135	2.9407
288.352	1.35674
288.569	1.59656
288.786	2.82543
289.003	2.17424
289.22	3.35731
289.437	1.97925
289.654	3.32166
289.871	3.41528
290.088	3.3256
290.305	2.54138
290.522	2.16865
290.739	2.33254
290.956	3.52071
291.173	4.27535
291.39	3.87309
291.607	2.88608
291.824	2.08699
292.04	1.32343
292.257	3.39417
292.474	3.6785
292.691	2.43144
292.908	1.24843
293.125	1.98914
293.341	1.29954
293.558	5.63567
293.775	2.57474
293.992	2.30271
294.208	0.96606
294.425	1.47478
294.642	2.19395
294.858	2.95049
295.075	0.78582
295.292	2.34967
295.508	2.70303
295.725	3.94667
295.942	1.91836
296.158	1.5018
296.375	2.34498
296.591	1.89087
296.808	1.88491
297.024	2.1587
297.241	2.46338
297.458	2.60396
297.674	0.22493
297.891	2.10743
298.107	1.64667
298.323	1.20961
298.54	3.02461
298.756	1.4904
298.973	0.78512
299.189	3.26459
299.406	1.39991
299.622	3.35647
299.838	3.10701
300.055	2.85723
300.271	0.64836
300.487	1.16088
300.704	1.38001
300.92	0.97009
301.136	4.36219
301.353	3.21619
301.569	2.20614
301.785	2.48954
302.001	2.9029
302.218	2.56574
302.434	2.7127
302.65	0.92338
302.866	1.80912
303.083	4.22765
303.299	4.19724
303.515	2.09186
303.731	2.44651
303.947	0.92485
304.163	1.47994
304.379	2.30012
304.595	2.70229
304.812	1.53544
305.028	1.33343
305.244	1.77765
305.46	2.87279
305.676	2.93746
305.892	3.72437
306.108	2.51369
306.324	1.78622
306.54	4.07843
306.756	2.86581
306.972	2.79858
307.187	1.94028
307.403	3.83097
307.619	1.85803
307.835	3.4851
308.051	3.64908
308.267	1.11727
308.483	3.07201
308.699	2.66738
308.914	2.34829
309.13	2.27439
309.346	0.63635
309.562	1.14229
309.778	0.71306
309.993	2.6836
310.209	1.99331
310.425	1.08814
310.641	1.83133
310.856	1.00959
311.072	1.12203
311.288	2.0384
311.503	2.20415
311.719	0.51033
311.935	0.42354
312.15	2.35364
312.366	2.09824
312.581	2.5764
312.797	2.10035
313.013	2.85249
313.228	1.52467
313.444	2.2251
313.659	1.53178
313.875	2.50409
314.09	1.93911
314.306	3.47163
314.521	2.80863
314.737	2.78396
314.952	2.40701
315.168	2.1358
315.383	2.67609
315.599	1.89958
315.814	1.96764
316.029	2.94971
316.245	0.96831
316.46	0.77095
316.675	3.50816
316.891	4.01522
317.106	5.18588
317.321	2.87141
317.537	2.717
317.752	2.86632
317.967	3.08171
318.183	1.28478
318.398	2.00925
318.613	3.2283
318.828	3.60118
319.043	3.10423
319.259	1.84404
319.474	2.47797
319.689	3.43327
319.904	0.55906
320.119	2.86155
320.334	2.46755
320.549	1.92687
320.765	3.39101
320.98	2.41953
321.195	3.13608
321.41	2.00716
321.625	3.07273
321.84	3.9222
322.055	4.03099
322.27	1.54996
322.485	1.23704
322.7	2.55302
322.915	3.39416
323.13	1.35812
323.345	3.57471
323.56	3.12111
323.775	2.91197
323.989	2.84707
324.204	2.58292
324.419	3.09845
324.634	0.961
324.849	2.06808
325.064	4.43922
325.279	3.09699
325.493	2.7816
325.708	3.32247
325.923	1.58494
326.138	1.55261
326.352	3.99088
326.567	3.15265
326.782	1.89375
326.997	1.5138
327.211	2.97317
327.426	2.74547
327.641	1.93934
327.855	0.72129
328.07	2.79846
328.285	3.9088
328.499	1.8635
328.714	2.66084
328.928	3.03407
329.143	2.3374
329.358	3.2542
329.572	3.40781
329.787	3.54181
330.001	4.7431
330.216	0.95028
330.43	3.77857
330.645	4.14646
330.859	3.26177
331.074	1.83397
331.288	2.60881
331.503	3.58725
331.717	1.33441
331.931	2.20161
332.146	2.43863
332.36	4.17993
332.575	2.7133
332.789	2.6402
333.003	2.16631
333.218	2.85644
333.432	2.03276
333.646	2.9651
333.86	3.74687
334.075	4.01715
334.289	1.79549
334.503	1.19035
334.717	2.64079
334.932	2.70769
335.146	3.51127
335.36	1.9492
335.574	3.03677
335.788	2.70206
336.003	3.35507
336.217	2.82224
336.431	2.8308
336.645	1.71413
336.859	1.35499
337.073	2.04328
337.287	2.38096
337.501	1.40404
337.715	2.52289
337.929	3.01574
338.143	1.29866
338.357	2.20076
338.571	1.46947
338.785	2.75195
338.999	1.91559
339.213	1.77219
339.427	0.91098
339.641	3.27265
339.855	2.06334
340.069	1.91704
340.283	3.18599
340.497	3.89293
340.711	2.57193
340.924	1.88326
341.138	1.23765
341.352	1.04683
341.566	2.48093
341.78	0.55156
341.993	1.70589
342.207	1.39255
342.421	2.42551
342.635	2.31821
342.848	1.72195
343.062	0.38805
343.276	1.52978
343.49	4.17002
343.703	1.68807
343.917	2.90735
344.131	2.96338
344.344	1.49864
344.558	1.78664
344.771	1.32894
344.985	3.3423
345.199	3.58923
345.412	2.56022
345.626	2.29251
345.839	0.7872
346.053	1.23711
346.266	1.26202
346.48	2.76358
346.693	2.37489
346.907	2.66667
347.12	1.49731
347.334	2.37546
347.547	2.41846
347.76	1.92428
347.974	3.37754
348.187	2.32496
348.401	1.8119
348.614	1.70118
348.827	1.78334
349.041	2.66151
349.254	0.74887
349.467	2.1395
349.681	0.99366
349.894	1.66298
350.107	3.13855
350.32	3.407
350.534	0.81491
350.747	1.67886
350.96	1.34837
351.173	1.44641
351.386	1.70269
351.6	1.6363
351.813	1.60181
352.026	2.14317
352.239	0.82215
352.452	1.90385
352.665	2.87745
352.878	1.7228
353.092	3.85663
353.305	2.65179
353.518	2.22783
353.731	1.33327
353.944	3.33045
354.157	1.3795
354.37	1.12833
354.583	1.19543
354.796	0.63761
355.009	3.04345
355.222	2.03746
355.435	2.18031
355.647	2.85652
355.86	1.1153
356.073	1.82136
356.286	1.5752
356.499	2.63182
356.712	2.22082
356.925	2.34448
357.138	2.68489
357.35	1.09617
357.563	1.56126
357.776	1.90268
357.989	1.56617
358.201	2.34443
358.414	1.90699
358.627	2.73831
358.84	1.62316
359.052	1.0065
359.265	0.95313
359.478	2.65088
359.69	-0.29408
359.903	2.34616
360.116	2.41383
360.328	0.43866
360.541	2.42367
360.753	1.01361
360.966	1.29694
361.179	1.37155
361.391	1.21574
361.604	0.88692
361.816	1.23225
362.029	1.08285
362.241	0.93376
362.454	1.10226
362.666	0.87367
362.879	1.58159
363.091	1.30262
363.304	0.91002
363.516	1.54135
363.728	0.59032
363.941	1.95842
364.153	1.1655
364.366	-0.10278
364.578	0.87309
364.79	1.98277
365.003	1.45235
365.215	1.29225
365.427	1.97885
365.639	2.50798
365.852	1.83187
366.064	3.19952
366.276	1.2325
366.488	1.94265
366.701	1.25282
366.913	1.55972
367.125	1.56168
367.337	1.15753
367.549	1.20173
367.762	1.79015
367.974	1.70511
368.186	1.0129
368.398	2.39007
368.61	2.07598
368.822	2.21491
369.034	1.70957
369.246	2.19325
369.458	3.57372
369.67	0.91714
369.882	3.21723
370.094	0.11895
370.306	2.9129
370.518	1.34087
370.73	0.99561
370.942	1.04515
371.154	1.35877
371.366	1.13575
371.578	1.78126
371.79	0.98273
372.002	2.6001
372.214	2.95063
372.425	1.77926
372.637	2.50729
372.849	1.91918
373.061	0.02747
373.273	1.95057
373.484	1.92506
373.696	2.32775
373.908	-0.03921
374.12	2.42454
374.331	1.88389
374.543	1.00965
374.755	0.84079
374.967	1.78208
375.178	2.25699
375.39	1.38575
375.602	1.67279
375.813	0.58309
376.025	0.63153
376.236	1.5059
376.448	1.69628
376.66	1.14054
376.871	1.34077
377.083	2.29318
377.294	2.44227
377.506	1.12525
377.717	2.52705
377.929	1.63895
378.14	0.95622
378.352	1.90668
378.563	1.84218
378.775	2.49167
378.986	0.93851
379.197	1.57694
379.409	1.12701
379.62	2.1828
379.832	1.78648
380.043	1.39328
380.254	1.71081
380.466	0.58511
380.677	3.65702
380.888	3.30412
381.1	3.44671
381.311	3.36157
381.522	1.5424
381.733	3.89929
381.945	1.29847
382.156	1.74414
382.367	1.11387
382.578	3.72584
382.789	3.62816
383.001	1.33597
383.212	2.53498
383.423	2.7145
383.634	2.53678
383.845	1.97992
384.056	1.26155
384.267	1.60102
384.478	1.44199
384.69	0.74665
384.901	1.94787
385.112	1.8155
385.323	2.71496
385.534	1.94339
385.745	1.82896
385.956	1.95235
386.167	0.80779
386.378	2.05249
386.588	0.74017
386.799	1.02484
387.01	0.40593
387.221	2.27104
387.432	1.34751
387.643	2.98712
387.854	1.45415
388.065	1.2132
388.275	1.438
388.486	1.3212
388.697	1.57141
388.908	1.39104
389.119	2.5414
389.329	2.81471
389.54	1.71844
389.751	1.93268
389.962	2.53166
390.172	1.74606
390.383	1.23375
390.594	1.13492
390.804	1.16864
391.015	1.27038
391.226	1.65569
391.436	1.99902
391.647	1.86185
391.858	2.13345
392.068	0.38551
392.279	0.88553
392.489	1.60029
392.7	2.38021
392.91	0.84513
393.121	1.11907
393.331	1.87436
393.542	2.50856
393.752	2.09027
393.963	1.77922
394.173	1.66352
394.384	2.15253
394.594	1.58247
394.804	0.76655
395.015	1.71459
395.225	2.05872
395.436	0.86315
395.646	2.155
395.856	1.15099
396.067	0.69966
396.277	2.353
396.487	2.08326
396.697	1.65788
396.908	2.35336
397.118	2.25851
397.328	1.87751
397.538	2.60329
397.749	1.23413
397.959	2.42678
398.169	2.23246
398.379	0.83462
398.589	2.29626
398.8	1.94291
399.01	1.7626
399.22	1.66131
399.43	3.42741
399.64	1.61222
399.85	2.24262
400.06	1.79498
400.27	1.41649
400.48	1.76604
400.69	2.93568
400.9	1.48002
401.11	1.40423
401.32	2.44381
401.53	1.62629
401.74	3.12514
401.95	2.41423
402.16	1.34308
402.37	2.26902
402.58	1.57589
402.79	2.41119
403	2.44164
403.209	1.54281
403.419	2.53572
403.629	1.61583
403.839	2.57789
404.049	2.47393
404.258	1.45389
404.468	1.4966
404.678	2.41723
404.888	2.61941
405.097	1.50217
405.307	1.85622
405.517	2.32877
405.727	2.18803
405.936	1.69908
406.146	2.17336
406.356	2.90543
406.565	2.02826
406.775	1.61906
406.984	1.74875
407.194	3.35406
407.404	2.06591
407.613	2.31271
407.823	2.66064
408.032	2.97315
408.242	2.93047
408.451	1.866
408.661	2.07527
408.87	3.43144
409.08	1.76832
409.289	2.51311
409.499	2.33945
409.708	2.11596
409.918	0.75782
410.127	2.20795
410.336	3.22883
410.546	2.63896
410.755	1.8319
410.964	1.87673
411.174	1.62413
411.383	2.49144
411.592	2.54804
411.802	1.57488
412.011	2.85753
412.22	2.16192
412.429	3.20511
412.639	3.1916
412.848	2.97772
413.057	3.30673
413.266	3.09079
413.475	2.28703
413.685	2.81419
413.894	2.82945
414.103	3.08071
414.312	2.76769
414.521	2.29269
414.73	2.48411
414.939	3.67777
415.148	2.69194
415.357	2.59999
415.566	2.15825
415.776	2.18536
415.985	2.05009
416.194	2.86876
416.403	3.42288
416.611	1.52566
416.82	1.86295
417.029	2.43811
417.238	1.81441
417.447	1.83858
417.656	2.12158
417.865	1.92292
418.074	2.28813
418.283	2.54564
418.492	3.24523
418.7	3.17242
418.909	4.02342
419.118	2.9312
419.327	3.27187
419.536	3.00914
419.744	2.65242
419.953	3.93394
420.162	3.9344
420.371	2.84539
420.579	2.87183
420.788	3.92479
420.997	4.0943
421.205	4.01567
421.414	3.81462
421.623	3.76698
421.831	3.28818
422.04	4.12201
422.249	3.04255
422.457	3.85295
422.666	3.14565
422.874	4.16138
423.083	4.20311
423.291	4.07962
423.5	3.73385
423.708	4.05368
423.917	4.53088
424.125	3.84883
424.334	3.5763
424.542	5.65103
424.751	4.68034
424.959	4.47266
425.167	4.95536
425.376	4.58589
425.584	3.86852
425.793	4.16741
426.001	3.02974
426.209	3.97306
426.418	2.84067
426.626	2.85656
426.834	2.63003
427.042	2.98201
427.251	2.43633
427.459	3.34484
427.667	2.7863
427.875	2.10939
428.084	2.33933
428.292	3.42503
428.5	3.07435
428.708	2.22945
428.916	2.18692
429.124	2.8109
429.333	2.56575
429.541	2.60054
429.749	2.7942
429.957	2.63692
430.165	4.0733
430.373	1.91891
430.581	2.86306
430.789	3.53825
430.997	2.47777
431.205	2.37734
431.413	2.91654
431.621	2.55386
431.829	3.20115
432.037	2.56769
432.245	3.03382
432.453	3.03199
432.661	2.7856
432.869	4.18538
433.076	2.46073
433.284	3.0134
433.492	3.62511
433.7	3.95005
433.908	2.99594
434.116	3.25631
434.323	3.17743
434.531	3.21357
434.739	3.40536
434.947	3.45416
435.154	3.43602
435.362	2.9359
435.57	2.75339
435.778	2.53934
435.985	3.09636
436.193	2.60232
436.401	3.65318
436.608	2.96549
436.816	2.65641
437.023	3.91547
437.231	3.95854
437.439	3.11777
437.646	3.3394
437.854	3.1957
438.061	3.40509
438.269	3.09171
438.476	3.49952
438.684	3.31002
438.891	3.18238
439.099	3.01165
439.306	2.5219
439.514	2.86234
439.721	3.96522
439.929	3.29254
440.136	4.16066
440.343	4.06376
440.551	3.69043
440.758	5.49547
440.965	4.30744
441.173	4.01839
441.38	3.54496
441.587	4.01809
441.795	3.54599
442.002	3.71378
442.209	3.78469
442.416	3.75747
442.624	3.62643
442.831	3.61018
443.038	2.9263
443.245	2.59221
443.452	2.83743
443.66	3.56912
443.867	2.82236
444.074	2.82617
444.281	2.83271
444.488	3.20734
444.695	3.42623
444.902	3.37778
445.109	4.20607
445.316	3.69223
445.523	3.72514
445.73	3.51092
445.937	4.34024
446.144	4.70291
446.351	4.8829
446.558	3.8596
446.765	5.29683
446.972	5.26562
447.179	4.5542
447.386	5.44701
447.593	4.04009
447.8	5.15901
448.007	3.90525
448.214	3.88917
448.42	3.50589
448.627	4.3679
448.834	3.45102
449.041	3.29635
449.248	3.13454
449.454	3.6988
449.661	4.07633
449.868	2.91351
450.075	2.7554
450.281	2.03433
450.488	2.54875
450.695	2.65556
450.901	2.77799
451.108	2.73649
451.315	3.63115
451.521	3.04129
451.728	3.63029
451.935	2.74987
452.141	2.97879
452.348	3.07231
452.554	3.08584
452.761	2.8914
452.967	4.00052
453.174	3.2296
453.38	3.25697
453.587	2.47295
453.793	3.25083
454	3.5535
454.206	4.32108
454.413	3.7077
454.619	3.40646
454.825	2.74292
455.032	3.55889
455.238	3.80696
455.445	2.45143
455.651	3.29353
455.857	2.13612
456.064	3.00293
456.27	2.99255
456.476	3.07484
456.682	2.38616
456.889	3.35638
457.095	3.4586
457.301	4.56507
457.507	3.17477
457.714	3.29121
457.92	2.9761
458.126	2.7511
458.332	3.1285
458.538	3.04628
458.744	3.31451
458.951	3.43099
459.157	5.06339
459.363	4.25985
459.569	4.23921
459.775	4.94571
459.981	3.99053
460.187	4.5788
460.393	4.95169
460.599	5.37124
460.805	4.46583
461.011	4.22857
461.217	4.55735
461.423	4.31015
461.629	3.35602
461.835	3.60805
462.041	3.18112
462.247	4.23044
462.453	3.15419
462.658	3.2649
462.864	3.74973
463.07	3.48424
463.276	3.2529
463.482	3.49809
463.688	4.09554
463.893	2.90933
464.099	3.27193
464.305	4.3229
464.511	2.93609
464.716	3.33056
464.922	3.7619
465.128	2.86164
465.333	4.29871
465.539	3.65366
465.745	3.25732
465.95	3.46119
466.156	4.90465
466.362	4.05866
466.567	3.28089
466.773	3.18437
466.978	4.38652
467.184	2.80826
467.389	2.25408
467.595	3.72902
467.8	2.83511
468.006	4.1615
468.211	4.03529
468.417	2.84442
468.622	3.60263
468.828	3.82919
469.033	3.63783
469.239	5.06918
469.444	3.09917
469.649	4.07114
469.855	3.41385
470.06	3.60706
470.266	2.88527
470.471	3.89842
470.676	3.65909
470.881	2.49238
471.087	4.29514
471.292	4.64671
471.497	2.72681
471.703	3.45575
471.908	3.22892
472.113	3.59458
472.318	3.90715
472.523	2.91311
472.729	3.66767
472.934	3.78888
473.139	3.22058
473.344	3.79029
473.549	4.24448
473.754	3.07913
473.959	4.66236
474.164	3.1035
474.369	3.3725
474.575	3.84962
474.78	3.54537
474.985	3.18449
475.19	2.51409
475.395	3.13875
475.6	3.39946
475.804	4.28794
476.009	3.57562
476.214	3.57909
476.419	3.28821
476.624	2.5116
476.829	3.04671
477.034	3.81998
477.239	3.01752
477.444	3.62238
477.648	3.83248
477.853	3.85837
478.058	3.30218
478.263	3.16024
478.468	2.90079
478.672	2.93586
478.877	4.24516
479.082	4.45827
479.287	3.73123
479.491	3.50398
479.696	2.89273
479.901	3.99499
480.105	3.93612
480.31	3.15083
480.515	3.49336
480.719	4.91061
480.924	3.38892
481.128	3.17675
481.333	4.0989
481.538	4.23126
481.742	4.07875
481.947	4.89594
482.151	5.25532
482.356	5.38364
482.56	6.59902
482.765	7.06911
482.969	8.74295
483.174	9.70503
483.378	11.65358
483.582	11.55702
483.787	12.66872
483.991	12.70666
484.196	13.10891
484.4	12.79345
484.604	13.2596
484.809	11.64777
485.013	11.42688
485.217	10.06987
485.422	9.07853
485.626	8.24458
485.83	7.76847
486.034	7.47452
486.239	7.62508
486.443	7.68227
486.647	7.5197
486.851	8.58139
487.055	9.36977
487.26	8.81753
487.464	9.47957
487.668	8.90782
487.872	9.03169
488.076	9.67915
488.28	9.00063
488.484	8.31956
488.688	8.23576
488.892	8.13325
489.096	7.63448
489.3	6.93855
489.504	6.57981
489.708	6.52915
489.912	6.4369
490.116	6.08452
490.32	5.50846
490.524	6.39536
490.728	6.72193
490.932	6.76553
491.136	7.06578
491.34	8.04024
491.544	8.51472
491.748	8.11474
491.951	8.12444
492.155	7.79562
492.359	7.93464
492.563	6.73404
492.767	6.41484
492.97	5.92244
493.174	5.24997
493.378	4.88982
493.582	4.19997
493.785	4.23364
493.989	4.29162
494.193	3.99903
494.396	3.61582
494.6	4.04738
494.804	3.57453
495.007	3.39983
495.211	3.3726
495.414	3.56398
495.618	3.90282
495.822	4.52645
496.025	4.03181
496.229	4.47704
496.432	3.894
496.636	4.20488
496.839	4.2178
497.043	5.25237
497.246	4.35753
497.45	4.09668
497.653	4.34635
497.856	4.35749
498.06	3.69644
498.263	4.01705
498.467	3.80876
498.67	4.51209
498.873	4.09926
499.077	3.64236
499.28	3.65797
499.483	3.94494
499.686	4.06669
499.89	3.83986
500.093	4.05534
500.296	3.32119
500.499	4.61622
500.703	3.68108
500.906	3.81463
501.109	4.71709
501.312	3.73488
501.515	3.66059
501.719	3.95414
501.922	4.4898
502.125	3.97203
502.328	3.75616
502.531	3.14268
502.734	3.86821
502.937	2.78616
503.14	3.74737
503.343	3.25089
503.546	3.6321
503.749	3.39228
503.952	4.12455
504.155	3.36451
504.358	4.06204
504.561	3.77133
504.764	3.06898
504.967	3.75498
505.17	3.70437
505.373	4.66293
505.576	3.71307
505.778	4.16047
505.981	3.46756
506.184	4.45491
506.387	2.92147
506.59	4.76475
506.793	4.43524
506.995	4.03388
507.198	2.77977
507.401	3.9216
507.604	4.068
507.806	3.10539
508.009	3.36618
508.212	4.04031
508.414	3.48335
508.617	3.42401
508.82	3.79021
509.022	4.61554
509.225	4.01768
509.427	3.11555
509.63	4.54655
509.833	3.78603
510.035	3.59142
510.238	3.00195
510.44	4.47397
510.643	2.78139
510.845	4.89731
511.048	4.05858
511.25	3.53828
511.453	3.71429
511.655	4.01849
511.858	3.58834
512.06	4.18323
512.262	3.81278
512.465	4.24241
512.667	3.6355
512.869	3.20738
513.072	4.00445
513.274	4.24917
513.476	4.13833
513.679	4.28716
513.881	3.34635
514.083	4.6963
514.286	3.406
514.488	3.46552
514.69	3.41054
514.892	3.1627
515.094	4.1863
515.297	3.64735
515.499	3.90088
515.701	3.45739
515.903	4.82078
516.105	4.71577
516.307	4.23088
516.509	2.90269
516.711	3.21869
516.913	3.92319
517.116	3.72659
517.318	3.62508
517.52	4.64215
517.722	4.55951
517.924	3.68326
518.126	4.80037
518.328	4.186
518.529	4.99304
518.731	5.75567
518.933	4.27529
519.135	4.53428
519.337	5.33477
519.539	4.69643
519.741	3.35265
519.943	3.96422
520.145	3.7688
520.346	4.37548
520.548	3.70959
520.75	3.98552
520.952	3.67933
521.153	3.993
521.355	4.12813
521.557	3.31447
521.759	3.92883
521.96	3.83709
522.162	3.24404
522.364	4.48371
522.565	3.39113
522.767	4.17275
522.969	4.54457
523.17	4.16727
523.372	4.08794
523.573	3.56411
523.775	3.8203
523.977	3.23612
524.178	4.67592
524.38	3.43608
524.581	4.52962
524.783	3.99648
524.984	4.82729
525.186	4.57653
525.387	5.16452
525.589	4.95377
525.79	4.76229
525.991	4.68351
526.193	5.38946
526.394	4.34555
526.596	5.52171
526.797	5.61601
526.998	5.3045
527.2	5.16754
527.401	6.91551
527.602	7.16368
527.803	8.9373
528.005	8.95879
528.206	9.76256
528.407	10.32123
528.608	10.15292
528.81	10.53867
529.011	9.68421
529.212	10.88446
529.413	9.85143
529.614	9.01738
529.815	8.93093
530.017	8.30502
530.218	7.30156
530.419	6.32029
530.62	6.16189
530.821	5.9558
531.022	4.79725
531.223	5.83435
531.424	5.62152
531.625	5.55262
531.826	5.38017
532.027	5.66657
532.228	6.89432
532.429	6.37031
532.63	6.4689
532.831	6.97711
533.032	7.00866
533.233	7.72289
533.433	7.33668
533.634	7.5973
533.835	6.89566
534.036	6.40038
534.237	6.46911
534.438	5.8229
534.638	5.01759
534.839	4.98687
535.04	5.31445
535.241	4.56161
535.441	5.79614
535.642	5.22073
535.843	4.42764
536.043	4.69157
536.244	4.81998
536.445	4.92709
536.645	5.87287
536.846	5.40683
537.047	5.94908
537.247	4.61499
537.448	4.82931
537.648	4.80163
537.849	4.46294
538.049	4.11485
538.25	4.42112
538.451	4.18912
538.651	3.60403
538.851	4.25119
539.052	4.81996
539.252	4.62115
539.453	4.08109
539.653	4.43611
539.854	4.61485
540.054	4.87576
540.254	6.07328
540.455	6.68288
540.655	6.20222
540.855	7.13442
541.056	7.90548
541.256	7.37773
541.456	8.65459
541.657	7.65866
541.857	8.78315
542.057	7.18222
542.257	6.9487
542.458	7.56064
542.658	7.29761
542.858	5.80974
543.058	6.62116
543.258	5.99696
543.458	4.65044
543.659	4.42501
543.859	5.45224
544.059	5.27085
544.259	4.52675
544.459	5.09494
544.659	4.10332
544.859	4.54263
545.059	3.93426
545.259	4.637
545.459	4.27162
545.659	4.80937
545.859	4.2877
546.059	4.53911
546.259	3.91642
546.459	3.6226
546.659	3.89683
546.859	4.75739
547.059	4.47265
547.258	4.58612
547.458	4.40876
547.658	3.62029
547.858	3.54006
548.058	4.28744
548.258	3.81915
548.457	3.54718
548.657	5.60917
548.857	3.92122
549.057	4.51748
549.256	4.46273
549.456	3.92455
549.656	3.00573
549.855	5.29975
550.055	3.91064
550.255	5.55841
550.454	4.36046
550.654	4.67061
550.853	5.11775
551.053	4.76693
551.253	4.38013
551.452	4.51016
551.652	3.33382
551.851	3.22262
552.051	3.97395
552.25	3.80254
552.45	3.5883
552.649	3.97108
552.849	3.65984
553.048	4.01514
553.248	4.62457
553.447	3.55615
553.646	4.76644
553.846	5.18136
554.045	4.92599
554.244	3.43117
554.444	5.34845
554.643	3.6949
554.842	5.33835
555.042	5.9025
555.241	3.96755
555.44	3.67802
555.64	4.64479
555.839	5.56072
556.038	4.70135
556.237	3.9214
556.436	4.43506
556.636	4.63925
556.835	3.8331
557.034	5.51885
557.233	4.19664
557.432	3.44389
557.631	5.0136
557.83	4.23039
558.029	3.88309
558.228	3.97333
558.427	3.70013
558.626	4.6743
558.825	3.66517
559.024	4.4003
559.223	5.67148
559.422	4.26311
559.621	4.52045
559.82	2.45009
560.019	4.44622
560.218	4.05811
560.417	2.29263
560.616	3.92908
560.815	6.72709
561.014	3.18434
561.212	5.27271
561.411	4.33226
561.61	3.0796
561.809	4.10148
562.008	5.18769
562.206	4.19271
562.405	4.63523
562.604	4.01165
562.803	4.41899
563.001	4.14698
563.2	3.32394
563.399	4.68508
563.597	3.39525
563.796	4.51213
563.995	3.4303
564.193	4.71552
564.392	3.8286
564.59	5.94999
564.789	2.89263
564.988	4.11127
565.186	4.30327
565.385	3.9915
565.583	3.85214
565.782	4.00094
565.98	3.86955
566.179	4.10791
566.377	3.34572
566.575	3.62344
566.774	4.90721
566.972	4.83213
567.171	5.55793
567.369	5.10537
567.567	4.15149
567.766	4.44372
567.964	2.6552
568.162	4.65216
568.361	4.83054
568.559	4.17736
568.757	4.50677
568.956	4.24736
569.154	4.14044
569.352	4.73512
569.55	4.08493
569.748	4.3434
569.947	3.72397
570.145	3.58607
570.343	3.34847
570.541	4.99119
570.739	3.18742
570.937	4.28986
571.135	4.35156
571.333	5.40111
571.532	5.25569
571.73	4.30151
571.928	4.74596
572.126	4.4437
572.324	3.87686
572.522	5.10864
572.72	6.12435
572.918	4.14932
573.116	4.43725
573.313	4.17994
573.511	4.06335
573.709	3.87957
573.907	4.82472
574.105	3.90422
574.303	3.01462
574.501	3.11829
574.699	4.42983
574.896	4.39902
575.094	4.60872
575.292	3.18499
575.49	4.77673
575.688	4.08954
575.885	5.14579
576.083	5.7767
576.281	4.5588
576.478	3.66749
576.676	4.76014
576.874	3.36024
577.071	4.06507
577.269	6.38109
577.467	4.36462
577.664	4.17559
577.862	5.04742
578.059	3.68732
578.257	5.10216
578.455	4.16391
578.652	4.329
578.85	2.83533
579.047	4.58071
579.245	4.24852
579.442	4.39544
579.64	4.41756
579.837	2.81669
580.034	6.47811
580.232	4.23656
580.429	3.57823
580.627	4.88114
580.824	5.65759
581.021	4.94952
581.219	4.13852
581.416	3.80168
581.613	5.62377
581.811	5.68213
582.008	3.71957
582.205	5.25927
582.402	4.78258
582.6	6.45333
582.797	4.48953
582.994	5.17064
583.191	5.21754
583.388	4.62937
583.586	5.58907
583.783	5.64593
583.98	3.98309
584.177	4.51489
584.374	2.26144
584.571	4.44179
584.768	4.52987
584.965	4.46369
585.162	5.25251
585.359	6.24125
585.556	4.61935
585.753	4.9098
585.95	3.49003
586.147	3.92666
586.344	5.08729
586.541	4.35914
586.738	3.68542
586.935	4.50321
587.132	3.94526
587.329	5.60318
587.526	4.5809
587.722	9.19135
587.919	3.23925
588.116	4.85747
588.313	5.85574
588.51	6.68435
588.706	4.29158
588.903	5.03652
589.1	5.42079
589.297	7.17738
589.493	4.45408
589.69	4.89122
589.887	4.04869
590.083	3.50907
590.28	3.79907
590.477	5.41486
590.673	5.22726
590.87	5.74089
591.067	4.23317
591.263	5.03748
591.46	4.93751
591.656	4.27986
591.853	6.07468
592.049	3.86535
592.246	4.01329
592.442	5.91545
592.639	5.75113
592.835	3.65545
593.032	5.25507
593.228	3.37835
593.425	3.18735
593.621	3.10855
593.817	4.67513
594.014	3.95248
594.21	4.68299
594.406	5.44725
594.603	4.80473
594.799	4.05306
594.995	2.41541
595.192	5.61857
595.388	4.18551
595.584	4.10129
595.78	3.05916
595.977	6.55266
596.173	6.06512
596.369	4.18105
596.565	3.49474
596.761	3.11023
596.957	5.472
597.154	3.68972
597.35	3.89288
597.546	3.56184
597.742	4.7227
597.938	4.60226
598.134	3.54828
598.33	4.52343
598.526	6.09169
598.722	5.00472
598.918	6.22977
599.114	5.2904
599.31	3.80996
599.506	4.5653
599.702	3.94692
599.898	5.0763
600.094	5.78217
600.29	5.63886
600.485	5.81381
600.681	4.46296
600.877	6.22805
601.073	4.85618
601.269	6.79908
601.465	6.25483
601.66	4.00923
601.856	3.05594
602.052	6.50392
602.248	4.27038
602.443	2.76479
602.639	3.32935
602.835	3.68882
603.03	3.77639
603.226	5.39441
603.422	3.65086
603.617	4.16808
603.813	4.02119
604.009	3.91652
604.204	5.40005
604.4	3.04304
604.595	5.15829
604.791	3.43075
604.986	4.52931
605.182	3.60477
605.377	3.97937
605.573	3.85568
605.768	4.41372
605.964	4.97404
606.159	4.9924
606.355	5.72377
606.55	4.43175
606.746	5.57828
606.941	4.55144
607.136	6.80195
607.332	7.76786
607.527	3.5611
607.722	4.95773
607.918	4.5054
608.113	3.92799
608.308	5.44677
608.503	5.28136
608.699	4.97087
608.894	5.09698
609.089	3.60527
609.284	4.598
609.479	3.99772
609.675	5.02908
609.87	4.20246
610.065	5.20487
610.26	5.52393
610.455	5.34148
610.65	4.45257
610.845	4.6916
611.04	5.59721
611.235	4.59615
611.43	4.38461
611.625	3.3122
611.82	6.12097
612.015	4.08239
612.21	6.51875
612.405	3.28801
612.6	7.25426
612.795	6.4107
612.99	5.87206
613.185	3.91665
613.38	4.11294
613.575	5.52951
613.77	7.9589
613.965	3.39655
614.159	4.18966
614.354	6.49339
614.549	6.22181
614.744	5.77665
614.938	3.92427
615.133	3.5277
615.328	6.41791
615.523	6.33002
615.717	8.50342
615.912	4.38024
616.107	5.31004
616.301	4.98669
616.496	4.34126
616.691	7.13928
616.885	5.97388
617.08	8.49443
617.274	6.81654
617.469	7.77246
617.664	6.01213
617.858	4.47308
618.053	5.64191
618.247	5.13119
618.442	2.48276
618.636	6.87091
618.831	4.50031
619.025	4.65837
619.219	8.50817
619.414	1.53126
619.608	5.2715
619.803	4.25506
619.997	7.6393
620.191	6.98035
620.386	6.01149
620.58	5.37015
620.774	3.14144
620.969	3.54566
621.163	5.55376
621.357	3.84796
621.551	4.72236
621.746	5.40637
621.94	5.12166
622.134	9.81016
622.328	7.94791
622.522	3.69117
622.716	6.63673
622.911	6.62513
623.105	6.55208
623.299	5.9648
623.493	9.70647
623.687	4.31532
623.881	4.90148
624.075	6.04549
624.269	7.18264
624.463	3.16639
624.657	3.26207
624.851	5.99975
625.045	6.66595
625.239	6.43972
625.433	4.61359
625.627	7.39109
625.821	4.72775
626.015	4.23271
626.209	5.29633
626.403	3.07534
626.596	5.6573
626.79	5.96703
626.984	3.66962
627.178	5.65817
627.372	5.7253
627.565	6.30746
627.759	3.15033
627.953	3.67376
628.147	5.64565
628.34	6.10385
628.534	7.75635
628.728	4.92323
628.921	6.57925
629.115	6.09638
629.309	6.69523
629.502	6.58795
629.696	5.80161
629.89	5.41715
630.083	5.75576
630.277	6.09962
630.47	8.05603
630.664	5.07654
630.857	3.52419
631.051	6.47042
631.244	7.29686
631.438	6.94754
631.631	4.86787
631.825	7.6044
632.018	6.45745
632.212	8.42503
632.405	7.29448
632.598	4.76604
632.792	6.09928
632.985	2.70484
633.178	4.90701
633.372	5.57229
633.565	5.56671
633.758	7.6329
633.952	4.49791
634.145	4.30662
634.338	5.22046
634.531	5.10093
634.724	4.69298
634.918	5.59303
635.111	5.28137
635.304	5.13533
635.497	8.63461
635.69	6.24156
635.883	7.62302
636.077	4.0401
636.27	6.49422
636.463	6.01916
636.656	6.1323
636.849	5.0842
637.042	6.43708
637.235	8.28232
637.428	7.21965
637.621	7.29343
637.814	8.13019
638.007	8.1813
638.2	8.41137
638.393	9.23883
638.586	4.28831
638.778	5.49451
638.971	6.1182
639.164	8.61139
639.357	6.6848
639.55	8.4291
639.743	7.58988
639.935	7.19969
640.128	9.33437
640.321	7.86261
640.514	6.93851
640.707	10.54115
640.899	8.19744
641.092	3.93844
641.285	18.74684
641.477	2.80541
641.67	10.47362
641.863	8.70724
642.055	7.24167
642.248	6.38351
642.441	6.08625
642.633	7.496
642.826	8.31879
643.018	8.55485
643.211	9.66057
643.403	9.65943
643.596	10.41472
643.788	10.0388
643.981	6.26265
644.173	8.15591
644.366	6.08621
644.558	3.96322
644.751	8.15287
644.943	4.23086
645.135	10.09001
645.328	10.09502
645.52	8.13308
645.712	8.58074
645.905	12.58315
646.097	4.83053
646.289	7.45036
646.482	10.65432
646.674	5.72849
646.866	9.13024
647.058	8.03154
647.251	5.41277
647.443	6.0748
647.635	7.05292
647.827	5.2982
648.019	5.27223
648.211	6.9136
648.404	7.10418
648.596	10.08565
648.788	7.58143
648.98	7.77014
649.172	7.92896
649.364	7.59788
649.556	4.30799
649.748	11.45621
649.94	5.07823
650.132	8.20025
650.324	5.39695
650.516	5.63813
650.708	9.23939
650.9	4.62596
651.092	6.38197
651.284	4.52775
651.476	5.3903
651.667	7.95176
651.859	9.66927
652.051	7.20415
652.243	7.38985
652.435	6.20469
652.627	7.66837
652.818	7.7389
653.01	4.05224
653.202	5.43477
653.394	6.47284
653.585	8.37495
653.777	15.82953
653.969	9.93915
654.16	9.44371
654.352	5.85816
654.544	7.53575
654.735	9.33377
654.927	7.87495
655.118	10.74129
655.31	8.9737
655.502	9.68728
655.693	6.2731
655.885	8.67222
656.076	10.34823
656.268	7.83134
656.459	10.51223
656.651	10.19615
656.842	6.52907
657.034	6.06738
657.225	9.11854
657.416	10.08332
657.608	9.9302
657.799	7.16116
657.99	9.63209
658.182	5.82107
658.373	6.06351
658.564	8.75222
658.756	7.48361
658.947	6.84094
659.138	5.2244
659.33	6.2931
659.521	5.57569
659.712	6.63021
659.903	6.62314
660.094	5.87373
660.286	4.13694
660.477	10.50911
660.668	8.32482
660.859	7.21963
661.05	4.81336
661.241	8.22733
661.432	8.45039
661.623	6.99696
661.814	6.83705
662.006	4.30293
662.197	8.16637
662.388	9.98585
662.579	8.28251
662.77	10.79006
662.96	13.44532
663.151	9.40894
663.342	4.1685
663.533	8.97732
663.724	7.63423
663.915	11.1367
664.106	8.22542
664.297	12.03356
664.488	9.6247
664.678	7.07971
664.869	9.68877
665.06	10.17092
665.251	9.11952
665.442	9.03894
665.632	6.1138
665.823	12.37233
666.014	2.11284
666.204	9.49908
666.395	11.08618
666.586	14.61645
666.776	10.17184
666.967	11.73342
667.158	8.58292
667.348	11.79298
667.539	5.8249
667.729	9.92592
667.92	6.40836
668.111	10.77688
668.301	9.76735
668.492	7.65215
668.682	8.25038
668.873	7.6252
669.063	6.16983
669.253	8.63684
669.444	10.80114
669.634	8.10153
669.825	12.64293
670.015	10.44443
670.206	6.623
670.396	13.01585
670.586	7.89683
670.777	9.78656
670.967	3.97916
671.157	8.05406
671.347	7.11318
671.538	12.29934
671.728	9.79563
671.918	13.03756
672.108	10.75993
672.299	8.4761
672.489	9.62541
672.679	7.69687
672.869	10.55756
673.059	13.49435
673.249	10.01947
673.44	6.91532
673.63	8.54389
673.82	10.81042
674.01	6.89688
674.2	9.70372
674.39	16.67943
674.58	10.50005
674.77	9.55511
674.96	8.56313
675.15	19.03535
675.34	11.65405
675.53	9.53059
675.72	8.00137
675.91	5.41853
676.099	13.36651
676.289	15.12969
676.479	11.72721
676.669	8.34732
676.859	10.56968
677.049	6.61474
677.238	9.35986
677.428	14.01116
677.618	10.15627
677.808	12.20659
677.997	10.54145
678.187	6.88048
678.377	8.65638
678.567	7.37169
678.756	8.02781
678.946	8.66712
679.136	5.82818
679.325	6.90376
679.515	6.44358
679.704	5.95613
679.894	10.27974
680.084	9.24225
680.273	11.83051
680.463	6.70882
680.652	6.78027
680.842	8.89063
681.031	10.89009
681.221	6.62154
681.41	9.72412
681.6	8.61224
681.789	10.93994
681.978	11.86945
682.168	9.53551
682.357	9.61288
682.547	11.142
682.736	10.1183
682.925	12.3768
683.115	12.22801
683.304	11.5815
683.493	10.33753
683.682	10.85763
683.872	10.24679
684.061	13.20829
684.25	11.59227
684.439	14.70872
684.629	11.75865
684.818	19.11054
685.007	9.59025
685.196	8.90177
685.385	14.81224
685.574	11.14047
685.763	10.99909
685.952	10.468
686.142	7.00958
686.331	14.17203
686.52	5.33411
686.709	14.80259
686.898	14.30507
687.087	11.86915
687.276	14.75036
687.465	12.93041
687.654	9.5576
687.842	14.45453
688.031	6.7303
688.22	14.36912
688.409	11.05789
688.598	11.02895
688.787	17.85039
688.976	11.06114
689.165	15.91782
689.353	9.35049
689.542	11.98311
689.731	13.10194
689.92	16.30764
690.108	13.38538
690.297	9.79136
690.486	11.00794
690.675	13.0024
690.863	16.42733
691.052	15.7713
691.241	12.33025
691.429	12.29979
691.618	15.72121
691.806	7.58282
691.995	10.78553
692.184	11.27778
692.372	9.81348
692.561	11.79024
692.749	11.52945
692.938	18.41665
693.126	13.80401
693.315	11.18706
693.503	13.58762
693.692	13.80716
693.88	15.10135
694.068	18.81374
694.257	11.78323
694.445	13.31339
694.634	5.97522
694.822	15.35147
695.01	15.88745
695.199	16.09874
695.387	16.92754
695.575	15.77887
695.763	11.90368
695.952	10.93272
696.14	7.80968
696.328	10.76279
696.516	12.76684
696.705	12.78223
696.893	12.77617
697.081	6.4088
697.269	14.34563
697.457	8.60884
697.645	7.70497
697.833	13.77531
698.021	8.62702
698.21	9.56323
698.398	10.60473
698.586	7.46009
698.774	7.28614
698.962	9.85837
699.15	7.5369
699.338	6.24813
699.526	11.51964
699.714	8.61082
699.901	8.61959
700.089	12.94653
700.277	8.79432
700.465	10.00566
700.653	13.49715
700.841	12.30358
701.029	8.70225
701.217	15.03217
701.404	12.00978
701.592	16.78702
701.78	18.11871
701.968	10.55052
702.155	10.53502
702.343	7.99861
702.531	16.15576
702.718	14.00868
702.906	11.23542
703.094	10.73294
703.281	16.63425
703.469	11.63068
703.657	16.34285
703.844	23.90807
704.032	18.46909
704.219	11.00278
704.407	14.1759
704.595	17.87816
704.782	13.7071
704.97	11.36003
705.157	11.53134
705.345	19.54445
705.532	22.52998
705.719	13.92474
705.907	18.3157
706.094	13.71424
706.282	20.22246
706.469	12.4742
706.656	14.49988
706.844	12.83202
707.031	16.90348
707.218	14.11618
707.406	19.47719
707.593	16.44599
707.78	15.70858
707.968	13.35367
708.155	10.847
708.342	16.12296
708.529	15.65213
708.716	14.76568
708.904	20.13026
709.091	16.74279
709.278	9.8156
709.465	21.09348
709.652	20.8785
709.839	19.26124
710.026	15.34241
710.213	8.43511
710.4	16.48318
710.587	17.58305
710.774	19.35619
710.961	18.53116
711.148	15.38924
711.335	18.97518
711.522	13.97324
711.709	15.55564
711.896	22.59222
712.083	18.26573
712.27	11.74231
712.457	15.98402
712.644	9.54879
712.831	22.7133
713.017	15.88477
713.204	18.40485
713.391	13.75234
713.578	19.54489
713.765	20.65408
713.951	17.77496
714.138	27.71647
714.325	17.83598
714.512	15.54084
714.698	12.65529
714.885	22.02487
715.072	17.38777
715.258	16.35754
715.445	13.67487
715.631	21.31686
715.818	5.99835
716.005	13.42185
716.191	17.19947
716.378	14.40622
716.564	19.82616
716.751	11.89254
716.937	14.03979
717.124	21.05076
717.31	12.34555
717.497	21.8933
717.683	13.79309
717.869	25.39101
718.056	14.36796
718.242	18.77459
718.429	16.48798
718.615	12.08869
718.801	16.34061
718.988	19.89386
719.174	19.87027
719.36	16.82653
719.547	21.32233
719.733	17.94523
719.919	17.84011
720.105	20.60871
720.291	15.81547
720.478	17.6408
720.664	15.68939
720.85	14.42333
721.036	29.43925
721.222	23.74546
721.408	16.16602
721.595	26.2762
721.781	24.50843
721.967	22.20297
722.153	24.59062
722.339	20.57155
722.525	19.92859
722.711	13.03242
722.897	11.93866
723.083	15.96864
723.269	23.81497
723.455	29.1217
723.641	31.37872
723.827	18.83308
724.012	20.11566
724.198	15.67799
724.384	24.67965
724.57	19.34926
724.756	12.06211
724.942	9.50315
725.127	22.29754
725.313	25.98871
725.499	24.59025
725.685	27.85705
725.87	19.96604
726.056	13.34586
726.242	25.20587
726.428	11.58255
726.613	22.52968
726.799	17.88179
726.985	13.39698
727.17	11.68555
727.356	26.28334
727.541	13.84084
727.727	17.3824
727.913	22.12784
728.098	16.50396
728.284	22.68447
728.469	12.75176
728.655	14.71744
728.84	22.7667
729.026	23.28319
729.211	23.07678
729.397	21.05429
729.582	22.12434
729.767	17.36227
729.953	19.96935
730.138	23.45855
730.323	8.60565
730.509	13.16375
730.694	27.46898
730.879	20.62741
731.065	19.12632
731.25	31.00343
731.435	22.03621
731.621	11.71735
731.806	15.67639
731.991	20.45633
732.176	12.87441
732.361	25.91072
732.547	22.22603
732.732	11.27297
732.917	30.11835
733.102	12.45061
733.287	15.36664
733.472	19.0864
733.657	18.74038
733.842	11.38345
734.027	16.67199
734.212	19.15048
734.397	14.52274
734.582	19.28016
734.767	23.58449
734.952	26.44941
735.137	6.49615
735.322	25.70492
735.507	20.77195
735.692	20.48556
735.877	31.06521
736.062	28.21855
736.247	21.06476
736.431	18.85992
736.616	22.63548
736.801	21.47292
736.986	20.11421
737.171	15.00079
737.355	11.66298
737.54	26.25788
737.725	19.20202
737.909	35.17136
738.094	15.91555
738.279	24.8553
738.463	18.15132
738.648	23.57598
738.833	21.78265
739.017	29.59976
739.202	18.25277
739.386	19.66487
739.571	14.90504
739.756	23.41837
739.94	20.55248
740.125	24.26042
740.309	14.80927
740.494	24.83122
740.678	21.58667
740.863	22.70451
741.047	21.79365
741.231	26.62775
741.416	16.20425
741.6	29.14894
741.785	15.48045
741.969	24.86893
742.153	26.78634
742.338	8.77149
742.522	19.4587
742.706	24.84994
742.89	13.0613
743.075	21.03147
743.259	28.76656
743.443	25.23507
743.627	27.91694
743.812	33.9232
743.996	6.54771
744.18	20.22071
744.364	17.28877
744.548	37.4915
744.732	19.34357
744.916	26.22807
745.1	23.17323
745.285	19.74522
745.469	25.07165
745.653	32.54597
745.837	13.62649
746.021	35.2468
746.205	29.1462
746.389	20.35565
746.573	19.62724
746.757	30.2358
746.94	17.96766
747.124	28.97755
747.308	13.51607
747.492	27.27292
747.676	18.16425
747.86	36.1547
748.044	18.55802
748.227	11.15343
748.411	45.72854
748.595	22.17676
748.779	15.50007
748.963	23.3053
749.146	22.96517
749.33	16.66222
749.514	14.95147
749.697	29.94388
749.881	17.77493
750.065	16.25629
750.248	23.09747
750.432	37.98266
750.616	23.22971
750.799	14.74782
750.983	34.77563
751.166	40.08099
751.35	13.58014
751.533	26.72123
751.717	29.97238
751.9	32.53127
752.084	18.78721
752.267	15.60298
752.451	16.46362
752.634	22.10203
752.818	26.91546
753.001	26.88114
753.184	28.26018
753.368	24.78292
753.551	2.55308
753.734	16.75537
753.918	35.99121
754.101	16.81447
754.284	26.80245
754.467	19.35556
754.651	17.0949
754.834	15.73961
755.017	28.33541
755.2	29.10281
755.384	14.575
755.567	27.72266
755.75	29.33692
755.933	20.63359
756.116	23.32991
756.299	19.00437
756.482	17.73652
756.665	25.88495
756.848	21.67277
757.032	25.33098
757.215	12.36755
757.398	17.47221
757.581	18.18597
757.764	41.06707
757.947	21.53747
758.129	30.91556
758.312	4.88271
758.495	21.05122
758.678	21.42508
758.861	20.12018
759.044	35.65582
759.227	18.0948
759.41	16.93773
759.592	26.35374
759.775	21.59298
759.958	29.76506
760.141	12.62828
760.324	37.09125
760.506	31.59722
760.689	29.38098
760.872	39.29559
761.054	25.90859
761.237	21.23468
761.42	25.29713
761.602	28.95096
761.785	25.62351
761.968	29.99474
762.15	34.5047
762.333	21.11593
762.515	25.72776
762.698	19.96231
762.88	29.44322
763.063	25.64327
763.245	28.32112
763.428	15.65778
763.61	17.02603
763.793	13.97835
763.975	24.26398
764.158	18.39026
764.34	18.07244
764.522	15.3178
764.705	19.4573
764.887	29.38318
765.069	11.72908
765.252	26.235
765.434	26.4756
765.616	21.86921
765.799	17.57241
765.981	27.19232
766.163	16.5697
766.345	28.76187
766.528	18.78093
766.71	6.67783
766.892	22.77931
767.074	30.48547
767.256	20.8679
767.438	34.90695
767.62	24.77487
767.802	40.14819
767.985	26.67374
768.167	37.05296
768.349	17.08164
768.531	28.52553
768.713	26.1987
768.895	28.5035
769.077	25.55786
769.259	43.09885
769.441	62.89899
769.623	29.98629
769.804	35.51121
769.986	34.81711
770.168	41.47618
770.35	51.57258
770.532	36.77209
770.714	41.00315
770.896	42.21055
771.077	16.39816
771.259	44.18872
771.441	35.76241
771.623	47.20899
771.804	57.82675
771.986	14.22146
772.168	28.3819
772.35	44.9895
772.531	60.90391
772.713	34.3849
772.894	48.88628
773.076	31.17413
773.258	29.63231
773.439	46.50716
773.621	55.15801
773.802	21.92743
773.984	27.71326
774.166	36.40478
774.347	53.57029
774.529	47.82822
774.71	14.22599
774.891	32.85592
775.073	28.56479
775.254	51.51522
775.436	29.37671
775.617	57.10325
775.799	28.63381
775.98	53.3337
776.161	54.04879
776.343	54.57175
776.524	33.41065
776.705	32.2497
776.886	14.72082
777.068	39.01998
777.249	65.18234
777.43	58.194
777.611	24.33288
777.793	31.47789
777.974	53.2164
778.155	30.64388
778.336	26.51777
778.517	60.98162
778.698	25.27943
778.879	14.08468
779.061	7.03043
779.242	41.07356
779.423	41.46215
779.604	27.39137
779.785	33.36041
779.966	37.54401
780.147	45.92486
780.328	48.8581
780.509	69.4504
780.69	47.85846
780.871	26.18112
781.051	16.98252
781.232	38.17477
781.413	37.66992
781.594	30.70414
781.775	30.87885
781.956	27.8977
782.137	11.37858
782.317	28.48192
782.498	40.46347
782.679	38.15686
782.86	35.51198
783.04	27.10053
783.221	38.45655
783.402	59.31026
783.583	35.92274
783.763	42.70584
783.944	31.90347
784.124	19.442
784.305	54.63943
784.486	42.24251
784.666	34.57684
784.847	16.77945
785.027	69.12331
785.208	26.21343
785.388	25.80435
785.569	28.70215
785.749	31.6843
785.93	27.97376
786.11	17.47065
786.291	40.19876
786.471	36.1192
786.652	44.50204
786.832	33.22846
787.012	37.91556
787.193	22.79483
787.373	37.0042
787.553	30.64921
787.734	41.12946
787.914	30.66331
788.094	41.32288
788.275	38.29862
788.455	31.60415
788.635	21.72187
788.815	37.79053
788.995	24.55599
789.176	19.46959
789.356	26.5432
789.536	32.98859
789.716	40.32287
789.896	26.29414
790.076	28.85193
790.256	38.20525
790.436	8.99236
790.616	24.71516
790.796	35.59167
790.976	29.8582
791.156	26.93782
791.336	44.0586
791.516	39.30278
791.696	31.76541
791.876	16.74633
792.056	37.22825
792.236	45.67862
792.416	44.00303
792.596	39.97541
792.776	40.29877
792.956	43.22344
793.135	52.5297
793.315	21.02934
793.495	50.35495
793.675	42.79765
793.854	45.81569
794.034	46.18467
794.214	21.60042
794.394	43.87795
794.573	50.10865
794.753	37.31876
794.933	23.50656
795.112	37.05074
795.292	44.62481
795.472	58.07871
795.651	19.73959
795.831	33.24287
796.01	32.73497
796.19	31.30835
796.369	35.42341
796.549	39.30298
796.728	31.38943
796.908	22.6744
797.087	21.77735
797.267	30.4434
797.446	20.73645
797.626	40.37787
797.805	41.2641
797.984	23.16299
798.164	43.35728
798.343	20.94966
798.522	37.73306
798.702	33.74804
798.881	22.38625
799.06	32.39547
799.239	13.00257
799.419	23.92914
799.598	54.38237
799.777	40.22193
799.956	49.06206
800.136	29.99922
800.315	24.77404
800.494	41.56873
800.673	46.42393
800.852	43.7323
801.031	51.31182
801.21	41.5705
801.389	27.15542
801.568	38.28667
801.747	59.35661
801.926	34.1558
802.105	54.41539
802.284	28.97789
802.463	53.29893
802.642	36.51541
802.821	37.72437
803	53.91947
803.179	44.52787
803.358	50.02
803.537	28.09493
803.716	39.05528
803.895	24.35374
804.073	34.75462
804.252	27.5686
804.431	40.332
804.61	32.9265
804.789	47.36037
804.967	30.7143
805.146	28.46135
805.325	60.19491
805.503	39.14856
805.682	20.0393
805.861	66.43832
806.039	51.32665
806.218	29.03194
806.397	37.48192
806.575	36.30534
806.754	40.64995
806.932	23.37007
807.111	55.92618
807.289	47.16774
807.468	36.1389
807.646	48.35877
807.825	43.19091
808.003	37.32031
808.182	48.3266
808.36	36.01693
808.539	26.68317
808.717	54.53354
808.895	27.02744
809.074	40.56889
809.252	33.60057
809.43	44.50931
809.609	52.1003
809.787	62.60908
809.965	33.05405
810.144	36.04867
810.322	32.08487
810.5	41.05311
810.678	30.82652
810.856	65.44177
811.035	50.62425
811.213	44.70666
811.391	54.31504
811.569	37.68287
811.747	74.20778
811.925	53.14233
812.103	26.27032
812.281	32.32211
812.459	60.79236
812.637	60.79016
812.816	49.67861
812.994	64.28167
813.171	52.68811
813.349	43.56471
813.527	54.99165
813.705	55.62758
813.883	72.23427
814.061	52.968
814.239	64.65793
814.417	69.38647
814.595	44.02197
814.773	43.48203
814.95	40.26324
815.128	44.85704
815.306	36.94142
815.484	34.49711
815.662	28.30464
815.839	23.02946
816.017	28.73852
816.195	57.4392
816.372	34.73589
816.55	46.58527
816.728	59.19312
816.905	34.82573
817.083	60.48612
817.261	38.57901
817.438	70.66028
817.616	62.69857
817.793	30.4706
817.971	49.65706
818.148	45.25764
818.326	58.72886
818.503	43.06284
818.681	57.31234
818.858	32.89609
819.036	38.56843
819.213	42.28082
819.391	32.11089
819.568	29.52298
819.745	26.42278
819.923	50.46454
820.1	32.06736
820.277	28.47272
820.455	34.84387
820.632	36.33601
820.809	37.22837
820.986	23.01341
821.164	18.33033
821.341	16.73132
821.518	24.85937
821.695	17.42331
821.872	16.12508
822.05	13.74585
822.227	9.88915
822.404	10.88308
822.581	12.59943
822.758	10.24701
822.935	10.16117
823.112	12.21861
823.289	8.81652
823.466	12.23595
823.643	10.74225
823.82	13.99872
823.997	12.08173
824.174	14.69536
824.351	20.16213
824.528	19.36683
824.705	17.18946
824.882	19.20456
825.059	25.80667
825.236	16.82716
825.412	18.11177
825.589	23.99499
825.766	34.24793
825.943	19.81809
826.12	26.22735
826.296	15.9349
826.473	21.80702
826.65	23.05628
826.827	29.41792
827.003	17.97916
827.18	20.48965
827.357	24.0008
827.533	20.309
827.71	9.54165
827.887	17.47014
828.063	19.77023
828.24	16.41937
828.416	23.78431
828.593	17.92331
828.769	27.5982
828.946	30.33018
829.122	31.07251
829.299	29.96668
829.475	15.51783
829.652	27.13752
829.828	49.91251
830.005	28.78594
830.181	41.59205
830.357	27.10945
830.534	43.86807
830.71	32.13069
830.886	43.20323
831.063	42.97334
831.239	54.69948
831.415	24.71408
831.592	55.52366
831.768	33.7379
831.944	29.22438
832.12	56.22266
832.296	51.46308
832.473	45.75137
832.649	31.79689
832.825	44.6461
833.001	24.96888
833.177	42.09612
833.353	36.79474
833.529	20.18538
833.705	30.79583
833.881	21.53086
834.058	20.95893
834.234	22.72359
834.41	22.31285
834.586	17.26713
834.761	21.54534
834.937	23.55966
835.113	23.83168
835.289	20.52202
835.465	25.22146
835.641	21.77814
835.817	24.58673
835.993	46.06192
836.169	20.49237
836.344	32.95526
836.52	37.83417
836.696	38.62981
836.872	24.85685
837.048	76.54437
837.223	30.57643
837.399	62.87894
837.575	51.27712
837.75	45.73263
837.926	63.21573
838.102	101.50576
838.277	76.90176
838.453	98.86216
838.628	97.82526
838.804	36.56095
838.98	93.07808
839.155	46.25587
839.331	67.2114
839.506	43.57894
839.682	48.26665
839.857	58.01754
840.033	70.38105
840.208	32.52854
840.384	16.70766
840.559	38.34804
840.734	52.82889
840.91	75.83416
841.085	46.22658
841.26	44.77861
841.436	39.67714
841.611	37.54741
841.786	59.22635
841.962	76.27089
842.137	48.12758
842.312	22.44045
842.487	43.40057
842.663	33.47252
842.838	39.07669
843.013	140.7709
843.188	71.54773
843.363	71.07833
843.538	118.80295
843.714	123.25591
843.889	122.72886
844.064	126.68584
844.239	104.82596
844.414	134.86677
844.589	86.34023
844.764	146.52926
844.939	137.59063
845.114	169.47937
845.289	157.59385
845.464	180.13752
845.639	143.60388
845.814	76.11254
845.989	85.24527
846.163	94.72479
846.338	111.16522
846.513	161.2424
846.688	102.86631
846.863	111.83079
847.038	94.40146
847.212	101.32683
847.387	116.45142
847.562	117.88058
847.737	141.26459
847.911	62.68432
848.086	69.51656
848.261	220.66566
848.435	86.59966
848.61	145.34722
848.785	73.77316
848.959	137.05921
849.134	178.02893
849.308	223.8078
849.483	110.65745
849.658	174.11595
849.832	93.03509
850.007	79.911
850.181	239.76251
850.356	82.61926
850.53	194.96502
850.705	71.2791
850.879	39.92791
851.053	96.71014
851.228	89.53485
851.402	126.13699
851.577	149.47804
851.751	175.10677
851.925	109.02679
852.099	52.86589
852.274	79.08139
852.448	103.75971
852.622	133.78884
852.797	105.7692
852.971	116.8707
853.145	121.70092
853.319	225.93257
853.493	169.64243
853.668	93.09013
853.842	211.40768
854.016	153.40336
854.19	198.94779
854.364	125.27964
854.538	132.15154
854.712	160.35647
854.886	112.89091
855.06	93.44053
855.234	41.31055
855.408	177.69776
855.582	153.01102
855.756	177.05351
855.93	194.6841
856.104	117.91099
856.278	160.84478
856.452	110.29241
856.626	142.44201
856.8	218.77585
856.973	134.89886
857.147	139.26306
857.321	140.3147
857.495	153.14305
857.669	121.26435
857.842	107.45912
858.016	171.76818
858.19	76.37979
858.364	273.21725
858.537	108.14776
858.711	123.11332
858.885	102.27404
859.058	95.89259
859.232	59.36049
859.405	58.78948
859.579	161.63438
859.753	141.95272
859.926	85.05767
860.1	65.70419
860.273	110.10972
860.447	194.91761
860.62	103.75824
860.794	201.53364
860.967	129.95462
861.141	175.3079
861.314	235.0098
861.487	124.94718
861.661	184.0023
861.834	189.12258
862.008	171.51983
862.181	116.17302
862.354	129.23543
862.528	140.9356
862.701	100.26529
862.874	65.18893
863.047	97.97306
863.221	95.01956
863.394	43.8852
863.567	180.43627
863.74	41.33558
863.913	155.23695
864.087	140.03357
864.26	156.76597
864.433	104.44505
864.606	219.68047
864.779	115.95171
864.952	58.99675
865.125	99.28026
865.298	121.62041
865.471	119.88364
865.644	190.85413
865.817	167.22048
865.99	169.46905
866.163	194.65287
866.336	95.96614
866.509	117.40848
866.682	95.66685
866.855	185.33789
867.028	65.72944
867.2	144.36596
867.373	39.59922
867.546	116.58819
867.719	225.37393
867.892	138.03844
868.064	85.16279
868.237	134.36141
868.41	115.18295
868.583	83.60057
868.755	74.30481
868.928	112.56564
869.101	245.80177
869.273	171.8402
869.446	145.35964
869.619	185.71912
869.791	111.02353
869.964	172.50363
870.136	162.71783
870.309	126.29554
870.481	123.11989
870.654	66.07767
870.826	135.10079
870.999	97.67107
871.171	155.07011
871.344	92.07781
871.516	124.55772
871.689	87.45213
871.861	127.40351
872.033	86.23362
872.206	108.35723
872.378	166.84954
872.55	104.87311
872.723	71.79862
872.895	103.95925
873.067	165.68259
873.24	170.41831
873.412	101.4924
873.584	105.08771
873.756	101.42028
873.928	125.9004
874.101	138.34746
874.273	140.91942
874.445	59.67897
874.617	69.6837
874.789	130.75491
874.961	106.62892
875.133	142.63037
875.305	116.89726
875.477	76.02328
875.649	59.92031
875.821	75.25641
875.993	186.42386
876.165	81.20148
876.337	130.13914
876.509	113.77788
876.681	128.04968
876.853	126.44772
877.025	129.32931
877.197	82.14856
877.369	73.43928
877.541	147.36429
877.712	40.62118
877.884	73.08653
878.056	133.24729
878.228	70.21067
878.4	139.14919
878.571	76.03675
878.743	55.5237
878.915	116.20103
879.086	71.61879
879.258	92.07724
879.43	80.09311
879.601	71.96271
879.773	79.82817
879.945	17.89035
880.116	30.91215
880.288	20.39129
880.459	23.65422
880.631	16.84934
880.802	20.42044
880.974	19.94692
881.145	12.73863
881.317	18.42899
881.488	12.58537
881.66	14.72252
881.831	12.99554
882.002	19.33795
882.174	12.62892
882.345	17.92826
882.517	7.40058
882.688	21.48845
882.859	15.79016
883.03	27.68118
883.202	26.64998
883.373	20.56004
883.544	20.62331
883.715	35.93982
883.887	29.99367
884.058	25.53348
884.229	37.06576
884.4	39.42237
884.571	44.80054
884.742	34.89698
884.914	37.53132
885.085	58.90739
885.256	80.64358
885.427	61.59448
885.598	75.8705
885.769	76.08913
885.94	76.57521
886.111	50.69419
886.282	96.23329
886.453	69.04932
886.624	53.58195
886.795	92.60981
886.966	76.93082
887.136	102.82485
887.307	81.38469
887.478	138.49481
887.649	114.6438
887.82	124.53683
887.991	91.87513
888.161	130.90032
888.332	121.62782
888.503	60.71737
888.674	162.76906
888.844	194.73778
889.015	141.87099
889.186	71.26096
889.356	169.61357
889.527	62.94594
889.698	240.61191
889.868	99.82243
890.039	139.1243
890.209	113.00151
890.38	145.37768
890.551	130.89927
890.721	197.2957
890.892	149.83876
891.062	103.46302
891.233	140.63952
891.403	103.98313
891.574	75.81358
891.744	106.49131
891.914	120.35248
892.085	122.07066
892.255	39.42803
892.425	175.5946
892.596	131.92486
892.766	131.50427
892.936	180.64639
893.107	149.30587
893.277	77.27271
893.447	64.87781
893.618	49.66276
893.788	100.25171
893.958	59.39816
894.128	53.79324
894.298	65.5127
894.468	86.64916
894.639	37.02677
894.809	26.38907
894.979	41.74603
895.149	52.62043
895.319	40.88075
895.489	56.00872
895.659	74.33615
895.829	46.51177
895.999	47.86549
896.169	35.05966
896.339	49.96617
896.509	87.05493
896.679	96.45711
896.849	104.16959
897.019	136.80469
897.189	100.30479
897.358	97.83527
897.528	139.10153
897.698	50.25248
897.868	123.72681
898.038	205.51754
898.208	218.71825
898.377	53.83357
898.547	199.5385
898.717	273.11482
898.886	121.5486
899.056	216.95034
899.226	292.25072
899.395	182.62963
899.565	265.63223
899.735	173.67864
899.904	241.14558
900.074	220.35412
900.244	93.40413
900.413	372.71589
900.583	80.54642
900.752	169.02462
900.922	271.2187
901.091	18.93394
901.261	243.11156
901.43	196.04323
901.599	211.53341
901.769	490.67498
901.938	276.13944
902.108	231.6124
902.277	289.53795
902.446	91.94326
902.616	109.14325
902.785	130.65735
902.954	235.67342
903.124	154.35819
903.293	133.02835
903.462	70.51785
903.631	101.62225
903.801	81.15841
903.97	40.91365
904.139	63.0767
904.308	51.2629
904.477	40.90283
904.646	23.51773
904.816	37.95787
904.985	54.71048
905.154	84.41861
