Data from WindowProjectSample_Transmission__65__00065__017427094834281098.txt Node

Date: Mon May 05 18:32:23 EDT 2025
User: jessi
Spectrometer: SR400872
Trigger mode: 0
Integration Time (sec): 5.000010E-1
Scans to average: 20
Electric dark correction enabled: true
Nonlinearity correction enabled: true
Boxcar width: 0
XAxis mode: Wavelengths
Number of Pixels in Spectrum: 3648
>>>>>Begin Spectral Data<<<<<
184.909	20707.91715
185.132	-5173.89843
185.355	-3185.79981
185.578	-18317.71437
185.801	1751.99356
186.024	9960.71166
186.247	-1842.76976
186.47	1084.09793
186.693	385.72443
186.916	321.19366
187.139	-3734.68875
187.362	3626.71314
187.585	4857.14564
187.808	3233.83755
188.031	70.35635
188.254	-54880.77602
188.476	-575.49848
188.699	6154.57833
188.922	651.03908
189.145	-15093.74448
189.368	-531.93961
189.591	-1478.74546
189.813	2845.37851
190.036	-48569.65711
190.259	-840.90633
190.482	-4140.29784
190.705	7222.3426
190.927	-2500.92988
191.15	13463.17626
191.373	3315.33257
191.595	-8825.03149
191.818	-4167.11065
192.041	-7191.51966
192.263	-3342.62593
192.486	-746.63374
192.709	-3768.38878
192.931	7768.89548
193.154	-28287.90933
193.377	-2848.50189
193.599	-2420.97837
193.822	-9598.38402
194.044	-1881.03399
194.267	1188.10517
194.489	313.74089
194.712	-42979.27644
194.934	-31962.66726
195.157	1306.34661
195.379	1401.19332
195.602	-7134.19013
195.824	-1301.36915
196.047	-8266.71608
196.269	2682.59555
196.492	-6528.97042
196.714	27540.49839
196.936	-8533.33164
197.159	-1149.88234
197.381	1115.96085
197.604	403.29238
197.826	11773.32793
198.048	-10215.29031
198.271	-2790.26133
198.493	7565.17148
198.715	2344.25519
198.938	-439.12153
199.16	6741.31005
199.382	-101377.40948
199.604	2615.09497
199.827	-1048.17834
200.049	-2748.40202
200.271	13417.87145
200.493	1184.81071
200.715	-36902.34534
200.938	-6138.58978
201.16	-4187.17669
201.382	19834.66442
201.604	2200.05369
201.826	2300.96896
202.048	-1932.55773
202.27	-1894.71371
202.492	-34237.81637
202.715	2951.1758
202.937	-4507.76062
203.159	-6302.58136
203.381	1516.9523
203.603	6599.94602
203.825	6541.39528
204.047	2202.2445
204.269	-2694.77515
204.491	2087.10901
204.713	5747.9111
204.935	-493872.35738
205.156	1062.89372
205.378	-2831.40012
205.6	1620.17977
205.822	152494.11763
206.044	-1073.95103
206.266	1626.26617
206.488	4473.96409
206.71	-5220.39218
206.932	1110.48715
207.153	11886.66277
207.375	-6786.74393
207.597	-37588.27522
207.819	-2845.90061
208.041	2434.24648
208.262	494.99536
208.484	724.13857
208.706	-762.20222
208.927	-774.36532
209.149	547.57634
209.371	-2841.32322
209.593	-238.59741
209.814	-762.22399
210.036	587.33322
210.258	-605.32353
210.479	1742.27509
210.701	1576.78843
210.922	3163.214
211.144	-3620.01948
211.366	2083.6974
211.587	8051.34839
211.809	-8085.17129
212.03	2365.64951
212.252	487.67984
212.473	1998.85298
212.695	-6501.42589
212.916	2987.82834
213.138	-667.93795
213.359	3757.86997
213.581	4855.72679
213.802	-809.28234
214.024	1065.42169
214.245	1949.98967
214.466	2641.79421
214.688	-3009.57868
214.909	-1205.30047
215.131	-1620.12965
215.352	-2963.95627
215.573	14774.41803
215.795	5235.55204
216.016	5165.53318
216.237	809.06287
216.459	3601.62812
216.68	1834.82553
216.901	5116.39585
217.122	-3131.97534
217.344	-11811.88843
217.565	3518.65751
217.786	8896.37297
218.007	16174.66664
218.228	-675.67768
218.45	5662.14711
218.671	769.76093
218.892	36426.1638
219.113	1510.17448
219.334	-301.85237
219.555	9044.7174
219.776	3052.97326
219.997	22365.28362
220.219	2613.15973
220.44	-11411.85923
220.661	426.69831
220.882	1471.55407
221.103	-1016.82234
221.324	2229.36225
221.545	2215.9
221.766	-8747.8377
221.987	946.2956
222.208	1657.22283
222.429	4359.78812
222.65	172.25675
222.87	19134.69267
223.091	707.1994
223.312	554.93329
223.533	1350.49804
223.754	1459.46203
223.975	1372.25637
224.196	1885.57622
224.417	1347.37312
224.637	622.82196
224.858	96.79781
225.079	1090.59191
225.3	654.82068
225.521	3793.05275
225.741	467.5237
225.962	499.57613
226.183	138.85147
226.404	665.68718
226.624	425.45193
226.845	669.89126
227.066	409.69146
227.286	242.54265
227.507	131.31678
227.728	107.69641
227.948	232.97972
228.169	78.98966
228.389	85.9249
228.61	44.79855
228.831	63.25576
229.051	2.02259
229.272	37.22939
229.492	57.00624
229.713	13.57669
229.933	38.22361
230.154	32.66688
230.374	56.25451
230.595	38.07477
230.815	21.05575
231.036	40.60493
231.256	-9.61898
231.477	67.55693
231.697	38.00746
231.917	40.26
232.138	56.78023
232.358	114.0597
232.579	103.88887
232.799	16.57178
233.019	96.77035
233.24	114.22109
233.46	35.13949
233.68	59.1638
233.901	46.67554
234.121	26.29142
234.341	13.04089
234.561	-5.61567
234.782	22.11862
235.002	66.93256
235.222	-4.98374
235.442	63.9565
235.662	30.04922
235.883	60.95531
236.103	50.60227
236.323	35.26388
236.543	28.69548
236.763	38.84549
236.983	46.79951
237.203	40.08209
237.423	62.05474
237.643	86.58415
237.864	77.56299
238.084	18.29149
238.304	22.71512
238.524	43.5729
238.744	38.37137
238.964	74.21357
239.184	62.89186
239.404	63.34465
239.624	34.37677
239.843	57.2871
240.063	35.68816
240.283	20.05676
240.503	24.76485
240.723	25.0004
240.943	13.00944
241.163	20.08268
241.383	15.17322
241.603	7.15757
241.822	9.62603
242.042	6.19855
242.262	7.98398
242.482	9.01215
242.702	10.39549
242.921	2.85317
243.141	6.62256
243.361	6.28934
243.581	9.77027
243.8	7.05319
244.02	5.09166
244.24	9.3346
244.459	9.24293
244.679	17.51218
244.899	11.12545
245.118	12.54681
245.338	12.61052
245.558	14.22817
245.777	8.47035
245.997	9.93327
246.216	10.30723
246.436	6.43831
246.655	4.33522
246.875	3.16378
247.094	6.23428
247.314	1.97386
247.533	3.6727
247.753	4.37625
247.972	3.3032
248.192	1.43447
248.411	2.01646
248.631	3.65951
248.85	4.63302
249.07	3.87571
249.289	5.84297
249.508	5.09106
249.728	6.76296
249.947	7.06745
250.166	8.5406
250.386	4.42898
250.605	6.68678
250.824	10.65474
251.044	7.9915
251.263	28.82294
251.482	14.34105
251.701	11.42985
251.921	-0.75076
252.14	2.83811
252.359	3.88357
252.578	9.84185
252.798	3.35996
253.017	9.1652
253.236	4.10404
253.455	5.59022
253.674	9.91568
253.893	4.91079
254.112	8.00014
254.331	10.97418
254.551	8.66372
254.77	3.19085
254.989	12.44511
255.208	9.81203
255.427	15.24618
255.646	11.07423
255.865	21.66932
256.084	8.16136
256.303	10.25597
256.522	13.48513
256.741	2.97109
256.96	2.5987
257.179	8.55088
257.397	11.30932
257.616	5.57128
257.835	6.00021
258.054	15.4824
258.273	10.22379
258.492	11.17688
258.711	6.45798
258.93	2.93446
259.148	4.72134
259.367	4.59867
259.586	5.52064
259.805	2.25091
260.023	5.1122
260.242	3.82752
260.461	2.66468
260.68	1.2896
260.898	4.34931
261.117	1.34959
261.336	0.95575
261.554	3.61835
261.773	3.32483
261.992	0.60927
262.21	3.13031
262.429	3.44911
262.648	7.44929
262.866	8.35086
263.085	5.50583
263.303	4.67166
263.522	8.74758
263.74	8.65094
263.959	15.23276
264.178	7.21729
264.396	7.19564
264.615	4.45433
264.833	10.37043
265.051	8.81091
265.27	11.19298
265.488	11.39517
265.707	5.996
265.925	10.96611
266.144	4.49826
266.362	5.66245
266.58	5.17643
266.799	4.94417
267.017	6.2537
267.235	4.93309
267.454	3.06962
267.672	1.73948
267.89	3.94314
268.109	4.39863
268.327	4.16938
268.545	0.79328
268.763	3.78484
268.982	1.5222
269.2	4.18176
269.418	2.96022
269.636	1.95214
269.854	4.36095
270.073	3.02101
270.291	1.87007
270.509	1.72038
270.727	4.54386
270.945	7.40878
271.163	6.97763
271.381	1.18136
271.599	3.13806
271.817	5.3137
272.036	1.72143
272.254	3.10652
272.472	2.39961
272.69	2.42151
272.908	2.17706
273.126	4.49683
273.344	5.22618
273.562	1.70169
273.779	2.6874
273.997	3.87833
274.215	4.05376
274.433	2.85337
274.651	4.23057
274.869	4.61223
275.087	2.75258
275.305	3.86728
275.523	2.43279
275.74	3.02449
275.958	5.3056
276.176	8.02168
276.394	2.5546
276.612	3.05601
276.829	3.06832
277.047	2.50267
277.265	2.77533
277.483	3.31481
277.7	4.3897
277.918	3.44447
278.136	6.20508
278.353	2.84855
278.571	1.78669
278.789	4.32449
279.006	0.89366
279.224	2.92569
279.442	4.87761
279.659	3.49713
279.877	2.22961
280.094	5.87867
280.312	0.99077
280.529	3.54984
280.747	0.67269
280.964	2.54912
281.182	6.10675
281.399	2.76591
281.617	3.74641
281.834	2.59307
282.052	1.84329
282.269	3.01543
282.487	2.42151
282.704	2.00324
282.921	2.26497
283.139	3.3529
283.356	3.92276
283.574	3.7666
283.791	1.9675
284.008	5.49083
284.226	2.91891
284.443	3.21936
284.66	4.2393
284.877	3.41994
285.095	2.02795
285.312	1.63114
285.529	0.85274
285.746	0.78136
285.964	2.04603
286.181	1.31591
286.398	1.88946
286.615	2.65917
286.832	2.57404
287.05	0.50847
287.267	1.83816
287.484	1.71677
287.701	2.55556
287.918	2.61577
288.135	2.70031
288.352	1.22861
288.569	1.38719
288.786	2.42216
289.003	2.00972
289.22	2.94273
289.437	1.53175
289.654	2.85438
289.871	3.07416
290.088	2.95896
290.305	2.21871
290.522	1.71024
290.739	2.00741
290.956	3.14086
291.173	3.49383
291.39	3.38192
291.607	2.36776
291.824	1.67627
292.04	1.17404
292.257	2.83137
292.474	3.28974
292.691	1.94919
292.908	0.82972
293.125	1.71399
293.341	1.10044
293.558	5.00597
293.775	1.73767
293.992	1.922
294.208	0.97215
294.425	1.18692
294.642	1.90053
294.858	2.77432
295.075	0.65655
295.292	1.93904
295.508	2.30159
295.725	4.04252
295.942	1.6444
296.158	1.15785
296.375	2.01959
296.591	1.5049
296.808	1.68162
297.024	1.8692
297.241	2.18979
297.458	2.3703
297.674	0.08951
297.891	1.80658
298.107	1.33586
298.323	1.06195
298.54	3.02429
298.756	1.11296
298.973	0.64964
299.189	2.96721
299.406	1.11065
299.622	2.79521
299.838	2.72866
300.055	2.53068
300.271	0.47529
300.487	0.97273
300.704	1.17961
300.92	0.64794
301.136	4.09708
301.353	2.54402
301.569	1.8036
301.785	2.14667
302.001	2.59738
302.218	2.26853
302.434	2.30162
302.65	0.70944
302.866	1.50701
303.083	3.82859
303.299	3.64874
303.515	1.9243
303.731	2.17383
303.947	0.52561
304.163	1.2223
304.379	1.92571
304.595	2.38251
304.812	1.10283
305.028	1.13863
305.244	1.63966
305.46	2.68432
305.676	2.57504
305.892	3.12005
306.108	2.21325
306.324	1.34304
306.54	3.72288
306.756	2.52218
306.972	2.39623
307.187	1.57879
307.403	3.34519
307.619	1.45578
307.835	2.98631
308.051	3.49826
308.267	0.90648
308.483	2.87696
308.699	2.30237
308.914	1.961
309.13	1.74508
309.346	0.52086
309.562	0.93005
309.778	0.61377
309.993	2.46512
310.209	1.81711
310.425	0.86601
310.641	1.56664
310.856	0.93649
311.072	0.89272
311.288	1.76058
311.503	1.88124
311.719	0.31069
311.935	0.18456
312.15	2.1491
312.366	1.7638
312.581	2.16145
312.797	1.68351
313.013	2.46467
313.228	1.15506
313.444	1.75674
313.659	1.3046
313.875	2.29669
314.09	1.72748
314.306	3.2113
314.521	2.57127
314.737	2.60311
314.952	1.45665
315.168	1.64948
315.383	2.23591
315.599	1.67126
315.814	1.4375
316.029	2.50299
316.245	0.66184
316.46	0.45307
316.675	3.00006
316.891	3.4602
317.106	4.50261
317.321	2.10965
317.537	2.37866
317.752	2.66321
317.967	2.59965
318.183	0.97908
318.398	1.59044
318.613	2.67448
318.828	3.21898
319.043	2.5586
319.259	1.68626
319.474	2.14232
319.689	3.01452
319.904	0.43155
320.119	2.49107
320.334	2.19202
320.549	1.66851
320.765	2.93465
320.98	2.11024
321.195	2.40896
321.41	1.78909
321.625	2.51394
321.84	3.53728
322.055	3.59215
322.27	1.30157
322.485	1.00572
322.7	2.20955
322.915	2.85826
323.13	1.04921
323.345	3.1609
323.56	2.63641
323.775	2.30913
323.989	2.24558
324.204	2.11907
324.419	2.90395
324.634	0.85399
324.849	1.63701
325.064	4.84886
325.279	2.8102
325.493	2.35119
325.708	2.70303
325.923	1.28775
326.138	1.22237
326.352	3.41718
326.567	2.8913
326.782	1.57493
326.997	1.32368
327.211	2.50941
327.426	2.24169
327.641	1.57609
327.855	0.52317
328.07	2.14874
328.285	3.40607
328.499	1.3145
328.714	2.08423
328.928	2.59842
329.143	1.63786
329.358	2.66307
329.572	2.90456
329.787	2.94045
330.001	4.15254
330.216	0.79695
330.43	3.55782
330.645	3.50876
330.859	2.6872
331.074	1.41976
331.288	2.11403
331.503	3.03579
331.717	1.09029
331.931	2.11284
332.146	2.04452
332.36	3.61968
332.575	2.28494
332.789	2.37561
333.003	2.11401
333.218	2.38784
333.432	1.32668
333.646	2.63731
333.86	3.40078
334.075	3.29358
334.289	1.53558
334.503	1.1482
334.717	2.31959
334.932	2.25775
335.146	3.18212
335.36	1.61725
335.574	2.53634
335.788	2.33748
336.003	2.86414
336.217	2.38733
336.431	2.50075
336.645	1.39595
336.859	0.98168
337.073	1.71218
337.287	2.1443
337.501	1.0809
337.715	2.16859
337.929	2.74709
338.143	1.0277
338.357	1.87585
338.571	1.24776
338.785	2.28745
338.999	1.599
339.213	1.47136
339.427	0.67896
339.641	3.06143
339.855	1.76743
340.069	1.39591
340.283	2.80944
340.497	3.60503
340.711	2.13636
340.924	1.58257
341.138	0.90279
341.352	0.81177
341.566	2.18411
341.78	0.46673
341.993	1.50462
342.207	1.09207
342.421	2.00993
342.635	1.76323
342.848	1.39493
343.062	0.08248
343.276	1.27325
343.49	3.57773
343.703	1.41624
343.917	2.68501
344.131	2.62377
344.344	1.3603
344.558	1.53722
344.771	0.91779
344.985	3.32905
345.199	3.09497
345.412	2.02894
345.626	2.05685
345.839	0.5112
346.053	0.85548
346.266	0.87561
346.48	2.39681
346.693	2.10564
346.907	1.96292
347.12	1.08342
347.334	2.08825
347.547	2.02805
347.76	1.41658
347.974	2.84971
348.187	2.06825
348.401	1.27564
348.614	1.34733
348.827	1.39356
349.041	2.13525
349.254	0.46028
349.467	1.59412
349.681	0.6372
349.894	1.33602
350.107	2.80692
350.32	3.09329
350.534	0.53414
350.747	1.38758
350.96	1.13488
351.173	1.24962
351.386	1.50386
351.6	1.37332
351.813	1.21946
352.026	1.54343
352.239	0.53183
352.452	1.50454
352.665	2.4433
352.878	1.65255
353.092	3.33276
353.305	2.23816
353.518	1.90525
353.731	1.05227
353.944	2.6526
354.157	1.2376
354.37	0.99744
354.583	0.87583
354.796	0.32496
355.009	2.55741
355.222	1.93843
355.435	1.66281
355.647	2.32293
355.86	0.84722
356.073	1.62223
356.286	1.22874
356.499	2.14613
356.712	1.80962
356.925	2.09973
357.138	2.2534
357.35	0.92361
357.563	1.38127
357.776	1.66824
357.989	1.23529
358.201	1.89271
358.414	1.60157
358.627	2.51187
358.84	1.31225
359.052	0.67712
359.265	0.81963
359.478	2.37877
359.69	-0.37027
359.903	1.95206
360.116	2.22513
360.328	0.23481
360.541	2.15354
360.753	0.67093
360.966	1.03163
361.179	1.11153
361.391	1.01817
361.604	0.72936
361.816	1.11856
362.029	0.89436
362.241	0.73641
362.454	0.95246
362.666	0.73157
362.879	1.38307
363.091	1.1159
363.304	0.75873
363.516	1.34473
363.728	0.58832
363.941	1.78434
364.153	0.95504
364.366	-0.169
364.578	0.61284
364.79	1.59225
365.003	1.21165
365.215	0.99588
365.427	1.65529
365.639	2.19845
365.852	1.41143
366.064	3.04183
366.276	1.06545
366.488	1.68256
366.701	1.01325
366.913	1.31602
367.125	1.21816
367.337	0.79699
367.549	0.92267
367.762	1.5354
367.974	1.42135
368.186	0.70067
368.398	2.00089
368.61	1.77678
368.822	1.86504
369.034	1.34906
369.246	1.79147
369.458	3.41337
369.67	0.71742
369.882	2.70837
370.094	0.12058
370.306	2.61318
370.518	1.16837
370.73	0.80052
370.942	0.77161
371.154	1.18649
371.366	0.91396
371.578	1.40053
371.79	0.80164
372.002	2.16078
372.214	2.61605
372.425	1.38703
372.637	2.12193
372.849	1.56234
373.061	-0.00139
373.273	1.59376
373.484	1.54249
373.696	1.93355
373.908	-0.03106
374.12	2.22373
374.331	1.50931
374.543	0.8354
374.755	0.67304
374.967	1.49917
375.178	1.81187
375.39	1.11789
375.602	1.37564
375.813	0.40924
376.025	0.56428
376.236	1.39516
376.448	1.44146
376.66	0.94877
376.871	0.89182
377.083	2.26624
377.294	2.18538
377.506	0.94619
377.717	2.19062
377.929	1.464
378.14	0.80109
378.352	1.57428
378.563	1.41264
378.775	2.21921
378.986	0.66617
379.197	1.2598
379.409	0.87985
379.62	1.83203
379.832	1.61617
380.043	1.10136
380.254	1.33154
380.466	0.5746
380.677	3.36173
380.888	2.68428
381.1	3.10532
381.311	3.07234
381.522	1.31701
381.733	3.37927
381.945	1.1987
382.156	1.53014
382.367	0.96113
382.578	3.32946
382.789	3.15491
383.001	1.09584
383.212	2.22618
383.423	2.48054
383.634	2.2652
383.845	1.80843
384.056	1.06219
384.267	1.47679
384.478	1.34845
384.69	0.56106
384.901	1.62694
385.112	1.66505
385.323	2.43584
385.534	1.69568
385.745	1.59187
385.956	1.68581
386.167	0.73757
386.378	1.74607
386.588	0.70955
386.799	0.94533
387.01	0.42105
387.221	1.99011
387.432	1.28561
387.643	2.69402
387.854	1.2931
388.065	1.21822
388.275	1.38819
388.486	1.17234
388.697	1.31826
388.908	1.22088
389.119	2.32115
389.329	2.60569
389.54	1.48998
389.751	1.80342
389.962	2.39357
390.172	1.81191
390.383	1.17829
390.594	1.10954
390.804	1.12463
391.015	1.22333
391.226	1.58981
391.436	1.83903
391.647	1.75907
391.858	2.02285
392.068	0.49858
392.279	0.80255
392.489	1.61752
392.7	2.37659
392.91	0.95772
393.121	1.13095
393.331	1.90583
393.542	2.3178
393.752	2.06591
393.963	1.8862
394.173	1.7355
394.384	2.06699
394.594	1.71718
394.804	0.98093
395.015	1.77127
395.225	2.02211
395.436	1.10621
395.646	2.12156
395.856	1.26567
396.067	0.87244
396.277	2.38573
396.487	2.10429
396.697	1.94878
396.908	2.16203
397.118	2.2154
397.328	2.03447
397.538	2.48463
397.749	1.42839
397.959	2.3703
398.169	2.42441
398.379	1.10461
398.589	2.444
398.8	2.0097
399.01	1.91621
399.22	1.72976
399.43	3.50326
399.64	1.85943
399.85	2.55859
400.06	2.14595
400.27	1.6198
400.48	2.08926
400.69	3.08632
400.9	1.77474
401.11	1.6689
401.32	2.75468
401.53	1.96529
401.74	3.1977
401.95	2.63361
402.16	1.59235
402.37	2.49313
402.58	1.92321
402.79	2.70967
403	3.02996
403.209	1.97073
403.419	3.00013
403.629	1.93251
403.839	2.95132
404.049	2.87074
404.258	2.05115
404.468	2.00191
404.678	2.6721
404.888	3.07494
405.097	1.95029
405.307	2.42626
405.517	2.79949
405.727	2.71989
405.936	2.2771
406.146	2.66173
406.356	3.35589
406.565	2.55605
406.775	2.25803
406.984	2.29468
407.194	3.63841
407.404	2.62097
407.613	2.9978
407.823	3.2267
408.032	3.33125
408.242	3.46947
408.451	2.48753
408.661	2.6785
408.87	3.96082
409.08	2.44667
409.289	3.09218
409.499	3.08331
409.708	3.00887
409.918	1.79039
410.127	3.07391
410.336	4.05093
410.546	3.39771
410.755	2.7918
410.964	2.85372
411.174	2.55148
411.383	3.3367
411.592	3.36525
411.802	2.52191
412.011	3.63405
412.22	2.98578
412.429	4.24167
412.639	4.04988
412.848	3.90545
413.057	3.96124
413.266	4.0108
413.475	3.3263
413.685	3.66245
413.894	3.95369
414.103	4.20739
414.312	3.98002
414.521	3.43413
414.73	3.51053
414.939	4.84053
415.148	3.9344
415.357	3.80319
415.566	3.37462
415.776	3.47733
415.985	3.43452
416.194	4.11982
416.403	4.7933
416.611	3.00867
416.82	3.51271
417.029	3.89152
417.238	3.51833
417.447	3.41156
417.656	3.73598
417.865	3.49881
418.074	3.73196
418.283	3.94063
418.492	4.53409
418.7	4.34836
418.909	5.09548
419.118	4.3709
419.327	4.61288
419.536	4.46683
419.744	4.35178
419.953	5.423
420.162	5.48204
420.371	4.8351
420.579	5.02693
420.788	5.79821
420.997	5.92054
421.205	6.01303
421.414	5.77036
421.623	5.78122
421.831	5.4551
422.04	5.98537
422.249	5.18064
422.457	5.7862
422.666	5.06109
422.874	5.89075
423.083	6.07158
423.291	6.04335
423.5	5.89418
423.708	6.16906
423.917	6.48442
424.125	6.07145
424.334	5.9327
424.542	7.37824
424.751	6.85176
424.959	6.4913
425.167	6.70477
425.376	6.52339
425.584	5.5966
425.793	5.73275
426.001	4.98957
426.209	5.4243
426.418	4.58484
426.626	4.44338
426.834	4.36497
427.042	4.67023
427.251	4.34434
427.459	5.08147
427.667	4.68197
427.875	4.0262
428.084	4.40495
428.292	5.39377
428.5	5.03476
428.708	4.23633
428.916	4.17586
429.124	4.78123
429.333	4.57403
429.541	4.6671
429.749	4.82492
429.957	4.83354
430.165	6.39268
430.373	3.96797
430.581	4.94062
430.789	5.66758
430.997	4.71858
431.205	4.49923
431.413	5.15767
431.621	4.80882
431.829	5.41184
432.037	4.91743
432.245	5.32936
432.453	5.28371
432.661	5.06825
432.869	6.08207
433.076	4.70777
433.284	5.09264
433.492	5.53629
433.7	5.76972
433.908	4.94322
434.116	5.1972
434.323	5.24751
434.531	5.00816
434.739	5.39388
434.947	5.66448
435.154	5.59019
435.362	5.06817
435.57	4.966
435.778	4.75855
435.985	5.31556
436.193	4.92235
436.401	5.91884
436.608	5.21746
436.816	5.08692
437.023	6.01726
437.231	6.1979
437.439	5.46003
437.646	5.64298
437.854	5.47289
438.061	5.72316
438.269	5.30197
438.476	5.7668
438.684	5.43431
438.891	5.30194
439.099	5.11502
439.306	4.92874
439.514	4.93419
439.721	5.88961
439.929	5.53625
440.136	6.28337
440.343	6.25789
440.551	6.0531
440.758	7.41923
440.965	6.36093
441.173	6.04965
441.38	5.79209
441.587	5.92118
441.795	5.57439
442.002	5.50909
442.209	5.46186
442.416	5.70243
442.624	5.66351
442.831	5.50622
443.038	5.12519
443.245	4.95306
443.452	5.30146
443.66	5.7781
443.867	5.31387
444.074	5.30959
444.281	5.30879
444.488	5.49298
444.695	5.64524
444.902	5.47052
445.109	6.33415
445.316	6.09421
445.523	6.27563
445.73	6.21965
445.937	6.95365
446.144	7.34753
446.351	7.41433
446.558	6.64301
446.765	7.92551
446.972	7.69246
447.179	7.13928
447.386	7.76378
447.593	6.48971
447.8	7.20509
448.007	6.11225
448.214	5.86411
448.42	5.44808
448.627	5.96073
448.834	5.44905
449.041	5.39705
449.248	5.24079
449.454	5.81707
449.661	6.38846
449.868	5.19574
450.075	5.22507
450.281	4.47436
450.488	4.94822
450.695	5.03156
450.901	5.12568
451.108	5.13191
451.315	6.1661
451.521	5.476
451.728	6.1124
451.935	5.1997
452.141	5.56369
452.348	5.54685
452.554	5.48551
452.761	5.26948
452.967	6.36707
453.174	5.62896
453.38	5.77024
453.587	4.94618
453.793	5.56325
454	5.99606
454.206	6.63794
454.413	6.00675
454.619	5.76815
454.825	5.18491
455.032	5.87889
455.238	5.92748
455.445	5.02529
455.651	5.55534
455.857	4.66586
456.064	5.38795
456.27	5.33589
456.476	5.28543
456.682	4.83953
456.889	5.76448
457.095	5.82597
457.301	7.01109
457.507	5.76845
457.714	5.75411
457.92	5.767
458.126	5.40997
458.332	5.68527
458.538	5.5803
458.744	5.83628
458.951	5.80663
459.157	7.49765
459.363	6.63294
459.569	6.85727
459.775	7.36084
459.981	6.87409
460.187	7.14358
460.393	7.32997
460.599	7.6246
460.805	6.86472
461.011	6.16883
461.217	6.28993
461.423	6.12796
461.629	5.55635
461.835	5.84465
462.041	5.52731
462.247	6.39092
462.453	5.51426
462.658	5.53835
462.864	5.992
463.07	5.79238
463.276	5.75633
463.482	5.7169
463.688	6.55892
463.893	5.4967
464.099	5.59424
464.305	6.61792
464.511	5.48137
464.716	5.70782
464.922	6.19429
465.128	5.36152
465.333	6.70228
465.539	6.16604
465.745	5.71061
465.95	5.75814
466.156	7.28632
466.362	6.4949
466.567	5.81005
466.773	5.51049
466.978	6.61403
467.184	5.37492
467.389	4.83028
467.595	5.98007
467.8	5.41962
468.006	6.53555
468.211	6.33495
468.417	5.17655
468.622	5.99535
468.828	6.13728
469.033	6.00306
469.239	7.25805
469.444	5.55741
469.649	6.33685
469.855	5.80912
470.06	5.76635
470.266	5.42039
470.471	6.12451
470.676	6.06598
470.881	4.95221
471.087	6.61612
471.292	7.31504
471.497	5.20118
471.703	5.84845
471.908	5.60141
472.113	5.97477
472.318	6.39109
472.523	5.3576
472.729	6.06873
472.934	6.22805
473.139	5.64587
473.344	6.0491
473.549	6.41654
473.754	5.5769
473.959	7.34303
474.164	5.45398
474.369	5.73094
474.575	6.30955
474.78	5.83558
474.985	5.59602
475.19	5.00642
475.395	5.41758
475.6	5.91037
475.804	6.72688
476.009	5.92553
476.214	5.97825
476.419	5.84193
476.624	5.26343
476.829	5.57431
477.034	6.33145
477.239	5.63316
477.444	6.33416
477.648	6.33289
477.853	6.30983
478.058	5.81723
478.263	5.48024
478.468	5.4089
478.672	5.49001
478.877	6.65482
479.082	6.79507
479.287	6.12727
479.491	5.90967
479.696	5.56172
479.901	6.28762
480.105	6.41626
480.31	5.74148
480.515	6.07957
480.719	7.24149
480.924	5.91567
481.128	5.69892
481.333	6.34614
481.538	6.29643
481.742	6.43985
481.947	7.26773
482.151	8.05393
482.356	8.5723
482.56	10.24463
482.765	11.35044
482.969	13.56897
483.174	15.20187
483.378	17.57681
483.582	17.97482
483.787	19.38958
483.991	19.42893
484.196	19.55881
484.4	19.11245
484.604	19.26105
484.809	17.10388
485.013	16.08389
485.217	14.48888
485.422	12.89038
485.626	11.70856
485.83	11.17923
486.034	10.76247
486.239	11.20583
486.443	11.5837
486.647	11.84816
486.851	12.85028
487.055	13.90137
487.26	13.56037
487.464	14.26745
487.668	13.82064
487.872	14.06691
488.076	14.25095
488.28	13.57068
488.484	12.60103
488.688	12.15584
488.892	11.66155
489.096	10.83185
489.3	9.83401
489.504	9.31504
489.708	8.89733
489.912	8.78224
490.116	8.69131
490.32	8.28328
490.524	9.33688
490.728	10.02148
490.932	10.44456
491.136	11.04193
491.34	11.97313
491.544	12.12868
491.748	11.89559
491.951	11.98378
492.155	11.43979
492.359	11.0821
492.563	9.96549
492.767	9.24721
492.97	8.28317
493.174	7.32808
493.378	6.74647
493.582	5.91776
493.785	5.85161
493.989	6.0457
494.193	6.05159
494.396	5.82543
494.6	6.31871
494.804	6.00203
495.007	5.72044
495.211	5.90664
495.414	5.95991
495.618	6.30653
495.822	6.80456
496.025	6.26927
496.229	6.52781
496.432	5.96134
496.636	6.26019
496.839	6.0908
497.043	6.85788
497.246	6.36729
497.45	5.98909
497.653	6.15358
497.856	6.12829
498.06	5.62273
498.263	5.93319
498.467	5.8681
498.67	6.44153
498.873	6.23776
499.077	5.86089
499.28	5.92254
499.483	6.07849
499.686	6.33351
499.89	6.10077
500.093	6.48458
500.296	5.66889
500.499	6.68808
500.703	5.97722
500.906	6.12462
501.109	6.79415
501.312	6.00657
501.515	5.96634
501.719	6.15109
501.922	6.52203
502.125	6.19943
502.328	5.85097
502.531	5.59839
502.734	5.94566
502.937	5.19567
503.14	6.16369
503.343	5.65531
503.546	5.92851
503.749	5.74284
503.952	6.44994
504.155	5.6552
504.358	6.27241
504.561	6.10645
504.764	5.48436
504.967	6.02029
505.17	5.9641
505.373	6.67782
505.576	5.99714
505.778	6.31005
505.981	5.57161
506.184	6.56244
506.387	5.24001
506.59	7.0432
506.793	6.57484
506.995	6.30956
507.198	5.22246
507.401	6.36342
507.604	6.25219
507.806	5.63179
508.009	5.78261
508.212	6.5957
508.414	5.76306
508.617	5.90776
508.82	6.02968
509.022	6.81421
509.225	6.21556
509.427	5.44544
509.63	6.65437
509.833	6.03551
510.035	5.76755
510.238	5.27577
510.44	6.62583
510.643	5.1203
510.845	6.97445
511.048	6.1881
511.25	5.74563
511.453	5.89657
511.655	6.22323
511.858	5.801
512.06	6.36651
512.262	6.09308
512.465	6.42134
512.667	5.77778
512.869	5.43491
513.072	6.1579
513.274	6.23861
513.476	6.14514
513.679	6.39795
513.881	5.41686
514.083	6.65616
514.286	5.5888
514.488	5.52869
514.69	5.43574
514.892	5.26699
515.094	6.19139
515.297	5.56784
515.499	5.97886
515.701	5.5179
515.903	6.91139
516.105	6.87322
516.307	6.43995
516.509	5.16542
516.711	5.59237
516.913	6.20305
517.116	6.10385
517.318	5.91957
517.52	6.76323
517.722	6.54069
517.924	5.62031
518.126	6.39406
518.328	5.96467
518.529	6.58358
518.731	7.41687
518.933	5.9541
519.135	6.16388
519.337	6.71877
519.539	6.23273
519.741	5.12908
519.943	5.72182
520.145	5.6816
520.346	6.14013
520.548	5.63909
520.75	5.89419
520.952	5.6632
521.153	5.98778
521.355	5.99636
521.557	5.43977
521.759	5.95441
521.96	5.81807
522.162	5.36997
522.364	6.50062
522.565	5.54567
522.767	6.29615
522.969	6.39148
523.17	6.18449
523.372	6.11994
523.573	5.7785
523.775	5.88184
523.977	5.64016
524.178	7.06801
524.38	5.78541
524.581	6.54462
524.783	6.18764
524.984	6.65319
525.186	6.29949
525.387	6.76744
525.589	6.64844
525.79	6.65032
525.991	6.55203
526.193	7.10184
526.394	6.45862
526.596	7.27288
526.797	7.42255
526.998	7.15707
527.2	7.52754
527.401	9.23787
527.602	9.80922
527.803	11.69363
528.005	12.46437
528.206	13.28189
528.407	14.07819
528.608	13.91058
528.81	14.14185
529.011	13.56643
529.212	14.22441
529.413	12.98982
529.614	12.10161
529.815	11.33052
530.017	10.34566
530.218	9.03882
530.419	8.03702
530.62	7.90651
530.821	7.46371
531.022	6.49386
531.223	7.18492
531.424	7.14227
531.625	7.17887
531.826	6.95635
532.027	7.42623
532.228	8.50605
532.429	8.41719
532.63	8.68737
532.831	9.26274
533.032	9.40064
533.233	9.99387
533.433	9.72371
533.634	9.81845
533.835	9.12343
534.036	8.61344
534.237	8.24788
534.438	7.60935
534.638	6.62689
534.839	6.42649
535.04	6.41805
535.241	5.98738
535.441	6.86652
535.642	6.57069
535.843	6.03858
536.043	6.20676
536.244	6.44894
536.445	6.67113
536.645	7.32687
536.846	7.02804
537.047	7.42529
537.247	6.33167
537.448	6.16173
537.648	6.02431
537.849	5.80559
538.049	5.77687
538.25	6.10939
538.451	5.95061
538.651	5.5009
538.851	6.23392
539.052	6.61016
539.252	6.52037
539.453	6.17338
539.653	6.44393
539.854	6.40271
540.054	6.52563
540.254	7.81861
540.455	8.64819
540.655	8.59607
540.855	9.64902
541.056	10.55819
541.256	10.26453
541.456	10.96766
541.657	10.4487
541.857	11.17533
542.057	9.83773
542.257	9.40827
542.458	9.6608
542.658	9.47775
542.858	7.89589
543.058	8.11401
543.258	7.62048
543.458	6.45658
543.659	6.21772
543.859	6.82852
544.059	6.53945
544.259	6.05818
544.459	6.62807
544.659	5.92405
544.859	6.36607
545.059	5.89564
545.259	6.51091
545.459	6.37323
545.659	6.72286
545.859	6.30302
546.059	6.50898
546.259	5.90774
546.459	5.5779
546.659	5.75104
546.859	6.4893
547.059	6.31556
547.258	6.29571
547.458	6.28321
547.658	5.48555
547.858	5.45298
548.058	6.01822
548.258	5.64919
548.457	5.40242
548.657	7.13052
548.857	5.66322
549.057	6.34176
549.256	6.27431
549.456	5.60693
549.656	4.82326
549.855	7.13391
550.055	5.71799
550.255	6.8732
550.454	6.18928
550.654	6.55474
550.853	7.05429
551.053	6.53451
551.253	6.2812
551.452	6.57609
551.652	5.29237
551.851	5.26093
552.051	5.95612
552.25	5.9073
552.45	5.66284
552.649	5.76462
552.849	5.60568
553.048	6.14797
553.248	6.36362
553.447	5.39665
553.646	6.347
553.846	7.3234
554.045	6.66288
554.244	5.10285
554.444	6.66616
554.643	5.39597
554.842	6.86612
555.042	7.09677
555.241	5.53764
555.44	5.28116
555.64	6.18344
555.839	6.75055
556.038	6.39134
556.237	5.54979
556.436	6.04431
556.636	6.18051
556.835	5.44818
557.034	7.03936
557.233	5.93694
557.432	5.11795
557.631	6.58654
557.83	5.87292
558.029	5.6837
558.228	5.51685
558.427	5.46095
558.626	6.24856
558.825	5.41355
559.024	5.96291
559.223	7.12515
559.422	5.9657
559.621	6.37025
559.82	4.58043
560.019	5.93372
560.218	5.76493
560.417	4.47708
560.616	5.73948
560.815	8.14247
561.014	5.11724
561.212	7.13562
561.411	6.0664
561.61	5.21497
561.809	5.77228
562.008	7.17147
562.206	5.82464
562.405	6.27408
562.604	5.80456
562.803	6.06957
563.001	5.96428
563.2	5.12786
563.399	6.24856
563.597	5.30928
563.796	6.10517
563.995	5.18016
564.193	6.50791
564.392	5.74094
564.59	7.49792
564.789	5.00717
564.988	5.93814
565.186	6.26551
565.385	5.98985
565.583	6.0187
565.782	6.17504
565.98	5.87804
566.179	5.99019
566.377	5.43937
566.575	5.52792
566.774	6.83492
566.972	6.47007
567.171	7.24753
567.369	6.81022
567.567	6.10999
567.766	6.14106
567.964	4.56542
568.162	6.47604
568.361	6.85975
568.559	5.87131
568.757	6.1241
568.956	6.04929
569.154	6.14661
569.352	6.51775
569.55	6.05847
569.748	6.12829
569.947	5.63972
570.145	5.56743
570.343	5.42188
570.541	7.24841
570.739	5.32588
570.937	6.12213
571.135	6.50248
571.333	7.73271
571.532	7.59024
571.73	6.34875
571.928	6.85041
572.126	6.62051
572.324	5.85276
572.522	6.89065
572.72	7.77613
572.918	6.06729
573.116	6.36439
573.313	5.87218
573.511	6.03208
573.709	5.75257
573.907	6.69767
574.105	5.8736
574.303	5.12629
574.501	5.20715
574.699	6.43015
574.896	6.44387
575.094	6.63194
575.292	5.23355
575.49	6.7339
575.688	6.00813
575.885	7.04948
576.083	7.71342
576.281	6.56403
576.478	5.50607
576.676	6.46099
576.874	5.21366
577.071	6.00994
577.269	7.6724
577.467	6.11405
577.664	6.02754
577.862	6.82817
578.059	5.50316
578.257	6.5451
578.455	6.09015
578.652	5.98777
578.85	4.79929
579.047	6.31292
579.245	5.92402
579.442	6.30095
579.64	6.00403
579.837	5.00172
580.034	8.22635
580.232	5.9284
580.429	5.43578
580.627	6.54106
580.824	7.26396
581.021	6.62162
581.219	5.94152
581.416	5.66172
581.613	7.48929
581.811	7.31226
582.008	5.66479
582.205	7.06184
582.402	6.57679
582.6	7.32839
582.797	6.39883
582.994	6.74664
583.191	7.05017
583.388	6.37175
583.586	7.09356
583.783	7.53024
583.98	5.54661
584.177	6.56067
584.374	4.39988
584.571	6.24531
584.768	6.33132
584.965	6.10549
585.162	7.02057
585.359	7.77358
585.556	6.47401
585.753	6.75287
585.95	5.44183
586.147	5.70195
586.344	6.84876
586.541	6.31224
586.738	5.53937
586.935	6.52363
587.132	5.89969
587.329	7.37565
587.526	6.60201
587.722	10.72997
587.919	5.444
588.116	6.88188
588.313	7.78633
588.51	8.32127
588.706	6.48061
588.903	7.12626
589.1	7.34039
589.297	9.0652
589.493	6.55783
589.69	7.05731
589.887	6.10648
590.083	5.48912
590.28	6.03298
590.477	7.34056
590.673	6.96972
590.87	7.65118
591.067	5.92743
591.263	6.95029
591.46	6.74547
591.656	6.30423
591.853	8.01155
592.049	5.91456
592.246	6.05554
592.442	7.40387
592.639	7.68464
592.835	5.85551
593.032	6.85218
593.228	5.41167
593.425	5.59745
593.621	5.47653
593.817	6.75062
594.014	6.14092
594.21	6.93412
594.406	7.64099
594.603	6.77105
594.799	6.16213
594.995	4.81555
595.192	7.41171
595.388	6.39823
595.584	6.28215
595.78	5.54532
595.977	9.13259
596.173	8.13548
596.369	6.57409
596.565	5.96097
596.761	5.63623
596.957	7.49751
597.154	6.0334
597.35	6.03876
597.546	5.95856
597.742	6.79338
597.938	6.66566
598.134	5.81794
598.33	6.50883
598.526	7.36138
598.722	6.62032
598.918	7.94285
599.114	6.91089
599.31	5.37124
599.506	6.56867
599.702	5.92905
599.898	6.7754
600.094	7.49652
600.29	7.52683
600.485	7.37824
600.681	6.19765
600.877	8.29934
601.073	6.83393
601.269	8.81018
601.465	8.2308
601.66	5.95326
601.856	5.23716
602.052	8.8235
602.248	6.50782
602.443	5.14362
602.639	5.86178
602.835	6.23746
603.03	6.16881
603.226	7.81235
603.422	6.15261
603.617	6.68158
603.813	6.53033
604.009	6.44287
604.204	7.82634
604.4	5.74653
604.595	7.62779
604.791	5.81781
604.986	6.74864
605.182	5.86293
605.377	6.12832
605.573	6.18045
605.768	6.34219
605.964	6.80203
606.159	7.076
606.355	7.37025
606.55	6.09646
606.746	7.28083
606.941	6.64048
607.136	8.33246
607.332	9.2546
607.527	5.75456
607.722	7.02277
607.918	6.70265
608.113	6.19255
608.308	7.78745
608.503	7.52251
608.699	7.22196
608.894	7.47723
609.089	6.35456
609.284	7.39263
609.479	6.5069
609.675	7.56852
609.87	6.6315
610.065	7.49312
610.26	7.74342
610.455	7.5844
610.65	6.89231
610.845	7.32471
611.04	7.74491
611.235	6.83295
611.43	6.8842
611.625	6.12068
611.82	8.39288
612.015	6.60509
612.21	8.86156
612.405	5.97148
612.6	9.05362
612.795	8.84995
612.99	7.91938
613.185	6.27181
613.38	6.57831
613.575	7.61262
613.77	10.50886
613.965	6.06361
614.159	6.43914
614.354	8.4158
614.549	8.38648
614.744	7.81097
614.938	6.047
615.133	5.9212
615.328	8.45685
615.523	8.46301
615.717	10.41481
615.912	6.85522
616.107	7.31951
616.301	7.06119
616.496	6.47744
616.691	9.09804
616.885	7.95327
617.08	10.32114
617.274	8.3712
617.469	9.52869
617.664	7.97722
617.858	6.59635
618.053	7.62536
618.247	6.88705
618.442	4.95339
618.636	8.871
618.831	6.63461
619.025	6.58609
619.219	10.51716
619.414	4.01329
619.608	7.00607
619.803	6.4046
619.997	9.86701
620.191	8.64977
620.386	7.79096
620.58	7.35424
620.774	5.48051
620.969	5.51688
621.163	7.43538
621.357	5.79498
621.551	7.31115
621.746	7.57747
621.94	7.04507
622.134	11.01454
622.328	9.7668
622.522	5.94163
622.716	8.75041
622.911	8.57924
623.105	8.34208
623.299	7.87316
623.493	10.75524
623.687	6.52959
623.881	6.74461
624.075	8.16769
624.269	8.90381
624.463	5.03436
624.657	5.65366
624.851	7.94153
625.045	8.44188
625.239	8.59667
625.433	6.73978
625.627	9.45039
625.821	6.80073
626.015	6.52785
626.209	7.50403
626.403	5.54173
626.596	7.97962
626.79	8.23657
626.984	5.98142
627.178	7.91943
627.372	7.70921
627.565	8.08052
627.759	5.78815
627.953	6.09546
628.147	7.61824
628.34	8.23399
628.534	9.87769
628.728	6.87974
628.921	8.47474
629.115	8.2564
629.309	8.48939
629.502	8.74754
629.696	7.57119
629.89	7.25756
630.083	7.8318
630.277	7.79412
630.47	9.63253
630.664	7.21184
630.857	5.92188
631.051	8.45697
631.244	9.04139
631.438	8.64371
631.631	6.71551
631.825	9.18876
632.018	8.30856
632.212	10.05604
632.405	9.12285
632.598	6.67316
632.792	7.73379
632.985	4.86483
633.178	7.17821
633.372	7.67192
633.565	7.29992
633.758	9.19553
633.952	6.55652
634.145	6.48088
634.338	7.35885
634.531	7.08493
634.724	6.51642
634.918	7.64646
635.111	7.14345
635.304	6.77128
635.497	10.71065
635.69	7.93511
635.883	9.22864
636.077	6.24016
636.27	8.22841
636.463	7.97548
636.656	8.01779
636.849	7.28089
637.042	8.23369
637.235	10.3333
637.428	8.68467
637.621	8.31224
637.814	9.80835
638.007	9.79923
638.2	9.99884
638.393	10.44515
638.586	6.01028
638.778	7.04462
638.971	7.70839
639.164	9.95452
639.357	8.52129
639.55	9.91373
639.743	8.83095
639.935	8.8591
640.128	11.49729
640.321	9.42237
640.514	8.47524
640.707	11.59692
640.899	9.22028
641.092	6.05729
641.285	23.79547
641.477	5.16402
641.67	11.98393
641.863	10.20897
642.055	8.5726
642.248	8.38572
642.441	8.17193
642.633	9.37237
642.826	9.84635
643.018	10.50427
643.211	11.40907
643.403	11.67092
643.596	12.37142
643.788	10.90308
643.981	7.60838
644.173	9.57687
644.366	7.79923
644.558	6.25841
644.751	10.32234
644.943	6.82414
645.135	11.41171
645.328	11.04271
645.52	9.8541
645.712	10.21683
645.905	13.79152
646.097	7.01093
646.289	9.21549
646.482	12.29935
646.674	7.5243
646.866	10.32417
647.058	9.71485
647.251	7.38147
647.443	7.95414
647.635	8.20915
647.827	7.28978
648.019	6.92261
648.211	8.5346
648.404	9.1121
648.596	11.56538
648.788	9.2956
648.98	9.13258
649.172	9.82054
649.364	9.63636
649.556	6.29279
649.748	13.18953
649.94	7.32033
650.132	10.14011
650.324	7.82737
650.516	7.88659
650.708	10.63833
650.9	6.79211
651.092	6.47533
651.284	6.74111
651.476	7.12583
651.667	10.07311
651.859	11.42292
652.051	8.54427
652.243	9.17271
652.435	8.35573
652.627	9.85692
652.818	9.50153
653.01	6.38689
653.202	7.78781
653.394	8.21222
653.585	9.80685
653.777	16.40724
653.969	11.76253
654.16	11.20275
654.352	7.52031
654.544	8.91579
654.735	11.00762
654.927	9.37766
655.118	12.07098
655.31	10.67144
655.502	11.11246
655.693	8.76204
655.885	10.22306
656.076	11.80406
656.268	9.89517
656.459	12.02505
656.651	11.76157
656.842	8.66419
657.034	8.2992
657.225	10.77732
657.416	11.96616
657.608	11.90047
657.799	9.42176
657.99	11.44632
658.182	8.06437
658.373	8.237
658.564	11.47792
658.756	9.93667
658.947	9.14903
659.138	7.67288
659.33	8.47072
659.521	8.00972
659.712	8.87184
659.903	8.65392
660.094	8.16199
660.286	6.60667
660.477	12.09002
660.668	9.91468
660.859	8.80275
661.05	6.9407
661.241	9.89727
661.432	9.80869
661.623	8.81874
661.814	8.31035
662.006	6.82743
662.197	9.48223
662.388	11.78691
662.579	10.18493
662.77	11.85424
662.96	14.91855
663.151	11.64022
663.342	6.52073
663.533	10.84623
663.724	9.47493
663.915	13.58114
664.106	9.9514
664.297	13.27281
664.488	11.03467
664.678	8.71615
664.869	11.61265
665.06	11.70102
665.251	10.16289
665.442	11.4075
665.632	8.00995
665.823	14.07591
666.014	5.18944
666.204	11.58818
666.395	13.03945
666.586	14.7578
666.776	11.67517
666.967	13.57079
667.158	10.26939
667.348	13.23023
667.539	8.23254
667.729	12.36171
667.92	8.77388
668.111	12.24094
668.301	11.83401
668.492	9.51564
668.682	10.50362
668.873	10.31979
669.063	8.16193
669.253	10.52751
669.444	13.12548
669.634	10.11717
669.825	13.84659
670.015	12.52621
670.206	8.93148
670.396	14.7978
670.586	9.81812
670.777	11.38743
670.967	6.29475
671.157	9.89731
671.347	9.15334
671.538	13.83654
671.728	11.72869
671.918	14.53753
672.108	12.78367
672.299	10.22634
672.489	11.05823
672.679	9.34549
672.869	12.19964
673.059	15.63989
673.249	11.91384
673.44	8.55328
673.63	10.16375
673.82	12.73751
674.01	8.82744
674.2	12.05642
674.39	16.9706
674.58	12.10005
674.77	11.20396
674.96	10.79051
675.15	19.79271
675.34	13.46381
675.53	11.11058
675.72	9.91502
675.91	7.84504
676.099	15.14256
676.289	16.42851
676.479	13.35241
676.669	9.82456
676.859	12.47421
677.049	9.67382
677.238	11.45552
677.428	14.93021
677.618	11.92869
677.808	15.55325
677.997	12.33187
678.187	9.01805
678.377	11.44016
678.567	9.84124
678.756	10.55038
678.946	10.76165
679.136	8.33858
679.325	9.94242
679.515	9.36328
679.704	8.5114
679.894	13.14377
680.084	11.82059
680.273	13.8063
680.463	8.95759
680.652	8.90826
680.842	10.88957
681.031	12.85581
681.221	9.02298
681.41	12.04114
681.6	10.69435
681.789	12.31022
681.978	13.37615
682.168	11.66335
682.357	11.57705
682.547	12.06205
682.736	11.67246
682.925	14.19823
683.115	14.10872
683.304	13.0461
683.493	11.41799
683.682	12.77384
683.872	12.60493
684.061	14.62432
684.25	13.22314
684.439	17.53622
684.629	13.75405
684.818	19.91342
685.007	12.01705
685.196	11.13872
685.385	16.89819
685.574	13.16591
685.763	12.82902
685.952	12.63096
686.142	9.10629
686.331	15.21531
686.52	8.74661
686.709	17.3882
686.898	17.07355
687.087	14.0734
687.276	16.6591
687.465	15.86103
687.654	11.88243
687.842	16.11301
688.031	9.58823
688.22	16.32947
688.409	13.05836
688.598	13.05346
688.787	18.88084
688.976	12.72601
689.165	18.04894
689.353	11.88351
689.542	13.91254
689.731	15.99874
689.92	18.86527
690.108	14.90223
690.297	12.2893
690.486	14.10523
690.675	14.58916
690.863	17.31388
691.052	17.2361
691.241	13.99661
691.429	13.7789
691.618	16.52617
691.806	10.19457
691.995	12.91322
692.184	13.20631
692.372	12.41606
692.561	13.26582
692.749	14.50535
692.938	22.75696
693.126	15.44449
693.315	13.09188
693.503	15.82435
693.692	16.892
693.88	15.97214
694.068	19.3304
694.257	14.07326
694.445	15.42501
694.634	9.09726
694.822	16.68957
695.01	17.11459
695.199	20.42626
695.387	17.92268
695.575	17.66176
695.763	13.93742
695.952	12.98637
696.14	9.77445
696.328	12.69975
696.516	14.98891
696.705	15.08172
696.893	14.38848
697.081	9.83483
697.269	16.48245
697.457	11.12316
697.645	10.96278
697.833	16.02946
698.021	11.51265
698.21	11.97946
698.398	12.76937
698.586	10.44448
698.774	9.71994
698.962	12.76487
699.15	10.18099
699.338	9.0236
699.526	13.80369
699.714	10.68647
699.901	10.71436
700.089	14.29529
700.277	10.66462
700.465	12.20234
700.653	14.95948
700.841	14.37008
701.029	11.05725
701.217	17.61949
701.404	13.4539
701.592	17.62537
701.78	20.56004
701.968	13.25334
702.155	13.16356
702.343	11.2001
702.531	18.34718
702.718	15.39717
702.906	12.41032
703.094	12.76213
703.281	18.3284
703.469	13.32469
703.657	18.15262
703.844	25.21923
704.032	21.37473
704.219	14.21734
704.407	16.64173
704.595	20.25908
704.782	17.21558
704.97	15.21735
705.157	14.40459
705.345	22.04089
705.532	27.42484
705.719	18.61838
705.907	22.01542
706.094	18.17302
706.282	25.55981
706.469	18.43418
706.656	20.11401
706.844	18.3687
707.031	23.39775
707.218	21.44994
707.406	25.47287
707.593	22.57316
707.78	22.6019
707.968	20.78263
708.155	18.10319
708.342	23.15823
708.529	23.40235
708.716	22.07525
708.904	26.85014
709.091	22.77557
709.278	17.73963
709.465	27.29613
709.652	26.63871
709.839	25.15863
710.026	20.75947
710.213	15.14408
710.4	20.84901
710.587	22.19378
710.774	23.7508
710.961	24.39999
711.148	20.54712
711.335	23.13033
711.522	19.47955
711.709	22.01504
711.896	27.59978
712.083	24.14279
712.27	17.39642
712.457	21.248
712.644	15.60175
712.831	28.13958
713.017	21.69705
713.204	22.8157
713.391	18.15598
713.578	23.51199
713.765	25.48023
713.951	20.90306
714.138	31.36316
714.325	20.46661
714.512	19.11827
714.698	15.44623
714.885	24.1395
715.072	19.33293
715.258	18.32862
715.445	16.19499
715.631	22.56599
715.818	9.29195
716.005	15.41163
716.191	20.28476
716.378	16.56916
716.564	20.45699
716.751	14.37108
716.937	15.94055
717.124	21.30007
717.31	14.40595
717.497	25.57654
717.683	15.60574
717.869	25.35021
718.056	15.50734
718.242	20.02149
718.429	17.44545
718.615	13.81419
718.801	17.98263
718.988	22.26628
719.174	19.85316
719.36	17.07113
719.547	23.77262
719.733	19.42901
719.919	19.38412
720.105	20.7843
720.291	18.21162
720.478	18.93743
720.664	18.09631
720.85	16.29049
721.036	30.62
721.222	25.84387
721.408	18.20029
721.595	25.99786
721.781	25.60989
721.967	23.66313
722.153	26.30881
722.339	22.15764
722.525	20.88729
722.711	14.30934
722.897	13.53056
723.083	17.80847
723.269	24.05446
723.455	31.78998
723.641	37.00771
723.827	19.31558
724.012	20.84143
724.198	19.32588
724.384	24.68827
724.57	20.86042
724.756	13.75098
724.942	11.71659
725.127	25.08839
725.313	25.59219
725.499	24.87855
725.685	28.78841
725.87	21.44912
726.056	15.11924
726.242	25.18691
726.428	13.35447
726.613	23.53004
726.799	17.85423
726.985	15.07873
727.17	13.16655
727.356	29.23663
727.541	16.12278
727.727	19.45969
727.913	23.42084
728.098	18.20272
728.284	22.93226
728.469	14.8335
728.655	16.4379
728.84	25.13075
729.026	23.56914
729.211	23.19109
729.397	21.83117
729.582	23.12418
729.767	19.30431
729.953	21.50019
730.138	25.8127
730.323	9.77533
730.509	14.90844
730.694	27.89933
730.879	22.69389
731.065	21.45928
731.25	30.59999
731.435	23.41627
731.621	14.03886
731.806	18.0394
731.991	21.437
732.176	14.01331
732.361	27.44426
732.547	21.82695
732.732	13.36061
732.917	31.33919
733.102	14.76666
733.287	17.39955
733.472	19.72244
733.657	20.28444
733.842	13.60652
734.027	17.7592
734.212	19.24458
734.397	16.61269
734.582	20.45794
734.767	24.67226
734.952	26.91539
735.137	9.47102
735.322	26.71434
735.507	22.28556
735.692	21.7124
735.877	31.01778
736.062	30.08039
736.247	22.32243
736.431	19.72657
736.616	25.39971
736.801	22.9064
736.986	20.75345
737.171	15.71929
737.355	14.95253
737.54	27.64805
737.725	21.33894
737.909	35.84988
738.094	19.07461
738.279	24.38944
738.463	20.05352
738.648	23.86174
738.833	23.13327
739.017	31.95556
739.202	20.15427
739.386	19.44991
739.571	16.92051
739.756	25.43851
739.94	21.07719
740.125	24.06852
740.309	18.30771
740.494	25.64866
740.678	22.78781
740.863	24.69925
741.047	22.25039
741.231	29.99198
741.416	18.38729
741.6	29.9041
741.785	17.73776
741.969	26.28477
742.153	29.78065
742.338	11.39714
742.522	22.04727
742.706	25.1304
742.89	15.19587
743.075	21.36728
743.259	29.10548
743.443	28.82308
743.627	28.95651
743.812	35.27162
743.996	13.96321
744.18	21.16886
744.364	19.52642
744.548	36.51166
744.732	19.97502
744.916	26.76352
745.1	25.79401
745.285	20.30819
745.469	26.28557
745.653	31.41579
745.837	16.07438
746.021	34.67661
746.205	29.03308
746.389	22.96978
746.573	21.38867
746.757	31.87462
746.94	19.37326
747.124	30.23164
747.308	15.86903
747.492	28.72847
747.676	17.33873
747.86	37.65648
748.044	20.62712
748.227	13.64542
748.411	46.19169
748.595	23.97466
748.779	18.89208
748.963	25.51812
749.146	23.574
749.33	18.19472
749.514	17.95717
749.697	29.57002
749.881	18.9461
750.065	17.75918
750.248	23.73954
750.432	37.74235
750.616	22.78467
750.799	16.48196
750.983	38.90516
751.166	38.31613
751.35	14.12491
751.533	26.47009
751.717	33.36616
751.9	33.35596
752.084	21.8477
752.267	18.42591
752.451	18.61472
752.634	23.23945
752.818	27.0454
753.001	28.83725
753.184	30.60658
753.368	24.97521
753.551	5.09112
753.734	18.19443
753.918	38.64727
754.101	19.33337
754.284	28.12309
754.467	20.70175
754.651	19.27212
754.834	18.38086
755.017	29.75424
755.2	30.6978
755.384	16.74374
755.567	28.56474
755.75	28.5857
755.933	20.80158
756.116	28.12347
756.299	19.06384
756.482	17.95102
756.665	27.34783
756.848	23.2726
757.032	25.97816
757.215	16.11472
757.398	17.26196
757.581	18.92942
757.764	42.10896
757.947	23.75227
758.129	30.17299
758.312	7.98558
758.495	22.4369
758.678	21.88672
758.861	22.02176
759.044	36.07911
759.227	17.41694
759.41	18.32309
759.592	29.38399
759.775	21.95355
759.958	29.93726
760.141	16.43137
760.324	38.78819
760.506	34.11755
760.689	29.63986
760.872	38.82167
761.054	26.67427
761.237	22.73632
761.42	24.88997
761.602	29.32778
761.785	26.10713
761.968	30.97337
762.15	36.40085
762.333	23.08831
762.515	26.49412
762.698	21.1181
762.88	29.89835
763.063	26.77773
763.245	31.33599
763.428	18.5395
763.61	21.00216
763.793	16.63161
763.975	25.62764
764.158	21.3207
764.34	19.34197
764.522	17.07335
764.705	21.41248
764.887	33.40466
765.069	14.01497
765.252	25.98335
765.434	27.26638
765.616	24.66945
765.799	18.32456
765.981	27.35762
766.163	18.44712
766.345	32.1266
766.528	20.22662
766.71	10.25396
766.892	25.75162
767.074	32.454
767.256	22.00031
767.438	36.838
767.62	25.24945
767.802	41.72146
767.985	28.40401
768.167	37.23135
768.349	20.82921
768.531	28.84814
768.713	26.6501
768.895	29.50829
769.077	26.96378
769.259	44.70686
769.441	61.36989
769.623	29.16564
769.804	36.46889
769.986	34.37716
770.168	42.53561
770.35	53.05282
770.532	38.36158
770.714	42.37448
770.896	42.38738
771.077	17.08349
771.259	44.20236
771.441	40.04899
771.623	47.78261
771.804	59.1115
771.986	18.76766
772.168	29.70892
772.35	42.56775
772.531	61.89356
772.713	36.28072
772.894	49.58675
773.076	36.37247
773.258	29.01713
773.439	50.47775
773.621	56.51695
773.802	24.53414
773.984	29.97066
774.166	40.47018
774.347	54.3861
774.529	47.07371
774.71	16.00087
774.891	33.54873
775.073	30.9174
775.254	51.06497
775.436	30.37301
775.617	62.41888
775.799	31.64748
775.98	49.92108
776.161	58.14231
776.343	57.47379
776.524	36.19086
776.705	33.4179
776.886	16.28554
777.068	37.33393
777.249	87.32669
777.43	61.08304
777.611	24.90216
777.793	33.17522
777.974	59.57842
778.155	29.7427
778.336	24.14684
778.517	66.1433
778.698	29.27263
778.879	18.53634
779.061	9.16475
779.242	43.41955
779.423	42.41327
779.604	30.01091
779.785	33.084
779.966	40.61492
780.147	49.6872
780.328	48.70838
780.509	71.02997
780.69	51.14983
780.871	31.10877
781.051	21.4027
781.232	39.21213
781.413	39.51915
781.594	33.87138
781.775	32.41555
781.956	28.23997
782.137	14.56471
782.317	32.38859
782.498	39.46371
782.679	37.25212
782.86	40.55999
783.04	28.22898
783.221	40.2209
783.402	60.99005
783.583	37.06832
783.763	48.89514
783.944	31.79908
784.124	21.74695
784.305	59.14505
784.486	46.95623
784.666	36.32874
784.847	19.33805
785.027	79.42608
785.208	28.09299
785.388	29.02882
785.569	29.22469
785.749	34.22295
785.93	30.88529
786.11	20.89246
786.291	44.28202
786.471	39.518
786.652	47.49153
786.832	34.93034
787.012	40.56278
787.193	24.95984
787.373	38.22967
787.553	31.01687
787.734	39.33763
787.914	32.31378
788.094	48.72093
788.275	38.7231
788.455	33.69907
788.635	23.49189
788.815	39.80009
788.995	25.76364
789.176	21.35678
789.356	27.67535
789.536	34.57846
789.716	43.07353
789.896	27.49259
790.076	30.35136
790.256	41.06485
790.436	13.46001
790.616	25.16691
790.796	38.64939
790.976	30.92399
791.156	27.441
791.336	42.19402
791.516	39.97889
791.696	33.2928
791.876	20.34439
792.056	41.13262
792.236	47.83621
792.416	46.0231
792.596	40.99318
792.776	42.06777
792.956	44.64188
793.135	59.46158
793.315	23.34551
793.495	51.15047
793.675	47.25945
793.854	44.76178
794.034	48.13077
794.214	24.21075
794.394	45.78743
794.573	50.88747
794.753	39.27785
794.933	25.05507
795.112	40.54659
795.292	49.11545
795.472	60.44365
795.651	23.17871
795.831	37.61517
796.01	32.70464
796.19	33.65423
796.369	36.14646
796.549	40.61441
796.728	34.44334
796.908	21.35389
797.087	24.92548
797.267	34.00552
797.446	24.89211
797.626	42.42476
797.805	42.23693
797.984	28.01713
798.164	45.45224
798.343	26.98441
798.522	38.26575
798.702	38.51625
798.881	22.32559
799.06	33.59379
799.239	16.71142
799.419	26.60289
799.598	56.96129
799.777	41.65627
799.956	50.64073
800.136	32.0705
800.315	27.20613
800.494	41.63414
800.673	48.18184
800.852	45.18049
801.031	50.9933
801.21	43.12237
801.389	31.89751
801.568	39.69597
801.747	61.80848
801.926	35.8696
802.105	54.26555
802.284	31.4552
802.463	56.20622
802.642	41.25585
802.821	39.14938
803	54.11092
803.179	48.72902
803.358	49.49188
803.537	28.06219
803.716	37.80917
803.895	30.02819
804.073	34.75766
804.252	28.30674
804.431	41.18287
804.61	34.35158
804.789	48.38761
804.967	30.05763
805.146	30.67241
805.325	66.48237
805.503	42.71279
805.682	21.29446
805.861	82.07356
806.039	55.13842
806.218	30.6358
806.397	40.21036
806.575	37.1713
806.754	40.42358
806.932	25.20849
807.111	52.52316
807.289	49.13074
807.468	37.37786
807.646	49.96806
807.825	42.78209
808.003	41.03177
808.182	51.82038
808.36	36.98381
808.539	25.9481
808.717	57.37765
808.895	29.74978
809.074	41.74548
809.252	38.73229
809.43	47.78945
809.609	54.67992
809.787	63.76655
809.965	31.75411
810.144	38.25479
810.322	36.10984
810.5	41.84638
810.678	31.95098
810.856	68.00758
811.035	52.60356
811.213	47.98331
811.391	56.90471
811.569	41.09458
811.747	89.68403
811.925	55.30856
812.103	30.25654
812.281	36.67041
812.459	62.7567
812.637	61.59608
812.816	51.80672
812.994	68.86695
813.171	58.70467
813.349	45.89964
813.527	52.36089
813.705	56.54418
813.883	76.61888
814.061	51.78826
814.239	64.9576
814.417	71.25766
814.595	48.15661
814.773	46.63109
814.95	42.46228
815.128	46.67034
815.306	39.76473
815.484	39.18617
815.662	28.31729
815.839	25.82052
816.017	34.2464
816.195	55.18241
816.372	33.63117
816.55	50.08359
816.728	63.75259
816.905	37.90496
817.083	65.14795
817.261	40.83404
817.438	83.64927
817.616	65.58217
817.793	35.32771
817.971	51.0424
818.148	52.11099
818.326	61.18889
818.503	45.63856
818.681	65.54854
818.858	37.14387
819.036	41.5542
819.213	42.89776
819.391	33.84788
819.568	31.32829
819.745	27.51463
819.923	51.13993
820.1	36.56011
820.277	30.61894
820.455	36.29823
820.632	38.39453
820.809	42.29886
820.986	26.04778
821.164	22.2641
821.341	19.67744
821.518	30.69882
821.695	21.92894
821.872	20.34866
822.05	17.46203
822.227	14.04392
822.404	14.79963
822.581	16.67252
822.758	13.92595
822.935	14.15891
823.112	15.69702
823.289	12.94841
823.466	15.45418
823.643	14.05323
823.82	17.01798
823.997	14.52722
824.174	17.24095
824.351	23.57056
824.528	21.626
824.705	19.39975
824.882	21.74765
825.059	28.92581
825.236	20.02699
825.412	21.48561
825.589	26.05828
825.766	39.80671
825.943	23.70307
826.12	27.97431
826.296	19.85323
826.473	26.62057
826.65	25.99694
826.827	32.06972
827.003	21.23441
827.18	24.19779
827.357	26.83092
827.533	22.589
827.71	12.54569
827.887	19.53658
828.063	22.50827
828.24	18.38407
828.416	25.64068
828.593	20.90956
828.769	29.21674
828.946	29.98898
829.122	31.55604
829.299	30.1619
829.475	18.14982
829.652	29.76968
829.828	50.48991
830.005	31.70274
830.181	46.07534
830.357	31.50534
830.534	46.55805
830.71	35.50421
830.886	45.14078
831.063	42.10228
831.239	56.10921
831.415	26.20727
831.592	58.12043
831.768	35.38575
831.944	30.57283
832.12	63.71508
832.296	60.04313
832.473	48.54091
832.649	34.3885
832.825	50.14419
833.001	29.06099
833.177	43.56557
833.353	39.96122
833.529	23.48733
833.705	36.83651
833.881	24.12574
834.058	22.61495
834.234	25.02631
834.41	25.1742
834.586	19.26702
834.761	23.13016
834.937	25.88086
835.113	26.60729
835.289	22.17542
835.465	26.99767
835.641	23.39247
835.817	25.15606
835.993	46.56326
836.169	22.71419
836.344	34.94065
836.52	40.70888
836.696	37.21113
836.872	28.79688
837.048	87.82703
837.223	32.33448
837.399	62.26841
837.575	49.01601
837.75	46.1177
837.926	65.4251
838.102	101.0902
838.277	80.43316
838.453	113.7579
838.628	108.71337
838.804	43.15808
838.98	96.16564
839.155	48.54128
839.331	70.81408
839.506	45.87032
839.682	50.40325
839.857	69.69155
840.033	82.90063
840.208	37.87443
840.384	18.98551
840.559	37.64164
840.734	58.33783
840.91	76.24626
841.085	47.25864
841.26	45.69774
841.436	39.70746
841.611	41.902
841.786	61.48726
841.962	81.54101
842.137	49.04368
842.312	31.27885
842.487	42.62217
842.663	35.95172
842.838	45.86543
843.013	149.75571
843.188	74.38226
843.363	74.58095
843.538	122.4047
843.714	123.6855
843.889	138.70944
844.064	135.35507
844.239	110.06665
844.414	128.88847
844.589	87.76192
844.764	158.31238
844.939	157.02551
845.114	171.72642
845.289	160.7328
845.464	226.49322
845.639	149.34223
845.814	74.57995
845.989	83.34139
846.163	108.96768
846.338	113.62
846.513	156.53409
846.688	107.59897
846.863	108.77619
847.038	95.35781
847.212	110.83551
847.387	113.79285
847.562	117.65117
847.737	143.07371
847.911	51.23678
848.086	67.3368
848.261	233.70116
848.435	94.74092
848.61	151.29306
848.785	76.63423
848.959	158.00392
849.134	209.4465
849.308	221.09389
849.483	118.57952
849.658	186.51639
849.832	103.14249
850.007	81.52613
850.181	244.82813
850.356	90.61311
850.53	229.78766
850.705	76.2068
850.879	39.38342
851.053	108.36075
851.228	94.4899
851.402	136.68402
851.577	162.40207
851.751	183.84015
851.925	128.01245
852.099	59.52064
852.274	85.38689
852.448	109.06722
852.622	145.29931
852.797	111.27084
852.971	111.07521
853.145	114.36708
853.319	341.73166
853.493	173.36257
853.668	94.81366
853.842	219.5675
854.016	176.0481
854.19	207.05444
854.364	131.54299
854.538	130.17124
854.712	180.52271
854.886	110.59436
855.06	100.45284
855.234	43.73318
855.408	191.16965
855.582	164.89255
855.756	164.46822
855.93	212.39917
856.104	150.53517
856.278	168.27593
856.452	113.86686
856.626	159.18574
856.8	261.73867
856.973	151.47416
857.147	139.91058
857.321	142.8145
857.495	180.04706
857.669	115.08531
857.842	105.24004
858.016	179.12178
858.19	84.77628
858.364	285.79416
858.537	105.71514
858.711	123.28037
858.885	113.16224
859.058	95.76189
859.232	51.11099
859.405	62.41389
859.579	164.12414
859.753	133.42056
859.926	95.17111
860.1	60.54078
860.273	125.18945
860.447	204.29157
860.62	108.79569
860.794	241.53718
860.967	139.64117
861.141	179.89577
861.314	261.84329
861.487	149.96998
861.661	199.82247
861.834	198.18576
862.008	178.09234
862.181	121.82308
862.354	129.68267
862.528	152.22027
862.701	103.79048
862.874	64.7224
863.047	110.49625
863.221	108.58308
863.394	53.59356
863.567	203.00826
863.74	45.36363
863.913	165.42419
864.087	138.79139
864.26	167.12178
864.433	117.52836
864.606	222.00593
864.779	124.72744
864.952	56.52143
865.125	106.4879
865.298	117.7844
865.471	127.37816
865.644	263.41673
865.817	210.02429
865.99	171.48972
866.163	187.13792
866.336	113.85017
866.509	121.86262
866.682	103.2052
866.855	188.6889
867.028	76.288
867.2	156.76305
867.373	45.98963
867.546	131.97684
867.719	255.71461
867.892	157.00904
868.064	83.55119
868.237	149.01296
868.41	117.88028
868.583	71.58308
868.755	75.94237
868.928	120.53904
869.101	269.25756
869.273	189.8806
869.446	153.46755
869.619	181.94137
869.791	120.12679
869.964	185.2556
870.136	171.22597
870.309	134.77654
870.481	136.52858
870.654	56.92283
870.826	140.95625
870.999	109.25688
871.171	172.87047
871.344	106.95739
871.516	111.00956
871.689	90.39779
871.861	132.69757
872.033	93.2957
872.206	114.35323
872.378	176.2443
872.55	116.23088
872.723	70.69537
872.895	113.18705
873.067	182.76091
873.24	205.7389
873.412	107.9679
873.584	115.19274
873.756	109.35337
873.928	149.91272
874.101	144.57316
874.273	162.52868
874.445	50.02139
874.617	73.11558
874.789	137.71458
874.961	109.57956
875.133	150.99634
875.305	131.5266
875.477	88.86689
875.649	64.74962
875.821	84.04592
875.993	222.00768
876.165	86.11279
876.337	144.58914
876.509	114.78592
876.681	148.12308
876.853	133.90473
877.025	138.02122
877.197	92.99687
877.369	84.36645
877.541	178.13839
877.712	50.03942
877.884	78.30831
878.056	158.9205
878.228	84.14062
878.4	150.50961
878.571	85.76605
878.743	60.33465
878.915	140.98833
879.086	80.79911
879.258	103.43239
879.43	94.79119
879.601	81.6999
879.773	86.87292
879.945	20.95689
880.116	37.64532
880.288	24.42559
880.459	27.41233
880.631	20.52633
880.802	25.58601
880.974	23.51779
881.145	16.96147
881.317	22.20492
881.488	16.50336
881.66	18.38117
881.831	16.87199
882.002	22.55392
882.174	16.57328
882.345	21.62529
882.517	11.65303
882.688	24.64464
882.859	20.40682
883.03	32.70915
883.202	30.32807
883.373	25.69401
883.544	25.46838
883.715	46.63643
883.887	37.3972
884.058	30.25768
884.229	44.98765
884.4	45.00565
884.571	52.26739
884.742	45.45862
884.914	48.56096
885.085	73.23883
885.256	91.35228
885.427	75.82684
885.598	92.46778
885.769	94.12886
885.94	89.75826
886.111	58.3848
886.282	107.92176
886.453	83.70696
886.624	59.06334
886.795	108.14106
886.966	88.47955
887.136	114.67549
887.307	74.92542
887.478	152.2231
887.649	128.60856
887.82	134.8055
887.991	103.10643
888.161	146.75332
888.332	147.57595
888.503	72.89658
888.674	194.00688
888.844	210.4078
889.015	167.28462
889.186	75.6299
889.356	194.95141
889.527	69.51407
889.698	341.38091
889.868	110.51774
890.039	142.39522
890.209	123.75532
890.38	169.03821
890.551	143.05141
890.721	209.38536
890.892	169.11077
891.062	111.20005
891.233	142.27692
891.403	108.87909
891.574	84.62976
891.744	113.55227
891.914	159.98026
892.085	126.12596
892.255	45.07696
892.425	200.59052
892.596	157.45724
892.766	145.88161
892.936	206.92587
893.107	171.43864
893.277	90.82869
893.447	70.99056
893.618	49.36608
893.788	113.55601
893.958	54.69283
894.128	62.61916
894.298	66.85044
894.468	98.62148
894.639	42.51822
894.809	30.34976
894.979	47.88352
895.149	57.25396
895.319	45.3676
895.489	66.84445
895.659	81.23603
895.829	52.84164
895.999	57.71172
896.169	41.75787
896.339	50.50619
896.509	110.4869
896.679	119.80419
896.849	112.93706
897.019	167.18022
897.189	123.6856
897.358	107.77633
897.528	165.91299
897.698	53.79361
897.868	153.38604
898.038	263.75735
898.208	243.60245
898.377	77.68348
898.547	253.27102
898.717	406.153
898.886	157.96344
899.056	252.73556
899.226	372.29999
899.395	213.29914
899.565	284.8842
899.735	184.69991
899.904	300.73408
900.074	267.5677
900.244	115.02977
900.413	482.34454
900.583	102.78764
900.752	169.42147
900.922	295.62175
901.091	29.70537
901.261	247.42407
901.43	229.33633
901.599	238.73977
901.769	547.64533
901.938	280.97257
902.108	268.45266
902.277	356.11061
902.446	91.4247
902.616	114.57095
902.785	161.54034
902.954	269.75729
903.124	179.5425
903.293	150.51823
903.462	78.73081
903.631	116.35977
903.801	86.74205
903.97	45.44225
904.139	78.08344
904.308	57.97941
904.477	48.01212
904.646	27.91979
904.816	41.82805
904.985	63.11144
905.154	93.80266
