Data from WindowProjectSample_Transmission__32__00032__05244533557277903.txt Node

Date: Mon May 05 17:36:46 EDT 2025
User: jessi
Spectrometer: SR400872
Trigger mode: 0
Integration Time (sec): 5.000010E-1
Scans to average: 20
Electric dark correction enabled: true
Nonlinearity correction enabled: true
Boxcar width: 0
XAxis mode: Wavelengths
Number of Pixels in Spectrum: 3648
>>>>>Begin Spectral Data<<<<<
184.909	20540.87083
185.132	-5162.93268
185.355	-2961.05563
185.578	-17867.18977
185.801	1529.82046
186.024	10289.06889
186.247	-2015.003
186.47	1232.27794
186.693	349.06226
186.916	360.56581
187.139	-3703.31868
187.362	3480.09825
187.585	4035.13224
187.808	3305.59335
188.031	27.3806
188.254	-55343.85498
188.476	-579.26483
188.699	6360.15688
188.922	757.6749
189.145	-15402.21646
189.368	-635.29155
189.591	-1317.20364
189.813	3148.08634
190.036	-51484.35385
190.259	-888.30041
190.482	-4310.29797
190.705	7202.97487
190.927	-2540.62384
191.15	13641.68104
191.373	3464.50757
191.595	-8866.6983
191.818	-4179.91739
192.041	-7867.27466
192.263	-3423.94848
192.486	-952.02917
192.709	-3930.7538
192.931	7803.27526
193.154	-29119.14582
193.377	-2924.80462
193.599	-2576.36094
193.822	-10091.41069
194.044	-1877.96884
194.267	1133.59541
194.489	127.90205
194.712	-43544.4627
194.934	-32080.15798
195.157	1102.80462
195.379	1378.08945
195.602	-7134.0662
195.824	-1359.45914
196.047	-8871.33172
196.269	2783.50357
196.492	-6623.16314
196.714	29374.02874
196.936	-8476.99469
197.159	-1178.31605
197.381	1190.53225
197.604	459.87375
197.826	12063.44643
198.048	-10880.50096
198.271	-2881.67438
198.493	7570.14092
198.715	2409.42362
198.938	-507.07543
199.16	7438.08989
199.382	-102739.86026
199.604	2800.9035
199.827	-1057.7059
200.049	-2986.10222
200.271	14621.86538
200.493	1252.92521
200.715	-38909.91168
200.938	-6070.68223
201.16	-4361.24988
201.382	21236.4462
201.604	2311.86973
201.826	2235.47325
202.048	-1972.19102
202.27	-2007.8177
202.492	-38185.47094
202.715	3135.28336
202.937	-4604.17477
203.159	-6166.26006
203.381	1578.61091
203.603	7077.12546
203.825	7227.01435
204.047	2244.51977
204.269	-2770.00368
204.491	2212.11297
204.713	6039.92488
204.935	-488885.60055
205.156	1155.11168
205.378	-3031.0464
205.6	1601.07374
205.822	155728.62594
206.044	-944.00507
206.266	1657.46645
206.488	4417.09096
206.71	-5189.42757
206.932	1145.73531
207.153	12423.95096
207.375	-7007.79236
207.597	-38613.94816
207.819	-2901.8778
208.041	2383.26298
208.262	527.65143
208.484	714.73641
208.706	-823.50554
208.927	-790.07463
209.149	552.37732
209.371	-2956.77324
209.593	-359.35387
209.814	-730.01922
210.036	559.43231
210.258	-657.37331
210.479	1833.74576
210.701	1751.05576
210.922	3359.05576
211.144	-3938.29642
211.366	2144.25567
211.587	8029.18282
211.809	-8134.30267
212.03	2403.96227
212.252	491.34919
212.473	2065.63945
212.695	-6946.03789
212.916	3234.80095
213.138	-784.7581
213.359	3747.49644
213.581	5401.00383
213.802	-840.97264
214.024	1119.42709
214.245	2088.71721
214.466	3496.92375
214.688	-3151.50529
214.909	-1241.04718
215.131	-1718.46544
215.352	-3111.62477
215.573	14560.00713
215.795	5208.91153
216.016	5406.51743
216.237	791.25276
216.459	3613.3933
216.68	1791.57408
216.901	5143.28541
217.122	-3536.14459
217.344	-11629.6678
217.565	3464.27522
217.786	9078.47882
218.007	15434.91874
218.228	-743.3577
218.45	5662.66207
218.671	815.19227
218.892	39528.26221
219.113	1501.3354
219.334	-332.56258
219.555	10252.58675
219.776	3251.80113
219.997	22988.08275
220.219	3027.05962
220.44	-11395.61327
220.661	480.96224
220.882	1562.03563
221.103	-1096.91361
221.324	2522.03443
221.545	2287.35378
221.766	-9393.164
221.987	989.80968
222.208	1622.37339
222.429	4242.67817
222.65	304.17759
222.87	18596.60589
223.091	762.50253
223.312	590.64416
223.533	1318.93031
223.754	1505.73773
223.975	1430.35037
224.196	2005.34923
224.417	1371.21632
224.637	631.43326
224.858	127.18525
225.079	1170.35666
225.3	660.70552
225.521	3794.93841
225.741	488.64443
225.962	522.7016
226.183	167.30331
226.404	679.89576
226.624	411.72413
226.845	662.99106
227.066	411.11645
227.286	264.60776
227.507	133.4761
227.728	120.85045
227.948	248.86376
228.169	78.21634
228.389	92.28324
228.61	53.63386
228.831	70.31539
229.051	9.02357
229.272	47.30419
229.492	64.99347
229.713	21.1105
229.933	44.12993
230.154	41.49761
230.374	60.64479
230.595	44.19422
230.815	28.53156
231.036	49.42103
231.256	-2.52386
231.477	76.28436
231.697	47.10929
231.917	50.90145
232.138	65.71477
232.358	123.79076
232.579	107.82593
232.799	26.62503
233.019	111.35345
233.24	119.60807
233.46	49.21267
233.68	75.77411
233.901	47.70511
234.121	36.0099
234.341	20.6517
234.561	1.46044
234.782	29.49873
235.002	76.9638
235.222	2.45659
235.442	74.55183
235.662	42.08991
235.883	66.5828
236.103	56.36135
236.323	42.34886
236.543	34.65373
236.763	49.5338
236.983	55.51343
237.203	44.2031
237.423	65.77444
237.643	97.69329
237.864	77.34366
238.084	25.37193
238.304	37.39816
238.524	46.94362
238.744	48.25107
238.964	84.8937
239.184	70.81365
239.404	72.62597
239.624	45.60156
239.843	66.87907
240.063	43.88462
240.283	27.24926
240.503	32.32195
240.723	33.63593
240.943	22.42124
241.163	27.0517
241.383	21.39435
241.603	15.32571
241.822	16.35687
242.042	13.8178
242.262	16.42884
242.482	16.48131
242.702	18.85047
242.921	10.54121
243.141	14.49729
243.361	13.78077
243.581	16.81049
243.8	15.09115
244.02	12.97448
244.24	16.21547
244.459	16.4652
244.679	25.21589
244.899	18.87499
245.118	19.7165
245.338	19.85392
245.558	19.46303
245.777	15.73967
245.997	17.98823
246.216	17.40277
246.436	13.7967
246.655	12.26065
246.875	11.58184
247.094	15.27511
247.314	11.19819
247.533	13.65706
247.753	13.26443
247.972	13.34831
248.192	10.16086
248.411	11.56269
248.631	12.79065
248.85	14.10205
249.07	13.625
249.289	14.81343
249.508	13.52045
249.728	16.16551
249.947	14.66494
250.166	17.59751
250.386	11.75904
250.605	13.49027
250.824	18.6798
251.044	14.51313
251.263	35.74348
251.482	22.89129
251.701	18.77732
251.921	7.32141
252.14	10.33728
252.359	11.89311
252.578	17.8059
252.798	12.09155
253.017	15.98388
253.236	11.43594
253.455	13.92937
253.674	17.61962
253.893	12.7775
254.112	15.73885
254.331	19.12617
254.551	15.84547
254.77	11.91627
254.989	20.232
255.208	16.8775
255.427	23.90532
255.646	19.29792
255.865	28.47583
256.084	16.44236
256.303	18.66295
256.522	21.23951
256.741	10.05064
256.96	9.70697
257.179	15.28366
257.397	17.83884
257.616	13.75642
257.835	13.63374
258.054	21.98733
258.273	18.83654
258.492	17.58693
258.711	14.22326
258.93	11.28843
259.148	13.1407
259.367	12.32396
259.586	14.38187
259.805	11.84944
260.023	14.50902
260.242	13.91975
260.461	13.43091
260.68	11.60945
260.898	14.91177
261.117	11.933
261.336	10.71922
261.554	13.52099
261.773	12.79797
261.992	10.55432
262.21	11.57224
262.429	11.69554
262.648	15.25878
262.866	16.2472
263.085	14.10076
263.303	12.80508
263.522	17.03674
263.74	16.29666
263.959	23.35971
264.178	15.61273
264.396	14.07633
264.615	12.29569
264.833	17.60101
265.051	15.78597
265.27	19.21194
265.488	18.13488
265.707	13.25947
265.925	17.8725
266.144	12.19787
266.362	13.15225
266.58	12.83805
266.799	13.02015
267.017	14.36889
267.235	13.52011
267.454	11.26399
267.672	10.16465
267.89	12.52528
268.109	12.95255
268.327	13.54578
268.545	9.34823
268.763	12.36517
268.982	9.74753
269.2	11.82095
269.418	11.50195
269.636	10.38326
269.854	12.90764
270.073	11.14752
270.291	10.22844
270.509	9.34797
270.727	12.55424
270.945	15.14039
271.163	15.31216
271.381	9.9424
271.599	12.45977
271.817	13.87092
272.036	10.93326
272.254	12.43744
272.472	11.72489
272.69	11.53518
272.908	11.86136
273.126	13.75947
273.344	14.71218
273.562	10.42941
273.779	12.30707
273.997	13.82533
274.215	13.01678
274.433	11.59273
274.651	13.51773
274.869	12.88706
275.087	11.23391
275.305	12.12155
275.523	11.36532
275.74	11.12479
275.958	14.33778
276.176	16.13676
276.394	11.07433
276.612	11.88836
276.829	12.12332
277.047	11.28783
277.265	11.14186
277.483	11.81609
277.7	12.64793
277.918	11.71951
278.136	14.44151
278.353	10.95219
278.571	10.0482
278.789	12.17077
279.006	9.00498
279.224	11.12575
279.442	13.16263
279.659	12.1608
279.877	11.45727
280.094	13.60769
280.312	9.70697
280.529	12.03939
280.747	9.8914
280.964	11.39499
281.182	14.82599
281.399	11.05419
281.617	12.73783
281.834	10.974
282.052	10.97699
282.269	12.43941
282.487	11.71443
282.704	11.4078
282.921	11.25925
283.139	12.44892
283.356	13.23937
283.574	13.54659
283.791	10.78506
284.008	14.66428
284.226	12.71783
284.443	12.35469
284.66	14.04287
284.877	13.13489
285.095	11.94759
285.312	10.90994
285.529	10.77061
285.746	10.78144
285.964	12.0893
286.181	11.4641
286.398	12.40457
286.615	12.71535
286.832	13.03904
287.05	10.66836
287.267	11.92073
287.484	11.6906
287.701	12.34311
287.918	12.13007
288.135	12.72701
288.352	10.59028
288.569	11.20507
288.786	11.76117
289.003	11.42972
289.22	12.69201
289.437	11.08601
289.654	12.36342
289.871	12.68687
290.088	12.75483
290.305	12.6886
290.522	12.18771
290.739	12.17985
290.956	13.10712
291.173	13.48257
291.39	13.24606
291.607	12.53566
291.824	11.80665
292.04	11.5772
292.257	12.75359
292.474	13.03786
292.691	11.5417
292.908	10.62606
293.125	11.11068
293.341	10.42792
293.558	13.8826
293.775	11.37118
293.992	11.2099
294.208	10.18482
294.425	10.93491
294.642	11.61789
294.858	12.13107
295.075	10.41361
295.292	11.53401
295.508	12.05061
295.725	13.72344
295.942	11.80034
296.158	11.46655
296.375	12.39599
296.591	11.67428
296.808	12.34539
297.024	12.77576
297.241	13.01578
297.458	13.24162
297.674	11.46304
297.891	12.67516
298.107	12.87084
298.323	12.14689
298.54	14.35636
298.756	12.33261
298.973	11.71824
299.189	13.93176
299.406	12.01252
299.622	13.04296
299.838	13.08263
300.055	12.63288
300.271	11.1009
300.487	11.12203
300.704	11.55366
300.92	10.79082
301.136	14.65199
301.353	12.38842
301.569	11.74375
301.785	12.19367
302.001	12.79994
302.218	12.24067
302.434	12.50405
302.65	10.67341
302.866	11.66747
303.083	14.05259
303.299	13.95204
303.515	12.10431
303.731	12.4878
303.947	10.64496
304.163	11.69426
304.379	12.26259
304.595	12.55966
304.812	11.49827
305.028	11.72249
305.244	11.76881
305.46	12.63062
305.676	12.81104
305.892	13.26248
306.108	12.55969
306.324	11.61813
306.54	13.60079
306.756	12.31514
306.972	12.00778
307.187	12.07055
307.403	12.73923
307.619	11.40501
307.835	12.54378
308.051	13.33932
308.267	10.9122
308.483	13.20825
308.699	12.3234
308.914	12.00811
309.13	11.95414
309.346	11.128
309.562	11.51341
309.778	11.26741
309.993	12.55892
310.209	12.80324
310.425	11.45334
310.641	12.60172
310.856	11.73008
311.072	11.87513
311.288	12.4343
311.503	13.03713
311.719	11.25363
311.935	11.36279
312.15	13.22317
312.366	12.9207
312.581	13.05194
312.797	12.83045
313.013	13.43517
313.228	11.84905
313.444	12.03057
313.659	11.73141
313.875	12.54904
314.09	11.881
314.306	13.0207
314.521	12.58318
314.737	12.43466
314.952	11.98075
315.168	12.02226
315.383	12.14653
315.599	11.40297
315.814	11.74991
316.029	12.28182
316.245	11.02366
316.46	10.02185
316.675	12.58862
316.891	13.41014
317.106	14.3194
317.321	11.60993
317.537	12.4052
317.752	12.52048
317.967	12.68439
318.183	10.81881
318.398	11.4666
318.613	12.28336
318.828	12.87241
319.043	12.05105
319.259	11.54928
319.474	11.6426
319.689	12.68576
319.904	10.06055
320.119	12.43313
320.334	11.51205
320.549	11.36201
320.765	12.37839
320.98	11.91072
321.195	11.63848
321.41	11.46214
321.625	11.96857
321.84	12.8728
322.055	12.77752
322.27	10.97808
322.485	10.31217
322.7	12.0316
322.915	12.06188
323.13	11.19266
323.345	13.07386
323.56	12.70453
323.775	12.34904
323.989	12.00565
324.204	11.83308
324.419	12.94104
324.634	10.88792
324.849	11.91598
325.064	14.96073
325.279	13.02771
325.493	12.22189
325.708	12.46283
325.923	11.29603
326.138	11.65256
326.352	13.07574
326.567	12.65537
326.782	11.35421
326.997	11.52025
327.211	12.36913
327.426	12.04579
327.641	11.63
327.855	10.69475
328.07	12.28422
328.285	13.59752
328.499	11.18757
328.714	11.93981
328.928	11.84542
329.143	11.56451
329.358	12.61409
329.572	12.41616
329.787	12.81068
330.001	13.82267
330.216	10.22922
330.43	13.67411
330.645	12.61564
330.859	12.25548
331.074	10.56407
331.288	11.55089
331.503	12.9372
331.717	10.53616
331.931	11.68229
332.146	11.88289
332.36	13.37898
332.575	11.92043
332.789	11.75423
333.003	12.06018
333.218	11.98036
333.432	11.11409
333.646	12.55592
333.86	13.56208
334.075	13.15347
334.289	11.33502
334.503	10.34396
334.717	12.07766
334.932	11.58495
335.146	12.15171
335.36	10.59817
335.574	12.02958
335.788	11.46568
336.003	12.26077
336.217	12.26326
336.431	11.88729
336.645	11.03777
336.859	10.51486
337.073	11.4443
337.287	11.95714
337.501	10.52263
337.715	12.40609
337.929	12.6514
338.143	11.17691
338.357	11.90057
338.571	11.71286
338.785	12.79124
338.999	11.50136
339.213	11.49515
339.427	10.90705
339.641	12.93105
339.855	11.45676
340.069	10.87566
340.283	12.33871
340.497	13.1182
340.711	12.29164
340.924	11.742
341.138	10.85036
341.352	10.66495
341.566	11.92128
341.78	10.53149
341.993	11.43331
342.207	10.91506
342.421	12.25532
342.635	11.60887
342.848	11.63959
343.062	9.72542
343.276	11.30039
343.49	13.13772
343.703	11.16879
343.917	12.58155
344.131	12.78063
344.344	10.93195
344.558	11.60121
344.771	10.62173
344.985	13.17717
345.199	13.30144
345.412	12.19687
345.626	12.34564
345.839	10.64239
346.053	10.85082
346.266	11.12393
346.48	12.34977
346.693	12.3042
346.907	11.87657
347.12	11.12225
347.334	11.70199
347.547	11.9995
347.76	11.45023
347.974	12.4658
348.187	11.65298
348.401	11.24757
348.614	10.62317
348.827	11.27407
349.041	11.72821
349.254	10.2451
349.467	10.98617
349.681	10.82651
349.894	10.7335
350.107	12.45888
350.32	13.22691
350.534	10.63296
350.747	11.21038
350.96	10.88681
351.173	10.98972
351.386	11.27931
351.6	11.07008
351.813	11.13423
352.026	11.15365
352.239	10.76113
352.452	11.09424
352.665	12.47316
352.878	11.13619
353.092	13.21448
353.305	12.0601
353.518	11.69324
353.731	10.64652
353.944	12.44169
354.157	11.39247
354.37	11.21321
354.583	10.47346
354.796	10.56938
355.009	12.18508
355.222	11.90336
355.435	11.54668
355.647	12.45125
355.86	11.05747
356.073	11.70434
356.286	11.24447
356.499	12.37976
356.712	12.18169
356.925	12.17177
357.138	12.30813
357.35	11.21021
357.563	11.35384
357.776	11.84626
357.989	11.78306
358.201	12.12358
358.414	12.00501
358.627	12.91527
358.84	11.59439
359.052	10.76546
359.265	11.24454
359.478	12.53059
359.69	9.94322
359.903	12.3881
360.116	12.52512
360.328	10.62887
360.541	12.22595
360.753	11.15897
360.966	11.64763
361.179	11.62081
361.391	11.54639
361.604	11.4219
361.816	11.69788
362.029	11.71286
362.241	11.37933
362.454	11.8354
362.666	11.3545
362.879	12.38219
363.091	11.68806
363.304	11.60673
363.516	11.64405
363.728	11.13083
363.941	12.00907
364.153	11.73066
364.366	10.28808
364.578	10.90516
364.79	11.78389
365.003	11.62549
365.215	11.13176
365.427	12.07226
365.639	12.21415
365.852	11.66072
366.064	12.97901
366.276	11.41005
366.488	11.52229
366.701	11.21786
366.913	11.25748
367.125	11.28722
367.337	10.80996
367.549	11.08807
367.762	11.34365
367.974	11.38505
368.186	11.13453
368.398	12.01941
368.61	11.70864
368.822	11.78625
369.034	11.02552
369.246	11.94394
369.458	13.53583
369.67	10.74205
369.882	12.47059
370.094	9.97726
370.306	12.23417
370.518	11.06483
370.73	10.75856
370.942	10.87203
371.154	11.27669
371.366	11.14687
371.578	11.65734
371.79	11.28445
372.002	12.18271
372.214	13.05201
372.425	11.2348
372.637	12.63038
372.849	11.6319
373.061	10.07404
373.273	11.4196
373.484	11.39311
373.696	11.81185
373.908	9.76531
374.12	11.95674
374.331	11.46073
374.543	10.48134
374.755	10.59263
374.967	10.9832
375.178	11.81811
375.39	10.8639
375.602	11.22175
375.813	9.98575
376.025	10.63328
376.236	11.1687
376.448	11.31801
376.66	11.12208
376.871	11.07503
377.083	11.96565
377.294	12.47885
377.506	10.82591
377.717	12.31251
377.929	11.39394
378.14	11.02663
378.352	11.57121
378.563	11.71972
378.775	12.30125
378.986	10.578
379.197	11.18907
379.409	10.5553
379.62	11.52151
379.832	11.47092
380.043	10.89681
380.254	11.34227
380.466	10.30931
380.677	13.07973
380.888	12.40695
381.1	13.01241
381.311	12.91508
381.522	11.42384
381.733	13.12321
381.945	11.24813
382.156	10.9148
382.367	10.78655
382.578	12.95305
382.789	13.03883
383.001	10.59279
383.212	12.32958
383.423	12.1931
383.634	11.98572
383.845	11.76386
384.056	10.84963
384.267	11.2009
384.478	11.24949
384.69	10.43771
384.901	11.53611
385.112	11.39035
385.323	12.47765
385.534	11.64812
385.745	11.4713
385.956	11.31342
386.167	10.59493
386.378	11.50544
386.588	10.66453
386.799	10.67414
387.01	10.37501
387.221	11.8493
387.432	11.26595
387.643	12.16027
387.854	11.04745
388.065	10.99172
388.275	11.07571
388.486	10.80724
388.697	11.1168
388.908	10.8532
389.119	11.99251
389.329	12.13912
389.54	11.31656
389.751	11.25754
389.962	11.98953
390.172	11.12283
390.383	11.00975
390.594	10.5868
390.804	10.70206
391.015	10.8319
391.226	11.22748
391.436	11.54046
391.647	11.57874
391.858	11.69744
392.068	10.35378
392.279	10.64096
392.489	11.52597
392.7	11.96048
392.91	10.8532
393.121	10.82327
393.331	11.57428
393.542	11.92042
393.752	11.82657
393.963	11.56648
394.173	11.51629
394.384	11.5799
394.594	11.38854
394.804	10.59215
395.015	11.48024
395.225	11.59586
395.436	10.83951
395.646	11.53457
395.856	11.01369
396.067	10.32197
396.277	11.64219
396.487	11.31747
396.697	11.50787
396.908	11.44753
397.118	11.38983
397.328	11.10985
397.538	11.57813
397.749	10.49832
397.959	11.54381
398.169	11.30287
398.379	10.32008
398.589	11.39723
398.8	11.3137
399.01	11.21863
399.22	10.96666
399.43	12.46147
399.64	11.14617
399.85	11.3785
400.06	11.26597
400.27	10.58644
400.48	11.1073
400.69	11.9513
400.9	10.86694
401.11	10.40832
401.32	11.58871
401.53	10.76502
401.74	12.08855
401.95	11.2355
402.16	10.82687
402.37	11.21594
402.58	10.70347
402.79	11.3145
403	11.66487
403.209	10.68964
403.419	11.82066
403.629	10.71502
403.839	11.66436
404.049	11.62439
404.258	10.97339
404.468	10.70617
404.678	11.5198
404.888	12.02427
405.097	10.96752
405.307	11.04118
405.517	11.72745
405.727	11.47553
405.936	11.09068
406.146	11.41611
406.356	11.97361
406.565	11.23048
406.775	11.01764
406.984	10.93517
407.194	12.30054
407.404	11.29482
407.613	11.54437
407.823	11.5596
408.032	11.79954
408.242	11.63608
408.451	10.77963
408.661	10.95174
408.87	12.21963
409.08	10.71316
409.289	11.26396
409.499	11.24479
409.708	11.192
409.918	10.03305
410.127	11.32711
410.336	12.09937
410.546	11.59
410.755	10.94751
410.964	11.15514
411.174	10.62877
411.383	11.47268
411.592	11.44713
411.802	10.69416
412.011	11.54718
412.22	11.03732
412.429	12.10073
412.639	12.10732
412.848	11.46234
413.057	11.98174
413.266	11.72033
413.475	11.22249
413.685	11.35312
413.894	11.79841
414.103	11.77343
414.312	11.67907
414.521	10.95978
414.73	11.34028
414.939	12.42143
415.148	11.56709
415.357	11.35817
415.566	11.15867
415.776	10.97466
415.985	11.21395
416.194	11.89154
416.403	12.55413
416.611	10.68879
416.82	11.13979
417.029	11.51648
417.238	11.11146
417.447	11.02799
417.656	11.39697
417.865	11.14598
418.074	11.38458
418.283	11.59354
418.492	12.1806
418.7	11.98175
418.909	13.07897
419.118	12.20113
419.327	12.56774
419.536	12.44796
419.744	12.59865
419.953	13.82968
420.162	14.25776
420.371	13.8077
420.579	14.55404
420.788	15.35058
420.997	15.52788
421.205	16.00314
421.414	15.74179
421.623	15.98289
421.831	15.56737
422.04	16.066
422.249	15.16104
422.457	15.24236
422.666	14.37319
422.874	15.17394
423.083	15.11239
423.291	15.13409
423.5	15.08188
423.708	15.46665
423.917	15.92257
424.125	15.58186
424.334	15.51307
424.542	17.10012
424.751	16.70366
424.959	16.30173
425.167	16.2883
425.376	16.03513
425.584	14.56575
425.793	14.47231
426.001	13.4383
426.209	13.36814
426.418	12.28532
426.626	11.82817
426.834	11.75542
427.042	12.1187
427.251	11.71412
427.459	12.39476
427.667	11.98988
427.875	11.27464
428.084	11.66439
428.292	12.49996
428.5	12.20595
428.708	11.30647
428.916	11.2912
429.124	11.78711
429.333	11.58761
429.541	11.70689
429.749	11.88217
429.957	11.82421
430.165	13.41
430.373	10.97294
430.581	11.94901
430.789	12.80336
430.997	11.79939
431.205	11.43946
431.413	12.07329
431.621	11.74854
431.829	12.30103
432.037	11.80221
432.245	12.19865
432.453	12.22176
432.661	11.80303
432.869	12.93603
433.076	11.62468
433.284	12.05834
433.492	12.52695
433.7	12.81031
433.908	11.99569
434.116	12.27173
434.323	12.2552
434.531	12.26403
434.739	12.56568
434.947	12.67175
435.154	12.55647
435.362	12.17509
435.57	11.98471
435.778	11.75834
435.985	12.17721
436.193	11.87447
436.401	12.71267
436.608	12.08779
436.816	11.82916
437.023	12.97471
437.231	13.05952
437.439	12.26628
437.646	12.46691
437.854	12.31973
438.061	12.55401
438.269	12.03264
438.476	12.50091
438.684	12.13703
438.891	12.1298
439.099	11.99586
439.306	11.82823
439.514	11.95279
439.721	13.05353
439.929	12.77466
440.136	13.72409
440.343	13.81028
440.551	13.71245
440.758	15.27262
440.965	13.9645
441.173	13.80574
441.38	13.66189
441.587	13.3275
441.795	13.18531
442.002	12.74848
442.209	12.63393
442.416	12.74215
442.624	12.65846
442.831	12.44213
443.038	12.00473
443.245	11.70057
443.452	12.13954
443.66	12.50428
443.867	11.94367
444.074	11.84752
444.281	11.86634
444.488	12.08358
444.695	12.28911
444.902	12.04496
445.109	13.30355
445.316	13.22113
445.523	13.7989
445.73	14.06674
445.937	15.09411
446.144	15.60939
446.351	16.07414
446.558	15.22768
446.765	17.16276
446.972	16.40953
447.179	16.08564
447.386	16.49084
447.593	14.88434
447.8	15.6067
448.007	14.0119
448.214	13.28067
448.42	12.82023
448.627	13.07378
448.834	12.53589
449.041	12.41719
449.248	12.37137
449.454	12.79717
449.661	13.32798
449.868	12.05741
450.075	12.05278
450.281	11.32373
450.488	11.85401
450.695	11.84151
450.901	12.0098
451.108	11.97882
451.315	12.71741
451.521	11.96498
451.728	12.76708
451.935	11.78726
452.141	12.11446
452.348	12.13869
452.554	12.17712
452.761	12.06444
452.967	13.14217
453.174	12.4236
453.38	12.58834
453.587	11.70672
453.793	12.45965
454	12.8108
454.206	13.54915
454.413	12.92638
454.619	12.72375
454.825	12.02113
455.032	12.7776
455.238	12.77547
455.445	11.90638
455.651	12.3021
455.857	11.46191
456.064	12.21577
456.27	12.10771
456.476	12.16393
456.682	11.69972
456.889	12.55484
457.095	12.55697
457.301	13.66049
457.507	12.44927
457.714	12.46626
457.92	12.33654
458.126	11.99622
458.332	12.23999
458.538	12.13575
458.744	12.3078
458.951	12.34958
459.157	14.50645
459.363	14.02947
459.569	14.54971
459.775	15.4081
459.981	15.16491
460.187	15.88616
460.393	15.97121
460.599	16.04462
460.805	15.10177
461.011	14.08794
461.217	13.75753
461.423	13.36326
461.629	12.69535
461.835	12.98837
462.041	12.62729
462.247	13.58202
462.453	12.48448
462.658	12.56935
462.864	12.94721
463.07	12.66977
463.276	12.67747
463.482	12.53301
463.688	13.23081
463.893	12.21159
464.099	12.34942
464.305	13.32376
464.511	12.42258
464.716	12.56451
464.922	12.99626
465.128	12.26589
465.333	13.49433
465.539	12.91929
465.745	12.66694
465.95	12.64622
466.156	14.243
466.362	13.1911
466.567	12.64853
466.773	12.3089
466.978	13.4613
467.184	12.06498
467.389	11.8545
467.595	12.90592
467.8	12.39838
468.006	13.55189
468.211	13.38387
468.417	12.19904
468.622	12.95676
468.828	13.18801
469.033	12.92865
469.239	14.1782
469.444	12.5101
469.649	13.2039
469.855	12.66377
470.06	12.69261
470.266	12.27542
470.471	12.99349
470.676	12.90318
470.881	11.88981
471.087	13.47869
471.292	14.14619
471.497	12.09514
471.703	12.67328
471.908	12.47313
472.113	12.68892
472.318	13.30106
472.523	12.18916
472.729	12.97451
472.934	13.04176
473.139	12.49362
473.344	13.04005
473.549	13.3656
473.754	12.44155
473.959	14.19335
474.164	12.42955
474.369	12.7207
474.575	13.16882
474.78	12.87724
474.985	12.46179
475.19	11.95677
475.395	12.46763
475.6	12.73523
475.804	13.52874
476.009	12.77127
476.214	12.71725
476.419	12.66615
476.624	12.06631
476.829	12.44503
477.034	13.27795
477.239	12.65904
477.444	13.2051
477.648	13.31642
477.853	13.23861
478.058	12.87669
478.263	12.56883
478.468	12.52257
478.672	12.5111
478.877	13.804
479.082	13.82178
479.287	13.20831
479.491	12.97597
479.696	12.58736
479.901	13.2582
480.105	13.38707
480.31	12.56783
480.515	13.04901
480.719	14.05597
480.924	12.82729
481.128	12.55991
481.333	13.14731
481.538	13.24228
481.742	13.72799
481.947	14.84227
482.151	15.9881
482.356	17.06293
482.56	19.73211
482.765	22.02165
482.969	26.06394
483.174	29.67086
483.378	34.16634
483.582	36.2563
483.787	39.1748
483.991	40.68888
484.196	41.53576
484.4	41.14321
484.604	41.58447
484.809	38.24136
485.013	35.99265
485.217	32.73922
485.422	29.28968
485.626	26.32024
485.83	24.45241
486.034	23.28317
486.239	23.46303
486.443	23.89421
486.647	24.4363
486.851	25.9088
487.055	27.73407
487.26	28.17063
487.464	29.5603
487.668	29.50535
487.872	30.46219
488.076	30.61276
488.28	29.67192
488.484	28.10428
488.688	27.12892
488.892	25.80097
489.096	23.95129
489.3	22.21959
489.504	20.63435
489.708	19.44825
489.912	18.78174
490.116	18.12582
490.32	17.76872
490.524	19.02073
490.728	20.25241
490.932	21.46053
491.136	22.86531
491.34	24.48888
491.544	25.25358
491.748	25.62586
491.951	25.82931
492.155	25.37683
492.359	24.75107
492.563	22.9522
492.767	21.66368
492.97	19.37103
493.174	17.38297
493.378	15.81937
493.582	14.08696
493.785	13.35376
493.989	13.3689
494.193	13.43482
494.396	13.21472
494.6	13.70309
494.804	13.21406
495.007	12.97
495.211	13.0185
495.414	13.10238
495.618	13.4034
495.822	13.83795
496.025	13.25724
496.229	13.71705
496.432	13.07531
496.636	13.43422
496.839	13.43948
497.043	14.18795
497.246	13.73253
497.45	13.45955
497.653	13.66091
497.856	13.65903
498.06	13.15393
498.263	13.38831
498.467	13.28053
498.67	13.80212
498.873	13.60127
499.077	13.31535
499.28	13.318
499.483	13.52771
499.686	13.79427
499.89	13.58516
500.093	13.8227
500.296	13.14872
500.499	14.31001
500.703	13.43064
500.906	13.7195
501.109	14.23553
501.312	13.57878
501.515	13.32368
501.719	13.55119
501.922	13.93891
502.125	13.44301
502.328	13.30987
502.531	12.97397
502.734	13.53763
502.937	12.70173
503.14	13.56491
503.343	13.00789
503.546	13.20677
503.749	12.904
503.952	13.87474
504.155	13.048
504.358	13.70929
504.561	13.56189
504.764	12.83627
504.967	13.48121
505.17	13.37427
505.373	14.16404
505.576	13.55473
505.778	13.89371
505.981	13.11767
506.184	14.15867
506.387	12.65784
506.59	14.47015
506.793	14.04402
506.995	13.80285
507.198	12.63044
507.401	13.85887
507.604	13.85902
507.806	13.13655
508.009	13.19142
508.212	14.00217
508.414	13.20652
508.617	13.30725
508.82	13.53818
509.022	14.32617
509.225	13.70232
509.427	12.90299
509.63	14.24341
509.833	13.76172
510.035	13.45968
510.238	12.95182
510.44	14.15135
510.643	12.78545
510.845	14.45107
511.048	13.75019
511.25	13.23401
511.453	13.38137
511.655	13.61257
511.858	13.40875
512.06	13.89279
512.262	13.62124
512.465	14.0501
512.667	13.41226
512.869	13.17601
513.072	13.87356
513.274	14.03639
513.476	13.84026
513.679	13.9866
513.881	13.07289
514.083	14.251
514.286	13.23396
514.488	13.13974
514.69	13.08991
514.892	12.90603
515.094	13.91616
515.297	13.31335
515.499	13.70985
515.701	13.13163
515.903	14.39195
516.105	14.36339
516.307	13.88361
516.509	12.63682
516.711	13.08194
516.913	13.63308
517.116	13.71212
517.318	13.46892
517.52	14.32703
517.722	14.01796
517.924	13.23936
518.126	13.94158
518.328	13.7001
518.529	14.53127
518.731	15.31799
518.933	13.97379
519.135	14.08877
519.337	14.68122
519.539	14.01721
519.741	13.06222
519.943	13.54585
520.145	13.53259
520.346	14.14559
520.548	13.45994
520.75	13.79754
520.952	13.43549
521.153	13.86764
521.355	13.83562
521.557	13.17185
521.759	13.63015
521.96	13.59822
522.162	13.15371
522.364	14.26521
522.565	13.35491
522.767	14.05165
522.969	14.16381
523.17	13.98099
523.372	13.86295
523.573	13.5071
523.775	13.54341
523.977	13.19474
524.178	14.55206
524.38	13.27237
524.581	13.88917
524.783	13.56061
524.984	14.07614
525.186	13.83446
525.387	14.58378
525.589	14.70879
525.79	14.89831
525.991	15.05904
526.193	15.68439
526.394	15.26005
526.596	16.19277
526.797	16.46219
526.998	16.25998
527.2	17.07023
527.401	19.2546
527.602	21.00135
527.803	24.13055
528.005	26.05464
528.206	28.14146
528.407	30.09448
528.608	30.73111
528.81	31.52329
529.011	31.32139
529.212	32.13672
529.413	30.36013
529.614	28.68559
529.815	26.85852
530.017	24.61232
530.218	21.82541
530.419	19.55388
530.62	18.49196
530.821	17.36658
531.022	15.85206
531.223	16.20461
531.424	15.83747
531.625	15.96249
531.826	15.72355
532.027	16.40144
532.228	17.9757
532.429	18.38162
532.63	19.10856
532.831	20.32362
533.032	20.86612
533.233	21.78051
533.433	21.59843
533.634	22.04179
533.835	21.26126
534.036	20.57927
534.237	19.81346
534.438	18.5392
534.638	16.87197
534.839	15.79783
535.04	15.15428
535.241	14.26773
535.441	14.95312
535.642	14.53966
535.843	14.28676
536.043	14.61348
536.244	14.90041
536.445	15.36868
536.645	16.15929
536.846	15.88909
537.047	16.22706
537.247	15.22228
537.448	14.83408
537.648	14.60009
537.849	14.1042
538.049	13.95515
538.25	14.28698
538.451	14.12224
538.651	13.5123
538.851	14.11426
539.052	14.44747
539.252	14.23399
539.453	13.80903
539.653	14.00287
539.854	13.754
540.054	14.01064
540.254	16.1021
540.455	17.7448
540.655	18.58572
540.855	20.79098
541.056	22.27192
541.256	22.67869
541.456	23.75386
541.657	23.72194
541.857	24.24076
542.057	22.88215
542.257	22.29699
542.458	22.08921
542.658	21.29497
542.858	18.94021
543.058	18.27385
543.258	17.41328
543.458	15.63552
543.659	15.02323
543.859	15.25187
544.059	14.7396
544.259	13.96947
544.459	14.4008
544.659	13.68655
544.859	14.11235
545.059	13.762
545.259	14.34138
545.459	14.09613
545.659	14.39436
545.859	13.97236
546.059	14.25103
546.259	13.72163
546.459	13.50152
546.659	13.54788
546.859	14.44017
547.059	14.14156
547.258	14.16655
547.458	14.28332
547.658	13.41406
547.858	13.38043
548.058	13.91735
548.258	13.68454
548.457	13.34428
548.657	14.98788
548.857	13.56165
549.057	14.18861
549.256	13.99865
549.456	13.33082
549.656	12.56844
549.855	14.74964
550.055	13.37624
550.255	14.6633
550.454	13.81646
550.654	14.20872
550.853	14.70099
551.053	14.20969
551.253	13.85899
551.452	14.11637
551.652	13.11599
551.851	12.78212
552.051	13.50969
552.25	13.48115
552.45	13.46327
552.649	13.46875
552.849	13.28958
553.048	13.85756
553.248	14.19948
553.447	13.13749
553.646	14.14299
553.846	15.27894
554.045	14.60758
554.244	13.05654
554.444	14.51874
554.643	13.18333
554.842	14.56895
555.042	15.00881
555.241	13.53875
555.44	13.14198
555.64	14.16503
555.839	14.77113
556.038	14.04906
556.237	13.24509
556.436	13.96879
556.636	13.9468
556.835	13.36031
557.034	14.5895
557.233	13.60057
557.432	12.74362
557.631	14.2438
557.83	13.46483
558.029	13.23139
558.228	13.21332
558.427	13.10375
558.626	13.9544
558.825	13.10988
559.024	13.77015
559.223	15.00855
559.422	13.37548
559.621	13.87452
559.82	12.11702
560.019	13.43319
560.218	13.33215
560.417	12.08806
560.616	13.20878
560.815	15.85085
561.014	12.73913
561.212	14.80977
561.411	13.8484
561.61	12.81875
561.809	13.45885
562.008	14.69144
562.206	13.41354
562.405	14.0388
562.604	13.59628
562.803	13.87271
563.001	13.74393
563.2	12.84684
563.399	14.04541
563.597	12.99806
563.796	13.597
563.995	12.94946
564.193	14.01531
564.392	13.53171
564.59	14.86304
564.789	12.54784
564.988	13.44954
565.186	13.84923
565.385	13.66781
565.583	13.48987
565.782	13.78054
565.98	13.62744
566.179	13.62625
566.377	13.23108
566.575	13.35729
566.774	14.70372
566.972	14.36241
567.171	15.13522
567.369	14.76489
567.567	13.78404
567.766	13.9056
567.964	12.52675
568.162	14.19895
568.361	14.61113
568.559	13.68202
568.757	14.02535
568.956	13.85625
569.154	13.96836
569.352	14.29552
569.55	13.77668
569.748	13.72796
569.947	13.22645
570.145	13.02735
570.343	13.15212
570.541	14.61096
570.739	12.79794
570.937	13.70593
571.135	13.88216
571.333	15.19513
571.532	14.99631
571.73	13.77943
571.928	14.26828
572.126	13.99097
572.324	13.39536
572.522	14.35726
572.72	15.40319
572.918	13.6863
573.116	13.98045
573.313	13.51444
573.511	13.66512
573.709	13.36564
573.907	14.36124
574.105	13.47371
574.303	12.87284
574.501	12.71855
574.699	14.20038
574.896	14.10614
575.094	14.3461
575.292	13.06475
575.49	14.53193
575.688	13.76388
575.885	14.76199
576.083	15.33394
576.281	14.27286
576.478	13.3438
576.676	14.28333
576.874	12.88659
577.071	13.87927
577.269	15.30991
577.467	13.64592
577.664	13.57924
577.862	14.43461
578.059	13.01702
578.257	14.40932
578.455	13.1526
578.652	13.62296
578.85	12.35569
579.047	13.74407
579.245	13.37852
579.442	13.6942
579.64	13.44207
579.837	12.41692
580.034	15.71904
580.232	13.49416
580.429	12.74938
580.627	14.03446
580.824	14.51663
581.021	14.25275
581.219	13.08926
581.416	13.07601
581.613	14.72316
581.811	14.52407
582.008	12.85502
582.205	14.01647
582.402	13.5971
582.6	15.05893
582.797	13.44098
582.994	13.77727
583.191	14.08323
583.388	13.23661
583.586	14.13519
583.783	14.19821
583.98	12.81532
584.177	13.59134
584.374	11.57574
584.571	13.21968
584.768	13.41228
584.965	13.03167
585.162	13.99166
585.359	14.79771
585.556	13.55333
585.753	13.88416
585.95	12.42622
586.147	12.73224
586.344	13.66619
586.541	13.12134
586.738	12.52756
586.935	13.39243
587.132	12.88452
587.329	14.30607
587.526	13.50705
587.722	17.70161
587.919	12.3434
588.116	13.9556
588.313	14.65077
588.51	15.42485
588.706	13.37143
588.903	14.07589
589.1	14.43293
589.297	16.13878
589.493	13.7533
589.69	14.08533
589.887	13.29144
590.083	12.75884
590.28	13.12911
590.477	14.46364
590.673	14.10969
590.87	14.67548
591.067	13.15138
591.263	13.91584
591.46	13.86883
591.656	13.15863
591.853	14.9608
592.049	12.84223
592.246	13.04213
592.442	14.43322
592.639	14.46672
592.835	12.69356
593.032	13.95085
593.228	12.45159
593.425	12.36181
593.621	12.28075
593.817	13.67388
594.014	12.67079
594.21	13.58539
594.406	14.25404
594.603	13.69958
594.799	12.75556
594.995	11.75095
595.192	14.25381
595.388	13.14776
595.584	13.1979
595.78	12.37854
595.977	15.77822
596.173	14.84164
596.369	13.30106
596.565	12.8344
596.761	12.52242
596.957	14.63792
597.154	12.91163
597.35	13.25776
597.546	13.22753
597.742	14.21175
597.938	13.88422
598.134	13.12405
598.33	13.98466
598.526	14.84969
598.722	14.04359
598.918	15.34558
599.114	14.19094
599.31	12.50603
599.506	13.53223
599.702	12.75549
599.898	13.65459
600.094	14.02612
600.29	14.26432
600.485	14.41796
600.681	12.85283
600.877	15.04239
601.073	13.50883
601.269	15.45878
601.465	14.65227
601.66	12.72244
601.856	11.6475
602.052	15.39835
602.248	13.16942
602.443	11.90849
602.639	12.52026
602.835	12.83958
603.03	12.87687
603.226	14.3943
603.422	12.95783
603.617	13.45373
603.813	13.48195
604.009	13.38327
604.204	14.85697
604.4	12.69902
604.595	14.75388
604.791	13.0976
604.986	14.02868
605.182	13.24213
605.377	13.68574
605.573	13.70471
605.768	13.90641
605.964	14.35682
606.159	14.38278
606.355	14.50852
606.55	13.27017
606.746	14.59463
606.941	13.55789
607.136	15.51867
607.332	16.11399
607.527	12.31018
607.722	13.84141
607.918	13.35523
608.113	12.92232
608.308	14.43014
608.503	14.09294
608.699	14.11122
608.894	14.2791
609.089	13.2331
609.284	14.25943
609.479	13.66468
609.675	14.64303
609.87	13.78911
610.065	14.63176
610.26	14.74929
610.455	14.64562
610.65	13.80878
610.845	14.03323
611.04	14.41729
611.235	13.45326
611.43	13.50663
611.625	12.54004
611.82	14.85494
612.015	13.0171
612.21	15.3398
612.405	12.55907
612.6	15.46386
612.795	15.19901
612.99	14.44867
613.185	12.67786
613.38	13.13897
613.575	13.83966
613.77	16.8103
613.965	12.16885
614.159	12.78232
614.354	15.04567
614.549	14.59144
614.744	14.38789
614.938	12.52551
615.133	12.21451
615.328	15.0844
615.523	14.93262
615.717	16.59838
615.912	13.05777
616.107	13.84516
616.301	13.45151
616.496	12.85195
616.691	15.43074
616.885	14.40545
617.08	16.85116
617.274	14.74986
617.469	16.00236
617.664	14.49108
617.858	13.30629
618.053	14.19292
618.247	13.44912
618.442	11.34621
618.636	15.18979
618.831	12.8172
619.025	12.9905
619.219	16.84725
619.414	10.76549
619.608	13.19585
619.803	12.88461
619.997	15.9899
620.191	14.78939
620.386	14.03581
620.58	13.40938
620.774	11.74624
620.969	11.87401
621.163	13.77874
621.357	12.43033
621.551	13.49733
621.746	13.8863
621.94	13.15398
622.134	17.4066
622.328	16.05172
622.522	11.96724
622.716	14.80186
622.911	14.73589
623.105	14.87464
623.299	14.08768
623.493	16.99736
623.687	12.71542
623.881	12.84198
624.075	14.32207
624.269	15.12038
624.463	11.57462
624.657	11.95225
624.851	14.34675
625.045	14.75672
625.239	14.72024
625.433	13.26953
625.627	15.86604
625.821	13.2255
626.015	13.1139
626.209	14.20243
626.403	12.28842
626.596	14.49996
626.79	14.88383
626.984	12.79248
627.178	14.49568
627.372	14.4215
627.565	14.74393
627.759	12.54233
627.953	12.64616
628.147	14.15307
628.34	14.75247
628.534	16.3835
628.728	13.50264
628.921	14.87201
629.115	14.59993
629.309	14.95763
629.502	15.05642
629.696	13.95823
629.89	13.78305
630.083	14.3374
630.277	14.20266
630.47	15.92486
630.664	13.2153
630.857	11.92602
631.051	14.5191
631.244	14.9528
631.438	14.78005
631.631	13.10714
631.825	15.20957
632.018	14.47514
632.212	16.34057
632.405	15.17689
632.598	12.93355
632.792	14.18055
632.985	11.25014
633.178	13.88236
633.372	14.13197
633.565	13.76425
633.758	15.75316
633.952	13.025
634.145	13.00748
634.338	13.63547
634.531	13.27695
634.724	13.18549
634.918	13.92403
635.111	13.67855
635.304	13.5296
635.497	17.05342
635.69	14.50529
635.883	15.49453
636.077	12.63725
636.27	14.6418
636.463	14.2436
636.656	14.33103
636.849	13.65003
637.042	14.76806
637.235	16.417
637.428	15.08295
637.621	14.53455
637.814	16.02648
638.007	15.95108
638.2	16.13203
638.393	16.69769
638.586	12.20978
638.778	13.6421
638.971	13.66242
639.164	16.13053
639.357	14.65028
639.55	16.16361
639.743	14.97746
639.935	14.78699
640.128	17.33825
640.321	15.48596
640.514	14.43425
640.707	17.6023
640.899	15.34166
641.092	11.9959
641.285	29.69074
641.477	11.21299
641.67	18.04072
641.863	15.94206
642.055	14.75629
642.248	14.3318
642.441	13.80819
642.633	15.31846
642.826	15.59332
643.018	16.27669
643.211	17.3946
643.403	17.37094
643.596	17.86459
643.788	16.85848
643.981	13.7903
644.173	15.76086
644.366	13.6421
644.558	11.94088
644.751	16.215
644.943	12.81475
645.135	17.11076
645.328	17.1964
645.52	15.80273
645.712	16.36608
645.905	19.63673
646.097	12.81412
646.289	15.29257
646.482	18.15664
646.674	13.45588
646.866	16.66095
647.058	15.43032
647.251	12.89846
647.443	13.72188
647.635	14.41914
647.827	12.7233
648.019	13.2109
648.211	14.31399
648.404	14.7653
648.596	17.55783
648.788	15.32243
648.98	15.05399
649.172	15.34269
649.364	15.43695
649.556	12.04695
649.748	19.35726
649.94	13.52139
650.132	16.22361
650.324	13.43204
650.516	13.87006
650.708	16.75756
650.9	12.61765
651.092	12.0606
651.284	12.55843
651.476	12.86618
651.667	16.0048
651.859	17.42276
652.051	14.72308
652.243	15.48373
652.435	14.57437
652.627	16.05449
652.818	16.06923
653.01	12.49083
653.202	13.63355
653.394	14.12502
653.585	15.76945
653.777	22.62753
653.969	17.7293
654.16	17.22627
654.352	13.47718
654.544	14.9374
654.735	17.24096
654.927	15.41261
655.118	17.55381
655.31	16.56426
655.502	17.44466
655.693	14.5353
655.885	16.09609
656.076	17.64951
656.268	16.01333
656.459	17.90223
656.651	17.75189
656.842	14.46431
657.034	14.21261
657.225	17.06523
657.416	17.92416
657.608	17.71018
657.799	15.48702
657.99	17.93683
658.182	14.33695
658.373	14.59951
658.564	17.55388
658.756	16.30681
658.947	15.47392
659.138	14.29766
659.33	14.85673
659.521	14.71325
659.712	15.64889
659.903	15.13466
660.094	14.79977
660.286	12.92341
660.477	18.46569
660.668	16.58557
660.859	15.46778
661.05	13.40877
661.241	16.29639
661.432	15.87719
661.623	14.77336
661.814	14.63698
662.006	13.0753
662.197	15.98294
662.388	17.6877
662.579	16.45049
662.77	18.07833
662.96	20.77761
663.151	17.74498
663.342	12.58451
663.533	17.21925
663.724	15.72401
663.915	19.76682
664.106	15.67144
664.297	19.53658
664.488	17.43432
664.678	14.38967
664.869	17.85622
665.06	17.64314
665.251	16.64622
665.442	16.94679
665.632	14.04192
665.823	19.83774
666.014	11.03159
666.204	17.46887
666.395	18.66801
666.586	20.61813
666.776	17.59877
666.967	20.31514
667.158	16.28052
667.348	19.08483
667.539	14.60571
667.729	18.02386
667.92	14.76454
668.111	17.90325
668.301	17.62708
668.492	15.81328
668.682	16.42267
668.873	16.14787
669.063	13.87812
669.253	17.17329
669.444	19.43657
669.634	16.32207
669.825	19.97023
670.015	18.92749
670.206	14.84913
670.396	20.50238
670.586	16.02171
670.777	17.3654
670.967	12.65633
671.157	16.13873
671.347	15.45595
671.538	19.62756
671.728	17.75778
671.918	20.92303
672.108	18.55857
672.299	16.0762
672.489	16.81807
672.679	15.25333
672.869	17.66641
673.059	22.01828
673.249	17.50402
673.44	14.62586
673.63	16.09174
673.82	18.94413
674.01	14.82518
674.2	17.40574
674.39	22.86271
674.58	18.37467
674.77	17.07149
674.96	16.68363
675.15	26.15362
675.34	19.51001
675.53	17.40552
675.72	16.33257
675.91	13.65068
676.099	21.54267
676.289	22.39002
676.479	19.96325
676.669	15.87927
676.859	18.35126
677.049	15.82705
677.238	17.33939
677.428	21.02064
677.618	18.5101
677.808	21.99991
677.997	18.55007
678.187	15.64104
678.377	17.69078
678.567	16.5318
678.756	16.94163
678.946	17.67887
679.136	15.30337
679.325	16.48462
679.515	16.18427
679.704	15.24456
679.894	19.47671
680.084	18.49518
680.273	20.4513
680.463	16.21921
680.652	16.02205
680.842	17.67299
681.031	19.80416
681.221	15.93071
681.41	18.94195
681.6	17.78782
681.789	19.27469
681.978	20.59767
682.168	18.53595
682.357	18.24971
682.547	19.17372
682.736	18.78327
682.925	21.02494
683.115	21.18287
683.304	20.04884
683.493	18.58151
683.682	19.45795
683.872	19.02106
684.061	20.90507
684.25	19.37659
684.439	23.73079
684.629	20.42043
684.818	26.74207
685.007	18.50207
685.196	18.1268
685.385	23.02662
685.574	19.35362
685.763	20.05524
685.952	19.62485
686.142	16.1279
686.331	22.46998
686.52	15.649
686.709	24.08057
686.898	23.27197
687.087	21.00602
687.276	22.81709
687.465	22.2062
687.654	18.41649
687.842	22.65541
688.031	16.84652
688.22	23.3455
688.409	19.80842
688.598	19.89213
688.787	25.78473
688.976	19.29287
689.165	24.88398
689.353	18.42893
689.542	20.99533
689.731	22.28815
689.92	25.49219
690.108	21.65143
690.297	18.60645
690.486	20.17468
690.675	22.12858
690.863	24.264
691.052	23.98252
691.241	20.73326
691.429	20.40469
691.618	23.82726
691.806	16.87469
691.995	19.78806
692.184	20.07801
692.372	19.14687
692.561	20.55936
692.749	20.89287
692.938	29.74755
693.126	21.66414
693.315	20.14512
693.503	22.34307
693.692	23.11136
693.88	22.9202
694.068	25.77634
694.257	21.00038
694.445	22.32974
694.634	15.56077
694.822	23.0665
695.01	24.35192
695.199	26.56078
695.387	24.44655
695.575	24.22154
695.763	20.69624
695.952	20.17307
696.14	16.70747
696.328	19.6129
696.516	21.03617
696.705	22.23218
696.893	21.48471
697.081	16.41647
697.269	23.67114
697.457	17.93219
697.645	17.85395
697.833	23.02974
698.021	18.69739
698.21	19.4675
698.398	20.04592
698.586	17.75948
698.774	17.41258
698.962	20.54944
699.15	18.20063
699.338	16.8319
699.526	21.97599
699.714	19.32115
699.901	19.34457
700.089	22.87753
700.277	18.89792
700.465	20.42072
700.653	22.67382
700.841	21.81275
701.029	19.02062
701.217	24.99865
701.404	20.91497
701.592	25.71509
701.78	28.14124
701.968	21.16547
702.155	20.70282
702.343	18.51604
702.531	25.35272
702.718	22.81713
702.906	20.4005
703.094	20.01452
703.281	25.72543
703.469	21.65723
703.657	25.31499
703.844	32.13941
704.032	27.79791
704.219	21.1676
704.407	23.27393
704.595	27.09837
704.782	24.0486
704.97	22.27014
705.157	21.84813
705.345	29.316
705.532	34.65258
705.719	26.38956
705.907	29.71995
706.094	26.15559
706.282	32.55534
706.469	25.93783
706.656	27.17905
706.844	26.41614
707.031	30.6233
707.218	29.21672
707.406	33.04389
707.593	30.51231
707.78	30.30481
707.968	28.23319
708.155	25.88567
708.342	30.73057
708.529	30.71928
708.716	30.30217
708.904	34.35539
709.091	30.58614
709.278	25.08871
709.465	35.36461
709.652	33.59602
709.839	32.7265
710.026	28.5998
710.213	22.92778
710.4	28.55171
710.587	30.05012
710.774	31.51743
710.961	31.24716
711.148	28.36456
711.335	30.76124
711.522	27.71507
711.709	30.04706
711.896	35.39752
712.083	31.77924
712.27	25.56152
712.457	29.01013
712.644	23.63535
712.831	35.66444
713.017	28.93587
713.204	31.12783
713.391	25.83182
713.578	30.82632
713.765	32.81609
713.951	28.87287
714.138	38.44543
714.325	27.95853
714.512	26.51441
714.698	23.68492
714.885	32.01711
715.072	27.05458
715.258	26.04781
715.445	24.08011
715.631	30.5595
715.818	17.70869
716.005	23.7928
716.191	28.28687
716.378	24.44416
716.564	28.91261
716.751	22.20705
716.937	23.95011
717.124	28.96522
717.31	22.1529
717.497	33.02511
717.683	23.04789
717.869	33.81616
718.056	23.93919
718.242	27.51539
718.429	25.14315
718.615	21.4474
718.801	25.80684
718.988	29.6807
719.174	27.347
719.36	24.50547
719.547	30.97085
719.733	27.53446
719.919	25.92101
720.105	28.65761
720.291	26.16361
720.478	27.01629
720.664	25.55259
720.85	24.84533
721.036	38.02126
721.222	32.67425
721.408	26.37504
721.595	33.48047
721.781	33.27322
721.967	31.4148
722.153	33.07769
722.339	29.04223
722.525	27.94043
722.711	22.50836
722.897	21.39301
723.083	25.05187
723.269	31.26468
723.455	39.17578
723.641	44.97776
723.827	28.11527
724.012	29.29641
724.198	26.82562
724.384	33.10737
724.57	28.68859
724.756	21.50458
724.942	19.54445
725.127	32.22727
725.313	33.08053
725.499	32.94802
725.685	36.31932
725.87	28.76834
726.056	24.21256
726.242	33.55722
726.428	20.9199
726.613	31.80488
726.799	26.37221
726.985	23.69708
727.17	21.26549
727.356	36.95665
727.541	23.54388
727.727	27.2918
727.913	31.46585
728.098	25.85048
728.284	31.16521
728.469	23.08323
728.655	24.6911
728.84	32.95208
729.026	31.27125
729.211	31.16146
729.397	29.79626
729.582	31.91193
729.767	27.98627
729.953	29.6389
730.138	34.17836
730.323	18.5848
730.509	23.54409
730.694	35.58914
730.879	30.75028
731.065	29.10353
731.25	39.48934
731.435	31.45825
731.621	21.97197
731.806	25.464
731.991	29.0224
732.176	22.87648
732.361	36.28955
732.547	29.96766
732.732	21.59315
732.917	39.84082
733.102	23.77302
733.287	25.75602
733.472	28.25775
733.657	28.28339
733.842	22.0827
734.027	25.73412
734.212	27.22958
734.397	24.99732
734.582	29.52318
734.767	33.20962
734.952	35.69812
735.137	17.68399
735.322	35.88679
735.507	30.73944
735.692	29.36698
735.877	39.33724
736.062	38.07635
736.247	31.28353
736.431	28.41862
736.616	34.14026
736.801	30.57922
736.986	29.42247
737.171	24.70941
737.355	23.62446
737.54	35.6403
737.725	29.54079
737.909	43.52942
738.094	26.45894
738.279	33.55258
738.463	28.26504
738.648	32.8182
738.833	31.67966
739.017	40.86241
739.202	29.05243
739.386	29.07788
739.571	25.41515
739.756	34.11924
739.94	29.59227
740.125	32.25733
740.309	26.25334
740.494	34.09171
740.678	30.54282
740.863	32.57892
741.047	31.16408
741.231	38.5374
741.416	26.2542
741.6	38.52535
741.785	27.20874
741.969	35.32327
742.153	38.92121
742.338	20.45788
742.522	30.23366
742.706	35.05449
742.89	24.65651
743.075	30.99082
743.259	37.66023
743.443	37.19397
743.627	38.27295
743.812	43.34098
743.996	22.87202
744.18	29.393
744.364	28.93652
744.548	44.26732
744.732	29.59401
744.916	36.455
745.1	34.60371
745.285	28.62964
745.469	33.9083
745.653	40.01854
745.837	25.67939
746.021	45.77901
746.205	38.1941
746.389	32.05889
746.573	30.12316
746.757	40.79462
746.94	29.01983
747.124	39.16378
747.308	24.89186
747.492	37.61282
747.676	26.50354
747.86	47.04769
748.044	29.17288
748.227	22.70197
748.411	54.47487
748.595	31.47703
748.779	27.31742
748.963	34.31663
749.146	32.81589
749.33	27.02963
749.514	27.06732
749.697	38.11129
749.881	26.12025
750.065	25.53044
750.248	33.42012
750.432	46.51211
750.616	31.83885
750.799	26.14775
750.983	47.47168
751.166	47.38733
751.35	24.05091
751.533	35.98966
751.717	42.18358
751.9	42.22419
752.084	29.79944
752.267	27.71444
752.451	28.86337
752.634	32.7064
752.818	37.02746
753.001	37.25106
753.184	39.71754
753.368	34.21537
753.551	13.61676
753.734	27.76376
753.918	48.24293
754.101	28.64186
754.284	37.01813
754.467	29.32909
754.651	29.00327
754.834	26.99856
755.017	40.81137
755.2	40.09837
755.384	27.03711
755.567	37.63852
755.75	38.97676
755.933	31.31546
756.116	38.69026
756.299	28.84677
756.482	27.8388
756.665	37.08481
756.848	32.76505
757.032	36.35973
757.215	25.2696
757.398	27.5529
757.581	27.75366
757.764	52.76349
757.947	32.69161
758.129	39.36537
758.312	17.46183
758.495	31.35217
758.678	33.23637
758.861	30.64146
759.044	45.31966
759.227	28.14546
759.41	27.46451
759.592	39.33785
759.775	32.52811
759.958	39.88559
760.141	26.34221
760.324	49.69061
760.506	43.77936
760.689	37.46537
760.872	48.33788
761.054	36.4218
761.237	32.2473
761.42	35.34944
761.602	39.20153
761.785	35.35292
761.968	41.78177
762.15	45.58858
762.333	33.94408
762.515	36.53573
762.698	31.97519
762.88	39.9399
763.063	36.84394
763.245	41.22776
763.428	28.64816
763.61	30.65909
763.793	26.53431
763.975	35.20234
764.158	32.12558
764.34	30.24387
764.522	28.86814
764.705	32.8757
764.887	44.54581
765.069	25.73702
765.252	37.49849
765.434	38.42314
765.616	35.75092
765.799	30.50902
765.981	38.62895
766.163	30.77014
766.345	43.5466
766.528	30.53182
766.71	22.67762
766.892	35.24191
767.074	44.12665
767.256	32.40033
767.438	46.94595
767.62	35.38199
767.802	50.59676
767.985	39.55286
768.167	48.18952
768.349	31.02785
768.531	39.29801
768.713	38.00271
768.895	40.21243
769.077	38.52778
769.259	54.29679
769.441	71.78069
769.623	41.28849
769.804	46.46248
769.986	44.53003
770.168	53.23701
770.35	62.74837
770.532	48.99018
770.714	52.7282
770.896	52.64846
771.077	28.30677
771.259	55.29663
771.441	49.6629
771.623	58.70007
771.804	69.71885
771.986	30.42678
772.168	40.79199
772.35	55.55128
772.531	69.78005
772.713	48.83771
772.894	61.67401
773.076	45.16482
773.258	41.33999
773.439	61.58366
773.621	69.29421
773.802	36.6236
773.984	40.75413
774.166	50.84483
774.347	64.0534
774.529	60.16766
774.71	27.70289
774.891	46.02032
775.073	43.45499
775.254	61.76091
775.436	38.75328
775.617	74.09541
775.799	43.83841
775.98	61.90442
776.161	68.35022
776.343	69.6833
776.524	48.36521
776.705	45.30822
776.886	30.28015
777.068	52.81129
777.249	98.55197
777.43	71.94494
777.611	36.18658
777.793	43.47859
777.974	69.08707
778.155	42.89529
778.336	36.95666
778.517	79.33038
778.698	40.4484
778.879	28.4911
779.061	20.50779
779.242	53.55676
779.423	53.69042
779.604	43.33079
779.785	43.9391
779.966	50.65633
780.147	62.52674
780.328	61.24113
780.509	82.5964
780.69	60.0602
780.871	41.68004
781.051	33.95173
781.232	50.56679
781.413	49.74251
781.594	45.50072
781.775	42.71327
781.956	39.47336
782.137	27.92121
782.317	42.62148
782.498	48.88496
782.679	50.80707
782.86	52.11082
783.04	43.32815
783.221	52.62665
783.402	71.1375
783.583	49.53185
783.763	59.15452
783.944	41.00638
784.124	34.2197
784.305	71.34457
784.486	57.37986
784.666	48.11445
784.847	33.24738
785.027	92.52375
785.208	42.28503
785.388	43.29839
785.569	42.70089
785.749	46.78445
785.93	44.3767
786.11	32.7705
786.291	56.07548
786.471	52.3788
786.652	59.69212
786.832	46.06209
787.012	52.43457
787.193	36.22546
787.373	50.69355
787.553	44.18477
787.734	52.66187
787.914	45.14709
788.094	62.26233
788.275	52.97213
788.455	44.77761
788.635	36.69639
788.815	50.0678
788.995	37.36353
789.176	33.27428
789.356	40.37348
789.536	47.54336
789.716	54.91371
789.896	41.67272
790.076	43.76245
790.256	53.48918
790.436	27.05894
790.616	38.11664
790.796	52.8724
790.976	45.35444
791.156	41.23383
791.336	56.65641
791.516	54.49031
791.696	45.79018
791.876	33.6446
792.056	50.55435
792.236	60.44974
792.416	59.622
792.596	52.93885
792.776	55.3319
792.956	56.53549
793.135	72.60546
793.315	36.74246
793.495	62.29049
793.675	57.79322
793.854	59.21403
794.034	62.31847
794.214	38.70844
794.394	59.51271
794.573	65.57303
794.753	51.84156
794.933	40.30717
795.112	52.37334
795.292	61.8005
795.472	72.41496
795.651	36.33661
795.831	49.34878
796.01	46.38038
796.19	46.36346
796.369	50.03927
796.549	54.91894
796.728	48.14588
796.908	34.66752
797.087	36.75734
797.267	45.46133
797.446	37.17025
797.626	56.6483
797.805	55.75943
797.984	41.28693
798.164	58.74539
798.343	40.80169
798.522	53.59967
798.702	52.59047
798.881	37.1625
799.06	47.54157
799.239	29.02456
799.419	40.39263
799.598	71.55146
799.777	55.57843
799.956	66.17738
800.136	47.49649
800.315	40.35378
800.494	55.68828
800.673	64.01233
800.852	58.30914
801.031	65.71498
801.21	57.98946
801.389	47.97728
801.568	51.45279
801.747	76.17814
801.926	51.23019
802.105	70.29383
802.284	45.14698
802.463	73.04057
802.642	54.52027
802.821	53.85125
803	68.7072
803.179	61.53748
803.358	64.56837
803.537	44.57814
803.716	51.64786
803.895	44.4649
804.073	50.66373
804.252	42.83963
804.431	57.70603
804.61	49.93539
804.789	61.70552
804.967	43.40704
805.146	47.0219
805.325	79.01853
805.503	55.69113
805.682	36.93002
805.861	98.14218
806.039	69.31706
806.218	47.77558
806.397	54.50546
806.575	51.08644
806.754	58.48001
806.932	41.10943
807.111	64.60575
807.289	61.78854
807.468	51.8086
807.646	65.49258
807.825	59.82007
808.003	55.71894
808.182	65.95336
808.36	52.91133
808.539	42.89506
808.717	72.88517
808.895	44.66479
809.074	58.54684
809.252	51.81015
809.43	59.18587
809.609	68.27421
809.787	77.65148
809.965	49.12001
810.144	53.24942
810.322	55.02816
810.5	59.01801
810.678	49.59765
810.856	84.283
811.035	67.56878
811.213	63.3932
811.391	74.44315
811.569	57.92665
811.747	105.68049
811.925	72.37598
812.103	45.39694
812.281	53.66909
812.459	81.85611
812.637	79.72367
812.816	65.59025
812.994	87.25581
813.171	72.02578
813.349	60.97597
813.527	68.64914
813.705	79.05017
813.883	93.16675
814.061	66.34865
814.239	81.77143
814.417	85.85604
814.595	63.96482
814.773	59.48434
814.95	58.97842
815.128	63.97586
815.306	61.23985
815.484	56.49536
815.662	46.29947
815.839	40.87141
816.017	49.56198
816.195	75.07829
816.372	49.13921
816.55	66.47616
816.728	80.3123
816.905	54.96207
817.083	79.69583
817.261	57.03584
817.438	101.90664
817.616	82.89473
817.793	49.56666
817.971	68.47342
818.148	69.96008
818.326	76.50052
818.503	60.42449
818.681	80.99365
818.858	52.50213
819.036	57.47877
819.213	60.16365
819.391	49.35379
819.568	49.0051
819.745	44.87732
819.923	67.9195
820.1	53.7734
820.277	46.75603
820.455	52.33233
820.632	56.13128
820.809	57.82784
820.986	43.54533
821.164	38.85725
821.341	37.29785
821.518	48.14406
821.695	39.05378
821.872	37.6
822.05	34.98612
822.227	32.15098
822.404	33.22339
822.581	36.10435
822.758	34.19393
822.935	34.80148
823.112	37.35484
823.289	35.10162
823.466	37.97903
823.643	38.05611
823.82	41.98706
823.997	40.58945
824.174	44.96233
824.351	52.44931
824.528	52.1286
824.705	50.18381
824.882	52.63862
825.059	59.84779
825.236	50.72322
825.412	51.06494
825.589	54.53848
825.766	65.94175
825.943	49.9889
826.12	53.53246
826.296	45.17458
826.473	48.90315
826.65	48.52123
826.827	53.77357
827.003	42.13234
827.18	44.97923
827.357	48.2347
827.533	43.63142
827.71	34.48551
827.887	42.084
828.063	44.96056
828.24	40.80414
828.416	48.13163
828.593	44.75352
828.769	54.72329
828.946	55.86503
829.122	59.01572
829.299	57.48677
829.475	46.97725
829.652	59.18629
829.828	77.05895
830.005	59.2351
830.181	71.07476
830.357	57.84015
830.534	72.24865
830.71	58.80443
830.886	70.21242
831.063	66.32598
831.239	76.92034
831.415	48.06103
831.592	78.94966
831.768	59.35872
831.944	50.85276
832.12	84.6059
832.296	78.23675
832.473	68.05506
832.649	51.92421
832.825	69.58473
833.001	47.25305
833.177	62.41855
833.353	57.16717
833.529	40.93991
833.705	54.60234
833.881	42.34834
834.058	41.62561
834.234	44.03783
834.41	43.6554
834.586	38.28948
834.761	43.07386
834.937	45.43182
835.113	47.55251
835.289	43.44989
835.465	49.18558
835.641	46.57027
835.817	50.3342
835.993	71.75037
836.169	48.96263
836.344	62.3878
836.52	65.69218
836.696	61.7159
836.872	55.03891
837.048	109.98167
837.223	60.39243
837.399	89.03577
837.575	75.08815
837.75	72.34943
837.926	92.83564
838.102	122.97993
838.277	104.29721
838.453	136.29226
838.628	135.03239
838.804	67.67194
838.98	120.31575
839.155	72.35716
839.331	93.38627
839.506	67.95741
839.682	71.79842
839.857	93.5811
840.033	100.94405
840.208	59.44362
840.384	39.09963
840.559	59.94925
840.734	79.55643
840.91	98.23243
841.085	65.62066
841.26	67.87105
841.436	63.87651
841.611	64.63688
841.786	86.13927
841.962	106.08331
842.137	74.65504
842.312	58.01018
842.487	70.68039
842.663	62.56185
842.838	75.27896
843.013	176.40463
843.188	97.87371
843.363	102.91092
843.538	151.45616
843.714	151.36892
843.889	155.94993
844.064	164.06652
844.239	134.90967
844.414	156.25221
844.589	106.19769
844.764	184.50309
844.939	183.25427
845.114	196.38039
845.289	183.14714
845.464	246.94471
845.639	173.86381
845.814	98.6108
845.989	112.93985
846.163	130.39508
846.338	136.08669
846.513	185.47791
846.688	129.46281
846.863	128.92802
847.038	116.92549
847.212	126.84734
847.387	132.3553
847.562	142.41537
847.737	172.11711
847.911	79.88577
848.086	89.9159
848.261	236.50385
848.435	116.46835
848.61	171.74494
848.785	101.55232
848.959	181.92856
849.134	242.62941
849.308	248.49007
849.483	139.81707
849.658	209.52849
849.832	121.69133
850.007	115.51071
850.181	274.39938
850.356	118.47969
850.53	255.0075
850.705	96.56935
850.879	66.83097
851.053	138.31358
851.228	126.62092
851.402	153.54288
851.577	193.16287
851.751	207.91971
851.925	145.69666
852.099	77.62337
852.274	110.09338
852.448	141.76534
852.622	156.03696
852.797	136.86613
852.971	131.72623
853.145	141.74477
853.319	368.09276
853.493	205.51849
853.668	123.38157
853.842	242.87948
854.016	202.98086
854.19	232.75853
854.364	149.1948
854.538	158.55022
854.712	206.24002
854.886	137.56344
855.06	136.68575
855.234	65.88992
855.408	221.41892
855.582	187.49074
855.756	183.91297
855.93	235.63276
856.104	170.57133
856.278	190.54822
856.452	144.33882
856.626	186.4012
856.8	285.45424
856.973	181.25349
857.147	165.53484
857.321	162.75722
857.495	205.7962
857.669	143.24744
857.842	130.49994
858.016	200.36263
858.19	115.84469
858.364	316.43997
858.537	134.11748
858.711	153.42306
858.885	134.78081
859.058	119.91453
859.232	80.42725
859.405	95.89718
859.579	196.76246
859.753	166.30572
859.926	122.33496
860.1	88.31476
860.273	145.0669
860.447	230.68943
860.62	134.16991
860.794	269.18431
860.967	165.94089
861.141	201.12432
861.314	284.35872
861.487	179.28242
861.661	224.75931
861.834	222.91391
862.008	199.73726
862.181	150.22527
862.354	151.62023
862.528	167.90134
862.701	124.55829
862.874	95.87283
863.047	138.25317
863.221	134.68459
863.394	81.28006
863.567	230.13491
863.74	67.99676
863.913	189.46543
864.087	170.79637
864.26	201.86926
864.433	146.22018
864.606	247.20878
864.779	161.4292
864.952	90.96184
865.125	127.69271
865.298	146.67582
865.471	159.70338
865.644	286.03961
865.817	237.82585
865.99	194.63875
866.163	226.22492
866.336	134.88445
866.509	156.55069
866.682	138.72518
866.855	215.86396
867.028	106.83537
867.2	182.99449
867.373	78.83379
867.546	172.73621
867.719	291.83776
867.892	188.50924
868.064	116.23456
868.237	177.86831
868.41	159.54391
868.583	107.53571
868.755	104.24559
868.928	154.51112
869.101	296.82507
869.273	224.97041
869.446	191.90316
869.619	218.70735
869.791	147.03448
869.964	206.34718
870.136	197.20147
870.309	156.69119
870.481	161.98383
870.654	91.47292
870.826	165.97011
870.999	133.67065
871.171	198.04822
871.344	131.6184
871.516	158.69498
871.689	123.60129
871.861	163.94408
872.033	119.94952
872.206	141.97326
872.378	215.20866
872.55	140.93666
872.723	107.20851
872.895	147.69916
873.067	215.01974
873.24	239.78255
873.412	137.92083
873.584	148.44456
873.756	139.63589
873.928	183.03371
874.101	179.32409
874.273	194.00258
874.445	83.4303
874.617	102.87465
874.789	171.97623
874.961	145.34773
875.133	185.70512
875.305	161.6998
875.477	109.4788
875.649	94.77431
875.821	116.18951
875.993	251.46402
876.165	112.77505
876.337	179.41194
876.509	143.86227
876.681	175.13279
876.853	164.87475
877.025	169.49273
877.197	121.8218
877.369	114.67254
877.541	207.96046
877.712	78.93162
877.884	105.92772
878.056	190.334
878.228	113.79359
878.4	182.08508
878.571	116.25376
878.743	87.82843
878.915	168.68288
879.086	108.94684
879.258	129.64013
879.43	120.22637
879.601	108.498
879.773	111.97581
879.945	46.00747
880.116	61.86372
880.288	46.28951
880.459	48.78518
880.631	44.12347
880.802	48.38666
880.974	47.6176
881.145	40.87512
881.317	47.16836
881.488	42.20222
881.66	45.09991
881.831	43.2268
882.002	50.95518
882.174	45.71176
882.345	52.23111
882.517	44.20133
882.688	58.12132
882.859	56.82612
883.03	72.58554
883.202	72.3462
883.373	72.43541
883.544	74.00649
883.715	99.0234
883.887	90.55282
884.058	83.94772
884.229	105.33379
884.4	107.20408
884.571	112.76385
884.742	105.89972
884.914	111.01315
885.085	133.78843
885.256	150.09289
885.427	133.74542
885.598	147.85087
885.769	148.19868
885.94	148.72384
886.111	111.13916
886.282	162.96594
886.453	140.65862
886.624	111.58586
886.795	153.64345
886.966	135.23766
887.136	170.48485
887.307	125.90524
887.478	195.63937
887.649	178.43953
887.82	182.46645
887.991	160.12383
888.161	195.8477
888.332	188.29249
888.503	113.77752
888.674	237.45102
888.844	248.85789
889.015	202.49253
889.186	114.2211
889.356	240.81166
889.527	110.52891
889.698	374.03335
889.868	152.57084
890.039	176.9026
890.209	165.56041
890.38	204.32034
890.551	174.91573
890.721	247.0095
890.892	210.68136
891.062	152.83954
891.233	182.95023
891.403	146.90464
891.574	134.562
891.744	153.33648
891.914	199.93758
892.085	176.52046
892.255	84.01766
892.425	243.77576
892.596	205.81159
892.766	189.32435
892.936	246.79763
893.107	211.59828
893.277	134.01297
893.447	106.42776
893.618	85.33284
893.788	140.80259
893.958	89.66472
894.128	90.79917
894.298	97.44879
894.468	126.30607
894.639	69.45374
894.809	62.64489
894.979	78.46887
895.149	86.35384
895.319	76.41773
895.489	87.45159
895.659	112.03549
895.829	86.58493
895.999	91.89056
896.169	80.36556
896.339	92.37009
896.509	152.88828
896.679	171.86337
896.849	169.31401
897.019	223.94892
897.189	180.97881
897.358	173.66717
897.528	225.15198
897.698	107.53549
897.868	208.75794
898.038	311.10272
898.208	305.31374
898.377	142.62291
898.547	307.13756
898.717	468.3141
898.886	211.89963
899.056	296.34411
899.226	431.71275
899.395	284.45352
899.565	334.59235
899.735	232.87997
899.904	371.96909
900.074	308.6439
900.244	182.00901
900.413	551.14568
900.583	159.6329
900.752	220.53692
900.922	346.75592
901.091	82.67985
901.261	301.79675
901.43	285.01009
901.599	288.02439
901.769	588.56507
901.938	320.86118
902.108	315.91698
902.277	397.04998
902.446	146.31157
902.616	157.61324
902.785	203.51981
902.954	306.94569
903.124	215.06271
903.293	174.57816
903.462	117.83322
903.631	143.16871
903.801	112.00911
903.97	70.87594
904.139	106.17209
904.308	86.17795
904.477	77.23376
904.646	58.12176
904.816	74.55634
904.985	97.09987
905.154	134.14392
