Data from WindowProjectSample_Transmission__12__00012__0945380751951042.txt Node

Date: Mon May 05 16:57:19 EDT 2025
User: jessi
Spectrometer: SR400872
Trigger mode: 0
Integration Time (sec): 5.000010E-1
Scans to average: 20
Electric dark correction enabled: true
Nonlinearity correction enabled: true
Boxcar width: 0
XAxis mode: Wavelengths
Number of Pixels in Spectrum: 3648
>>>>>Begin Spectral Data<<<<<
184.909	20793.85065
185.132	-5018.09538
185.355	-3105.46694
185.578	-17532.47928
185.801	1948.61973
186.024	10347.70862
186.247	-1742.42606
186.47	1196.1709
186.693	355.19389
186.916	299.5092
187.139	-3720.71014
187.362	3521.18699
187.585	3909.93004
187.808	3640.46061
188.031	43.37917
188.254	-53863.295
188.476	-1619.08632
188.699	6386.52419
188.922	560.47521
189.145	-15347.3395
189.368	-534.56643
189.591	-1381.85278
189.813	3054.11346
190.036	-49872.0794
190.259	-882.26028
190.482	-4457.49196
190.705	6928.6891
190.927	-2604.92796
191.15	13060.39562
191.373	3248.66858
191.595	-8723.30828
191.818	-4148.50251
192.041	-5780.09484
192.263	-3269.00789
192.486	-918.52383
192.709	-3755.13417
192.931	7843.59093
193.154	-28493.41079
193.377	-2915.07795
193.599	-2451.69818
193.822	-8711.23223
194.044	-1860.46476
194.267	1153.5615
194.489	244.28026
194.712	-41327.69881
194.934	-31725.65284
195.157	1071.8539
195.379	1395.65836
195.602	-6965.94402
195.824	-1267.1458
196.047	-8717.03704
196.269	2665.94485
196.492	-6397.78472
196.714	28365.53516
196.936	-8344.62482
197.159	-1214.00708
197.381	1066.39682
197.604	279.01649
197.826	12401.59898
198.048	-10477.4436
198.271	-2750.07158
198.493	7761.27597
198.715	2362.68263
198.938	-491.57511
199.16	6862.12091
199.382	-100272.03453
199.604	2608.45541
199.827	-1058.28615
200.049	-2827.66625
200.271	14530.20511
200.493	1220.91366
200.715	-38327.92637
200.938	-6069.65289
201.16	-4227.97022
201.382	20182.15685
201.604	2331.35957
201.826	2287.64738
202.048	-1957.70153
202.27	-2063.72637
202.492	-35555.31298
202.715	2725.95879
202.937	-4408.02195
203.159	-6152.77877
203.381	1476.11239
203.603	6548.51057
203.825	6901.08982
204.047	2136.44764
204.269	-2666.29824
204.491	2241.62847
204.713	5702.52293
204.935	-480626.016
205.156	1163.11602
205.378	-2615.0398
205.6	1561.51387
205.822	149437.45
206.044	-1049.57456
206.266	1586.86666
206.488	4882.52745
206.71	-5149.17349
206.932	1087.06042
207.153	11834.04371
207.375	-6827.33451
207.597	-37181.08424
207.819	-2781.36781
208.041	2331.22148
208.262	465.81719
208.484	733.39248
208.706	-784.87961
208.927	-787.74784
209.149	542.96241
209.371	-2922.54005
209.593	-302.54881
209.814	-758.54647
210.036	647.53647
210.258	-605.80277
210.479	1705.80316
210.701	1637.75915
210.922	3268.55155
211.144	-4014.90141
211.366	2074.75346
211.587	6997.93582
211.809	-8085.89524
212.03	2264.31037
212.252	460.52635
212.473	1988.38129
212.695	-6560.63012
212.916	2844.38973
213.138	-673.10017
213.359	3649.41831
213.581	5238.52954
213.802	-760.54795
214.024	1159.89047
214.245	1989.97429
214.466	3914.07199
214.688	-2935.9804
214.909	-1248.50083
215.131	-1843.29787
215.352	-3113.88625
215.573	14868.40053
215.795	4924.62215
216.016	5311.64665
216.237	777.63229
216.459	3498.01476
216.68	1721.705
216.901	4796.23372
217.122	-2993.28481
217.344	-10605.62375
217.565	3360.41299
217.786	8780.17046
218.007	14990.21499
218.228	-670.08293
218.45	5612.23487
218.671	731.4742
218.892	36520.05063
219.113	1636.7818
219.334	-253.75817
219.555	9453.14066
219.776	2983.11576
219.997	22529.4093
220.219	2788.7295
220.44	-10904.86005
220.661	434.12219
220.882	1499.59914
221.103	-1173.34244
221.324	2224.25661
221.545	2267.37217
221.766	-8908.69465
221.987	910.59893
222.208	1682.25026
222.429	4270.365
222.65	325.80847
222.87	17363.96513
223.091	720.09615
223.312	608.41294
223.533	1272.51598
223.754	1429.57632
223.975	1357.0678
224.196	1924.70207
224.417	1321.33903
224.637	557.80612
224.858	106.62253
225.079	1072.15216
225.3	641.00213
225.521	3727.87458
225.741	467.23221
225.962	482.19343
226.183	142.50462
226.404	655.29933
226.624	434.98157
226.845	607.02119
227.066	410.59807
227.286	251.02817
227.507	121.18206
227.728	115.67827
227.948	235.91855
228.169	72.90839
228.389	85.8885
228.61	48.59969
228.831	63.01294
229.051	0.59133
229.272	38.06221
229.492	55.55451
229.713	13.69848
229.933	37.67081
230.154	31.67369
230.374	53.80705
230.595	36.5127
230.815	23.29974
231.036	39.90494
231.256	-8.53285
231.477	66.55749
231.697	38.38903
231.917	39.56264
232.138	57.65759
232.358	105.55652
232.579	102.40784
232.799	17.77308
233.019	102.27331
233.24	112.10907
233.46	37.04023
233.68	64.7584
233.901	41.53599
234.121	27.27588
234.341	11.67523
234.561	-2.96178
234.782	19.94897
235.002	63.37821
235.222	-4.81782
235.442	64.19098
235.662	32.97059
235.883	60.78515
236.103	50.35872
236.323	38.43198
236.543	30.64159
236.763	41.12862
236.983	43.33522
237.203	42.76317
237.423	58.11115
237.643	86.78866
237.864	70.31274
238.084	19.12784
238.304	26.72533
238.524	41.58791
238.744	39.64236
238.964	71.24034
239.184	61.31979
239.404	63.27522
239.624	32.94623
239.843	58.78655
240.063	35.59887
240.283	20.40688
240.503	24.37404
240.723	25.98308
240.943	13.91689
241.163	19.15205
241.383	14.12217
241.603	7.85745
241.822	10.17028
242.042	5.88803
242.262	8.34464
242.482	9.3463
242.702	10.53914
242.921	3.01051
243.141	6.6852
243.361	6.06252
243.581	9.52189
243.8	7.30073
244.02	5.71221
244.24	9.40167
244.459	9.1225
244.679	17.62831
244.899	11.2127
245.118	12.6766
245.338	11.50757
245.558	13.39748
245.777	8.38319
245.997	10.43642
246.216	10.65207
246.436	6.10205
246.655	4.54655
246.875	3.11041
247.094	6.20686
247.314	1.92716
247.533	3.56176
247.753	4.3987
247.972	3.44061
248.192	1.16462
248.411	1.83184
248.631	3.42477
248.85	4.64497
249.07	3.61811
249.289	5.80559
249.508	5.13808
249.728	7.64825
249.947	7.25623
250.166	8.62625
250.386	4.20665
250.605	6.8639
250.824	10.29184
251.044	7.4585
251.263	28.20418
251.482	14.1079
251.701	11.38298
251.921	-0.13003
252.14	3.00848
252.359	3.6436
252.578	9.80153
252.798	3.21969
253.017	8.62748
253.236	3.76364
253.455	5.49944
253.674	9.7669
253.893	4.98185
254.112	7.2596
254.331	11.24808
254.551	8.90993
254.77	3.48321
254.989	12.92881
255.208	9.9047
255.427	14.46915
255.646	10.98792
255.865	22.30204
256.084	8.41784
256.303	10.42054
256.522	13.5117
256.741	3.05472
256.96	2.73288
257.179	7.90264
257.397	10.44619
257.616	5.79937
257.835	5.95065
258.054	15.1144
258.273	10.34941
258.492	11.02977
258.711	6.33577
258.93	3.01668
259.148	4.75077
259.367	4.73698
259.586	5.4847
259.805	2.32342
260.023	5.20636
260.242	3.92334
260.461	2.8323
260.68	1.27541
260.898	4.38642
261.117	1.39732
261.336	0.84308
261.554	3.41483
261.773	3.46921
261.992	0.71114
262.21	3.06029
262.429	3.40056
262.648	7.3872
262.866	7.73532
263.085	5.54862
263.303	5.00172
263.522	8.6558
263.74	8.9203
263.959	15.2342
264.178	6.92389
264.396	6.23303
264.615	4.44051
264.833	10.60299
265.051	8.86644
265.27	10.77322
265.488	11.11845
265.707	6.2248
265.925	10.98183
266.144	4.54734
266.362	5.48326
266.58	5.00004
266.799	5.00397
267.017	6.12291
267.235	5.34012
267.454	3.19928
267.672	1.75997
267.89	4.00315
268.109	4.32686
268.327	4.34066
268.545	0.81397
268.763	3.78984
268.982	1.40376
269.2	4.34143
269.418	2.86889
269.636	1.72309
269.854	4.51046
270.073	3.03268
270.291	1.87109
270.509	2.02917
270.727	4.32747
270.945	7.15305
271.163	7.09582
271.381	1.39978
271.599	3.29711
271.817	5.33096
272.036	1.86973
272.254	2.85883
272.472	2.33554
272.69	2.45212
272.908	2.34548
273.126	4.42036
273.344	5.31829
273.562	1.78913
273.779	2.51639
273.997	3.71399
274.215	4.00119
274.433	2.90564
274.651	4.26221
274.869	4.82182
275.087	2.84128
275.305	4.00606
275.523	2.51911
275.74	2.79005
275.958	5.20775
276.176	8.2134
276.394	2.49937
276.612	3.3332
276.829	3.15824
277.047	2.60718
277.265	2.89646
277.483	3.52207
277.7	4.31563
277.918	3.36563
278.136	6.1367
278.353	2.65341
278.571	1.63764
278.789	4.32895
279.006	0.88725
279.224	2.89932
279.442	5.17089
279.659	3.38455
279.877	2.40632
280.094	5.90745
280.312	1.20305
280.529	3.49227
280.747	0.8276
280.964	2.59182
281.182	5.71017
281.399	2.61508
281.617	3.75049
281.834	2.59408
282.052	1.9024
282.269	3.13778
282.487	2.21578
282.704	2.06378
282.921	2.11684
283.139	3.22752
283.356	3.846
283.574	3.75753
283.791	1.83187
284.008	5.48039
284.226	2.90141
284.443	3.33502
284.66	4.4796
284.877	3.2812
285.095	1.94254
285.312	1.5728
285.529	0.93229
285.746	0.83266
285.964	1.9238
286.181	1.31123
286.398	1.79031
286.615	2.70609
286.832	2.54791
287.05	0.39205
287.267	1.81962
287.484	2.37565
287.701	2.42045
287.918	2.54902
288.135	2.5211
288.352	1.19337
288.569	1.48247
288.786	2.42889
289.003	2.13673
289.22	2.99508
289.437	1.67299
289.654	2.85092
289.871	2.97176
290.088	2.82657
290.305	2.18104
290.522	1.73318
290.739	1.99668
290.956	3.15923
291.173	3.44178
291.39	3.35369
291.607	2.33831
291.824	1.68841
292.04	1.21417
292.257	2.81409
292.474	3.18547
292.691	1.97938
292.908	1.06082
293.125	1.7812
293.341	1.16152
293.558	4.85448
293.775	1.93526
293.992	2.35761
294.208	0.7896
294.425	1.40177
294.642	1.87913
294.858	2.73199
295.075	0.6134
295.292	1.89847
295.508	2.28538
295.725	4.04485
295.942	1.85659
296.158	1.34585
296.375	2.20177
296.591	1.73871
296.808	1.91416
297.024	2.19487
297.241	2.47887
297.458	2.6854
297.674	0.55022
297.891	2.13659
298.107	1.95598
298.323	1.52928
298.54	3.58772
298.756	1.85532
298.973	1.20882
299.189	3.69534
299.406	1.94869
299.622	3.43646
299.838	3.44383
300.055	3.32914
300.271	1.4116
300.487	1.92567
300.704	2.17509
300.92	1.58616
301.136	5.24945
301.353	3.56576
301.569	2.72252
301.785	3.146
302.001	3.49158
302.218	3.19362
302.434	3.49264
302.65	1.825
302.866	2.56431
303.083	5.30223
303.299	4.99921
303.515	3.30309
303.731	3.63252
303.947	2.07658
304.163	2.65083
304.379	3.58322
304.595	3.88547
304.812	2.5861
305.028	2.67037
305.244	3.19682
305.46	4.07373
305.676	4.16947
305.892	4.64987
306.108	4.07389
306.324	3.10763
306.54	5.2571
306.756	4.13207
306.972	3.94813
307.187	3.59539
307.403	4.83593
307.619	3.17623
307.835	4.71071
308.051	5.00676
308.267	2.85331
308.483	4.90102
308.699	4.23372
308.914	3.82892
309.13	3.72739
309.346	2.67948
309.562	3.03324
309.778	2.7232
309.993	4.2996
310.209	4.1231
310.425	2.94984
310.641	3.99113
310.856	3.23713
311.072	3.16002
311.288	4.00712
311.503	4.34436
311.719	2.60436
311.935	2.76476
312.15	4.6769
312.366	4.30231
312.581	4.66153
312.797	4.24682
313.013	5.00806
313.228	3.66215
313.444	4.01103
313.659	3.73418
313.875	4.67495
314.09	4.07004
314.306	5.34886
314.521	4.94933
314.737	4.9422
314.952	4.13675
315.168	4.30089
315.383	4.60561
315.599	3.92611
315.814	4.11317
316.029	5.01457
316.245	3.47685
316.46	2.89985
316.675	5.42385
316.891	5.85436
317.106	6.88228
317.321	4.53435
317.537	4.95166
317.752	5.13837
317.967	5.2216
318.183	3.55596
318.398	4.12066
318.613	5.16651
318.828	5.79964
319.043	5.20058
319.259	4.22456
319.474	4.81706
319.689	5.62823
319.904	2.95416
320.119	5.38902
320.334	4.75019
320.549	4.34256
320.765	5.50141
320.98	4.85608
321.195	4.98797
321.41	4.58879
321.625	5.22992
321.84	6.21105
322.055	6.1443
322.27	4.00073
322.485	3.54765
322.7	5.11946
322.915	5.38698
323.13	4.08142
323.345	6.11672
323.56	5.85459
323.775	5.28154
323.989	5.30926
324.204	5.07283
324.419	5.91609
324.634	3.86109
324.849	4.82104
325.064	7.93115
325.279	5.91794
325.493	5.22279
325.708	5.72368
325.923	4.31808
326.138	4.64174
326.352	6.37826
326.567	5.86071
326.782	4.60077
326.997	4.5417
327.211	5.41123
327.426	5.33185
327.641	4.78468
327.855	3.80891
328.07	5.49666
328.285	6.72528
328.499	4.59718
328.714	5.26847
328.928	5.38015
329.143	4.79218
329.358	6.0645
329.572	5.81057
329.787	6.37607
330.001	7.26613
330.216	3.82153
330.43	7.0417
330.645	6.33629
330.859	5.77903
331.074	4.31439
331.288	5.22471
331.503	6.58235
331.717	4.09376
331.931	5.30923
332.146	5.43314
332.36	6.88643
332.575	5.54616
332.789	5.4191
333.003	5.46483
333.218	5.6611
333.432	4.85467
333.646	6.18697
333.86	6.92376
334.075	6.73449
334.289	4.80874
334.503	4.2026
334.717	5.80726
334.932	5.44454
335.146	6.06186
335.36	4.58959
335.574	5.86541
335.788	5.69258
336.003	6.19848
336.217	6.11275
336.431	5.78426
336.645	4.87642
336.859	4.32645
337.073	5.30678
337.287	5.64384
337.501	4.34463
337.715	5.92979
337.929	6.1112
338.143	4.61805
338.357	5.20727
338.571	5.09503
338.785	6.16278
338.999	5.04274
339.213	5.12684
339.427	4.35227
339.641	6.73302
339.855	5.24722
340.069	4.93442
340.283	6.34045
340.497	6.71334
340.711	6.04523
340.924	5.6627
341.138	4.82073
341.352	4.60432
341.566	5.762
341.78	4.18175
341.993	5.27706
342.207	5.0224
342.421	5.81424
342.635	5.48935
342.848	5.27791
343.062	3.6984
343.276	5.0439
343.49	7.20069
343.703	5.04681
343.917	6.73337
344.131	6.75787
344.344	5.03888
344.558	5.51675
344.771	4.6642
344.985	7.15635
345.199	7.14929
345.412	6.16691
345.626	6.1777
345.839	4.51169
346.053	4.8782
346.266	5.011
346.48	6.29864
346.693	6.11578
346.907	6.00712
347.12	4.86667
347.334	5.88137
347.547	5.92297
347.76	5.72976
347.974	6.75634
348.187	5.86841
348.401	5.4754
348.614	4.98333
348.827	5.4872
349.041	6.13861
349.254	4.47974
349.467	5.41194
349.681	4.96712
349.894	5.03084
350.107	6.74964
350.32	7.36532
350.534	4.80646
350.747	5.57594
350.96	5.26798
351.173	5.28772
351.386	5.59913
351.6	5.3401
351.813	5.48957
352.026	5.62539
352.239	4.9423
352.452	5.61077
352.665	6.82114
352.878	5.85758
353.092	7.49405
353.305	6.63511
353.518	6.09956
353.731	5.13769
353.944	6.78797
354.157	5.63436
354.37	5.47444
354.583	5.03511
354.796	4.95929
355.009	6.72373
355.222	6.40234
355.435	6.08629
355.647	6.79715
355.86	5.40408
356.073	6.27598
356.286	5.63102
356.499	6.83484
356.712	6.64855
356.925	6.64403
357.138	6.83805
357.35	5.62624
357.563	6.02796
357.776	6.41537
357.989	6.26555
358.201	6.85313
358.414	6.56697
358.627	7.43125
358.84	6.20236
359.052	5.51513
359.265	5.7331
359.478	7.14574
359.69	4.56714
359.903	6.92385
360.116	7.09432
360.328	5.31473
360.541	7.00807
360.753	5.92535
360.966	6.26153
361.179	6.46729
361.391	6.26819
361.604	6.09296
361.816	6.43224
362.029	6.42552
362.241	6.12191
362.454	6.43089
362.666	6.07652
362.879	7.14006
363.091	6.50366
363.304	6.27613
363.516	6.40698
363.728	5.88293
363.941	6.93258
364.153	6.694
364.366	5.14396
364.578	5.77262
364.79	6.72077
365.003	6.65008
365.215	5.97969
365.427	7.04008
365.639	7.16339
365.852	6.53843
366.064	7.99177
366.276	6.45673
366.488	6.74744
366.701	6.36891
366.913	6.24088
367.125	6.4459
367.337	5.9051
367.549	6.18225
367.762	6.46512
367.974	6.58286
368.186	6.21939
368.398	7.23158
368.61	6.90656
368.822	7.00984
369.034	6.29839
369.246	7.05583
369.458	8.79774
369.67	5.98781
369.882	7.74229
370.094	5.28325
370.306	7.65319
370.518	6.43644
370.73	6.24969
370.942	6.2698
371.154	6.61621
371.366	6.46401
371.578	6.90635
371.79	6.54797
372.002	7.42958
372.214	8.35388
372.425	6.5115
372.637	7.88857
372.849	7.01696
373.061	5.41895
373.273	6.94309
373.484	6.9655
373.696	7.29677
373.908	5.19471
374.12	7.51351
374.331	6.96474
374.543	6.29152
374.755	6.27382
374.967	6.8563
375.178	7.41942
375.39	6.45818
375.602	6.9412
375.813	5.81292
376.025	6.27468
376.236	7.01289
376.448	7.19459
376.66	6.69992
376.871	6.89028
377.083	7.79615
377.294	8.36483
377.506	6.71224
377.717	8.05117
377.929	7.27464
378.14	6.99448
378.352	7.35263
378.563	7.47064
378.775	8.05266
378.986	6.4821
379.197	7.12657
379.409	6.63572
379.62	7.51776
379.832	7.42567
380.043	6.87797
380.254	7.24139
380.466	6.35467
380.677	9.14627
380.888	8.44276
381.1	8.98746
381.311	8.66073
381.522	7.41906
381.733	9.08614
381.945	7.2398
382.156	7.05032
382.367	6.88418
382.578	9.1349
382.789	9.26927
383.001	6.71045
383.212	8.54476
383.423	8.26543
383.634	8.08561
383.845	7.94042
384.056	7.15476
384.267	7.42603
384.478	7.50721
384.69	6.79613
384.901	7.74795
385.112	7.58618
385.323	8.76843
385.534	7.73907
385.745	7.71452
385.956	7.66846
386.167	6.95622
386.378	7.99881
386.588	7.0586
386.799	6.95485
387.01	6.62511
387.221	8.05564
387.432	7.66344
387.643	8.77219
387.854	7.47102
388.065	7.31068
388.275	7.45761
388.486	7.21474
388.697	7.59995
388.908	7.32197
389.119	8.48062
389.329	8.62354
389.54	7.75502
389.751	7.75421
389.962	8.55561
390.172	7.77829
390.383	7.55969
390.594	7.23577
390.804	7.36414
391.015	7.4929
391.226	7.89289
391.436	8.21399
391.647	8.20812
391.858	8.25231
392.068	7.00361
392.279	7.33961
392.489	8.12531
392.7	8.55048
392.91	7.56265
393.121	7.4885
393.331	8.30296
393.542	8.66801
393.752	8.5177
393.963	8.35814
394.173	8.21221
394.384	8.39784
394.594	8.12987
394.804	7.39568
395.015	8.27529
395.225	8.42363
395.436	7.50608
395.646	8.32262
395.856	7.86165
396.067	7.18252
396.277	8.63126
396.487	8.23094
396.697	8.27574
396.908	8.32891
397.118	8.31895
397.328	8.17852
397.538	8.56824
397.749	7.57323
397.959	8.65167
398.169	8.34562
398.379	7.31814
398.589	8.46084
398.8	8.2965
399.01	8.26964
399.22	7.96144
399.43	9.48211
399.64	8.21895
399.85	8.45225
400.06	8.20103
400.27	7.61433
400.48	8.07194
400.69	9.06739
400.9	7.80242
401.11	7.46416
401.32	8.66148
401.53	7.89266
401.74	9.14841
401.95	8.49788
402.16	7.86357
402.37	8.42934
402.58	7.91836
402.79	8.62311
403	9.01439
403.209	7.86101
403.419	9.04628
403.629	7.79957
403.839	9.01126
404.049	8.93253
404.258	8.2007
404.468	8.0148
404.678	9.00827
404.888	9.2979
405.097	8.32411
405.307	8.42843
405.517	9.03707
405.727	8.75445
405.936	8.37336
406.146	8.69277
406.356	9.37678
406.565	8.48677
406.775	8.18788
406.984	8.26364
407.194	9.5819
407.404	8.4367
407.613	9.06518
407.823	8.98695
408.032	9.23954
408.242	9.04448
408.451	8.27061
408.661	8.54595
408.87	9.57535
409.08	8.14688
409.289	8.92393
409.499	8.856
409.708	8.68406
409.918	7.42657
410.127	8.83672
410.336	9.69364
410.546	9.1875
410.755	8.48246
410.964	8.58012
411.174	8.24035
411.383	9.16692
411.592	8.97644
411.802	8.24654
412.011	9.15772
412.22	8.6828
412.429	9.78991
412.639	9.62621
412.848	9.37473
413.057	9.74639
413.266	9.48812
413.475	8.99414
413.685	9.19796
413.894	9.4428
414.103	9.53001
414.312	9.37538
414.521	8.72288
414.73	9.10913
414.939	10.29202
415.148	9.41753
415.357	9.25166
415.566	9.04176
415.776	8.93031
415.985	9.00263
416.194	9.73854
416.403	10.47165
416.611	8.62066
416.82	9.16365
417.029	9.49278
417.238	9.21802
417.447	9.0251
417.656	9.46278
417.865	9.18332
418.074	9.5191
418.283	9.65687
418.492	10.23683
418.7	10.01587
418.909	11.03529
419.118	10.23332
419.327	10.61175
419.536	10.58938
419.744	10.61744
419.953	11.82189
420.162	12.03449
420.371	11.66294
420.579	12.22223
420.788	13.06408
420.997	13.09181
421.205	13.59352
421.414	13.38157
421.623	13.50068
421.831	13.12685
422.04	13.56974
422.249	12.78297
422.457	13.02986
422.666	12.21254
422.874	12.94369
423.083	12.98515
423.291	12.98924
423.5	13.01095
423.708	13.35905
423.917	13.78893
424.125	13.4802
424.334	13.38636
424.542	14.86696
424.751	14.48349
424.959	14.06002
425.167	14.21489
425.376	13.92947
425.584	12.73441
425.793	12.62381
426.001	11.70167
426.209	11.66356
426.418	10.53445
426.626	10.31737
426.834	10.149
427.042	10.51024
427.251	10.06684
427.459	10.91382
427.667	10.50221
427.875	9.76845
428.084	10.13716
428.292	10.93537
428.5	10.80385
428.708	9.73714
428.916	9.80194
429.124	10.39208
429.333	10.11454
429.541	10.21501
429.749	10.48961
429.957	10.36014
430.165	11.93613
430.373	9.70917
430.581	10.48067
430.789	11.33288
430.997	10.21675
431.205	10.03879
431.413	10.62116
431.621	10.354
431.829	10.88666
432.037	10.51601
432.245	10.89553
432.453	10.8368
432.661	10.59146
432.869	11.62345
433.076	10.39364
433.284	10.70776
433.492	11.17692
433.7	11.39883
433.908	10.65911
434.116	10.84777
434.323	10.98094
434.531	10.85518
434.739	11.13248
434.947	11.33624
435.154	11.31841
435.362	10.84824
435.57	10.60553
435.778	10.3854
435.985	11.00185
436.193	10.64197
436.401	11.47969
436.608	10.83301
436.816	10.59744
437.023	11.61466
437.231	11.79367
437.439	11.09597
437.646	11.23844
437.854	11.01593
438.061	11.36474
438.269	10.94361
438.476	11.34568
438.684	11.04782
438.891	10.90972
439.099	10.73863
439.306	10.65164
439.514	10.65555
439.721	11.72629
439.929	11.4892
440.136	12.3874
440.343	12.45078
440.551	12.41325
440.758	13.93833
440.965	12.75678
441.173	12.50585
441.38	12.32346
441.587	12.09312
441.795	11.86799
442.002	11.588
442.209	11.51493
442.416	11.57378
442.624	11.56955
442.831	11.49856
443.038	11.04366
443.245	10.70881
443.452	11.13284
443.66	11.55968
443.867	10.93942
444.074	10.96043
444.281	10.96708
444.488	11.21447
444.695	11.30107
444.902	11.15383
445.109	12.28543
445.316	12.17028
445.523	12.72832
445.73	12.94301
445.937	13.91734
446.144	14.41848
446.351	14.89918
446.558	13.99069
446.765	15.81725
446.972	15.07937
447.179	14.76199
447.386	15.19855
447.593	13.61745
447.8	14.4129
448.007	12.97093
448.214	12.3165
448.42	11.76631
448.627	12.01791
448.834	11.48596
449.041	11.38602
449.248	11.347
449.454	11.85507
449.661	12.38108
449.868	11.25504
450.075	11.21498
450.281	10.49213
450.488	10.91018
450.695	10.9165
450.901	11.12884
451.108	11.14044
451.315	11.83565
451.521	11.18295
451.728	11.95544
451.935	11.08888
452.141	11.45126
452.348	11.37855
452.554	11.47801
452.761	11.25366
452.967	12.3575
453.174	11.49862
453.38	11.69271
453.587	10.87232
453.793	11.64101
454	12.04302
454.206	12.61163
454.413	12.078
454.619	11.88022
454.825	11.17051
455.032	11.91878
455.238	11.92599
455.445	10.99471
455.651	11.59024
455.857	10.61378
456.064	11.34606
456.27	11.3713
456.476	11.34596
456.682	10.86699
456.889	11.81125
457.095	11.80629
457.301	12.76712
457.507	11.58815
457.714	11.63119
457.92	11.7196
458.126	11.26739
458.332	11.51567
458.538	11.36545
458.744	11.61764
458.951	11.57478
459.157	13.6956
459.363	13.23299
459.569	13.71555
459.775	14.39265
459.981	14.26268
460.187	14.79515
460.393	15.00076
460.599	15.07539
460.805	14.16474
461.011	13.23287
461.217	12.97716
461.423	12.52594
461.629	11.91566
461.835	12.25182
462.041	11.8234
462.247	12.71367
462.453	11.78185
462.658	11.8469
462.864	12.23153
463.07	11.96663
463.276	12.04127
463.482	11.87305
463.688	12.60572
463.893	11.60146
464.099	11.86303
464.305	12.7178
464.511	11.69453
464.716	11.83236
464.922	12.4212
465.128	11.49282
465.333	12.83806
465.539	12.24447
465.745	12.09626
465.95	12.04463
466.156	13.47851
466.362	12.65295
466.567	12.06812
466.773	11.73999
466.978	12.90289
467.184	11.62311
467.389	11.11903
467.595	12.29194
467.8	11.79139
468.006	12.83991
468.211	12.87175
468.417	11.61362
468.622	12.38328
468.828	12.54127
469.033	12.35122
469.239	13.59814
469.444	11.95493
469.649	12.56679
469.855	12.16276
470.06	12.15429
470.266	11.8351
470.471	12.493
470.676	12.51807
470.881	11.27812
471.087	12.96977
471.292	13.60162
471.497	11.53195
471.703	12.21284
471.908	11.9287
472.113	12.30613
472.318	12.69905
472.523	11.74928
472.729	12.52067
472.934	12.58521
473.139	12.10334
473.344	12.49412
473.549	12.91877
473.754	12.00144
473.959	13.81816
474.164	12.01421
474.369	12.22948
474.575	12.70621
474.78	12.35794
474.985	11.95878
475.19	11.41497
475.395	11.93414
475.6	12.34137
475.804	13.13744
476.009	12.35155
476.214	12.37227
476.419	12.18445
476.624	11.60186
476.829	12.12165
477.034	12.73015
477.239	12.10686
477.444	12.79859
477.648	12.83673
477.853	12.83786
478.058	12.41101
478.263	12.11784
478.468	11.95188
478.672	12.12517
478.877	13.29785
479.082	13.31086
479.287	12.80687
479.491	12.44008
479.696	12.19364
479.901	12.91792
480.105	13.02596
480.31	12.22845
480.515	12.60466
480.719	13.65561
480.924	12.42532
481.128	12.14351
481.333	12.76341
481.538	12.72051
481.742	13.22871
481.947	14.375
482.151	15.60162
482.356	16.73898
482.56	19.37433
482.765	21.47614
482.969	25.38902
483.174	28.69286
483.378	33.0369
483.582	34.89643
483.787	37.6767
483.991	38.91589
484.196	39.7624
484.4	39.44906
484.604	39.94286
484.809	36.9939
485.013	34.90325
485.217	31.69752
485.422	28.42543
485.626	25.69726
485.83	23.92999
486.034	22.7396
486.239	23.03708
486.443	23.34666
486.647	23.94659
486.851	25.18486
487.055	27.01087
487.26	27.4751
487.464	28.77472
487.668	28.60869
487.872	29.44842
488.076	29.77624
488.28	28.82825
488.484	27.31932
488.688	26.4392
488.892	25.10588
489.096	23.46788
489.3	21.59363
489.504	20.11714
489.708	18.91795
489.912	18.36153
490.116	17.78555
490.32	17.31666
490.524	18.67053
490.728	19.69918
490.932	20.85357
491.136	22.21692
491.34	23.7497
491.544	24.25708
491.748	24.72655
491.951	24.84359
492.155	24.44581
492.359	23.87975
492.563	22.09256
492.767	20.86698
492.97	18.93554
493.174	17.00594
493.378	15.54799
493.582	13.79347
493.785	13.16592
493.989	13.09718
494.193	13.03835
494.396	12.89859
494.6	13.36684
494.804	12.95912
495.007	12.6269
495.211	12.82121
495.414	12.84137
495.618	13.09048
495.822	13.63573
496.025	12.95614
496.229	13.3796
496.432	12.72855
496.636	13.11479
496.839	12.99653
497.043	13.78902
497.246	13.35897
497.45	13.02063
497.653	13.31418
497.856	13.31335
498.06	12.77387
498.263	13.00842
498.467	13.01177
498.67	13.51143
498.873	13.34806
499.077	13.07115
499.28	13.1047
499.483	13.26422
499.686	13.50976
499.89	13.22508
500.093	13.64039
500.296	12.7474
500.499	13.93884
500.703	13.18306
500.906	13.33746
501.109	13.86739
501.312	13.30961
501.515	13.01888
501.719	13.30834
501.922	13.77617
502.125	13.14124
502.328	13.09063
502.531	12.72294
502.734	13.08525
502.937	12.36899
503.14	13.2663
503.343	12.75147
503.546	13.0601
503.749	12.8329
503.952	13.62991
504.155	12.86018
504.358	13.35831
504.561	13.21436
504.764	12.59646
504.967	13.33233
505.17	13.14915
505.373	13.95165
505.576	13.19772
505.778	13.65463
505.981	12.7704
506.184	13.78146
506.387	12.37416
506.59	14.30421
506.793	13.70481
506.995	13.41123
507.198	12.36908
507.401	13.51534
507.604	13.54575
507.806	12.82316
508.009	12.88925
508.212	13.70588
508.414	13.0346
508.617	12.9879
508.82	13.30636
509.022	14.11954
509.225	13.47805
509.427	12.78082
509.63	13.9778
509.833	13.41705
510.035	13.19107
510.238	12.681
510.44	13.92628
510.643	12.56812
510.845	14.35494
511.048	13.51045
511.25	13.13023
511.453	13.23067
511.655	13.44061
511.858	13.19348
512.06	13.8298
512.262	13.3861
512.465	13.86566
512.667	13.144
512.869	12.8436
513.072	13.51346
513.274	13.68656
513.476	13.64808
513.679	13.85896
513.881	12.94445
514.083	14.13798
514.286	13.04743
514.488	12.94596
514.69	12.92286
514.892	12.60317
515.094	13.65055
515.297	13.08847
515.499	13.50794
515.701	12.93035
515.903	14.14677
516.105	14.24015
516.307	13.71624
516.509	12.50809
516.711	12.75393
516.913	13.44431
517.116	13.46266
517.318	13.17502
517.52	13.89682
517.722	13.7676
517.924	12.92108
518.126	13.70437
518.328	13.44922
518.529	14.23947
518.731	15.10174
518.933	13.76609
519.135	13.95112
519.337	14.52511
519.539	13.87379
519.741	12.8418
519.943	13.47752
520.145	13.42724
520.346	13.98464
520.548	13.36578
520.75	13.63322
520.952	13.30278
521.153	13.62632
521.355	13.70189
521.557	13.12177
521.759	13.55082
521.96	13.38977
522.162	12.91881
522.364	14.12207
522.565	13.23595
522.767	13.79761
522.969	13.89876
523.17	13.88064
523.372	13.68859
523.573	13.24377
523.775	13.4187
523.977	13.16789
524.178	14.47534
524.38	13.26598
524.581	13.83364
524.783	13.41612
524.984	13.81462
525.186	13.66243
525.387	14.38727
525.589	14.57017
525.79	14.885
525.991	14.98703
526.193	15.73437
526.394	15.19595
526.596	16.14153
526.797	16.55521
526.998	16.21164
527.2	16.99048
527.401	19.25723
527.602	20.81967
527.803	23.8191
528.005	25.90338
528.206	27.99165
528.407	29.80298
528.608	30.34365
528.81	31.09523
529.011	30.77924
529.212	31.69156
529.413	30.19227
529.614	28.46901
529.815	26.63561
530.017	24.53453
530.218	21.79788
530.419	19.51491
530.62	18.64681
530.821	17.33732
531.022	15.79041
531.223	16.2495
531.424	15.85063
531.625	15.93503
531.826	15.5767
532.027	16.27277
532.228	17.65748
532.429	18.23391
532.63	18.95714
532.831	20.25165
533.032	20.69498
533.233	21.69876
533.433	21.49748
533.634	21.7449
533.835	21.05547
534.036	20.32783
534.237	19.554
534.438	18.39133
534.638	16.67994
534.839	15.74608
535.04	15.11654
535.241	14.24893
535.441	14.88458
535.642	14.58297
535.843	14.18058
536.043	14.50638
536.244	14.72283
536.445	15.15505
536.645	15.98983
536.846	15.77235
537.047	16.19581
537.247	15.01001
537.448	14.62434
537.648	14.29672
537.849	13.94138
538.049	13.92364
538.25	14.10175
538.451	14.05633
538.651	13.42117
538.851	14.02499
539.052	14.37334
539.252	14.09369
539.453	13.73673
539.653	13.9521
539.854	13.7668
540.054	13.89001
540.254	15.92623
540.455	17.5706
540.655	18.34396
540.855	20.59948
541.056	21.99359
541.256	22.46844
541.456	23.65145
541.657	23.60762
541.857	24.27671
542.057	23.07247
542.257	22.20108
542.458	22.08274
542.658	21.18337
542.858	18.89084
543.058	18.34197
543.258	17.38517
543.458	15.73434
543.659	15.15203
543.859	15.25762
544.059	14.74326
544.259	14.14222
544.459	14.60048
544.659	13.86818
544.859	14.31823
545.059	13.76645
545.259	14.32221
545.459	14.10057
545.659	14.49722
545.859	14.01764
546.059	14.22585
546.259	13.68546
546.459	13.4642
546.659	13.53475
546.859	14.36695
547.059	14.2091
547.258	14.22509
547.458	14.27779
547.658	13.59791
547.858	13.39317
548.058	14.01724
548.258	13.85466
548.457	13.49415
548.657	15.15158
548.857	13.79511
549.057	14.27089
549.256	14.13216
549.456	13.33782
549.656	12.72881
549.855	15.02829
550.055	13.58429
550.255	14.82884
550.454	13.87159
550.654	14.2598
550.853	14.75002
551.053	14.20183
551.253	13.97032
551.452	14.14481
551.652	13.25663
551.851	13.05354
552.051	13.57281
552.25	13.59268
552.45	13.49811
552.649	13.65353
552.849	13.3845
553.048	13.86321
553.248	14.44979
553.447	13.16245
553.646	14.23666
553.846	15.32356
554.045	14.67025
554.244	13.06064
554.444	14.61275
554.643	13.30286
554.842	14.73095
555.042	14.88719
555.241	13.43989
555.44	13.04677
555.64	13.99281
555.839	14.768
556.038	14.04359
556.237	13.21889
556.436	13.83925
556.636	13.93592
556.835	13.16205
557.034	14.69497
557.233	13.64931
557.432	12.74296
557.631	14.37915
557.83	13.60229
558.029	13.58189
558.228	13.18271
558.427	13.18346
558.626	14.00668
558.825	13.08722
559.024	13.52604
559.223	14.79129
559.422	13.4737
559.621	13.90884
559.82	12.07496
560.019	13.51184
560.218	13.45727
560.417	12.22303
560.616	13.23464
560.815	15.79708
561.014	12.82415
561.212	14.7087
561.411	13.88896
561.61	12.95803
561.809	13.58139
562.008	14.84556
562.206	13.41526
562.405	14.01391
562.604	13.65335
562.803	14.05323
563.001	13.43978
563.2	12.83828
563.399	14.06928
563.597	13.05159
563.796	13.7329
563.995	12.99917
564.193	14.13262
564.392	13.41622
564.59	15.14472
564.789	12.60405
564.988	13.50816
565.186	13.93277
565.385	13.74352
565.583	13.57324
565.782	13.82679
565.98	13.6843
566.179	13.71611
566.377	13.28048
566.575	13.40194
566.774	14.76671
566.972	14.46493
567.171	15.20913
567.369	14.89736
567.567	13.9584
567.766	14.03655
567.964	12.61031
568.162	14.16708
568.361	14.62764
568.559	13.71503
568.757	13.88788
568.956	13.82607
569.154	13.87793
569.352	14.25129
569.55	13.7558
569.748	13.89493
569.947	13.34819
570.145	13.18534
570.343	13.35411
570.541	14.88341
570.739	13.12062
570.937	13.93486
571.135	14.25057
571.333	15.37744
571.532	15.30818
571.73	14.07599
571.928	14.66778
572.126	14.3229
572.324	13.68252
572.522	14.82016
572.72	15.80905
572.918	13.99233
573.116	14.47753
573.313	13.8738
573.511	14.03913
573.709	13.63315
573.907	14.67366
574.105	13.81237
574.303	12.98307
574.501	13.04808
574.699	14.43708
574.896	14.28212
575.094	14.45333
575.292	13.02336
575.49	14.6525
575.688	13.83703
575.885	14.79576
576.083	15.51819
576.281	14.29828
576.478	13.40628
576.676	14.40568
576.874	12.87039
577.071	13.8341
577.269	15.45192
577.467	13.7242
577.664	13.7296
577.862	14.4114
578.059	13.43391
578.257	14.39597
578.455	13.67199
578.652	13.84069
578.85	12.49118
579.047	13.9451
579.245	13.49133
579.442	13.63064
579.64	13.45429
579.837	12.48384
580.034	15.82747
580.232	13.5722
580.429	12.89439
580.627	14.0336
580.824	14.64504
581.021	14.1436
581.219	13.47455
581.416	13.1879
581.613	14.84894
581.811	14.85242
582.008	13.33062
582.205	14.50644
582.402	14.02576
582.6	15.44541
582.797	13.74483
582.994	14.07592
583.191	14.35406
583.388	13.58112
583.586	14.45949
583.783	14.60603
583.98	12.92918
584.177	13.97192
584.374	11.74467
584.571	13.56998
584.768	13.68453
584.965	13.28047
585.162	14.36017
585.359	15.22986
585.556	13.69837
585.753	14.07956
585.95	12.70212
586.147	12.92129
586.344	14.06012
586.541	13.50079
586.738	12.91605
586.935	13.71639
587.132	13.03437
587.329	14.5935
587.526	13.5129
587.722	17.75837
587.919	12.67049
588.116	14.17798
588.313	14.9102
588.51	15.53552
588.706	13.6427
588.903	14.19942
589.1	14.5335
589.297	16.19047
589.493	13.91455
589.69	14.3922
589.887	13.46672
590.083	13.06928
590.28	13.43518
590.477	14.65345
590.673	14.44588
590.87	15.04732
591.067	13.3474
591.263	14.20489
591.46	14.27364
591.656	13.62525
591.853	15.29395
592.049	13.16711
592.246	13.47489
592.442	14.56412
592.639	14.842
592.835	13.12134
593.032	14.16052
593.228	12.79927
593.425	12.98679
593.621	12.63963
593.817	14.3424
594.014	13.17437
594.21	14.14272
594.406	15.05317
594.603	14.18274
594.799	13.55012
594.995	12.19175
595.192	15.05079
595.388	13.77942
595.584	13.57734
595.78	12.8911
595.977	16.28291
596.173	15.34787
596.369	13.85914
596.565	13.40989
596.761	13.10035
596.957	15.25142
597.154	13.74418
597.35	13.89371
597.546	13.69646
597.742	14.57439
597.938	14.3359
598.134	13.61177
598.33	14.16772
598.526	15.06529
598.722	14.18438
598.918	15.47855
599.114	14.46263
599.31	12.92703
599.506	13.84761
599.702	13.13128
599.898	14.03404
600.094	14.47438
600.29	14.60533
600.485	14.81086
600.681	13.02204
600.877	15.31725
601.073	14.02122
601.269	15.72025
601.465	15.18329
601.66	13.15338
601.856	12.22189
602.052	16.09006
602.248	13.75361
602.443	12.33251
602.639	13.16809
602.835	13.59
603.03	13.26634
603.226	14.83948
603.422	13.53959
603.617	13.91388
603.813	13.93504
604.009	13.84454
604.204	15.23525
604.4	13.31039
604.595	15.13491
604.791	13.59715
604.986	14.59288
605.182	13.76028
605.377	13.96713
605.573	14.14861
605.768	14.18019
605.964	14.72508
606.159	14.76859
606.355	14.89939
606.55	13.85994
606.746	15.00967
606.941	13.96613
607.136	15.89834
607.332	16.6782
607.527	12.86837
607.722	14.3112
607.918	13.86385
608.113	13.3894
608.308	14.97061
608.503	14.59654
608.699	14.56207
608.894	14.7214
609.089	13.63684
609.284	14.55051
609.479	14.04119
609.675	14.95946
609.87	14.27397
610.065	15.029
610.26	15.23483
610.455	15.10624
610.65	14.53392
610.845	14.64987
611.04	14.93472
611.235	14.39328
611.43	14.16435
611.625	13.26521
611.82	15.63282
612.015	13.61677
612.21	15.85719
612.405	12.86471
612.6	15.89678
612.795	15.59976
612.99	14.84748
613.185	13.27897
613.38	13.43181
613.575	14.21754
613.77	17.17354
613.965	12.62226
614.159	13.46693
614.354	15.28951
614.549	15.3281
614.744	14.80881
614.938	13.09841
615.133	12.72892
615.328	15.82502
615.523	15.42621
615.717	17.14335
615.912	13.62673
616.107	14.27514
616.301	14.21704
616.496	13.58038
616.691	16.03137
616.885	15.07024
617.08	17.62939
617.274	15.2575
617.469	16.35813
617.664	14.94447
617.858	13.70967
618.053	14.75549
618.247	14.08751
618.442	12.07351
618.636	15.83818
618.831	13.4142
619.025	13.80575
619.219	17.55907
619.414	10.87142
619.608	14.00466
619.803	13.4713
619.997	16.65212
620.191	15.33709
620.386	14.56614
620.58	14.2718
620.774	12.56703
620.969	12.62864
621.163	14.34208
621.357	13.20159
621.551	14.06274
621.746	14.45029
621.94	13.77978
622.134	18.04324
622.328	16.7261
622.522	12.54903
622.716	15.32666
622.911	15.49976
623.105	15.2825
623.299	14.86737
623.493	17.72378
623.687	13.4882
623.881	13.63663
624.075	15.02756
624.269	15.86329
624.463	12.06941
624.657	12.63507
624.851	15.09023
625.045	15.29993
625.239	15.35131
625.433	14.13181
625.627	16.54126
625.821	14.06831
626.015	13.73562
626.209	14.83226
626.403	13.0757
626.596	15.10355
626.79	15.52726
626.984	13.3801
627.178	15.32344
627.372	15.22532
627.565	15.45394
627.759	13.39191
627.953	13.62701
628.147	14.80968
628.34	15.40222
628.534	17.11948
628.728	14.32246
628.921	15.71253
629.115	15.32547
629.309	15.72413
629.502	15.92521
629.696	14.68876
629.89	14.43311
630.083	15.00674
630.277	14.88712
630.47	16.56911
630.664	14.09747
630.857	12.73248
631.051	15.57179
631.244	15.81635
631.438	15.84844
631.631	13.88729
631.825	16.52151
632.018	15.23099
632.212	17.00274
632.405	16.09138
632.598	13.7246
632.792	14.81978
632.985	11.72915
633.178	14.26753
633.372	14.49955
633.565	14.41287
633.758	16.32361
633.952	13.64792
634.145	13.64737
634.338	14.77675
634.531	14.20227
634.724	13.80694
634.918	14.81752
635.111	14.23646
635.304	14.21953
635.497	17.90627
635.69	15.10728
635.883	16.22496
636.077	13.42467
636.27	15.23589
636.463	15.23234
636.656	14.90696
636.849	14.45146
637.042	15.73974
637.235	17.26731
637.428	15.725
637.621	15.44749
637.814	16.67307
638.007	16.7585
638.2	16.56843
638.393	17.55919
638.586	12.96319
638.778	14.25508
638.971	14.86252
639.164	17.00337
639.357	15.21099
639.55	17.32988
639.743	15.98362
639.935	15.57508
640.128	18.1008
640.321	16.18546
640.514	15.35769
640.707	18.35759
640.899	16.19978
641.092	12.7797
641.285	30.73901
641.477	12.10003
641.67	19.10811
641.863	17.21218
642.055	15.51075
642.248	15.19185
642.441	14.80477
642.633	15.83876
642.826	17.25069
643.018	17.27578
643.211	18.0171
643.403	18.23928
643.596	18.45476
643.788	17.47622
643.981	14.36022
644.173	16.82406
644.366	14.59142
644.558	12.4414
644.751	16.71393
644.943	13.41397
645.135	17.84688
645.328	18.10081
645.52	16.10386
645.712	17.12418
645.905	19.90582
646.097	13.66715
646.289	15.71629
646.482	19.10922
646.674	14.28181
646.866	17.33153
647.058	16.49278
647.251	13.56513
647.443	14.34571
647.635	15.10125
647.827	13.79967
648.019	13.82549
648.211	15.29631
648.404	15.75139
648.596	18.36572
648.788	16.12498
648.98	15.76261
649.172	16.60599
649.364	16.31603
649.556	12.9875
649.748	20.39861
649.94	14.26993
650.132	16.76948
650.324	14.44658
650.516	14.67251
650.708	17.54099
650.9	13.69246
651.092	13.23849
651.284	14.13929
651.476	14.04704
651.667	17.15846
651.859	18.22949
652.051	15.71825
652.243	16.19846
652.435	15.48074
652.627	16.89367
652.818	16.38295
653.01	13.40478
653.202	14.35652
653.394	15.11245
653.585	16.75133
653.777	23.46753
653.969	18.6729
654.16	17.86732
654.352	14.38842
654.544	15.65404
654.735	17.45254
654.927	16.25862
655.118	18.41079
655.31	17.05756
655.502	18.29058
655.693	15.32609
655.885	16.87456
656.076	18.35799
656.268	16.40847
656.459	18.67192
656.651	18.30574
656.842	15.42817
657.034	15.06487
657.225	17.68539
657.416	18.84376
657.608	18.52889
657.799	16.20672
657.99	18.81476
658.182	15.59615
658.373	15.47898
658.564	18.34628
658.756	17.27049
658.947	16.4694
659.138	15.30146
659.33	15.86829
659.521	15.55313
659.712	16.53781
659.903	16.39203
660.094	15.86275
660.286	14.19572
660.477	19.57393
660.668	17.7147
660.859	16.08181
661.05	14.36002
661.241	16.92442
661.432	17.18968
661.623	15.99919
661.814	15.33906
662.006	13.9073
662.197	16.90635
662.388	18.64961
662.579	17.19008
662.77	18.82649
662.96	21.53052
663.151	18.14736
663.342	13.28396
663.533	18.2926
663.724	16.87805
663.915	20.33616
664.106	16.94062
664.297	20.37381
664.488	17.70812
664.678	15.39338
664.869	18.40265
665.06	18.41685
665.251	17.21299
665.442	17.9028
665.632	14.84447
665.823	20.85445
666.014	11.58183
666.204	18.38678
666.395	19.42289
666.586	21.36066
666.776	18.59313
666.967	21.09627
667.158	16.61779
667.348	19.92855
667.539	15.19779
667.729	18.69275
667.92	15.76361
668.111	19.11985
668.301	18.75577
668.492	16.87415
668.682	17.50166
668.873	17.5498
669.063	15.12128
669.253	17.81942
669.444	19.93014
669.634	17.3456
669.825	21.20939
670.015	19.97867
670.206	16.24622
670.396	21.46186
670.586	16.77295
670.777	18.38609
670.967	13.62016
671.157	16.64902
671.347	16.12244
671.538	20.73226
671.728	18.34336
671.918	21.36247
672.108	19.7003
672.299	17.19042
672.489	18.13966
672.679	16.0363
672.869	18.68938
673.059	22.55932
673.249	18.78102
673.44	15.75256
673.63	17.62968
673.82	19.68767
674.01	15.60842
674.2	18.33783
674.39	23.49096
674.58	19.54769
674.77	17.95622
674.96	17.07017
675.15	26.50182
675.34	20.51951
675.53	17.89969
675.72	16.96472
675.91	14.78333
676.099	22.08862
676.289	23.31843
676.479	20.42973
676.669	16.47368
676.859	19.27782
677.049	16.78481
677.238	18.31273
677.428	22.15144
677.618	19.26398
677.808	22.59883
677.997	19.56369
678.187	16.37682
678.377	18.07624
678.567	17.24025
678.756	17.42568
678.946	18.06425
679.136	15.53498
679.325	17.54498
679.515	16.60656
679.704	15.8244
679.894	20.30967
680.084	19.57297
680.273	20.95269
680.463	16.89034
680.652	16.8373
680.842	18.73012
681.031	20.49903
681.221	17.03538
681.41	20.34841
681.6	18.08083
681.789	20.58965
681.978	21.13375
682.168	19.34995
682.357	19.06656
682.547	19.87931
682.736	19.19203
682.925	21.54915
683.115	21.84988
683.304	20.5381
683.493	19.25669
683.682	20.46222
683.872	20.05334
684.061	21.40884
684.25	20.3729
684.439	24.08476
684.629	20.70218
684.818	27.18305
685.007	19.1151
685.196	18.83716
685.385	24.05572
685.574	19.9015
685.763	20.2726
685.952	20.44367
686.142	16.70429
686.331	23.02668
686.52	16.44612
686.709	24.84806
686.898	24.23499
687.087	21.45642
687.276	24.57597
687.465	23.21174
687.654	19.52151
687.842	23.86408
688.031	17.01135
688.22	23.26612
688.409	20.62163
688.598	20.48566
688.787	26.57165
688.976	20.35075
689.165	24.96982
689.353	19.70075
689.542	21.36621
689.731	23.0756
689.92	25.77379
690.108	21.92556
690.297	19.74772
690.486	20.32269
690.675	22.3127
690.863	24.94606
691.052	24.16411
691.241	21.21854
691.429	21.34268
691.618	24.05658
691.806	17.74356
691.995	20.36889
692.184	21.02214
692.372	19.63709
692.561	21.37845
692.749	21.57644
692.938	30.0729
693.126	22.75341
693.315	20.06597
693.503	23.27362
693.692	24.03811
693.88	23.68384
694.068	26.98431
694.257	21.88063
694.445	23.39523
694.634	15.95944
694.822	23.55904
695.01	25.28195
695.199	27.38061
695.387	26.11359
695.575	25.01737
695.763	20.79276
695.952	20.49311
696.14	17.4615
696.328	19.39025
696.516	21.67599
696.705	22.76775
696.893	22.10944
697.081	16.66092
697.269	23.7087
697.457	18.84065
697.645	18.02582
697.833	23.68438
698.021	19.41719
698.21	20.22133
698.398	20.78491
698.586	18.40704
698.774	17.40098
698.962	21.27625
699.15	18.78728
699.338	17.54309
699.526	22.50468
699.714	19.50221
699.901	19.57107
700.089	23.1387
700.277	19.23503
700.465	20.96778
700.653	23.10913
700.841	22.24897
701.029	19.41575
701.217	25.42483
701.404	21.30205
701.592	26.0656
701.78	28.76144
701.968	21.55416
702.155	20.83497
702.343	18.70807
702.531	26.05753
702.718	23.15222
702.906	20.62597
703.094	20.72962
703.281	25.87939
703.469	21.63973
703.657	26.10919
703.844	32.72594
704.032	28.44618
704.219	21.38587
704.407	24.91945
704.595	27.36704
704.782	24.30351
704.97	22.83849
705.157	22.71707
705.345	30.17631
705.532	35.46742
705.719	26.93363
705.907	30.12159
706.094	26.74143
706.282	33.3175
706.469	26.74316
706.656	28.00321
706.844	26.47888
707.031	32.03626
707.218	30.48604
707.406	33.77217
707.593	31.37689
707.78	30.81701
707.968	29.55614
708.155	27.03251
708.342	31.82995
708.529	31.72752
708.716	30.85268
708.904	34.29881
709.091	31.79416
709.278	26.68516
709.465	36.74371
709.652	34.72293
709.839	33.0253
710.026	29.33374
710.213	23.35746
710.4	29.3262
710.587	30.45231
710.774	32.00247
710.961	31.84552
711.148	29.55733
711.335	31.94625
711.522	28.68207
711.709	30.92173
711.896	36.25293
712.083	32.58187
712.27	26.82135
712.457	30.06461
712.644	24.83331
712.831	36.51654
713.017	29.89112
713.204	31.50757
713.391	26.70736
713.578	31.63874
713.765	33.8092
713.951	29.52855
714.138	38.4818
714.325	28.45764
714.512	27.12703
714.698	24.23077
714.885	32.51773
715.072	27.00433
715.258	26.42757
715.445	23.6387
715.631	30.79084
715.818	17.12709
716.005	23.9129
716.191	28.11802
716.378	23.89775
716.564	28.59886
716.751	22.24373
716.937	24.13472
717.124	28.70128
717.31	21.98641
717.497	33.77866
717.683	22.98835
717.869	33.51098
718.056	23.10129
718.242	27.5313
718.429	24.74532
718.615	21.65196
718.801	25.27551
718.988	30.26674
719.174	27.43782
719.36	24.73991
719.547	30.83374
719.733	26.51999
719.919	27.35223
720.105	28.48872
720.291	25.97824
720.478	26.92077
720.664	26.1166
720.85	24.33263
721.036	36.61521
721.222	32.94
721.408	25.85885
721.595	33.10841
721.781	32.41244
721.967	31.16705
722.153	33.86032
722.339	28.62615
722.525	28.0002
722.711	22.16839
722.897	21.42943
723.083	24.77655
723.269	31.21047
723.455	39.38635
723.641	44.33435
723.827	27.69478
724.012	28.24386
724.198	26.60998
724.384	32.97209
724.57	28.21186
724.756	20.96186
724.942	19.84567
725.127	31.45047
725.313	32.893
725.499	32.1907
725.685	36.23335
725.87	28.50607
726.056	23.44099
726.242	32.75148
726.428	20.45528
726.613	31.25806
726.799	25.75078
726.985	22.517
727.17	20.15761
727.356	36.88862
727.541	23.28536
727.727	26.43867
727.913	30.52731
728.098	25.20293
728.284	30.13837
728.469	22.45818
728.655	23.9164
728.84	32.41383
729.026	30.89359
729.211	30.83605
729.397	29.04772
729.582	30.96098
729.767	27.35824
729.953	29.19256
730.138	34.05019
730.323	18.4407
730.509	22.8499
730.694	35.68883
730.879	30.75042
731.065	29.10155
731.25	39.25201
731.435	31.21405
731.621	21.29662
731.806	25.46308
731.991	28.84886
732.176	21.46766
732.361	35.2309
732.547	28.88078
732.732	21.40065
732.917	38.26431
733.102	22.8849
733.287	24.22526
733.472	27.4374
733.657	26.33268
733.842	22.02592
734.027	24.98092
734.212	27.85964
734.397	24.94149
734.582	29.06512
734.767	32.45725
734.952	35.02435
735.137	17.3859
735.322	34.95535
735.507	30.66726
735.692	28.87024
735.877	38.2338
736.062	37.46843
736.247	29.8473
736.431	27.75313
736.616	33.26777
736.801	30.58771
736.986	27.79541
737.171	24.61447
737.355	23.20722
737.54	35.10736
737.725	28.17451
737.909	42.7814
738.094	26.40173
738.279	33.24424
738.463	27.14298
738.648	32.348
738.833	30.21113
739.017	39.98252
739.202	27.01512
739.386	27.58368
739.571	23.8783
739.756	32.87929
739.94	28.56007
740.125	31.57865
740.309	26.24393
740.494	33.69959
740.678	29.74998
740.863	31.55019
741.047	29.1002
741.231	37.17099
741.416	26.48395
741.6	37.07981
741.785	24.3874
741.969	34.31816
742.153	36.83706
742.338	18.59466
742.522	29.45372
742.706	34.42373
742.89	22.49743
743.075	29.25002
743.259	36.65215
743.443	36.13483
743.627	36.71753
743.812	43.12896
743.996	20.87256
744.18	27.29644
744.364	27.69001
744.548	43.21094
744.732	27.60798
744.916	35.53666
745.1	33.63055
745.285	27.87709
745.469	32.73864
745.653	38.9916
745.837	23.61333
746.021	43.59972
746.205	37.00868
746.389	31.1805
746.573	28.92572
746.757	37.94415
746.94	27.39081
747.124	37.04738
747.308	23.12064
747.492	36.21434
747.676	25.26554
747.86	45.64292
748.044	28.30313
748.227	21.33604
748.411	52.95666
748.595	30.605
748.779	25.81441
748.963	32.67071
749.146	30.81082
749.33	26.38709
749.514	26.23153
749.697	37.96039
749.881	25.21102
750.065	25.11277
750.248	31.21743
750.432	44.73434
750.616	30.40049
750.799	24.46426
750.983	45.53236
751.166	46.13999
751.35	21.8659
751.533	38.68292
751.717	40.33529
751.9	40.76968
752.084	29.35703
752.267	25.42477
752.451	26.67907
752.634	30.84086
752.818	35.11639
753.001	36.71385
753.184	38.02176
753.368	33.01889
753.551	13.29713
753.734	26.38586
753.918	47.07894
754.101	26.97615
754.284	35.28827
754.467	28.1438
754.651	27.0228
754.834	26.74101
755.017	38.14833
755.2	38.14733
755.384	25.45804
755.567	36.04204
755.75	36.97135
755.933	28.9611
756.116	36.11618
756.299	26.18726
756.482	25.64295
756.665	34.47995
756.848	30.79253
757.032	33.78259
757.215	22.26104
757.398	25.74355
757.581	26.10057
757.764	48.25425
757.947	30.6369
758.129	37.66188
758.312	15.51721
758.495	30.04779
758.678	30.60266
758.861	29.75007
759.044	43.09334
759.227	24.76912
759.41	26.6505
759.592	36.46543
759.775	28.71864
759.958	37.40833
760.141	23.19039
760.324	47.32928
760.506	41.60449
760.689	37.37118
760.872	45.69263
761.054	34.22095
761.237	30.48638
761.42	32.51619
761.602	37.74954
761.785	33.71509
761.968	40.12467
762.15	43.25489
762.333	30.87896
762.515	35.06964
762.698	30.46467
762.88	37.67658
763.063	34.03807
763.245	38.29548
763.428	26.89462
763.61	28.71777
763.793	24.68457
763.975	33.48891
764.158	29.978
764.34	27.64046
764.522	26.13869
764.705	30.03526
764.887	40.93283
765.069	23.03308
765.252	35.04409
765.434	35.81853
765.616	32.67053
765.799	27.34524
765.981	36.19597
766.163	26.9673
766.345	40.83626
766.528	27.40278
766.71	19.88412
766.892	33.01749
767.074	41.20185
767.256	30.12322
767.438	43.57227
767.62	33.06494
767.802	48.51501
767.985	36.18179
768.167	44.7275
768.349	29.47775
768.531	36.56052
768.713	35.95321
768.895	37.9104
769.077	35.87476
769.259	52.23569
769.441	69.08958
769.623	37.47131
769.804	43.64532
769.986	42.29194
770.168	49.45768
770.35	59.93718
770.532	46.58021
770.714	49.9337
770.896	49.77182
771.077	25.78253
771.259	54.33144
771.441	45.88699
771.623	55.0907
771.804	65.02465
771.986	28.38747
772.168	37.97503
772.35	53.02651
772.531	65.21891
772.713	45.47765
772.894	58.31828
773.076	42.75583
773.258	38.88779
773.439	59.85016
773.621	64.77473
773.802	33.28218
773.984	38.31119
774.166	46.47688
774.347	60.4015
774.529	55.41469
774.71	24.59367
774.891	43.03558
775.073	39.96278
775.254	57.91559
775.436	39.60873
775.617	70.76712
775.799	38.33769
775.98	58.38985
776.161	64.69791
776.343	67.12054
776.524	43.50809
776.705	42.80843
776.886	27.21344
777.068	46.41296
777.249	93.75067
777.43	68.2666
777.611	31.19328
777.793	41.09527
777.974	66.94893
778.155	38.8279
778.336	34.01555
778.517	74.35213
778.698	35.91892
778.879	25.62853
779.061	17.3631
779.242	49.40379
779.423	51.15142
779.604	38.95034
779.785	39.61186
779.966	47.06492
780.147	57.90449
780.328	56.91786
780.509	76.55612
780.69	57.08136
780.871	37.91958
781.051	29.52362
781.232	46.56709
781.413	46.16775
781.594	40.65775
781.775	40.51192
781.956	35.60162
782.137	24.21572
782.317	38.77349
782.498	46.79917
782.679	45.76546
782.86	48.15291
783.04	36.76411
783.221	47.25604
783.402	68.56557
783.583	45.03225
783.763	56.87306
783.944	39.15654
784.124	30.50696
784.305	66.39042
784.486	54.94141
784.666	43.12973
784.847	28.36228
785.027	89.85308
785.208	38.76816
785.388	37.06886
785.569	37.20417
785.749	42.54639
785.93	39.27224
786.11	29.21442
786.291	51.36236
786.471	49.79983
786.652	55.25336
786.832	45.13499
787.012	46.99258
787.193	32.65587
787.373	47.45848
787.553	39.51837
787.734	48.84588
787.914	41.62071
788.094	57.50889
788.275	49.60291
788.455	41.32271
788.635	31.7757
788.815	47.77354
788.995	34.53779
789.176	28.85263
789.356	35.40667
789.536	42.9052
789.716	50.57472
789.896	36.44378
790.076	39.30884
790.256	49.98148
790.436	22.66194
790.616	33.38139
790.796	47.44071
790.976	39.57649
791.156	36.05202
791.336	50.97626
791.516	49.33417
791.696	41.74004
791.876	29.29928
792.056	47.25526
792.236	57.32413
792.416	52.1515
792.596	48.63122
792.776	49.86343
792.956	52.34256
793.135	67.55528
793.315	33.21401
793.495	58.10931
793.675	54.62536
793.854	54.88532
794.034	55.92174
794.214	34.88544
794.394	53.2835
794.573	61.63757
794.753	46.78107
794.933	35.61954
795.112	47.95544
795.292	57.15677
795.472	68.99018
795.651	31.90419
795.831	43.82469
796.01	41.95348
796.19	42.12069
796.369	46.2772
796.549	49.87744
796.728	43.71145
796.908	30.49003
797.087	31.98234
797.267	40.40598
797.446	32.01687
797.626	50.77871
797.805	49.75061
797.984	36.26634
798.164	54.24088
798.343	35.96247
798.522	45.4132
798.702	46.07653
798.881	33.18339
799.06	41.5735
799.239	24.19295
799.419	34.73283
799.598	66.80977
799.777	50.92526
799.956	60.57147
800.136	42.29884
800.315	35.24202
800.494	49.5806
800.673	58.48877
800.852	53.89861
801.031	57.77244
801.21	51.05011
801.389	41.66675
801.568	46.66055
801.747	69.84564
801.926	45.5282
802.105	63.16713
802.284	39.22731
802.463	67.4789
802.642	50.63594
802.821	47.62622
803	63.70923
803.179	56.68589
803.358	58.57868
803.537	37.25393
803.716	45.16949
803.895	38.44368
804.073	43.42318
804.252	36.76129
804.431	51.52291
804.61	44.62069
804.789	56.51325
804.967	38.87205
805.146	39.25215
805.325	74.41847
805.503	49.86726
805.682	31.98159
805.861	89.14085
806.039	63.07737
806.218	40.96751
806.397	47.30366
806.575	46.24271
806.754	50.88058
806.932	34.27848
807.111	58.71892
807.289	55.89113
807.468	48.79019
807.646	59.39144
807.825	53.25154
808.003	48.66972
808.182	60.04652
808.36	47.01565
808.539	34.97545
808.717	65.75363
808.895	40.16469
809.074	50.82573
809.252	45.91935
809.43	54.49877
809.609	62.56129
809.787	65.71399
809.965	44.09084
810.144	46.62009
810.322	46.82069
810.5	53.49036
810.678	43.36976
810.856	77.01864
811.035	61.20306
811.213	54.66624
811.391	65.72898
811.569	51.01475
811.747	99.01698
811.925	62.59953
812.103	39.35108
812.281	48.97871
812.459	75.64443
812.637	71.77722
812.816	59.33503
812.994	78.80125
813.171	68.42007
813.349	56.49982
813.527	64.14241
813.705	68.57964
813.883	87.81071
814.061	60.14118
814.239	73.68252
814.417	81.5841
814.595	55.7877
814.773	54.72244
814.95	51.07351
815.128	55.57636
815.306	45.7956
815.484	45.67594
815.662	39.52592
815.839	35.85639
816.017	42.6298
816.195	68.9137
816.372	43.44842
816.55	60.0176
816.728	74.12865
816.905	46.97288
817.083	74.01518
817.261	48.12478
817.438	92.86034
817.616	74.47443
817.793	43.48833
817.971	61.01084
818.148	60.19047
818.326	67.72968
818.503	53.43203
818.681	73.05732
818.858	46.17341
819.036	49.90123
819.213	50.30693
819.391	42.2933
819.568	41.79413
819.745	37.30825
819.923	59.83014
820.1	46.3779
820.277	40.1071
820.455	44.5161
820.632	48.1783
820.809	50.43769
820.986	36.47709
821.164	30.6084
821.341	29.57492
821.518	39.84159
821.695	31.31393
821.872	30.12517
822.05	27.08158
822.227	24.14663
822.404	25.08934
822.581	27.98493
822.758	25.00677
822.935	25.38157
823.112	27.38557
823.289	24.75348
823.466	27.80373
823.643	27.05688
823.82	30.16771
823.997	28.55143
824.174	30.90351
824.351	37.53245
824.528	36.16758
824.705	33.80701
824.882	35.80212
825.059	43.54299
825.236	34.46813
825.412	35.53285
825.589	40.54902
825.766	52.05045
825.943	36.80946
826.12	41.05545
826.296	32.53661
826.473	38.54776
826.65	38.05385
826.827	43.20704
827.003	31.91888
827.18	35.2023
827.357	37.90451
827.533	33.32483
827.71	23.8162
827.887	31.61023
828.063	34.21488
828.24	30.10851
828.416	36.56071
828.593	32.07102
828.769	41.94186
828.946	41.82866
829.122	43.92976
829.299	42.38205
829.475	30.96067
829.652	43.13871
829.828	61.90363
830.005	44.1852
830.181	56.31843
830.357	44.9083
830.534	57.73163
830.71	46.03136
830.886	56.18133
831.063	56.86992
831.239	67.07337
831.415	37.01427
831.592	70.54299
831.768	47.6343
831.944	40.5817
832.12	74.89372
832.296	71.27446
832.473	59.07871
832.649	43.53787
832.825	58.93365
833.001	39.92555
833.177	52.77771
833.353	48.6281
833.529	32.07273
833.705	46.02635
833.881	33.44956
834.058	32.41039
834.234	34.69719
834.41	34.63975
834.586	29.59803
834.761	33.3134
834.937	35.91345
835.113	37.08042
835.289	32.97416
835.465	37.40946
835.641	34.0535
835.817	37.58441
835.993	58.01276
836.169	34.76239
836.344	47.55316
836.52	52.51061
836.696	49.45111
836.872	42.12831
837.048	98.2944
837.223	44.42798
837.399	76.83951
837.575	61.87306
837.75	61.39307
837.926	77.19178
838.102	114.40728
838.277	90.52797
838.453	122.95273
838.628	123.83334
838.804	53.67318
838.98	106.49479
839.155	63.60555
839.331	80.21811
839.506	59.24631
839.682	61.01963
839.857	80.44228
840.033	89.89478
840.208	49.92731
840.384	28.4464
840.559	49.2947
840.734	67.6814
840.91	86.99379
841.085	56.36442
841.26	55.09306
841.436	52.26896
841.611	51.95646
841.786	74.94382
841.962	97.00805
842.137	62.44417
842.312	42.37905
842.487	57.66866
842.663	48.93834
842.838	59.61962
843.013	157.72131
843.188	83.95345
843.363	72.9023
843.538	134.69356
843.714	134.25082
843.889	139.45841
844.064	152.52443
844.239	126.60017
844.414	137.82186
844.589	94.58314
844.764	171.88417
844.939	168.95461
845.114	180.26682
845.289	175.43937
845.464	233.32086
845.639	158.93084
845.814	86.22499
845.989	100.18469
846.163	126.89808
846.338	123.65942
846.513	172.67786
846.688	116.83883
846.863	122.38222
847.038	103.93335
847.212	122.49414
847.387	124.1514
847.562	132.03176
847.737	156.76836
847.911	68.46392
848.086	78.63703
848.261	257.20311
848.435	110.07583
848.61	163.96748
848.785	88.33543
848.959	170.15439
849.134	226.1647
849.308	228.22533
849.483	124.05545
849.658	195.06806
849.832	112.41489
850.007	91.66809
850.181	256.40098
850.356	109.00177
850.53	239.94137
850.705	79.49749
850.879	53.71094
851.053	120.17387
851.228	110.31333
851.402	137.54236
851.577	172.59479
851.751	195.94024
851.925	131.54889
852.099	64.32786
852.274	99.68381
852.448	121.4814
852.622	153.03724
852.797	128.78743
852.971	120.76313
853.145	139.95047
853.319	357.22165
853.493	179.92843
853.668	110.69203
853.842	231.07867
854.016	185.12416
854.19	215.58994
854.364	130.79631
854.538	145.19695
854.712	188.37453
854.886	122.7387
855.06	109.59218
855.234	57.10643
855.408	196.99
855.582	170.83469
855.756	172.99998
855.93	226.30703
856.104	154.1686
856.278	178.9852
856.452	136.11718
856.626	169.25019
856.8	268.68151
856.973	165.11049
857.147	156.83416
857.321	156.02291
857.495	188.8994
857.669	120.13207
857.842	114.88987
858.016	188.8797
858.19	104.71374
858.364	296.60565
858.537	116.27337
858.711	135.33533
858.885	123.38357
859.058	110.0714
859.232	64.88625
859.405	75.17729
859.579	177.74902
859.753	147.14388
859.926	104.82666
860.1	73.12715
860.273	133.8839
860.447	218.52525
860.62	123.7037
860.794	256.81159
860.967	148.81912
861.141	189.93205
861.314	265.89914
861.487	163.84543
861.661	203.70844
861.834	216.01977
862.008	190.98981
862.181	140.97956
862.354	139.84585
862.528	153.19539
862.701	118.56341
862.874	83.28711
863.047	126.42942
863.221	118.76275
863.394	67.43261
863.567	213.56659
863.74	54.16109
863.913	183.23201
864.087	153.1924
864.26	181.79279
864.433	135.08228
864.606	237.42269
864.779	131.65927
864.952	74.42864
865.125	113.64099
865.298	130.3692
865.471	140.20883
865.644	269.62441
865.817	218.10745
865.99	177.61062
866.163	199.91075
866.336	116.81703
866.509	132.25097
866.682	124.97508
866.855	202.44396
867.028	91.66393
867.2	172.00212
867.373	66.81363
867.546	142.7084
867.719	265.60583
867.892	168.67073
868.064	105.19151
868.237	161.50205
868.41	136.37089
868.583	93.52228
868.755	88.8212
868.928	130.63043
869.101	279.62208
869.273	203.57948
869.446	164.62514
869.619	191.7272
869.791	135.19212
869.964	195.06854
870.136	185.87003
870.309	144.92931
870.481	149.87952
870.654	79.11781
870.826	145.025
870.999	122.74912
871.171	186.85183
871.344	110.38472
871.516	124.3479
871.689	103.04891
871.861	147.13886
872.033	108.68771
872.206	125.43101
872.378	189.1562
872.55	122.20192
872.723	87.34532
872.895	129.7096
873.067	195.18616
873.24	216.14265
873.412	119.67191
873.584	128.44478
873.756	122.78688
873.928	161.33658
874.101	166.64246
874.273	172.41006
874.445	63.44039
874.617	81.98523
874.789	154.87243
874.961	121.46989
875.133	169.77356
875.305	141.90002
875.477	97.8517
875.649	79.09762
875.821	99.02145
875.993	234.56309
876.165	99.21477
876.337	157.84479
876.509	131.36635
876.681	153.7871
876.853	147.71026
877.025	152.72485
877.197	101.84915
877.369	98.94598
877.541	188.35922
877.712	58.39206
877.884	86.47706
878.056	173.22637
878.228	96.20011
878.4	164.18991
878.571	91.47775
878.743	72.48811
878.915	153.89025
879.086	92.72322
879.258	115.8116
879.43	102.59338
879.601	93.83445
879.773	99.14896
879.945	32.91914
880.116	46.72284
880.288	32.89899
880.459	35.17142
880.631	31.15543
880.802	35.01856
880.974	33.83141
881.145	27.1105
881.317	32.54457
881.488	27.59535
881.66	29.9634
881.831	28.21524
882.002	35.47034
882.174	28.66059
882.345	33.90902
882.517	24.898
882.688	38.21469
882.859	34.81336
883.03	47.28587
883.202	45.88861
883.373	43.15004
883.544	42.59055
883.715	65.82133
883.887	55.69925
884.058	49.30739
884.229	65.51284
884.4	67.7809
884.571	74.63198
884.742	66.48194
884.914	73.24829
885.085	95.08565
885.256	115.15986
885.427	98.79252
885.598	112.58921
885.769	120.78959
885.94	115.12436
886.111	82.60259
886.282	132.38119
886.453	110.08629
886.624	82.09555
886.795	128.06848
886.966	115.37503
887.136	142.2907
887.307	94.71761
887.478	165.93854
887.649	151.55246
887.82	153.78736
887.991	128.30807
888.161	169.69073
888.332	164.95212
888.503	91.27421
888.674	214.71792
888.844	225.25247
889.015	175.58358
889.186	91.80368
889.356	206.12083
889.527	92.24179
889.698	355.62918
889.868	122.31083
890.039	157.06339
890.209	144.85449
890.38	179.04764
890.551	157.5479
890.721	230.20986
890.892	179.65833
891.062	131.26003
891.233	160.98392
891.403	126.40522
891.574	100.30055
891.744	133.58615
891.914	176.40186
892.085	145.96925
892.255	54.88407
892.425	221.29552
892.596	176.15589
892.766	162.08636
892.936	222.13169
893.107	188.42706
893.277	108.21218
893.447	86.08303
893.618	67.16852
893.788	118.33323
893.958	74.82939
894.128	70.72657
894.298	79.70761
894.468	108.52058
894.639	45.8231
894.809	40.86023
894.979	59.24677
895.149	67.04792
895.319	58.2687
895.489	78.48704
895.659	90.79745
895.829	66.54917
895.999	68.80791
896.169	55.18538
896.339	64.49578
896.509	122.98001
896.679	142.88054
896.849	135.14352
897.019	182.9849
897.189	152.75081
897.358	128.2615
897.528	185.29368
897.698	72.63267
897.868	172.45724
898.038	286.04156
898.208	259.87297
898.377	98.91082
898.547	275.6369
898.717	430.36838
898.886	171.41285
899.056	266.6072
899.226	397.38903
899.395	244.7987
899.565	303.79784
899.735	211.97111
899.904	338.27382
900.074	282.24878
900.244	145.77254
900.413	506.7359
900.583	135.48167
900.752	191.09605
900.922	305.08487
901.091	44.89782
901.261	271.25753
901.43	267.8358
901.599	254.92459
901.769	566.2031
901.938	292.57636
902.108	282.1133
902.277	376.08874
902.446	114.04995
902.616	121.02961
902.785	185.79741
902.954	288.39694
903.124	194.52386
903.293	156.39777
903.462	95.06506
903.631	124.01723
903.801	94.25398
903.97	55.56538
904.139	86.4272
904.308	68.40975
904.477	57.28691
904.646	41.10753
904.816	55.55088
904.985	74.82547
905.154	110.73419
