Data from WindowProjectSample3_Transmission__18__00018.txt Node

Date: Sun May 04 10:00:57 EDT 2025
User: jessi
Spectrometer: SR400872
Trigger mode: 0
Integration Time (sec): 5.000070E-1
Scans to average: 10
Electric dark correction enabled: true
Nonlinearity correction enabled: true
Boxcar width: 0
XAxis mode: Wavelengths
Number of Pixels in Spectrum: 3648
>>>>>Begin Spectral Data<<<<<
184.909	-5775.63053
185.132	10772.96352
185.355	-8344.90504
185.578	-53402.60884
185.801	2800.66976
186.024	-135369.42864
186.247	-891.48368
186.47	1272.97098
186.693	572.95306
186.916	-972.65808
187.139	-2634746.93549
187.362	-2883.82641
187.585	7541.96351
187.808	2055.47539
188.031	-75.48646
188.254	5063.4974
188.476	-1845.28247
188.699	2527.2859
188.922	519.94502
189.145	-6056.5155
189.368	-3797.6536
189.591	1734.27213
189.813	-147344.13704
190.036	9295.43356
190.259	1397.6734
190.482	5849.62224
190.705	16672.29129
190.927	17738.66719
191.15	-4380.73356
191.373	2025.93918
191.595	1576.04832
191.818	16816.97701
192.041	912.32436
192.263	-8154.43958
192.486	-1875.63784
192.709	2837.67539
192.931	-3400.43823
193.154	13375.34671
193.377	2494.93797
193.599	29642.08323
193.822	2307.04208
194.044	1965.75683
194.267	1158.97221
194.489	-139.85465
194.712	3712.62224
194.934	34166.84857
195.157	-452.82928
195.379	10852.33887
195.602	1954.54006
195.824	4714.44349
196.047	6565.07616
196.269	14335.37063
196.492	-11828.09805
196.714	4011.94591
196.936	7231.56267
197.159	10802.31976
197.381	4863.02388
197.604	1421258.30597
197.826	2063.70645
198.048	2161.73579
198.271	10065.93792
198.493	2150.84446
198.715	2667.27806
198.938	9110.58632
199.16	3761.85316
199.382	10081.4951
199.604	10249.20536
199.827	1853.59879
200.049	2994.19508
200.271	21055.89569
200.493	1749.32385
200.715	7410.19855
200.938	7819.81546
201.16	-3801.53496
201.382	33192.40961
201.604	4146.96862
201.826	8627.79984
202.048	4548.5341
202.27	1927.81413
202.492	5954.30648
202.715	19962.28605
202.937	4017.60315
203.159	1556.47066
203.381	2042.52338
203.603	2978.8832
203.825	-1438.13274
204.047	-22930.67468
204.269	3540.60681
204.491	7394.84965
204.713	-1640712.12516
204.935	2293.42877
205.156	4046.65968
205.378	1540.29237
205.6	38933.75544
205.822	4878.71065
206.044	3446.77847
206.266	6182.08566
206.488	1561.28159
206.71	9804.24724
206.932	1446.79218
207.153	30150.33397
207.375	16217.0542
207.597	12829.03473
207.819	38746.11819
208.041	-45846.41086
208.262	1226.32315
208.484	14515.7637
208.706	4050.4572
208.927	2610.09708
209.149	973.47779
209.371	3711.83038
209.593	1024.02885
209.814	10566.92917
210.036	-451186.09537
210.258	1587.19272
210.479	2305.73887
210.701	3340.18467
210.922	-5682.77487
211.144	-3396.59406
211.366	5155.70968
211.587	2672.55702
211.809	5858.26484
212.03	-66116.97787
212.252	486.26688
212.473	930.72946
212.695	798.8694
212.916	1291.58895
213.138	581.37146
213.359	4963.69822
213.581	2897.90098
213.802	784.2083
214.024	7579.79522
214.245	-14207.12672
214.466	548.76409
214.688	3819.29289
214.909	10716.81917
215.131	4425.78054
215.352	2508.19429
215.573	11909.56137
215.795	2284.63793
216.016	1943.34698
216.237	-765095.06697
216.459	1940.87213
216.68	5952.86126
216.901	3068.34381
217.122	815.60821
217.344	3160.69768
217.565	7145.53736
217.786	3575.30387
218.007	966.87146
218.228	2537.29606
218.45	-16672.73674
218.671	49048.57608
218.892	19980.17334
219.113	1681.91258
219.334	8006.5722
219.555	-8030.84725
219.776	1768.34637
219.997	4071.95594
220.219	1137.56948
220.44	1632.53644
220.661	1729.28885
220.882	5828.12121
221.103	1427.83705
221.324	7760.3908
221.545	3238.91959
221.766	3076.74805
221.987	1479.9544
222.208	919.75521
222.429	2272.53846
222.65	270.32516
222.87	876.47637
223.091	1791.45114
223.312	1223.06282
223.533	2163.75509
223.754	1646.94734
223.975	1765.12115
224.196	1119.39902
224.417	5598.2884
224.637	651.88583
224.858	121.53508
225.079	1267.65272
225.3	644.27687
225.521	2302.83141
225.741	619.65494
225.962	624.43502
226.183	195.49237
226.404	1023.16647
226.624	554.54792
226.845	620.91082
227.066	456.58566
227.286	314.70229
227.507	191.38415
227.728	160.95237
227.948	272.66976
228.169	98.09157
228.389	105.59573
228.61	61.93294
228.831	87.26142
229.051	12.14691
229.272	49.54249
229.492	71.43837
229.713	20.16645
229.933	54.75309
230.154	46.36722
230.374	77.55491
230.595	55.7126
230.815	40.45173
231.036	57.45155
231.256	-8.5984
231.477	96.92017
231.697	57.84236
231.917	61.22094
232.138	89.0272
232.358	159.7106
232.579	154.46917
232.799	26.00027
233.019	140.21425
233.24	160.6626
233.46	58.02144
233.68	93.18424
233.901	59.86201
234.121	43.01298
234.341	22.59974
234.561	-1.28538
234.782	33.44425
235.002	101.16766
235.222	-1.16314
235.442	88.21814
235.662	45.36375
235.883	86.70331
236.103	78.85072
236.323	58.21386
236.543	43.16252
236.763	61.71332
236.983	64.35741
237.203	65.43389
237.423	88.95167
237.643	131.09547
237.864	117.07116
238.084	31.60921
238.304	43.13859
238.524	69.17391
238.744	58.36983
238.964	99.77128
239.184	93.95908
239.404	94.35233
239.624	52.14453
239.843	84.94764
240.063	53.37741
240.283	32.68114
240.503	38.0155
240.723	34.58866
240.943	22.17462
241.163	30.4558
241.383	20.3365
241.603	10.57921
241.822	13.56312
242.042	8.82823
242.262	11.88452
242.482	13.67921
242.702	15.26538
242.921	5.30263
243.141	11.27191
243.361	10.30408
243.581	14.80614
243.8	12.19813
244.02	9.04074
244.24	15.35665
244.459	15.14053
244.679	28.505
244.899	18.99101
245.118	21.19835
245.338	18.63241
245.558	22.01809
245.777	12.72237
245.997	14.80759
246.216	14.35665
246.436	8.7054
246.655	6.32449
246.875	4.33405
247.094	8.58574
247.314	3.25788
247.533	5.42602
247.753	6.46088
247.972	5.28177
248.192	2.13523
248.411	3.13603
248.631	5.63855
248.85	7.33527
249.07	6.37115
249.289	10.01109
249.508	6.57798
249.728	12.39331
249.947	11.57374
250.166	13.57063
250.386	7.96412
250.605	11.0057
250.824	15.9722
251.044	12.47046
251.263	36.84804
251.482	20.20219
251.701	17.10171
251.921	0.3888
252.14	6.16586
252.359	6.23836
252.578	14.90283
252.798	5.95407
253.017	13.69449
253.236	7.14519
253.455	10.0243
253.674	18.00676
253.893	9.01497
254.112	11.64166
254.331	18.05977
254.551	14.77951
254.77	7.20338
254.989	20.85395
255.208	17.6486
255.427	23.55423
255.646	21.13662
255.865	30.89439
256.084	13.73668
256.303	17.3839
256.522	19.57271
256.741	3.61112
256.96	5.21665
257.179	11.51824
257.397	17.20199
257.616	8.64852
257.835	9.07063
258.054	23.51871
258.273	15.62709
258.492	16.72811
258.711	9.31331
258.93	4.56949
259.148	6.12654
259.367	5.89114
259.586	7.8
259.805	3.52028
260.023	7.26181
260.242	5.47935
260.461	4.09316
260.68	2.40384
260.898	6.49847
261.117	2.28793
261.336	1.65494
261.554	5.92921
261.773	6.0915
261.992	1.29443
262.21	5.75112
262.429	6.63024
262.648	11.06507
262.866	12.18574
263.085	9.04951
263.303	7.62272
263.522	12.62257
263.74	13.76777
263.959	22.79031
264.178	12.19527
264.396	9.858
264.615	7.6856
264.833	17.41528
265.051	15.03288
265.27	15.71625
265.488	16.47265
265.707	9.85822
265.925	16.49771
266.144	6.83109
266.362	9.1591
266.58	9.03985
266.799	6.96439
267.017	8.80731
267.235	7.46096
267.454	5.5456
267.672	2.75142
267.89	6.81329
268.109	6.75828
268.327	6.8051
268.545	1.62972
268.763	6.13323
268.982	2.88997
269.2	7.24909
269.418	4.65013
269.636	3.80041
269.854	7.38684
270.073	5.52882
270.291	2.94477
270.509	3.39314
270.727	6.96822
270.945	11.06363
271.163	10.72647
271.381	2.52886
271.599	4.35957
271.817	8.15062
272.036	2.72626
272.254	4.70214
272.472	3.56019
272.69	3.82052
272.908	4.2987
273.126	6.30472
273.344	7.88771
273.562	3.11518
273.779	3.92424
273.997	6.03107
274.215	6.55031
274.433	4.40792
274.651	6.76364
274.869	7.41986
275.087	4.63101
275.305	6.72489
275.523	4.10456
275.74	5.1333
275.958	8.37682
276.176	11.9528
276.394	4.20558
276.612	5.22628
276.829	5.24857
277.047	4.22802
277.265	4.89687
277.483	6.0745
277.7	6.79432
277.918	5.7476
278.136	9.61888
278.353	4.64033
278.571	3.04929
278.789	7.40458
279.006	1.78826
279.224	4.29923
279.442	7.30289
279.659	5.56877
279.877	3.76889
280.094	8.16616
280.312	1.9228
280.529	5.47359
280.747	1.64238
280.964	4.38087
281.182	8.66148
281.399	4.06419
281.617	5.71644
281.834	4.00933
282.052	3.00811
282.269	4.84561
282.487	3.99144
282.704	3.47051
282.921	3.55504
283.139	5.08319
283.356	6.55273
283.574	5.79109
283.791	2.90593
284.008	7.99443
284.226	4.61028
284.443	5.18014
284.66	6.15687
284.877	5.05086
285.095	3.38747
285.312	2.57876
285.529	1.58017
285.746	1.3307
285.964	3.24459
286.181	2.14529
286.398	3.023
286.615	4.2384
286.832	4.00062
287.05	1.27231
287.267	3.10096
287.484	2.7988
287.701	4.2841
287.918	4.01571
288.135	4.32718
288.352	1.83654
288.569	2.58754
288.786	3.81688
289.003	3.12558
289.22	4.47241
289.437	2.73864
289.654	4.63377
289.871	4.47685
290.088	4.25464
290.305	3.4071
290.522	2.86277
290.739	3.31365
290.956	4.84018
291.173	5.82854
291.39	5.34404
291.607	3.65946
291.824	3.03324
292.04	1.98331
292.257	4.52313
292.474	4.93247
292.691	3.33572
292.908	1.67711
293.125	2.63789
293.341	1.7666
293.558	7.66822
293.775	2.99195
293.992	3.21005
294.208	1.41266
294.425	1.94431
294.642	2.70094
294.858	4.40871
295.075	1.23016
295.292	3.09556
295.508	3.54526
295.725	5.40867
295.942	2.78909
296.158	1.87774
296.375	3.00759
296.591	2.45701
296.808	2.50686
297.024	2.79826
297.241	3.21791
297.458	3.52738
297.674	0.30533
297.891	2.83615
298.107	2.22128
298.323	1.74097
298.54	4.30587
298.756	2.13788
298.973	1.19967
299.189	4.54128
299.406	1.78818
299.622	4.56585
299.838	4.57858
300.055	3.98024
300.271	0.96235
300.487	1.76953
300.704	1.8229
300.92	1.19528
301.136	6.0022
301.353	4.47341
301.569	3.12949
301.785	3.5654
302.001	4.13605
302.218	3.74235
302.434	3.61543
302.65	1.24304
302.866	2.50832
303.083	6.17165
303.299	5.79967
303.515	2.92429
303.731	3.62264
303.947	1.32621
304.163	2.14779
304.379	3.22368
304.595	3.83925
304.812	2.18255
305.028	1.83575
305.244	2.59748
305.46	4.29216
305.676	4.26442
305.892	4.83801
306.108	3.76371
306.324	2.75467
306.54	5.72825
306.756	3.82815
306.972	3.86953
307.187	2.75605
307.403	5.37493
307.619	2.6278
307.835	4.81003
308.051	5.07046
308.267	1.60327
308.483	4.65407
308.699	3.86224
308.914	3.46346
309.13	3.27772
309.346	1.20704
309.562	1.62029
309.778	1.10083
309.993	3.80039
310.209	2.80144
310.425	1.48948
310.641	2.59665
310.856	1.49142
311.072	1.64022
311.288	2.67401
311.503	3.23988
311.719	0.87651
311.935	0.68104
312.15	3.50645
312.366	3.18177
312.581	3.60782
312.797	3.03711
313.013	4.10742
313.228	2.27715
313.444	3.14714
313.659	2.09209
313.875	3.74544
314.09	2.90863
314.306	5.05548
314.521	4.35335
314.737	4.00271
314.952	3.1723
315.168	3.16543
315.383	3.81139
315.599	2.92504
315.814	2.50258
316.029	4.29067
316.245	1.59759
316.46	1.09554
316.675	4.99587
316.891	5.96105
317.106	7.23183
317.321	4.10725
317.537	4.09831
317.752	4.33988
317.967	4.53769
318.183	2.15432
318.398	2.92435
318.613	4.64528
318.828	5.10797
319.043	4.5011
319.259	3.07426
319.474	3.69254
319.689	4.96825
319.904	0.9534
320.119	4.46
320.334	3.68712
320.549	3.10281
320.765	4.75575
320.98	3.67902
321.195	4.32932
321.41	3.13199
321.625	4.67943
321.84	5.92879
322.055	5.4269
322.27	2.411
322.485	1.95674
322.7	3.8842
322.915	4.83087
323.13	2.30461
323.345	5.38955
323.56	3.74481
323.775	4.40306
323.989	3.87931
324.204	3.62444
324.419	4.46391
324.634	1.68288
324.849	3.0961
325.064	6.45418
325.279	4.581
325.493	4.03331
325.708	4.66135
325.923	2.25885
326.138	2.5874
326.352	5.55555
326.567	4.82551
326.782	2.78182
326.997	2.56022
327.211	4.39139
327.426	4.18554
327.641	3.08135
327.855	1.41629
328.07	4.13334
328.285	5.92321
328.499	3.15539
328.714	3.85351
328.928	4.60369
329.143	3.66565
329.358	5.02742
329.572	5.04311
329.787	5.46964
330.001	7.12733
330.216	1.70989
330.43	5.90965
330.645	5.52991
330.859	4.63309
331.074	2.49084
331.288	3.86234
331.503	5.54291
331.717	1.99634
331.931	3.43304
332.146	3.86254
332.36	6.42972
332.575	4.32964
332.789	3.96315
333.003	3.60688
333.218	4.16418
333.432	2.76553
333.646	4.54985
333.86	5.6659
334.075	5.8593
334.289	2.76586
334.503	2.13371
334.717	4.59617
334.932	4.12987
335.146	5.07563
335.36	3.16119
335.574	4.89157
335.788	4.61873
336.003	5.59032
336.217	4.91183
336.431	4.67305
336.645	3.12026
336.859	2.16988
337.073	3.4922
337.287	3.93028
337.501	2.18544
337.715	3.97921
337.929	4.24035
338.143	1.87291
338.357	3.5278
338.571	2.40435
338.785	4.51716
338.999	2.72771
339.213	2.9967
339.427	1.9455
339.641	5.21504
339.855	3.21162
340.069	2.92612
340.283	5.24442
340.497	5.88849
340.711	4.57877
340.924	3.74372
341.138	2.32361
341.352	1.97352
341.566	3.74229
341.78	1.59133
341.993	3.00201
342.207	2.39324
342.421	4.05925
342.635	3.49964
342.848	3.01789
343.062	1.04384
343.276	2.79892
343.49	6.30094
343.703	2.76261
343.917	4.83766
344.131	5.01475
344.344	2.79885
344.558	3.07014
344.771	2.29258
344.985	5.1555
345.199	5.78361
345.412	3.94476
345.626	4.19644
345.839	1.432
346.053	2.16345
346.266	2.31207
346.48	4.62435
346.693	4.1998
346.907	4.2632
347.12	2.50586
347.334	3.93457
347.547	4.2326
347.76	3.3594
347.974	5.14341
348.187	4.06813
348.401	3.15104
348.614	2.69726
348.827	3.19616
349.041	4.49368
349.254	1.84622
349.467	3.36759
349.681	2.46769
349.894	2.73292
350.107	4.96924
350.32	5.99136
350.534	1.73591
350.747	3.45449
350.96	2.71892
351.173	2.70313
351.386	3.21851
351.6	3.23642
351.813	2.92089
352.026	3.61422
352.239	2.12591
352.452	3.20627
352.665	4.78064
352.878	3.18615
353.092	6.34376
353.305	4.41622
353.518	3.7484
353.731	2.47118
353.944	4.85339
354.157	2.81836
354.37	2.363
354.583	2.39755
354.796	1.97737
355.009	5.04774
355.222	3.75055
355.435	3.58692
355.647	4.82051
355.86	2.56012
356.073	3.59776
356.286	3.12078
356.499	4.51703
356.712	4.16558
356.925	4.1974
357.138	4.8733
357.35	2.4768
357.563	3.19295
357.776	3.67215
357.989	3.34816
358.201	4.28218
358.414	4.05311
358.627	5.00495
358.84	3.29235
359.052	2.31018
359.265	2.45663
359.478	4.69672
359.69	0.84733
359.903	4.50242
360.116	4.56871
360.328	1.63775
360.541	4.37617
360.753	2.75509
360.966	3.01775
361.179	3.23247
361.391	3.04332
361.604	2.61616
361.816	2.98799
362.029	2.87637
362.241	2.56581
362.454	3.09431
362.666	2.55083
362.879	4.02083
363.091	3.2392
363.304	2.8056
363.516	3.39959
363.728	2.15231
363.941	4.28923
364.153	3.29097
364.366	1.30946
364.578	2.2512
364.79	4.0367
365.003	3.67362
365.215	3.2112
365.427	4.12807
365.639	4.90667
365.852	3.80423
366.064	5.43159
366.276	3.0687
366.488	4.14346
366.701	3.08623
366.913	3.40681
367.125	3.38606
367.337	2.85905
367.549	2.96233
367.762	3.42807
367.974	3.5529
368.186	3.16831
368.398	4.74886
368.61	4.12781
368.822	4.25484
369.034	3.47686
369.246	4.58811
369.458	6.54605
369.67	2.54761
369.882	5.7729
370.094	1.42398
370.306	5.42974
370.518	3.1695
370.73	3.07939
370.942	2.89243
371.154	3.53626
371.366	3.28655
371.578	4.21437
371.79	3.15948
372.002	4.84444
372.214	5.81799
372.425	3.82653
372.637	5.33902
372.849	4.32405
373.061	1.60778
373.273	4.20849
373.484	4.15061
373.696	4.91215
373.908	1.18358
374.12	4.83937
374.331	4.23979
374.543	2.87342
374.755	2.74251
374.967	3.68922
375.178	4.72084
375.39	3.56332
375.602	3.95719
375.813	2.30108
376.025	2.58931
376.236	3.74171
376.448	4.13304
376.66	3.52111
376.871	3.36744
377.083	4.94555
377.294	5.31315
377.506	3.33022
377.717	5.39713
377.929	4.29906
378.14	3.12922
378.352	4.61704
378.563	4.51983
378.775	5.38714
378.986	3.13604
379.197	4.28989
379.409	3.21924
379.62	4.84538
379.832	4.10834
380.043	3.78389
380.254	4.11297
380.466	2.89022
380.677	6.96839
380.888	6.51643
381.1	6.96675
381.311	6.82743
381.522	4.17079
381.733	7.28088
381.945	3.66426
382.156	4.18247
382.367	3.74985
382.578	7.1776
382.789	7.13244
383.001	3.61441
383.212	5.89753
383.423	6.0043
383.634	5.51181
383.845	4.98493
384.056	3.90296
384.267	4.42019
384.478	4.17919
384.69	2.95359
384.901	4.87205
385.112	4.56558
385.323	6.14487
385.534	4.81693
385.745	4.63519
385.956	4.86765
386.167	3.39971
386.378	4.86545
386.588	3.42093
386.799	3.41812
387.01	2.81507
387.221	5.38339
387.432	4.24658
387.643	6.40057
387.854	4.15108
388.065	4.04203
388.275	4.11212
388.486	4.05567
388.697	4.59252
388.908	4.18651
389.119	5.6365
389.329	6.21842
389.54	4.62988
389.751	4.83253
389.962	5.79942
390.172	4.65935
390.383	4.22761
390.594	3.85629
390.804	4.0615
391.015	4.08295
391.226	4.71341
391.436	5.01906
391.647	4.98978
391.858	5.38296
392.068	3.13121
392.279	3.59218
392.489	5.07629
392.7	5.64712
392.91	3.68274
393.121	3.89219
393.331	5.22065
393.542	6.15783
393.752	5.64579
393.963	5.14446
394.173	5.02626
394.384	5.43717
394.594	4.81984
394.804	3.72331
395.015	5.05294
395.225	5.65524
395.436	3.94758
395.646	5.43053
395.856	4.42969
396.067	3.44277
396.277	6.11492
396.487	5.45035
396.697	5.271
396.908	5.89265
397.118	5.54923
397.328	5.16788
397.538	5.95223
397.749	4.39364
397.959	6.13832
398.169	5.6699
398.379	3.82047
398.589	5.61558
398.8	5.39662
399.01	5.14281
399.22	4.88062
399.43	7.34437
399.64	5.03049
399.85	5.83901
400.06	5.26873
400.27	4.42796
400.48	5.22803
400.69	6.53203
400.9	4.78104
401.11	4.3258
401.32	6.00751
401.53	4.62887
401.74	6.92873
401.95	5.89297
402.16	4.79885
402.37	5.67152
402.58	4.9682
402.79	5.85002
403	6.10737
403.209	4.71931
403.419	6.23054
403.629	4.99321
403.839	6.26179
404.049	6.36982
404.258	4.82213
404.468	4.60643
404.678	6.29387
404.888	6.64663
405.097	5.21788
405.307	5.3683
405.517	6.1854
405.727	6.05097
405.936	5.18629
406.146	5.7975
406.356	6.98759
406.565	5.5265
406.775	5.06232
406.984	5.19119
407.194	7.48541
407.404	5.73163
407.613	6.18588
407.823	6.46843
408.032	6.90283
408.242	6.88204
408.451	5.24427
408.661	5.66186
408.87	7.42216
409.08	5.14789
409.289	6.07641
409.499	6.13103
409.708	5.853
409.918	3.79615
410.127	5.85158
410.336	7.39996
410.546	6.55644
410.755	5.42616
410.964	5.40299
411.174	5.12605
411.383	6.46841
411.592	6.12869
411.802	4.889
412.011	6.68058
412.22	5.86144
412.429	7.54098
412.639	7.42617
412.848	7.03765
413.057	7.64604
413.266	7.2349
413.475	5.9827
413.685	6.72062
413.894	7.17139
414.103	7.1072
414.312	6.82068
414.521	5.93944
414.73	6.13444
414.939	8.06407
415.148	6.71404
415.357	6.49507
415.566	6.03235
415.776	6.08556
415.985	5.94921
416.194	7.12808
416.403	7.97261
416.611	5.33089
416.82	5.96309
417.029	6.47009
417.238	5.94522
417.447	5.81875
417.656	6.23669
417.865	5.82117
418.074	6.30674
418.283	6.56802
418.492	7.50128
418.7	7.21917
418.909	8.11875
419.118	6.87935
419.327	7.23434
419.536	6.91234
419.744	6.36179
419.953	7.68589
420.162	7.60287
420.371	6.65861
420.579	6.9108
420.788	7.86352
420.997	8.03033
421.205	8.13751
421.414	7.91462
421.623	7.9172
421.831	7.34758
422.04	8.09316
422.249	7.1814
422.457	7.61624
422.666	6.93594
422.874	7.89956
423.083	8.07641
423.291	7.8959
423.5	7.77879
423.708	8.16076
423.917	8.66467
424.125	7.96241
424.334	7.70809
424.542	9.72902
424.751	8.98107
424.959	8.58164
425.167	8.86817
425.376	8.56686
425.584	7.6315
425.793	8.00356
426.001	6.94767
426.209	8.2246
426.418	7.00431
426.626	7.17073
426.834	6.95257
427.042	7.5441
427.251	7.03429
427.459	8.20342
427.667	7.73909
427.875	6.38628
428.084	7.02819
428.292	8.4327
428.5	7.82188
428.708	6.64213
428.916	6.61312
429.124	7.40643
429.333	7.20878
429.541	7.18855
429.749	7.61068
429.957	7.4119
430.165	9.55179
430.373	6.30984
430.581	7.68155
430.789	8.49293
430.997	7.04353
431.205	6.9125
431.413	7.53339
431.621	7.14228
431.829	8.05412
432.037	7.22913
432.245	8.09046
432.453	7.7601
432.661	7.39661
432.869	9.16812
433.076	6.99141
433.284	7.56999
433.492	8.1793
433.7	8.74994
433.908	7.40173
434.116	7.83342
434.323	7.84547
434.531	7.78201
434.739	8.25622
434.947	8.62935
435.154	8.54026
435.362	8.00445
435.57	7.61698
435.778	7.39512
435.985	8.11
436.193	7.2767
436.401	8.90173
436.608	7.82298
436.816	7.43222
437.023	9.29879
437.231	9.46758
437.439	8.06911
437.646	8.44981
437.854	8.27851
438.061	8.62259
438.269	7.8206
438.476	8.55891
438.684	8.1029
438.891	7.81268
439.099	7.70849
439.306	7.06432
439.514	7.29326
439.721	8.51309
439.929	7.55764
440.136	8.45978
440.343	8.3993
440.551	7.96562
440.758	9.67748
440.965	8.73779
441.173	8.31809
441.38	7.79667
441.587	8.51703
441.795	7.97373
442.002	8.52447
442.209	8.60098
442.416	8.70183
442.624	8.7535
442.831	8.6129
443.038	7.83642
443.245	7.43646
443.452	7.89364
443.66	8.84659
443.867	7.85683
444.074	7.84629
444.281	7.73522
444.488	8.07619
444.695	8.11657
444.902	7.90636
445.109	8.81961
445.316	7.98233
445.523	8.02608
445.73	7.69636
445.937	8.58427
446.144	9.03101
446.351	9.39271
446.558	8.11171
446.765	9.91988
446.972	9.51794
447.179	8.71527
447.386	9.54653
447.593	8.11713
447.8	9.33105
448.007	8.42702
448.214	8.5199
448.42	8.01747
448.627	9.58734
448.834	8.54297
449.041	8.2146
449.248	8.32264
449.454	9.13027
449.661	9.92358
449.868	8.2546
450.075	7.95152
450.281	6.79598
450.488	7.53295
450.695	7.59092
450.901	7.64342
451.108	7.85616
451.315	9.23455
451.521	8.08564
451.728	9.16488
451.935	7.71692
452.141	8.33258
452.348	8.32402
452.554	8.29873
452.761	8.08768
452.967	9.71694
453.174	8.47521
453.38	8.76946
453.587	7.33974
453.793	8.54431
454	9.15986
454.206	10.14392
454.413	9.33411
454.619	8.91999
454.825	7.87673
455.032	9.01094
455.238	9.12255
455.445	7.57637
455.651	8.67194
455.857	6.99785
456.064	8.30269
456.27	8.12758
456.476	8.12595
456.682	7.33347
456.889	8.76865
457.095	8.9375
457.301	10.366
457.507	8.39923
457.714	8.79295
457.92	8.59081
458.126	7.90575
458.332	8.29381
458.538	8.05722
458.744	8.27022
458.951	8.26313
459.157	9.94993
459.363	8.57634
459.569	8.58282
459.775	9.27698
459.981	8.46003
460.187	8.97477
460.393	9.37193
460.599	9.81245
460.805	9.18096
461.011	8.97637
461.217	9.90948
461.423	9.81858
461.629	8.79885
461.835	9.35546
462.041	8.85012
462.247	10.33968
462.453	8.61687
462.658	8.82524
462.864	9.45649
463.07	8.90173
463.276	9.06795
463.482	8.71327
463.688	10.3014
463.893	8.22232
464.099	8.37665
464.305	10.16544
464.511	8.55654
464.716	8.87767
464.922	9.51314
465.128	8.23494
465.333	10.33544
465.539	9.39318
465.745	8.97241
465.95	8.79374
466.156	11.49695
466.362	9.95651
466.567	9.05197
466.773	8.36909
466.978	10.10237
467.184	8.14833
467.389	7.30482
467.595	9.30185
467.8	8.30444
468.006	10.18653
468.211	9.97331
468.417	8.01729
468.622	9.58686
468.828	9.5535
469.033	9.24654
469.239	11.48738
469.444	8.64888
469.649	9.77772
469.855	9.07642
470.06	9.28685
470.266	8.12179
470.471	9.59818
470.676	9.32884
470.881	7.50029
471.087	9.85428
471.292	10.8983
471.497	7.97585
471.703	9.02149
471.908	8.43575
472.113	9.02459
472.318	9.7993
472.523	8.26759
472.729	9.44661
472.934	9.39058
473.139	8.8552
473.344	9.47086
473.549	10.43712
473.754	8.239
473.959	10.97157
474.164	8.61128
474.369	8.95468
474.575	9.7124
474.78	9.24773
474.985	8.67347
475.19	7.63881
475.395	8.58322
475.6	9.01975
475.804	10.30001
476.009	9.1112
476.214	9.05909
476.419	8.79658
476.624	7.76353
476.829	8.51257
477.034	9.73531
477.239	8.63321
477.444	9.56145
477.648	9.61513
477.853	9.76855
478.058	8.9878
478.263	8.74709
478.468	8.27719
478.672	8.60358
478.877	10.4916
479.082	10.78232
479.287	9.69617
479.491	9.42293
479.696	8.47374
479.901	10.07157
480.105	9.92712
480.31	8.78408
480.515	9.28905
480.719	11.18833
480.924	8.71274
481.128	8.39411
481.333	9.31545
481.538	9.36465
481.742	8.92638
481.947	9.40651
482.151	9.88594
482.356	10.51449
482.56	12.55907
482.765	13.98318
482.969	16.77014
483.174	18.68277
483.378	21.48137
483.582	21.79514
483.787	23.47883
483.991	23.64278
484.196	23.51745
484.4	22.83211
484.604	22.88779
484.809	20.26583
485.013	19.09463
485.217	16.96287
485.422	15.11364
485.626	13.79984
485.83	13.20882
486.034	12.98821
486.239	13.6275
486.443	14.1085
486.647	14.3417
486.851	15.65227
487.055	16.86733
487.26	16.42488
487.464	17.40793
487.668	16.80337
487.872	16.97339
488.076	17.19965
488.28	16.22498
488.484	15.02887
488.688	14.52507
488.892	14.01203
489.096	12.93878
489.3	11.80889
489.504	11.01329
489.708	10.88534
489.912	10.69592
490.116	10.56176
490.32	10.14967
490.524	11.47644
490.728	12.436
490.932	12.89443
491.136	13.52427
491.34	14.7858
491.544	15.01282
491.748	14.54749
491.951	14.51067
492.155	13.91408
492.359	13.63507
492.563	12.03964
492.767	11.10548
492.97	10.04061
493.174	9.43368
493.378	9.84992
493.582	9.15682
493.785	9.75314
493.989	10.02396
494.193	9.88639
494.396	9.35808
494.6	10.10844
494.804	9.5678
495.007	8.98124
495.211	9.1269
495.414	9.30578
495.618	9.63293
495.822	10.29606
496.025	9.52092
496.229	10.05496
496.432	9.13413
496.636	9.53135
496.839	9.47977
497.043	10.76496
497.246	9.80899
497.45	9.22047
497.653	9.55014
497.856	9.63466
498.06	8.81925
498.263	9.43164
498.467	9.29921
498.67	10.49387
498.873	10.04573
499.077	9.3064
499.28	9.38467
499.483	9.78166
499.686	10.28054
499.89	9.7428
500.093	10.22317
500.296	8.92946
500.499	10.79343
500.703	9.46399
500.906	9.74672
501.109	11.12072
501.312	9.71536
501.515	9.43071
501.719	9.99078
501.922	10.79361
502.125	9.90874
502.328	9.39767
502.531	8.73423
502.734	9.63481
502.937	8.06576
503.14	9.62883
503.343	8.74189
503.546	9.30065
503.749	8.97935
503.952	9.94661
504.155	8.93558
504.358	10.02443
504.561	9.64165
504.764	8.549
504.967	9.70154
505.17	9.54772
505.373	10.84714
505.576	9.61282
505.778	10.03415
505.981	8.90067
506.184	10.52258
506.387	8.12862
506.59	10.94087
506.793	10.45255
506.995	9.8222
507.198	8.20763
507.401	9.85996
507.604	9.82803
507.806	8.78246
508.009	8.9997
508.212	10.15429
508.414	9.20206
508.617	9.08804
508.82	9.57279
509.022	10.63653
509.225	9.82277
509.427	8.40258
509.63	10.59948
509.833	9.4477
510.035	9.42645
510.238	8.51666
510.44	10.58963
510.643	7.95925
510.845	11.29223
511.048	9.9158
511.25	9.22931
511.453	9.42288
511.655	9.75738
511.858	9.1983
512.06	10.30988
512.262	9.61434
512.465	10.34204
512.667	9.36759
512.869	8.75539
513.072	9.9525
513.274	10.20643
513.476	10.17432
513.679	10.27573
513.881	8.78055
514.083	11.02074
514.286	9.09227
514.488	8.85487
514.69	8.6837
514.892	8.44384
515.094	10.17704
515.297	9.09195
515.499	9.44379
515.701	8.73195
515.903	10.95502
516.105	10.96541
516.307	10.03276
516.509	7.82434
516.711	8.34758
516.913	9.55141
517.116	9.52605
517.318	9.15684
517.52	10.38316
517.722	10.05575
517.924	8.75045
518.126	9.8198
518.328	9.13087
518.529	9.87646
518.731	10.9366
518.933	9.24131
519.135	9.64379
519.337	10.55368
519.539	10.17027
519.741	8.5715
519.943	9.65139
520.145	9.39613
520.346	10.23975
520.548	9.55361
520.75	9.94087
520.952	9.41065
521.153	9.92348
521.355	9.97987
521.557	8.7269
521.759	9.71528
521.96	9.4795
522.162	8.62207
522.364	10.33723
522.565	8.80474
522.767	10.07872
522.969	10.35704
523.17	10.01404
523.372	9.8995
523.573	8.96881
523.775	9.49833
523.977	8.66803
524.178	10.75757
524.38	9.16636
524.581	10.23997
524.783	9.19865
524.984	9.98941
525.186	9.49645
525.387	10.08318
525.589	9.61066
525.79	9.32573
525.991	9.11036
526.193	9.88008
526.394	8.62159
526.596	9.77645
526.797	9.84739
526.998	9.40328
527.2	9.50343
527.401	11.7169
527.602	12.6266
527.803	15.15126
528.005	15.84838
528.206	16.95617
528.407	17.70738
528.608	17.35375
528.81	17.59877
529.011	16.70401
529.212	17.47951
529.413	16.08056
529.614	14.74866
529.815	13.80864
530.017	12.6089
530.218	11.13995
530.419	9.89946
530.62	10.14381
530.821	10.26739
531.022	9.14674
531.223	10.36567
531.424	10.32702
531.625	10.29603
531.826	9.92621
532.027	9.87328
532.228	11.02443
532.429	10.9821
532.63	11.32693
532.831	12.13723
533.032	11.96639
533.233	12.69423
533.433	12.34582
533.634	12.56878
533.835	11.55667
534.036	10.8164
534.237	10.40302
534.438	9.84999
534.638	9.38825
534.839	9.76363
535.04	10.3635
535.241	9.53844
535.441	11.25831
535.642	10.12797
535.843	9.09815
536.043	9.31316
536.244	9.27833
536.445	9.33965
536.645	10.43205
536.846	9.96308
537.047	10.7041
537.247	9.3261
537.448	9.78155
537.648	10.17512
537.849	9.81487
538.049	9.93408
538.25	10.55504
538.451	10.26039
538.651	9.07411
538.851	10.33836
539.052	10.97441
539.252	10.76319
539.453	9.68365
539.653	10.09089
539.854	9.7971
540.054	9.84752
540.254	10.48125
540.455	11.45829
540.655	11.1563
540.855	12.64127
541.056	13.64837
541.256	13.07126
541.456	14.1155
541.657	13.30306
541.857	14.0236
542.057	12.1713
542.257	11.65053
542.458	12.02749
542.658	11.51751
542.858	9.68857
543.058	10.99255
543.258	10.59966
543.458	9.44236
543.659	9.20656
543.859	10.64356
544.059	10.5981
544.259	9.8732
544.459	10.81887
544.659	9.71754
544.859	10.47557
545.059	9.61068
545.259	10.66735
545.459	10.27876
545.659	10.81529
545.859	10.04109
546.059	10.10191
546.259	9.38346
546.459	8.9386
546.659	9.26627
546.859	10.71745
547.059	10.23973
547.258	10.60708
547.458	10.64336
547.658	9.35846
547.858	9.1401
548.058	10.50641
548.258	9.89812
548.457	9.36825
548.657	12.61282
548.857	9.81131
549.057	10.78577
549.256	10.56599
549.456	9.85415
549.656	8.15659
549.855	11.96065
550.055	9.56563
550.255	11.98961
550.454	10.46967
550.654	11.07345
550.853	11.57251
551.053	11.10096
551.253	10.45842
551.452	10.33217
551.652	8.95088
551.851	8.83745
552.051	9.83524
552.25	9.44754
552.45	9.28081
552.649	10.01523
552.849	9.35489
553.048	10.04689
553.248	10.84135
553.447	9.23873
553.646	11.19286
553.846	11.89284
554.045	11.33116
554.244	8.9106
554.444	11.86213
554.643	9.36701
554.842	11.90726
555.042	12.64945
555.241	9.72168
555.44	9.2011
555.64	10.85299
555.839	12.59836
556.038	10.92622
556.237	9.61992
556.436	10.18917
556.636	10.7909
556.835	9.60045
557.034	12.1876
557.233	10.0858
557.432	8.94979
557.631	11.41195
557.83	10.11978
558.029	9.60111
558.228	9.70884
558.427	9.25174
558.626	10.88054
558.825	9.24084
559.024	10.43179
559.223	12.54978
559.422	10.29513
559.621	10.81696
559.82	7.66331
560.019	10.27451
560.218	10.07622
560.417	7.38765
560.616	9.762
560.815	14.01605
561.014	8.81278
561.212	11.91139
561.411	10.51282
561.61	8.52492
561.809	9.9864
562.008	12.2022
562.206	10.04357
562.405	11.32832
562.604	10.34925
562.803	10.58912
563.001	10.21522
563.2	8.96209
563.399	10.97023
563.597	9.21291
563.796	10.39338
563.995	9.30254
564.193	11.09055
564.392	9.96073
564.59	12.76702
564.789	8.42445
564.988	9.70261
565.186	10.59573
565.385	10.04366
565.583	10.00607
565.782	10.29714
565.98	10.08926
566.179	10.38588
566.377	9.23797
566.575	9.79235
566.774	11.78669
566.972	11.45467
567.171	12.67348
567.369	12.16926
567.567	10.82745
567.766	10.86542
567.964	8.36785
568.162	11.14713
568.361	11.96254
568.559	10.43433
568.757	10.89457
568.956	10.62817
569.154	10.42936
569.352	11.27374
569.55	10.5934
569.748	10.64201
569.947	9.77065
570.145	9.62417
570.343	9.45824
570.541	11.55855
570.739	9.22761
570.937	10.70675
571.135	11.1503
571.333	12.65191
571.532	12.40948
571.73	10.95171
571.928	11.85088
572.126	11.14638
572.324	10.25085
572.522	12.25653
572.72	13.93839
572.918	10.59544
573.116	11.29601
573.313	10.66869
573.511	10.69448
573.709	10.26165
573.907	11.92946
574.105	10.46371
574.303	8.72141
574.501	9.17674
574.699	11.11793
574.896	11.26516
575.094	11.25858
575.292	9.15267
575.49	11.96482
575.688	10.63706
575.885	12.51125
576.083	13.20534
576.281	11.39457
576.478	10.00239
576.676	11.68692
576.874	9.37425
577.071	10.78008
577.269	13.93095
577.467	10.72089
577.664	10.894
577.862	12.01329
578.059	9.65871
578.257	11.89422
578.455	10.57683
578.652	11.29901
578.85	8.56791
579.047	10.87754
579.245	10.74974
579.442	10.80278
579.64	10.97286
579.837	8.32529
580.034	14.63764
580.232	10.51688
580.429	9.37428
580.627	11.73033
580.824	12.76716
581.021	11.85501
581.219	10.58648
581.416	9.85341
581.613	12.91331
581.811	13.02942
582.008	9.8567
582.205	12.15589
582.402	11.43151
582.6	13.09896
582.797	11.55953
582.994	11.89957
583.191	12.14415
583.388	11.12284
583.586	12.23471
583.783	12.83977
583.98	9.79218
584.177	11.42176
584.374	7.4571
584.571	11.19061
584.768	10.74773
584.965	10.73704
585.162	12.36795
585.359	13.83436
585.556	11.26876
585.753	11.56868
585.95	9.07941
586.147	9.92733
586.344	12.22902
586.541	10.84617
586.738	9.79812
586.935	11.0558
587.132	10.07346
587.329	12.84772
587.526	11.36421
587.722	18.55077
587.919	9.27993
588.116	12.01387
588.313	13.43122
588.51	14.4411
588.706	10.78528
588.903	12.28432
589.1	12.46768
589.297	15.4721
589.493	11.45997
589.69	11.99417
589.887	10.50456
590.083	9.83018
590.28	10.37044
590.477	12.50098
590.673	12.46142
590.87	13.56909
591.067	10.94455
591.263	12.13131
591.46	11.98245
591.656	11.05998
591.853	13.17071
592.049	10.34396
592.246	10.51113
592.442	13.28495
592.639	13.59282
592.835	9.93005
593.032	12.25225
593.228	9.49683
593.425	9.49991
593.621	9.32614
593.817	11.80286
594.014	10.6195
594.21	12.10385
594.406	12.88152
594.603	12.29938
594.799	10.85429
594.995	8.07918
595.192	13.40041
595.388	11.01177
595.584	10.89726
595.78	9.46039
595.977	14.41237
596.173	13.92408
596.369	11.10433
596.565	10.08706
596.761	9.64643
596.957	13.25022
597.154	10.61704
597.35	11.06164
597.546	10.54343
597.742	12.25794
597.938	11.97039
598.134	10.515
598.33	12.24031
598.526	14.06201
598.722	12.43433
598.918	14.45466
599.114	12.56062
599.31	10.49257
599.506	11.75823
599.702	10.23217
599.898	12.32851
600.094	13.49687
600.29	13.05225
600.485	13.27265
600.681	10.89579
600.877	14.53495
601.073	11.99519
601.269	14.87907
601.465	13.84623
601.66	10.43073
601.856	9.10951
602.052	14.52756
602.248	11.13117
602.443	9.10566
602.639	9.99354
602.835	10.56229
603.03	10.36568
603.226	13.08249
603.422	10.57212
603.617	11.29192
603.813	11.02466
604.009	11.01371
604.204	13.3959
604.4	9.56918
604.595	13.16675
604.791	10.59658
604.986	12.32461
605.182	10.59368
605.377	11.24704
605.573	11.01627
605.768	12.03518
605.964	12.75173
606.159	13.00116
606.355	13.91178
606.55	11.54515
606.746	13.96468
606.941	11.63843
607.136	15.26019
607.332	16.88991
607.527	10.20273
607.722	12.26607
607.918	11.71963
608.113	10.81864
608.308	13.09862
608.503	12.69776
608.699	12.37909
608.894	12.50767
609.089	10.93389
609.284	12.28619
609.479	11.22702
609.675	13.05553
609.87	11.25688
610.065	13.45389
610.26	13.4029
610.455	13.11873
610.65	11.69952
610.845	12.48165
611.04	13.77265
611.235	11.94996
611.43	11.20503
611.625	9.97199
611.82	14.4819
612.015	10.99616
612.21	15.1169
612.405	9.69038
612.6	15.48552
612.795	14.78533
612.99	13.82504
613.185	10.32861
613.38	10.99019
613.575	12.5092
613.77	17.4712
613.965	9.66434
614.159	10.8433
614.354	15.19743
614.549	14.10989
614.744	13.69024
614.938	10.77832
615.133	9.83066
615.328	14.60767
615.523	14.86709
615.717	18.2864
615.912	11.28568
616.107	12.95994
616.301	12.07512
616.496	11.35936
616.691	15.5919
616.885	14.29258
617.08	17.96116
617.274	14.85461
617.469	16.69661
617.664	14.02485
617.858	11.62548
618.053	13.51132
618.247	12.30662
618.442	8.46407
618.636	15.68145
618.831	11.58825
619.025	11.79885
619.219	18.25257
619.414	6.8076
619.608	12.7062
619.803	11.71578
619.997	17.211
620.191	15.17561
620.386	13.96215
620.58	12.8707
620.774	9.62922
620.969	9.51315
621.163	12.79318
621.357	10.64592
621.551	11.86098
621.746	12.63675
621.94	12.82761
622.134	20.34741
622.328	17.10772
622.522	9.98444
622.716	15.40126
622.911	15.42661
623.105	14.94891
623.299	13.90266
623.493	20.10853
623.687	11.18217
623.881	12.02427
624.075	14.33431
624.269	15.73312
624.463	9.32259
624.657	9.60099
624.851	14.10607
625.045	14.9858
625.239	14.65686
625.433	11.90854
625.627	15.95717
625.821	11.72307
626.015	11.20514
626.209	12.80155
626.403	10.26979
626.596	13.68589
626.79	14.57756
626.984	10.79483
627.178	13.86687
627.372	13.79481
627.565	14.70048
627.759	9.81422
627.953	10.87912
628.147	13.94871
628.34	14.41822
628.534	17.34221
628.728	12.56017
628.921	14.98495
629.115	14.38965
629.309	15.07146
629.502	15.36264
629.696	13.52555
629.89	12.85818
630.083	13.94932
630.277	14.51078
630.47	17.79108
630.664	12.81261
630.857	10.08709
631.051	15.04653
631.244	15.91594
631.438	14.98824
631.631	11.40587
631.825	16.52732
632.018	15.35936
632.212	17.80683
632.405	16.44832
632.598	11.48269
632.792	14.04233
632.985	8.35987
633.178	12.67646
633.372	13.08624
633.565	13.22643
633.758	16.3164
633.952	11.52053
634.145	11.0623
634.338	12.80403
634.531	12.59303
634.724	12.17739
634.918	13.96123
635.111	13.05
635.304	12.42218
635.497	19.21111
635.69	14.3624
635.883	16.80889
636.077	11.59588
636.27	15.32027
636.463	14.4329
636.656	14.31959
636.849	12.88451
637.042	15.25325
637.235	17.83156
637.428	15.86984
637.621	14.90144
637.814	17.72879
638.007	18.09881
638.2	17.70786
638.393	18.99504
638.586	11.63219
638.778	12.5497
638.971	14.97963
639.164	17.89586
639.357	15.05922
639.55	18.09253
639.743	16.20735
639.935	16.3664
640.128	19.43598
640.321	16.40919
640.514	15.14383
640.707	21.146
640.899	16.368
641.092	10.57558
641.285	34.88687
641.477	8.93464
641.67	20.88436
641.863	18.42598
642.055	15.11757
642.248	15.68294
642.441	14.27446
642.633	15.70656
642.826	19.43793
643.018	18.74738
643.211	20.52479
643.403	19.54121
643.596	21.39482
643.788	19.81341
643.981	14.0323
644.173	17.73885
644.366	14.60159
644.558	10.70688
644.751	18.08116
644.943	11.18288
645.135	20.51766
645.328	20.77374
645.52	17.41305
645.712	19.10288
645.905	25.19268
646.097	12.58472
646.289	17.16825
646.482	21.55914
646.674	13.89316
646.866	18.59646
647.058	16.93112
647.251	12.49844
647.443	13.68773
647.635	15.40412
647.827	12.37367
648.019	13.11055
648.211	16.12613
648.404	16.22318
648.596	20.2685
648.788	16.17911
648.98	16.96435
649.172	16.41804
649.364	17.07412
649.556	10.26216
649.748	23.9955
649.94	12.74734
650.132	17.35516
650.324	13.52746
650.516	13.5803
650.708	19.3546
650.9	12.05745
651.092	11.37913
651.284	11.64964
651.476	12.98651
651.667	17.81214
651.859	19.18582
652.051	15.31811
652.243	16.61133
652.435	14.39819
652.627	17.53277
652.818	17.13147
653.01	11.20731
653.202	12.94296
653.394	15.49148
653.585	18.36381
653.777	30.20104
653.969	20.58094
654.16	20.36734
654.352	12.82473
654.544	15.42922
654.735	19.16533
654.927	16.84742
655.118	21.09603
655.31	19.07503
655.502	19.90612
655.693	14.93284
655.885	18.32909
656.076	21.22269
656.268	17.42718
656.459	21.48827
656.651	20.86296
656.842	14.60521
657.034	14.35678
657.225	19.34214
657.416	21.33557
657.608	20.17807
657.799	16.12066
657.99	19.56406
658.182	14.4385
658.373	14.28122
658.564	18.50954
658.756	16.64748
658.947	15.66676
659.138	13.31342
659.33	14.89637
659.521	14.25105
659.712	15.44261
659.903	15.79166
660.094	14.86045
660.286	11.63533
660.477	22.40608
660.668	18.04019
660.859	16.15537
661.05	12.08897
661.241	18.9738
661.432	18.03654
661.623	16.42009
661.814	15.21884
662.006	12.08057
662.197	18.38297
662.388	20.8018
662.579	17.3684
662.77	22.9566
662.96	26.60043
663.151	20.66135
663.342	11.95886
663.533	19.54944
663.724	16.81589
663.915	23.44046
664.106	17.38544
664.297	23.90853
664.488	20.46245
664.678	16.27548
664.869	20.41619
665.06	20.6931
665.251	18.33779
665.442	19.50447
665.632	14.46148
665.823	24.70665
666.014	7.91926
666.204	20.41318
666.395	22.62206
666.586	28.53334
666.776	21.02572
666.967	24.7962
667.158	17.97118
667.348	23.62794
667.539	14.79211
667.729	21.19066
667.92	14.88435
668.111	22.14038
668.301	19.68473
668.492	16.96052
668.682	18.09042
668.873	17.15891
669.063	14.15752
669.253	18.84726
669.444	21.72579
669.634	17.97042
669.825	26.22704
670.015	22.20464
670.206	15.28813
670.396	26.21899
670.586	18.31355
670.777	20.84878
670.967	10.67652
671.157	18.34419
671.347	16.30096
671.538	25.17206
671.728	20.6414
671.918	26.45708
672.108	22.38782
672.299	19.24185
672.489	20.46891
672.679	16.82697
672.869	20.42896
673.059	26.34945
673.249	20.80469
673.44	15.69175
673.63	18.13123
673.82	22.97377
674.01	16.03027
674.2	20.74397
674.39	31.3722
674.58	21.39523
674.77	20.17731
674.96	19.09948
675.15	35.92208
675.34	24.26004
675.53	19.21645
675.72	17.62144
675.91	14.29862
676.099	27.42111
676.289	28.70096
676.479	23.79825
676.669	17.51014
676.859	21.39852
677.049	15.63687
677.238	19.48069
677.428	26.79215
677.618	21.60372
677.808	24.17273
677.997	21.39707
678.187	15.21335
678.377	19.06061
678.567	17.12544
678.756	17.82342
678.946	18.04505
679.136	14.02761
679.325	16.21833
679.515	15.13504
679.704	14.50803
679.894	21.45749
680.084	19.05886
680.273	23.50969
680.463	15.77082
680.652	15.7103
680.842	18.18785
681.031	22.9317
681.221	15.77912
681.41	22.07821
681.6	19.32599
681.789	22.75357
681.978	24.89201
682.168	20.88592
682.357	21.17095
682.547	23.08256
682.736	21.32656
682.925	26.20812
683.115	25.31092
683.304	24.29203
683.493	22.52065
683.682	22.91009
683.872	22.90616
684.061	25.66535
684.25	23.12247
684.439	30.01768
684.629	24.24487
684.818	35.97146
685.007	20.35137
685.196	19.22902
685.385	28.04622
685.574	23.55393
685.763	22.3174
685.952	21.88293
686.142	16.38461
686.331	28.60277
686.52	12.91133
686.709	29.1656
686.898	28.43553
687.087	24.75297
687.276	29.05115
687.465	26.08007
687.654	20.25051
687.842	29.12275
688.031	15.90066
688.22	27.97199
688.409	22.8118
688.598	22.73538
688.787	34.04973
688.976	23.68877
689.165	31.6194
689.353	20.87044
689.542	23.45104
689.731	25.56998
689.92	31.87228
690.108	27.61781
690.297	21.85526
690.486	23.2076
690.675	27.24879
690.863	31.977
691.052	30.25065
691.241	26.02095
691.429	24.83549
691.618	30.64639
691.806	17.8521
691.995	23.25036
692.184	23.53481
692.372	20.06085
692.561	24.50593
692.749	23.92531
692.938	36.67526
693.126	27.52755
693.315	21.72422
693.503	27.08052
693.692	27.51261
693.88	29.42845
694.068	36.01407
694.257	24.39266
694.445	25.95663
694.634	13.52228
694.822	30.29103
695.01	31.33388
695.199	32.13283
695.387	32.75783
695.575	31.01674
695.763	24.64304
695.952	23.27448
696.14	16.86534
696.328	21.71651
696.516	25.1453
696.705	26.15607
696.893	24.79653
697.081	15.08276
697.269	27.06715
697.457	18.19224
697.645	17.21123
697.833	26.08151
698.021	18.23139
698.21	19.98444
698.398	21.67435
698.586	17.19684
698.774	16.66183
698.962	20.89679
699.15	18.15581
699.338	15.54906
699.526	24.3675
699.714	20.0365
699.901	20.68992
700.089	27.91358
700.277	20.08534
700.465	23.15193
700.653	28.25102
700.841	26.46396
701.029	20.56723
701.217	31.48298
701.404	24.60094
701.592	33.0508
701.78	35.33003
701.968	22.61938
702.155	24.33683
702.343	18.19744
702.531	32.59371
702.718	27.5263
702.906	22.9728
703.094	20.61225
703.281	32.68746
703.469	24.25834
703.657	33.01164
703.844	45.01311
704.032	36.36791
704.219	22.80829
704.407	28.50369
704.595	34.78313
704.782	26.32834
704.97	24.48522
705.157	24.27027
705.345	35.8493
705.532	42.52123
705.719	29.61199
705.907	35.34966
706.094	27.59686
706.282	37.28451
706.469	25.09131
706.656	27.65305
706.844	24.17219
707.031	31.97074
707.218	28.44489
707.406	36.82503
707.593	32.37783
707.78	32.06806
707.968	27.42989
708.155	21.17257
708.342	31.29846
708.529	31.71271
708.716	28.85771
708.904	39.49116
709.091	32.64973
709.278	21.71566
709.465	40.08641
709.652	39.64409
709.839	36.91524
710.026	29.92282
710.213	17.96781
710.4	31.40734
710.587	34.03192
710.774	35.44809
710.961	36.6856
711.148	29.42708
711.335	35.86633
711.522	27.84306
711.709	30.07889
711.896	43.36277
712.083	35.44104
712.27	24.28972
712.457	29.65569
712.644	20.04351
712.831	42.98313
713.017	31.17242
713.204	34.73196
713.391	25.75544
713.578	38.19871
713.765	39.26465
713.951	33.34609
714.138	51.24786
714.325	34.90903
714.512	30.31325
714.698	26.61249
714.885	40.40685
715.072	32.79307
715.258	31.07687
715.445	27.277
715.631	40.29244
715.818	13.74562
716.005	26.9713
716.191	34.54703
716.378	30.34802
716.564	37.15925
716.751	25.15156
716.937	27.62537
717.124	40.42333
717.31	25.31018
717.497	42.57001
717.683	27.60791
717.869	49.68731
718.056	28.73083
718.242	36.6289
718.429	31.86296
718.615	25.74173
718.801	32.73753
718.988	40.26914
719.174	36.87299
719.36	32.59072
719.547	43.17418
719.733	35.42032
719.919	37.37164
720.105	38.06729
720.291	32.21458
720.478	35.83649
720.664	32.29842
720.85	31.61589
721.036	56.24866
721.222	46.14718
721.408	33.32281
721.595	51.54748
721.781	49.59267
721.967	42.86649
722.153	49.24035
722.339	40.13278
722.525	37.50882
722.711	26.90491
722.897	25.8102
723.083	31.381
723.269	43.91324
723.455	56.83657
723.641	61.47593
723.827	37.80166
724.012	40.57991
724.198	32.32561
724.384	48.39105
724.57	40.06566
724.756	23.78187
724.942	20.35676
725.127	44.73824
725.313	48.03791
725.499	47.45243
725.685	51.09586
725.87	38.93787
726.056	28.85658
726.242	48.58396
726.428	23.65767
726.613	44.88695
726.799	33.74666
726.985	28.49288
727.17	24.29598
727.356	51.76469
727.541	28.34686
727.727	36.01284
727.913	42.29781
728.098	30.82585
728.284	43.42213
728.469	26.79229
728.655	29.50631
728.84	43.95647
729.026	44.18072
729.211	42.79878
729.397	40.20258
729.582	43.07433
729.767	35.22627
729.953	39.71992
730.138	45.58723
730.323	18.86287
730.509	26.61432
730.694	52.01856
730.879	41.05098
731.065	37.40262
731.25	57.423
731.435	42.56475
731.621	24.21689
731.806	30.92954
731.991	39.56206
732.176	23.28935
732.361	49.23137
732.547	38.28614
732.732	23.30438
732.917	57.45938
733.102	27.13609
733.287	31.48684
733.472	37.77369
733.657	38.82309
733.842	24.98186
734.027	34.44994
734.212	38.00826
734.397	32.12072
734.582	38.9132
734.767	47.4937
734.952	54.3783
735.137	17.40017
735.322	52.33483
735.507	43.63939
735.692	41.40902
735.877	61.69633
736.062	56.59006
736.247	43.26356
736.431	39.48596
736.616	51.89623
736.801	42.91197
736.986	40.61937
737.171	30.52681
737.355	25.10919
737.54	51.1541
737.725	39.70691
737.909	67.8406
738.094	32.72999
738.279	48.05043
738.463	36.50157
738.648	45.62268
738.833	43.77848
739.017	59.66296
739.202	37.45687
739.386	41.10595
739.571	31.01897
739.756	45.67282
739.94	39.6975
740.125	50.35493
740.309	33.96821
740.494	49.01533
740.678	41.14009
740.863	46.06585
741.047	41.93559
741.231	54.09883
741.416	32.6163
741.6	57.78345
741.785	34.06736
741.969	49.16534
742.153	53.67196
742.338	21.7542
742.522	41.83644
742.706	51.14852
742.89	27.98245
743.075	43.84495
743.259	58.6405
743.443	51.9943
743.627	54.58759
743.812	67.32859
743.996	25.84069
744.18	40.39786
744.364	36.53386
744.548	70.73593
744.732	40.9711
744.916	51.59414
745.1	48.76744
745.285	40.25639
745.469	47.43752
745.653	63.41303
745.837	28.77374
746.021	72.96712
746.205	57.40759
746.389	45.28127
746.573	40.25912
746.757	61.2413
746.94	39.6774
747.124	56.44067
747.308	30.68199
747.492	56.74871
747.676	38.30726
747.86	68.3034
748.044	36.63074
748.227	21.82057
748.411	84.62281
748.595	44.85609
748.779	34.35715
748.963	50.4362
749.146	45.35846
749.33	35.14128
749.514	32.31519
749.697	58.89336
749.881	36.33943
750.065	33.7971
750.248	45.8333
750.432	73.82713
750.616	43.82048
750.799	30.35894
750.983	70.78188
751.166	79.64711
751.35	28.3757
751.533	53.30721
751.717	59.40438
751.9	66.91464
752.084	42.21629
752.267	35.48065
752.451	36.19059
752.634	46.76617
752.818	53.04873
753.001	56.9749
753.184	56.54875
753.368	50.9913
753.551	10.8749
753.734	38.13545
753.918	71.51345
754.101	37.46569
754.284	53.38156
754.467	39.94071
754.651	38.03254
754.834	37.25079
755.017	61.46355
755.2	58.4323
755.384	32.40328
755.567	55.06319
755.75	57.38093
755.933	42.38387
756.116	49.88516
756.299	40.45247
756.482	35.51404
756.665	50.21459
756.848	47.16525
757.032	52.86427
757.215	29.87562
757.398	33.0301
757.581	36.15852
757.764	81.31603
757.947	44.18693
758.129	62.1341
758.312	14.14842
758.495	43.63535
758.678	42.5878
758.861	42.08657
759.044	70.06039
759.227	35.75479
759.41	35.12331
759.592	55.62204
759.775	43.81153
759.958	58.45668
760.141	31.59296
760.324	75.36906
760.506	64.33833
760.689	60.8716
760.872	78.07078
761.054	54.19542
761.237	42.93605
761.42	49.4368
761.602	57.19451
761.785	52.37967
761.968	59.77667
762.15	69.93097
762.333	43.76698
762.515	48.84855
762.698	37.65473
762.88	55.23248
763.063	46.5564
763.245	50.54118
763.428	32.30224
763.61	36.62629
763.793	29.2996
763.975	44.87318
764.158	38.30363
764.34	37.39589
764.522	31.69307
764.705	41.14349
764.887	59.66647
765.069	26.25008
765.252	55.61677
765.434	56.30169
765.616	47.41446
765.799	40.22183
765.981	54.93525
766.163	36.05682
766.345	59.17086
766.528	40.42723
766.71	18.3125
766.892	50.5035
767.074	64.52465
767.256	45.34189
767.438	71.37726
767.62	52.431
767.802	80.96223
767.985	57.8798
768.167	76.3302
768.349	40.72095
768.531	56.67519
768.713	52.27334
768.895	61.35421
769.077	58.19342
769.259	87.97394
769.441	121.83722
769.623	66.80375
769.804	75.08982
769.986	72.62597
770.168	88.66531
770.35	103.6207
770.532	77.2575
770.714	85.27257
770.896	86.86545
771.077	35.19628
771.259	89.96126
771.441	74.06792
771.623	98.52702
771.804	117.98387
771.986	38.55499
772.168	54.10041
772.35	94.8547
772.531	125.0552
772.713	70.45083
772.894	98.16951
773.076	69.11033
773.258	59.70077
773.439	100.03695
773.621	108.30546
773.802	48.52663
773.984	62.77161
774.166	75.88127
774.347	102.91298
774.529	96.98261
774.71	30.72994
774.891	66.08424
775.073	57.81567
775.254	106.42879
775.436	59.52274
775.617	113.41035
775.799	63.17231
775.98	109.57359
776.161	111.34043
776.343	112.85416
776.524	65.33481
776.705	65.12557
776.886	36.04215
777.068	80.77861
777.249	134.04785
777.43	121.05613
777.611	46.52935
777.793	65.40884
777.974	111.60673
778.155	62.55276
778.336	52.27955
778.517	120.47965
778.698	57.36883
778.879	34.2386
779.061	14.6834
779.242	81.48502
779.423	83.26124
779.604	57.37513
779.785	72.11725
779.966	74.9455
780.147	96.87062
780.328	99.10515
780.509	137.36137
780.69	88.09112
780.871	58.24808
781.051	41.26615
781.232	74.8763
781.413	79.16495
781.594	65.77301
781.775	63.51076
781.956	54.2856
782.137	32.77127
782.317	58.43874
782.498	77.32181
782.679	71.05344
782.86	78.96287
783.04	57.35101
783.221	80.71241
783.402	120.65634
783.583	79.95304
783.763	90.75945
783.944	62.90079
784.124	42.96611
784.305	108.31966
784.486	84.18841
784.666	70.30321
784.847	38.42927
785.027	137.55498
785.208	57.85174
785.388	57.35424
785.569	60.98226
785.749	65.74478
785.93	62.03283
786.11	42.83753
786.291	81.75243
786.471	76.80147
786.652	91.24683
786.832	70.50696
787.012	79.64205
787.193	44.97846
787.373	75.1881
787.553	61.73634
787.734	78.52032
787.914	63.97067
788.094	85.22644
788.275	77.53719
788.455	64.38061
788.635	44.59833
788.815	78.45156
788.995	48.68698
789.176	38.87676
789.356	54.28086
789.536	67.47424
789.716	81.69897
789.896	55.22193
790.076	60.23615
790.256	76.9342
790.436	22.26455
790.616	50.3353
790.796	77.02434
790.976	64.89102
791.156	57.48595
791.336	93.01122
791.516	82.33105
791.696	70.08735
791.876	39.75265
792.056	75.02898
792.236	93.36407
792.416	88.93552
792.596	83.59135
792.776	85.89233
792.956	85.42573
793.135	104.18684
793.315	50.19885
793.495	102.81937
793.675	86.88478
793.854	95.07985
794.034	91.46111
794.214	43.16669
794.394	90.22058
794.573	103.78573
794.753	74.94329
794.933	55.09529
795.112	74.29766
795.292	90.36114
795.472	113.1937
795.651	44.91419
795.831	71.89554
796.01	64.79797
796.19	67.09094
796.369	70.91069
796.549	83.26057
796.728	70.23077
796.908	41.1316
797.087	49.32647
797.267	61.17859
797.446	47.33489
797.626	83.55674
797.805	83.46835
797.984	56.72025
798.164	87.66644
798.343	49.11853
798.522	78.54612
798.702	72.51684
798.881	43.46803
799.06	67.91765
799.239	31.56431
799.419	52.3201
799.598	109.1554
799.777	84.80663
799.956	105.16867
800.136	63.48505
800.315	57.42251
800.494	82.60076
800.673	98.93101
800.852	87.63117
801.031	98.23553
801.21	87.19928
801.389	67.86063
801.568	77.60997
801.747	122.36533
801.926	75.3475
802.105	111.85794
802.284	62.42883
802.463	112.98362
802.642	77.43564
802.821	77.12832
803	106.09996
803.179	98.28604
803.358	103.40277
803.537	61.57123
803.716	77.58316
803.895	56.60646
804.073	74.10664
804.252	62.99552
804.431	82.89042
804.61	71.42775
804.789	99.00846
804.967	61.00095
805.146	60.39035
805.325	120.53135
805.503	88.94896
805.682	39.52823
805.861	139.53233
806.039	105.25013
806.218	57.62795
806.397	76.67106
806.575	69.56582
806.754	81.71108
806.932	51.55004
807.111	113.0418
807.289	95.33386
807.468	76.38415
807.646	103.29901
807.825	91.7904
808.003	81.43301
808.182	98.35736
808.36	80.71884
808.539	61.45717
808.717	109.09486
808.895	61.60505
809.074	83.67147
809.252	69.98676
809.43	93.14466
809.609	100.9614
809.787	113.90821
809.965	71.43493
810.144	76.28102
810.322	68.4414
810.5	87.13518
810.678	66.42618
810.856	131.01045
811.035	103.50616
811.213	98.04269
811.391	108.53714
811.569	81.94063
811.747	153.25496
811.925	106.21289
812.103	55.68374
812.281	71.05121
812.459	127.51185
812.637	127.40318
812.816	101.11515
812.994	129.94356
813.171	112.27157
813.349	93.49304
813.527	104.43159
813.705	125.84059
813.883	145.68722
814.061	105.9523
814.239	129.50262
814.417	143.13172
814.595	88.3261
814.773	90.55039
814.95	87.80327
815.128	93.12178
815.306	79.37147
815.484	74.8039
815.662	61.59535
815.839	52.10612
816.017	62.8878
816.195	116.14328
816.372	71.71486
816.55	103.20784
816.728	125.05163
816.905	80.40434
817.083	131.27681
817.261	80.86323
817.438	146.27245
817.616	136.61358
817.793	66.03645
817.971	101.71286
818.148	99.35062
818.326	122.85776
818.503	91.17183
818.681	116.54784
818.858	69.18766
819.036	79.83261
819.213	85.96817
819.391	61.94486
819.568	59.73373
819.745	56.52138
819.923	99.38321
820.1	65.95536
820.277	61.27932
820.455	68.96091
820.632	72.50354
820.809	70.45391
820.986	46.88553
821.164	39.15764
821.341	33.61796
821.518	43.94001
821.695	32.3697
821.872	31.61827
822.05	26.26738
822.227	21.36003
822.404	23.21998
822.581	27.8822
822.758	23.62745
822.935	23.56081
823.112	27.43404
823.289	22.96042
823.466	28.79482
823.643	26.63352
823.82	33.65738
823.997	30.54947
824.174	37.33273
824.351	49.05016
824.528	46.26175
824.705	42.08302
824.882	49.15536
825.059	60.7461
825.236	41.14988
825.412	45.53752
825.589	52.44152
825.766	71.7299
825.943	44.51326
826.12	54.52023
826.296	36.28916
826.473	44.78111
826.65	44.51607
826.827	54.66408
827.003	36.43178
827.18	39.47335
827.357	46.20586
827.533	40.34417
827.71	23.60499
827.887	37.78058
828.063	43.47222
828.24	37.55126
828.416	52.44657
828.593	43.21949
828.769	63.26176
828.946	73.2138
829.122	74.69499
829.299	70.46224
829.475	40.67048
829.652	68.91703
829.828	112.9032
830.005	70.25478
830.181	96.54835
830.357	64.6956
830.534	99.08745
830.71	71.30195
830.886	91.02799
831.063	89.74334
831.239	112.56984
831.415	58.14986
831.592	112.00741
831.768	68.90652
831.944	59.33534
832.12	108.97788
832.296	106.95496
832.473	94.24089
832.649	70.16704
832.825	86.81584
833.001	48.74998
833.177	75.8585
833.353	66.67919
833.529	39.38897
833.705	55.09287
833.881	42.08629
834.058	42.19744
834.234	46.27153
834.41	43.56098
834.586	35.33714
834.761	46.04382
834.937	51.19881
835.113	54.92424
835.289	49.26092
835.465	60.69319
835.641	53.14918
835.817	62.24417
835.993	103.9724
836.169	52.32334
836.344	79.53916
836.52	91.02452
836.696	87.35902
836.872	63.67764
837.048	171.64885
837.223	72.86244
837.399	147.15319
837.575	111.80641
837.75	102.2863
837.926	131.9382
838.102	215.92438
838.277	166.0938
838.453	208.1256
838.628	196.9205
838.804	93.16268
838.98	205.05346
839.155	93.83836
839.331	130.39157
839.506	91.71802
839.682	93.97858
839.857	118.2295
840.033	134.76726
840.208	69.27481
840.384	37.44483
840.559	79.06835
840.734	107.85451
840.91	157.2847
841.085	96.24727
841.26	97.59499
841.436	87.6066
841.611	87.80803
841.786	148.69412
841.962	176.49417
842.137	112.7049
842.312	77.13757
842.487	97.6952
842.663	71.58571
842.838	94.63391
843.013	280.53915
843.188	142.28332
843.363	156.43821
843.538	263.10626
843.714	268.67992
843.889	254.93124
844.064	266.40592
844.239	221.30684
844.414	272.95161
844.589	188.72259
844.764	305.39315
844.939	287.52779
845.114	383.64178
845.289	320.40048
845.464	358.57413
845.639	289.06429
845.814	157.62442
845.989	179.52111
846.163	196.28671
846.338	239.8284
846.513	325.69685
846.688	219.5864
846.863	245.13036
847.038	168.10138
847.212	211.93389
847.387	229.91477
847.562	232.70473
847.737	249.43386
847.911	122.46568
848.086	146.4272
848.261	433.17211
848.435	207.08771
848.61	307.00497
848.785	144.55471
848.959	268.95955
849.134	377.63686
849.308	505.29501
849.483	224.23598
849.658	338.95575
849.832	213.05582
850.007	170.20521
850.181	404.99798
850.356	172.76749
850.53	375.08375
850.705	148.68232
850.879	84.18949
851.053	245.61867
851.228	187.63021
851.402	272.61502
851.577	330.32413
851.751	320.49251
851.925	240.89063
852.099	103.06906
852.274	168.0038
852.448	224.80996
852.622	289.65172
852.797	228.39032
852.971	224.00631
853.145	258.28911
853.319	458.35502
853.493	350.51575
853.668	200.18368
853.842	374.84588
854.016	316.5987
854.19	407.55966
854.364	270.54089
854.538	268.68371
854.712	350.71083
854.886	233.27415
855.06	198.15331
855.234	84.68185
855.408	380.17438
855.582	341.86561
855.756	325.21446
855.93	387.86745
856.104	264.01047
856.278	322.82515
856.452	236.11211
856.626	273.41537
856.8	445.23754
856.973	314.47198
857.147	281.0902
857.321	265.41929
857.495	318.92116
857.669	228.07695
857.842	212.69522
858.016	362.19323
858.19	152.34852
858.364	580.50538
858.537	213.80108
858.711	248.29936
858.885	197.05569
859.058	175.59482
859.232	124.41212
859.405	126.74484
859.579	334.37491
859.753	280.72512
859.926	169.22338
860.1	137.17966
860.273	229.159
860.447	413.14433
860.62	209.22946
860.794	429.83799
860.967	250.73251
861.141	359.10159
861.314	476.32765
861.487	287.87932
861.661	360.90644
861.834	410.72521
862.008	320.63972
862.181	249.2114
862.354	259.07749
862.528	287.54592
862.701	176.39146
862.874	126.86065
863.047	211.43694
863.221	223.88074
863.394	110.09551
863.567	346.7639
863.74	73.5774
863.913	346.41034
864.087	281.48056
864.26	316.01238
864.433	221.03487
864.606	471.53773
864.779	241.18401
864.952	126.13601
865.125	193.03769
865.298	234.66093
865.471	250.4954
865.644	396.19967
865.817	336.11088
865.99	304.8945
866.163	382.6781
866.336	192.33481
866.509	225.34922
866.682	184.78148
866.855	339.88421
867.028	155.84496
867.2	299.59508
867.373	82.34499
867.546	257.21235
867.719	421.5147
867.892	241.94063
868.064	165.53702
868.237	248.1147
868.41	268.47389
868.583	112.95762
868.755	140.16309
868.928	193.70748
869.101	448.78094
869.273	316.32093
869.446	265.18077
869.619	343.40278
869.791	238.47267
869.964	341.44344
870.136	314.4787
870.309	254.12887
870.481	243.94738
870.654	126.61612
870.826	242.41481
870.999	212.08508
871.171	299.61496
871.344	182.18065
871.516	227.39145
871.689	154.41977
871.861	259.01973
872.033	174.21006
872.206	217.29664
872.378	314.96521
872.55	225.056
872.723	138.65407
872.895	196.63834
873.067	343.15765
873.24	309.52365
873.412	184.40872
873.584	225.161
873.756	190.26483
873.928	260.5834
874.101	255.26554
874.273	270.02859
874.445	96.61567
874.617	139.32812
874.789	228.45267
874.961	214.81276
875.133	272.54575
875.305	236.34993
875.477	150.73722
875.649	114.66886
875.821	150.53135
875.993	341.56329
876.165	154.73539
876.337	251.2976
876.509	231.36609
876.681	237.27599
876.853	260.50436
877.025	257.61171
877.197	176.41295
877.369	139.3586
877.541	283.72844
877.712	80.59753
877.884	140.2656
878.056	249.69888
878.228	132.82144
878.4	265.33701
878.571	140.19331
878.743	93.69182
878.915	201.14971
879.086	135.75162
879.258	162.66483
879.43	138.76865
879.601	120.99886
879.773	129.5683
879.945	33.68636
880.116	54.98956
880.288	33.75796
880.459	39.64208
880.631	29.63011
880.802	35.41752
880.974	33.90779
881.145	24.04725
881.317	32.30074
881.488	24.59184
881.66	27.67331
881.831	24.23867
882.002	35.90624
882.174	26.3621
882.345	34.64411
882.517	19.96858
882.688	43.88393
882.859	35.50622
883.03	59.25746
883.202	57.66975
883.373	52.42466
883.544	50.3845
883.715	85.35129
883.887	71.04759
884.058	62.51138
884.229	83.86155
884.4	87.46188
884.571	98.564
884.742	79.83962
884.914	86.90908
885.085	119.73937
885.256	161.32121
885.427	133.31242
885.598	148.03535
885.769	155.67613
885.94	161.97441
886.111	113.99443
886.282	189.81919
886.453	139.00786
886.624	110.38953
886.795	186.3428
886.966	148.9924
887.136	203.64367
887.307	123.46048
887.478	257.21051
887.649	219.36534
887.82	216.57229
887.991	181.81794
888.161	258.10645
888.332	215.0098
888.503	123.85133
888.674	297.94278
888.844	343.13533
889.015	261.48123
889.186	121.26881
889.356	327.94939
889.527	115.79331
889.698	479.42126
889.868	161.71527
890.039	244.385
890.209	198.12414
890.38	259.72341
890.551	218.84145
890.721	315.45144
890.892	284.44136
891.062	192.20155
891.233	246.78388
891.403	178.34923
891.574	149.09491
891.744	206.85401
891.914	213.28045
892.085	196.73653
892.255	70.2836
892.425	306.99398
892.596	226.499
892.766	238.39193
892.936	295.8686
893.107	248.5543
893.277	139.76784
893.447	114.46738
893.618	85.87
893.788	156.91137
893.958	88.54919
894.128	86.00852
894.298	98.0438
894.468	124.47066
894.639	64.79227
894.809	47.58186
894.979	70.73907
895.149	85.48197
895.319	66.8359
895.489	100.11323
895.659	130.45386
895.829	84.71539
895.999	93.7715
896.169	81.29351
896.339	100.51505
896.509	196.86895
896.679	204.43426
896.849	210.95808
897.019	273.22542
897.189	198.60029
897.358	178.75732
897.528	281.07371
897.698	103.34994
897.868	227.85926
898.038	404.39959
898.208	380.00063
898.377	112.25286
898.547	343.001
898.717	480.24881
898.886	245.96745
899.056	397.26262
899.226	469.46975
899.395	310.08849
899.565	473.07182
899.735	308.38613
899.904	485.53232
900.074	390.39412
900.244	167.64062
900.413	609.40429
900.583	146.3588
900.752	282.13391
900.922	415.64065
901.091	31.00432
901.261	361.77885
901.43	338.21802
901.599	339.2208
901.769	699.22789
901.938	468.23818
902.108	356.90095
902.277	469.58264
902.446	131.02959
902.616	161.57969
902.785	205.57804
902.954	367.70173
903.124	220.73199
903.293	176.69232
903.462	100.64983
903.631	144.87337
903.801	106.9435
903.97	60.38654
904.139	97.88852
904.308	75.1604
904.477	67.00448
904.646	42.61775
904.816	61.46403
904.985	96.30035
905.154	151.73815
