Data from WindowProjectSample3_Transmission__31__00031.txt Node

Date: Sun May 04 10:32:03 EDT 2025
User: jessi
Spectrometer: SR400872
Trigger mode: 0
Integration Time (sec): 5.000050E-1
Scans to average: 20
Electric dark correction enabled: true
Nonlinearity correction enabled: true
Boxcar width: 0
XAxis mode: Wavelengths
Number of Pixels in Spectrum: 3648
>>>>>Begin Spectral Data<<<<<
184.909	-1636.93935
185.132	-1257.86749
185.355	-1278.38584
185.578	-1076.07114
185.801	-4091.22735
186.024	-1059.06021
186.247	-1438.79505
186.47	-2623.50723
186.693	-266.95833
186.916	-290.05954
187.139	-1032.90103
187.362	-1706.91484
187.585	-949.58296
187.808	-841.65351
188.031	-196035.55764
188.254	-1300.68293
188.476	-2469.73972
188.699	-1061.96632
188.922	548.8585
189.145	-1256.32768
189.368	-1207.42803
189.591	-3529.9595
189.813	-705.81737
190.036	-1313.97967
190.259	-3310.64602
190.482	-1540.96091
190.705	-1731.4884
190.927	-991.79246
191.15	-1680.86539
191.373	-2259.04145
191.595	-2471.91737
191.818	-1222.55195
192.041	-15728.4594
192.263	-1553.3965
192.486	-460.9501
192.709	-1704.35082
192.931	-4089.89748
193.154	-1212.76325
193.377	-1187.3656
193.599	11979.07792
193.822	-794.58598
194.044	-3974.89294
194.267	-4883.13554
194.489	135.72318
194.712	-1778.68751
194.934	-1636.22223
195.157	-962.77158
195.379	-777.09241
195.602	-810.94223
195.824	-1001.25159
196.047	-884.37689
196.269	-1047.98753
196.492	-1067.41234
196.714	-1096.6066
196.936	-1585.43703
197.159	-927.49876
197.381	-900.98938
197.604	-1219.14539
197.826	-1928.22838
198.048	-1608.61663
198.271	-1250.03996
198.493	-1033.73992
198.715	-910.65151
198.938	-6296.18657
199.16	-1201.13617
199.382	-916.99176
199.604	-10332.49407
199.827	-1611.36142
200.049	-963.52482
200.271	-949.03977
200.493	-2161.04776
200.715	-965.30796
200.938	-784.02856
201.16	-1336.04205
201.382	-2736.90922
201.604	-1295.60317
201.826	-1219.59263
202.048	-538.10585
202.27	-820.33008
202.492	-2010.96471
202.715	-2070.17054
202.937	-2225.61756
203.159	-1200.47549
203.381	-1698.63385
203.603	-1362.26825
203.825	4381.32508
204.047	-1130.42521
204.269	-3154.26773
204.491	-1483.54118
204.713	-804.31803
204.935	-1303.53417
205.156	-1259.76577
205.378	-3923.19337
205.6	-957.0313
205.822	-1115.71923
206.044	2774.69244
206.266	-1304.96871
206.488	-775.33946
206.71	-1900.66549
206.932	-2516.74314
207.153	-1219.99886
207.375	-945.46536
207.597	-1109.47488
207.819	-899.84431
208.041	-1299.80434
208.262	-1108.03277
208.484	-1959.36722
208.706	-927.7635
208.927	-822.16649
209.149	-2237.58636
209.371	-808.38133
209.593	-690.49786
209.814	-640.12703
210.036	-769.73632
210.258	-580.17241
210.479	-1326.71704
210.701	11268.03466
210.922	-870.8038
211.144	-944.57696
211.366	-1909.2426
211.587	11072.18839
211.809	-982.82174
212.03	-3209.0179
212.252	1711.83923
212.473	-1166.03166
212.695	-4521.96813
212.916	-3110.15696
213.138	-6413.86088
213.359	-958.36065
213.581	-1555.18009
213.802	-1041.40437
214.024	-1361.10972
214.245	-11442.95244
214.466	-758.40901
214.688	-1302.78836
214.909	-1505.80294
215.131	-1939.56094
215.352	-979.66498
215.573	-1248.52438
215.795	-3230.5663
216.016	-1143.43939
216.237	-4461.64758
216.459	-13845.40377
216.68	-1661.95312
216.901	-1440.43873
217.122	-3837.10072
217.344	-1224.54236
217.565	-1534.20693
217.786	-1473.29499
218.007	-1295.29206
218.228	-5086.67788
218.45	-1150.9427
218.671	-1448.89136
218.892	-1735.76625
219.113	-2211.00658
219.334	-39.41017
219.555	-1374.14436
219.776	-851.92769
219.997	-1426.57609
220.219	-2530.70521
220.44	-988.49177
220.661	-824.16339
220.882	-1065.0156
221.103	-2884.77787
221.324	5786.9902
221.545	-1925.25839
221.766	-1328.7176
221.987	-2413.28107
222.208	-2894.83355
222.429	-945.819
222.65	-1481.4244
222.87	5147.70224
223.091	-8429.09766
223.312	4143.53085
223.533	-1753.04604
223.754	-1677.18051
223.975	-2432.1926
224.196	157910.80782
224.417	-10294.82845
224.637	2230.70543
224.858	239.33631
225.079	-7460.39515
225.3	2338.28047
225.521	-867.39494
225.741	8308.60942
225.962	6949.37365
226.183	284.51005
226.404	9182.75379
226.624	1729.72124
226.845	8004.18156
227.066	1782.37295
227.286	730.64678
227.507	249.94991
227.728	287.56055
227.948	487.28747
228.169	145.1703
228.389	160.05956
228.61	84.12364
228.831	118.85293
229.051	11.76408
229.272	69.17548
229.492	105.48521
229.713	30.06066
229.933	70.88065
230.154	63.68945
230.374	106.48782
230.595	76.08086
230.815	48.41435
231.036	78.95515
231.256	-11.95057
231.477	142.67488
231.697	86.55036
231.917	85.73197
232.138	118.03244
232.358	234.51061
232.579	202.60956
232.799	33.78578
233.019	198.08695
233.24	237.5197
233.46	74.97159
233.68	126.71295
233.901	81.64033
234.121	57.45343
234.341	23.29658
234.561	-7.30386
234.782	43.12133
235.002	140.36406
235.222	-1.66947
235.442	130.84458
235.662	60.2668
235.883	120.11571
236.103	96.48
236.323	73.35425
236.543	50.34051
236.763	79.20752
236.983	76.69325
237.203	79.91566
237.423	125.09733
237.643	187.80075
237.864	148.15082
238.084	43.25554
238.304	53.43393
238.524	83.83854
238.744	78.2231
238.964	135.64177
239.184	117.55108
239.404	120.67437
239.624	60.75766
239.843	107.36687
240.063	61.52291
240.283	41.09714
240.503	45.05583
240.723	43.5996
240.943	28.2846
241.163	34.37782
241.383	23.17091
241.603	12.6042
241.822	15.55285
242.042	10.63974
242.262	14.1051
242.482	15.64278
242.702	17.40199
242.921	5.73032
243.141	11.7953
243.361	10.63536
243.581	15.99498
243.8	14.1691
244.02	8.97007
244.24	16.4503
244.459	15.85297
244.679	32.52617
244.899	20.86501
245.118	24.73718
245.338	22.42663
245.558	23.11951
245.777	14.3165
245.997	16.22075
246.216	16.44329
246.436	9.61209
246.655	7.13765
246.875	5.73816
247.094	9.92478
247.314	3.75098
247.533	6.03889
247.753	7.0559
247.972	5.83101
248.192	2.23452
248.411	3.8012
248.631	6.05943
248.85	7.58863
249.07	7.40465
249.289	11.08056
249.508	7.81964
249.728	12.87168
249.947	12.51424
250.166	15.87342
250.386	7.9798
250.605	11.73793
250.824	19.88509
251.044	13.43407
251.263	39.34502
251.482	22.99767
251.701	19.77668
251.921	-0.09147
252.14	6.19466
252.359	7.76994
252.578	16.78325
252.798	6.33124
253.017	14.43793
253.236	7.55011
253.455	10.77449
253.674	19.92096
253.893	8.48802
254.112	14.11745
254.331	20.3853
254.551	16.92713
254.77	8.51233
254.989	24.02234
255.208	17.55495
255.427	27.03805
255.646	22.49569
255.865	33.31141
256.084	16.00158
256.303	18.71374
256.522	22.19845
256.741	6.23253
256.96	5.6862
257.179	14.05382
257.397	18.31115
257.616	9.99233
257.835	10.03879
258.054	24.22312
258.273	16.79822
258.492	17.3434
258.711	10.72125
258.93	4.95099
259.148	7.20129
259.367	6.90151
259.586	8.49461
259.805	4.11473
260.023	7.441
260.242	5.41584
260.461	4.53311
260.68	2.14452
260.898	6.68587
261.117	2.42653
261.336	1.83296
261.554	5.79084
261.773	6.11396
261.992	1.79589
262.21	5.48027
262.429	6.47918
262.648	11.77797
262.866	12.98438
263.085	9.57736
263.303	8.29266
263.522	14.31947
263.74	13.78223
263.959	23.73466
264.178	13.06949
264.396	11.23516
264.615	7.87227
264.833	17.85661
265.051	14.94739
265.27	16.90342
265.488	17.24735
265.707	10.5774
265.925	16.64205
266.144	8.26721
266.362	9.30475
266.58	9.82249
266.799	8.29614
267.017	9.51464
267.235	8.3638
267.454	5.80198
267.672	3.25056
267.89	6.87399
268.109	7.46622
268.327	7.4348
268.545	1.67664
268.763	6.99297
268.982	3.19756
269.2	7.70313
269.418	5.22601
269.636	3.91824
269.854	6.84424
270.073	5.54278
270.291	3.3083
270.509	3.04473
270.727	6.95893
270.945	11.24416
271.163	11.05229
271.381	2.76099
271.599	4.78702
271.817	7.79322
272.036	2.86618
272.254	5.41085
272.472	4.03999
272.69	3.86984
272.908	4.25719
273.126	6.3649
273.344	8.16285
273.562	2.83141
273.779	4.44836
273.997	6.82511
274.215	6.60323
274.433	4.61389
274.651	6.99843
274.869	6.69377
275.087	4.36229
275.305	6.60625
275.523	4.29738
275.74	4.74005
275.958	8.89076
276.176	11.99533
276.394	3.99369
276.612	5.2973
276.829	5.11563
277.047	4.85168
277.265	4.92027
277.483	5.77977
277.7	6.45907
277.918	5.61795
278.136	9.51204
278.353	4.54273
278.571	2.91116
278.789	7.35432
279.006	1.69386
279.224	4.48154
279.442	7.81685
279.659	5.50733
279.877	3.67932
280.094	8.10512
280.312	1.81461
280.529	5.51866
280.747	2.17109
280.964	4.42195
281.182	8.67542
281.399	4.51139
281.617	5.46521
281.834	4.04583
282.052	2.87135
282.269	5.22771
282.487	4.00013
282.704	3.70788
282.921	3.41679
283.139	5.16416
283.356	6.64944
283.574	5.97612
283.791	2.85364
284.008	8.05722
284.226	4.84634
284.443	5.29486
284.66	6.34033
284.877	5.7839
285.095	3.4978
285.312	2.50087
285.529	1.5264
285.746	1.41478
285.964	3.28027
286.181	2.19247
286.398	3.00951
286.615	4.28885
286.832	4.20473
287.05	1.05746
287.267	2.8977
287.484	2.93481
287.701	4.28572
287.918	4.11045
288.135	4.26797
288.352	1.75695
288.569	2.47326
288.786	3.84836
289.003	2.78523
289.22	4.53583
289.437	2.76518
289.654	4.37042
289.871	4.4874
290.088	4.36358
290.305	3.6353
290.522	3.16859
290.739	3.18462
290.956	4.6106
291.173	5.47249
291.39	5.217
291.607	3.56654
291.824	3.01669
292.04	2.19398
292.257	4.61782
292.474	4.83046
292.691	3.20282
292.908	1.63502
293.125	2.76316
293.341	1.76295
293.558	7.39858
293.775	3.34177
293.992	3.18749
294.208	1.32571
294.425	2.32043
294.642	2.93179
294.858	4.43492
295.075	1.02793
295.292	3.02219
295.508	3.82494
295.725	5.23343
295.942	2.84406
296.158	2.181
296.375	3.23147
296.591	2.66916
296.808	2.60504
297.024	3.15247
297.241	3.50612
297.458	3.81436
297.674	0.88408
297.891	3.15862
298.107	2.74179
298.323	2.11929
298.54	4.61659
298.756	2.6543
298.973	1.62791
299.189	4.98761
299.406	2.81035
299.622	5.13781
299.838	5.25865
300.055	4.60649
300.271	1.97547
300.487	2.76749
300.704	2.92269
300.92	2.17112
301.136	6.71458
301.353	5.46505
301.569	4.09183
301.785	4.48507
302.001	5.04341
302.218	4.75135
302.434	4.98697
302.65	2.77036
302.866	3.45035
303.083	7.46841
303.299	7.22187
303.515	4.57832
303.731	4.95346
303.947	2.76807
304.163	3.91727
304.379	4.76393
304.595	5.21947
304.812	3.77282
305.028	3.58239
305.244	4.1404
305.46	5.37253
305.676	5.85364
305.892	6.584
306.108	5.44935
306.324	4.42258
306.54	7.3809
306.756	5.52867
306.972	5.45033
307.187	4.66445
307.403	6.77829
307.619	3.95745
307.835	6.31688
308.051	6.53533
308.267	3.66173
308.483	6.5536
308.699	5.55256
308.914	4.91267
309.13	4.93829
309.346	3.0581
309.562	3.75814
309.778	3.1604
309.993	5.5624
310.209	5.20603
310.425	3.47774
310.641	4.77836
310.856	3.93204
311.072	3.7497
311.288	4.83363
311.503	5.34883
311.719	3.04088
311.935	3.04233
312.15	5.71918
312.366	5.42122
312.581	5.86785
312.797	5.26753
313.013	6.27676
313.228	4.4726
313.444	5.19222
313.659	4.14714
313.875	5.80393
314.09	5.07902
314.306	7.07993
314.521	6.28193
314.737	6.31189
314.952	5.59579
315.168	5.63704
315.383	5.72652
315.599	5.06711
315.814	5.05667
316.029	6.51269
316.245	4.08059
316.46	3.29282
316.675	6.96091
316.891	7.93776
317.106	9.41226
317.321	6.13483
317.537	6.17391
317.752	6.56843
317.967	6.68285
318.183	4.62569
318.398	5.15941
318.613	6.8486
318.828	7.41784
319.043	6.6427
319.259	5.2952
319.474	5.88912
319.689	7.14152
319.904	3.45076
320.119	7.00638
320.334	5.86905
320.549	5.40681
320.765	7.40115
320.98	6.33168
321.195	6.80285
321.41	5.78632
321.625	6.86258
321.84	8.00091
322.055	7.8578
322.27	4.90504
322.485	4.35328
322.7	6.17746
322.915	7.11781
323.13	5.12716
323.345	8.06581
323.56	6.9188
323.775	7.10554
323.989	6.79499
324.204	6.33642
324.419	7.33986
324.634	4.60296
324.849	6.01231
325.064	8.90519
325.279	7.53351
325.493	6.79508
325.708	7.45183
325.923	5.18898
326.138	5.65409
326.352	8.29881
326.567	7.20369
326.782	5.80264
326.997	5.60799
327.211	7.11341
327.426	6.97407
327.641	6.08551
327.855	4.48599
328.07	7.32037
328.285	8.88915
328.499	6.05225
328.714	6.67499
328.928	7.12159
329.143	6.54046
329.358	8.12173
329.572	7.77994
329.787	8.37521
330.001	9.91149
330.216	4.93753
330.43	9.19579
330.645	8.53897
330.859	7.75236
331.074	5.40559
331.288	6.68277
331.503	8.90815
331.717	5.27167
331.931	6.65338
332.146	7.31318
332.36	9.49953
332.575	7.39298
332.789	7.0491
333.003	6.83331
333.218	7.55916
333.432	6.12032
333.646	8.07794
333.86	9.34317
334.075	9.31058
334.289	6.34942
334.503	5.26273
334.717	7.72656
334.932	7.42561
335.146	8.05346
335.36	6.03658
335.574	7.93242
335.788	7.70428
336.003	8.43339
336.217	8.70893
336.431	7.76804
336.645	6.80634
336.859	5.85916
337.073	7.6319
337.287	7.66918
337.501	5.88993
337.715	7.87014
337.929	7.92705
338.143	5.97873
338.357	7.17403
338.571	6.76552
338.785	8.43525
338.999	6.75949
339.213	6.77937
339.427	6.04801
339.641	8.98968
339.855	6.85568
340.069	6.50548
340.283	8.89499
340.497	9.42776
340.711	8.39813
340.924	7.59277
341.138	6.52017
341.352	6.01036
341.566	7.81775
341.78	5.71901
341.993	6.9686
342.207	6.79136
342.421	8.28494
342.635	7.56532
342.848	7.09067
343.062	5.0241
343.276	6.9038
343.49	10.19893
343.703	7.08886
343.917	8.97953
344.131	9.23759
344.344	7.00559
344.558	7.59924
344.771	6.61796
344.985	9.19641
345.199	10.31561
345.412	8.46269
345.626	8.629
345.839	6.14284
346.053	7.05743
346.266	6.99321
346.48	8.80215
346.693	8.59479
346.907	8.54684
347.12	7.0504
347.334	8.10308
347.547	8.52369
347.76	7.87058
347.974	9.30757
348.187	8.38679
348.401	7.96947
348.614	7.10662
348.827	8.03085
349.041	8.68746
349.254	6.06627
349.467	7.86676
349.681	7.04446
349.894	7.29529
350.107	9.44665
350.32	10.52358
350.534	6.62497
350.747	8.14953
350.96	7.36967
351.173	7.46841
351.386	7.90369
351.6	7.52062
351.813	7.85466
352.026	8.2125
352.239	7.24388
352.452	8.03095
352.665	9.60134
352.878	8.1099
353.092	11.03146
353.305	9.23126
353.518	8.55974
353.731	7.3388
353.944	9.49293
354.157	8.0904
354.37	7.9969
354.583	7.41207
354.796	7.22758
355.009	9.76148
355.222	8.79795
355.435	8.63349
355.647	9.96768
355.86	7.8544
356.073	8.80468
356.286	8.3869
356.499	9.8722
356.712	9.68375
356.925	9.33916
357.138	10.00524
357.35	8.07917
357.563	8.69038
357.776	9.34756
357.989	9.12033
358.201	9.78928
358.414	9.66187
358.627	10.51927
358.84	8.83593
359.052	7.8477
359.265	8.13724
359.478	9.98075
359.69	6.51513
359.903	10.12476
360.116	10.16695
360.328	7.65042
360.541	10.14496
360.753	8.63932
360.966	9.08401
361.179	9.28117
361.391	9.27127
361.604	8.95248
361.816	9.3485
362.029	9.358
362.241	8.9225
362.454	9.55672
362.666	8.83845
362.879	10.13901
363.091	9.21092
363.304	9.16537
363.516	9.20163
363.728	8.18546
363.941	9.84168
364.153	9.46264
364.366	7.2545
364.578	8.20457
364.79	9.75743
365.003	9.61361
365.215	8.79002
365.427	9.85815
365.639	10.42864
365.852	9.42934
366.064	10.76627
366.276	9.00627
366.488	9.5085
366.701	8.91145
366.913	8.94056
367.125	9.23334
367.337	8.4749
367.549	8.76804
367.762	9.16289
367.974	9.18894
368.186	9.01979
368.398	10.20139
368.61	9.5791
368.822	10.00761
369.034	8.95612
369.246	10.08006
369.458	11.82555
369.67	8.45794
369.882	10.89181
370.094	7.2969
370.306	10.87248
370.518	8.97205
370.73	8.83889
370.942	8.78399
371.154	9.45802
371.366	9.05153
371.578	10.04051
371.79	9.21626
372.002	10.58433
372.214	11.66794
372.425	9.39323
372.637	11.25422
372.849	9.987
373.061	7.32432
373.273	10.10695
373.484	9.93416
373.696	10.27844
373.908	7.32083
374.12	10.51139
374.331	9.98401
374.543	8.6927
374.755	8.60018
374.967	9.6688
375.178	10.58293
375.39	9.31155
375.602	9.63268
375.813	8.15686
376.025	8.76389
376.236	9.72264
376.448	10.00695
376.66	9.83272
376.871	9.6784
377.083	10.68319
377.294	11.4556
377.506	9.51551
377.717	11.4609
377.929	10.21396
378.14	9.65842
378.352	10.39928
378.563	10.70995
378.775	11.13506
378.986	8.98702
379.197	10.19208
379.409	9.22151
379.62	10.42507
379.832	9.98049
380.043	9.67063
380.254	10.2613
380.466	8.64476
380.677	12.42052
380.888	11.7408
381.1	12.59703
381.311	12.62628
381.522	10.20713
381.733	12.6387
381.945	9.56729
382.156	9.79145
382.367	9.53638
382.578	12.60011
382.789	12.91634
383.001	9.23087
383.212	11.83135
383.423	11.68583
383.634	11.14169
383.845	10.82937
384.056	9.85956
384.267	10.23272
384.478	10.2588
384.69	9.12727
384.901	10.81765
385.112	10.65693
385.323	12.0155
385.534	10.70522
385.745	10.47005
385.956	10.53935
386.167	9.35821
386.378	10.90371
386.588	9.55732
386.799	9.61608
387.01	8.95835
387.221	11.18764
387.432	10.54596
387.643	12.06462
387.854	10.19479
388.065	10.07864
388.275	10.26927
388.486	9.92574
388.697	10.49618
388.908	9.9556
389.119	11.50507
389.329	11.85173
389.54	10.43427
389.751	10.64908
389.962	11.7083
390.172	10.39081
390.383	10.31817
390.594	9.88574
390.804	10.09588
391.015	10.05571
391.226	10.7558
391.436	11.36638
391.647	11.24414
391.858	11.41915
392.068	9.33544
392.279	9.79175
392.489	11.10278
392.7	11.58809
392.91	9.97559
393.121	9.99142
393.331	11.14064
393.542	11.75155
393.752	11.53112
393.963	11.11524
394.173	11.07198
394.384	11.44802
394.594	10.87102
394.804	9.68539
395.015	10.97466
395.225	11.54106
395.436	9.91736
395.646	11.11229
395.856	10.35435
396.067	9.45506
396.277	11.41404
396.487	11.13931
396.697	11.06429
396.908	11.31836
397.118	11.24344
397.328	10.78485
397.538	11.59515
397.749	10.06494
397.959	11.47503
398.169	11.1354
398.379	9.57561
398.589	11.18421
398.8	11.00644
399.01	11.09777
399.22	10.51763
399.43	12.74084
399.64	10.56462
399.85	11.15192
400.06	10.91723
400.27	10.14844
400.48	10.63871
400.69	11.76257
400.9	10.2891
401.11	9.94438
401.32	11.27261
401.53	10.31135
401.74	12.0734
401.95	11.09038
402.16	10.38385
402.37	11.20991
402.58	10.26993
402.79	11.21146
403	11.61718
403.209	10.31621
403.419	11.63575
403.629	10.4371
403.839	11.7751
404.049	11.81084
404.258	10.65262
404.468	10.35081
404.678	11.74467
404.888	11.9912
405.097	10.80964
405.307	10.9727
405.517	11.58732
405.727	11.4722
405.936	10.8202
406.146	11.32728
406.356	12.23024
406.565	11.0429
406.775	10.79633
406.984	10.63496
407.194	12.77526
407.404	11.01932
407.613	11.23877
407.823	11.62972
408.032	12.1567
408.242	11.91841
408.451	10.61016
408.661	10.79115
408.87	12.61861
409.08	10.60128
409.289	11.2897
409.499	11.19681
409.708	11.11309
409.918	9.34617
410.127	11.2515
410.336	12.36795
410.546	11.76828
410.755	10.87951
410.964	10.78185
411.174	10.473
411.383	11.63893
411.592	11.39343
411.802	10.29348
412.011	11.80671
412.22	10.97748
412.429	12.34262
412.639	12.20884
412.848	12.02306
413.057	12.65662
413.266	12.0865
413.475	11.22503
413.685	11.90841
413.894	11.90086
414.103	12.0431
414.312	11.8841
414.521	11.21915
414.73	11.64335
414.939	12.8214
415.148	11.77267
415.357	11.69453
415.566	11.2673
415.776	11.03843
415.985	11.15945
416.194	12.12139
416.403	13.1226
416.611	10.68629
416.82	11.27328
417.029	11.86017
417.238	11.26182
417.447	11.09321
417.656	11.48084
417.865	11.21757
418.074	11.62728
418.283	11.87292
418.492	12.58334
418.7	12.3886
418.909	13.18369
419.118	11.99503
419.327	12.30841
419.536	12.16251
419.744	11.70283
419.953	12.80069
420.162	12.95943
420.371	12.18447
420.579	12.84433
420.788	13.79818
420.997	13.83293
421.205	14.22147
421.414	13.78404
421.623	13.83767
421.831	13.39144
422.04	13.99824
422.249	12.91429
422.457	13.23398
422.666	12.44073
422.874	13.49219
423.083	13.50953
423.291	13.51585
423.5	13.58354
423.708	13.91057
423.917	14.48155
424.125	13.92444
424.334	13.74565
424.542	15.57274
424.751	14.79641
424.959	14.28886
425.167	14.32283
425.376	14.1602
425.584	12.77282
425.793	13.09318
426.001	12.21322
426.209	13.21546
426.418	12.18372
426.626	12.16513
426.834	12.03283
427.042	12.66452
427.251	12.09258
427.459	13.12083
427.667	12.65886
427.875	11.62431
428.084	12.06572
428.292	13.26515
428.5	12.79577
428.708	11.65026
428.916	11.58337
429.124	12.48328
429.333	12.1397
429.541	12.42305
429.749	12.56676
429.957	12.19681
430.165	14.13299
430.373	11.49422
430.581	12.52206
430.789	13.50526
430.997	11.99432
431.205	11.94245
431.413	12.58485
431.621	12.15073
431.829	12.9227
432.037	12.27707
432.245	12.91225
432.453	12.91497
432.661	12.40206
432.869	13.97857
433.076	11.92956
433.284	12.47807
433.492	13.15764
433.7	13.66479
433.908	12.55896
434.116	12.79268
434.323	12.90675
434.531	12.68485
434.739	13.08473
434.947	13.31551
435.154	13.2764
435.362	12.80675
435.57	12.61342
435.778	12.34334
435.985	12.92016
436.193	12.44643
436.401	13.65216
436.608	12.69583
436.816	12.34875
437.023	13.87668
437.231	14.06576
437.439	12.83771
437.646	13.12144
437.854	13.10673
438.061	13.27878
438.269	12.69086
438.476	13.33436
438.684	12.9557
438.891	12.74576
439.099	12.5768
439.306	12.02192
439.514	12.3887
439.721	13.26222
439.929	12.51295
440.136	13.20701
440.343	13.2456
440.551	12.77823
440.758	14.33057
440.965	13.50771
441.173	13.20118
441.38	12.78059
441.587	13.27173
441.795	12.85364
442.002	13.32568
442.209	13.42493
442.416	13.65584
442.624	13.50698
442.831	13.40557
443.038	12.69379
443.245	12.38313
443.452	12.81222
443.66	13.5866
443.867	12.6802
444.074	12.72862
444.281	12.46943
444.488	12.80624
444.695	12.97711
444.902	12.70558
445.109	13.41274
445.316	12.80921
445.523	12.89399
445.73	13.07316
445.937	13.9608
446.144	14.54499
446.351	14.80101
446.558	13.51323
446.765	15.48071
446.972	14.76808
447.179	14.14986
447.386	14.84581
447.593	13.0591
447.8	14.04859
448.007	13.06373
448.214	13.19627
448.42	12.86215
448.627	14.03475
448.834	13.08031
449.041	12.88441
449.248	12.96434
449.454	13.74059
449.661	14.3806
449.868	12.71603
450.075	12.64457
450.281	11.54753
450.488	12.19263
450.695	12.52488
450.901	12.45277
451.108	12.82041
451.315	13.77546
451.521	12.76779
451.728	13.66006
451.935	12.56802
452.141	12.9382
452.348	12.95249
452.554	13.11759
452.761	12.74462
452.967	14.23187
453.174	13.15927
453.38	13.37375
453.587	12.27099
453.793	13.12489
454	13.66635
454.206	14.63728
454.413	13.93181
454.619	13.40861
454.825	12.51527
455.032	13.45552
455.238	13.78585
455.445	12.22146
455.651	13.02947
455.857	11.77625
456.064	12.79853
456.27	12.77
456.476	12.825
456.682	11.97766
456.889	13.24235
457.095	13.42265
457.301	14.59656
457.507	13.07772
457.714	13.19894
457.92	13.03089
458.126	12.452
458.332	12.91482
458.538	12.65016
458.744	12.6995
458.951	12.78101
459.157	14.09807
459.363	13.34361
459.569	13.42794
459.775	14.09563
459.981	13.52292
460.187	13.9945
460.393	14.15431
460.599	14.24841
460.805	13.56339
461.011	13.47661
461.217	14.21369
461.423	14.14631
461.629	13.25303
461.835	13.8614
462.041	13.18418
462.247	14.49545
462.453	13.13723
462.658	13.21242
462.864	13.87178
463.07	13.25426
463.276	13.40321
463.482	13.3117
463.688	14.08108
463.893	12.77228
464.099	12.98836
464.305	14.42398
464.511	12.81367
464.716	13.15411
464.922	13.78031
465.128	12.69119
465.333	14.50334
465.539	13.55336
465.745	13.15672
465.95	13.27784
466.156	15.23013
466.362	14.13688
466.567	12.95647
466.773	12.91525
466.978	14.37651
467.184	12.61535
467.389	11.76984
467.595	13.59226
467.8	12.60305
468.006	14.23722
468.211	14.13489
468.417	12.48501
468.622	13.78912
468.828	13.83608
469.033	13.5432
469.239	15.30923
469.444	12.86256
469.649	13.89348
469.855	13.17943
470.06	13.44609
470.266	12.59164
470.471	13.84765
470.676	13.45224
470.881	12.08006
471.087	14.49097
471.292	14.61473
471.497	12.40628
471.703	13.16875
471.908	12.86599
472.113	13.45064
472.318	13.73564
472.523	12.45855
472.729	13.4763
472.934	13.57619
473.139	13.0698
473.344	13.6834
473.549	14.26696
473.754	12.6572
473.959	14.71574
474.164	12.69986
474.369	13.12084
474.575	13.94286
474.78	13.39501
474.985	13.03267
475.19	12.12487
475.395	12.74825
475.6	13.12688
475.804	14.23132
476.009	13.25224
476.214	13.38934
476.419	12.9989
476.624	12.11061
476.829	12.75766
477.034	13.7071
477.239	12.81267
477.444	13.38907
477.648	13.77496
477.853	13.68321
478.058	13.11773
478.263	12.88108
478.468	12.57021
478.672	12.72317
478.877	14.26929
479.082	14.66853
479.287	13.68548
479.491	13.35189
479.696	12.53116
479.901	13.9751
480.105	13.86108
480.31	12.81562
480.515	13.16669
480.719	14.91419
480.924	12.75999
481.128	12.4064
481.333	13.21526
481.538	13.36091
481.742	12.9773
481.947	13.52367
482.151	14.712
482.356	15.62616
482.56	18.43132
482.765	20.74482
482.969	24.60033
483.174	27.78027
483.378	31.73127
483.582	32.79458
483.787	34.7314
483.991	35.08447
484.196	35.00537
484.4	34.23638
484.604	33.72694
484.809	30.54042
485.013	28.23025
485.217	25.4696
485.422	22.67256
485.626	20.66609
485.83	19.58414
486.034	19.31872
486.239	19.88835
486.443	20.61155
486.647	21.39229
486.851	22.92175
487.055	24.46232
487.26	24.64532
487.464	25.7245
487.668	25.20709
487.872	25.57711
488.076	25.53373
488.28	24.35048
488.484	22.61412
488.688	21.89454
488.892	20.59991
489.096	19.1282
489.3	17.44399
489.504	16.35669
489.708	15.80468
489.912	15.46946
490.116	15.22819
490.32	14.98605
490.524	16.64464
490.728	17.72481
490.932	18.92249
491.136	19.97769
491.34	21.27186
491.544	21.82059
491.748	21.47971
491.951	21.25719
492.155	20.62358
492.359	19.85539
492.563	17.92549
492.767	16.63109
492.97	14.9761
493.174	13.33654
493.378	13.40565
493.582	12.98171
493.785	13.50151
493.989	13.54173
494.193	13.51358
494.396	13.16523
494.6	13.76722
494.804	13.1241
495.007	12.77829
495.211	12.69274
495.414	12.86716
495.618	13.22636
495.822	13.87214
496.025	13.07978
496.229	13.64831
496.432	12.65568
496.636	13.05449
496.839	12.98669
497.043	14.12468
497.246	13.30862
497.45	12.88124
497.653	13.14385
497.856	13.32899
498.06	12.61349
498.263	12.97124
498.467	12.89656
498.67	13.8402
498.873	13.55013
499.077	12.90383
499.28	12.95888
499.483	13.4352
499.686	13.72218
499.89	13.40038
500.093	13.56327
500.296	12.71375
500.499	14.20553
500.703	13.07109
500.906	13.09506
501.109	14.33968
501.312	12.90381
501.515	13.01108
501.719	13.29974
501.922	13.89569
502.125	13.12504
502.328	13.0164
502.531	12.29747
502.734	12.97016
502.937	11.76172
503.14	12.99062
503.343	12.2729
503.546	12.71234
503.749	12.51274
503.952	13.40025
504.155	12.35526
504.358	13.50077
504.561	13.01619
504.764	12.03572
504.967	13.07104
505.17	13.0002
505.373	14.13875
505.576	12.86234
505.778	13.4514
505.981	12.42561
506.184	13.82875
506.387	11.88889
506.59	14.11325
506.793	13.76567
506.995	13.33386
507.198	11.58602
507.401	13.11073
507.604	13.22159
507.806	12.22235
508.009	12.45683
508.212	13.23703
508.414	12.55325
508.617	12.58406
508.82	12.89099
509.022	13.8044
509.225	13.14779
509.427	11.91681
509.63	13.82719
509.833	12.86826
510.035	12.73096
510.238	12.03152
510.44	13.69169
510.643	11.50706
510.845	14.41538
511.048	13.1818
511.25	12.56123
511.453	12.83605
511.655	13.20373
511.858	12.76386
512.06	13.53753
512.262	12.83939
512.465	13.64611
512.667	12.5414
512.869	12.19219
513.072	13.17153
513.274	13.47138
513.476	13.36835
513.679	13.48703
513.881	12.11814
514.083	14.03475
514.286	12.41269
514.488	12.30662
514.69	12.09733
514.892	11.74122
515.094	13.34768
515.297	12.40339
515.499	12.83794
515.701	12.1699
515.903	13.84068
516.105	13.90554
516.307	13.19824
516.509	11.36556
516.711	11.85053
516.913	12.73796
517.116	12.62963
517.318	12.40923
517.52	13.46776
517.722	13.17816
517.924	11.92398
518.126	13.0722
518.328	12.31842
518.529	13.09688
518.731	13.84332
518.933	12.53976
519.135	12.86574
519.337	13.57287
519.539	13.20824
519.741	11.89065
519.943	12.76867
520.145	12.69726
520.346	13.21858
520.548	12.60931
520.75	13.01637
520.952	12.48912
521.153	12.85608
521.355	13.13346
521.557	12.06318
521.759	12.76189
521.96	12.71851
522.162	11.96625
522.364	13.45861
522.565	12.14829
522.767	13.2466
522.969	13.63377
523.17	13.06634
523.372	12.85103
523.573	12.25922
523.775	12.53375
523.977	11.91949
524.178	13.68161
524.38	12.21421
524.581	13.0776
524.783	12.29305
524.984	12.9544
525.186	12.56333
525.387	12.96014
525.589	12.63944
525.79	12.52999
525.991	12.28582
526.193	12.88084
526.394	11.98628
526.596	12.89803
526.797	13.16248
526.998	13.16448
527.2	13.64003
527.401	16.1782
527.602	17.60506
527.803	20.67705
528.005	21.81605
528.206	23.49944
528.407	24.58667
528.608	24.56034
528.81	24.69225
529.011	23.78696
529.212	24.44497
529.413	22.64223
529.614	20.88117
529.815	19.54435
530.017	17.6751
530.218	15.70773
530.419	14.06092
530.62	13.65769
530.821	13.12779
531.022	12.20085
531.223	13.17002
531.424	13.13043
531.625	13.10184
531.826	12.93989
532.027	13.31555
532.228	14.71885
532.429	15.03587
532.63	15.56692
532.831	16.66177
533.032	16.83098
533.233	17.51086
533.433	17.07574
533.634	17.19355
533.835	16.21727
534.036	15.39345
534.237	14.60389
534.438	13.59444
534.638	12.55609
534.839	12.72413
535.04	13.29987
535.241	12.63367
535.441	13.93487
535.642	13.11524
535.843	12.23037
536.043	12.26013
536.244	12.50048
536.445	12.53859
536.645	13.30644
536.846	12.97883
537.047	13.60949
537.247	12.47822
537.448	12.75681
537.648	13.02266
537.849	13.00491
538.049	12.96317
538.25	13.59157
538.451	13.24623
538.651	12.31393
538.851	13.22311
539.052	13.83194
539.252	13.56323
539.453	12.74864
539.653	12.92465
539.854	12.82517
540.054	12.69909
540.254	13.95126
540.455	15.33663
540.655	15.57435
540.855	17.35102
541.056	18.48282
541.256	18.12004
541.456	19.32911
541.657	18.58702
541.857	19.17634
542.057	17.39861
542.257	16.74623
542.458	16.66287
542.658	15.76936
542.858	13.86024
543.058	14.20255
543.258	13.61907
543.458	12.59247
543.659	12.47328
543.859	13.7119
544.059	13.57091
544.259	13.07012
544.459	13.74572
544.659	12.82845
544.859	13.54209
545.059	12.94051
545.259	13.71
545.459	13.26219
545.659	13.85759
545.859	13.14395
546.059	13.36352
546.259	12.62413
546.459	12.25199
546.659	12.60512
546.859	13.74102
547.059	13.47708
547.258	13.64713
547.458	13.55548
547.658	12.46766
547.858	12.48543
548.058	13.54639
548.258	13.09269
548.457	12.54779
548.657	15.22063
548.857	13.10333
549.057	13.80179
549.256	13.77621
549.456	12.99016
549.656	11.63185
549.855	14.69369
550.055	12.83368
550.255	14.81667
550.454	13.53855
550.654	13.89062
550.853	14.43698
551.053	13.94593
551.253	13.55591
551.452	13.44813
551.652	12.28174
551.851	11.87936
552.051	12.97984
552.25	12.85758
552.45	12.69794
552.649	13.17156
552.849	12.51758
553.048	13.31293
553.248	14.05321
553.447	12.65592
553.646	14.07832
553.846	14.6353
554.045	14.28907
554.244	12.35809
554.444	15.05761
554.643	12.86274
554.842	14.70124
555.042	15.44524
555.241	13.06613
555.44	12.43321
555.64	14.01423
555.839	15.24358
556.038	13.93466
556.237	12.94143
556.436	13.46177
556.636	13.83407
556.835	12.80325
557.034	15.14293
557.233	13.28629
557.432	12.29021
557.631	14.75189
557.83	13.25647
558.029	12.9329
558.228	13.1655
558.427	12.72727
558.626	13.97097
558.825	12.69004
559.024	13.52602
559.223	15.23109
559.422	13.44258
559.621	13.92807
559.82	11.17738
560.019	13.55047
560.218	13.35895
560.417	11.17189
560.616	13.3289
560.815	16.78268
561.014	12.25624
561.212	14.95542
561.411	13.87431
561.61	12.17859
561.809	13.41225
562.008	15.09406
562.206	13.78103
562.405	14.34723
562.604	13.72235
562.803	14.00007
563.001	13.43042
563.2	12.48833
563.399	14.14381
563.597	12.84226
563.796	13.76184
563.995	12.9211
564.193	14.32876
564.392	13.37723
564.59	16.05046
564.789	12.13476
564.988	13.46001
565.186	13.95916
565.385	13.82196
565.583	13.54396
565.782	13.79773
565.98	13.59885
566.179	13.85475
566.377	13.12113
566.575	13.4611
566.774	15.21893
566.972	14.86206
567.171	16.05646
567.369	15.2071
567.567	14.20424
567.766	14.2274
567.964	12.30089
568.162	14.7131
568.361	15.02384
568.559	14.07681
568.757	14.6386
568.956	14.21696
569.154	13.98345
569.352	14.6766
569.55	13.95667
569.748	14.0972
569.947	13.3487
570.145	13.35594
570.343	13.08442
570.541	15.12434
570.739	12.85374
570.937	14.27395
571.135	14.57958
571.333	15.82093
571.532	15.64798
571.73	14.46012
571.928	15.27947
572.126	14.5996
572.324	13.93411
572.522	15.61661
572.72	16.9614
572.918	14.30882
573.116	14.83798
573.313	14.4868
573.511	14.40477
573.709	14.07205
573.907	15.11051
574.105	14.05149
574.303	12.79975
574.501	13.14933
574.699	14.81259
574.896	14.8846
575.094	15.10062
575.292	13.24634
575.49	15.43241
575.688	14.31831
575.885	15.82328
576.083	16.53858
576.281	15.17128
576.478	14.08349
576.676	15.08832
576.874	13.41473
577.071	14.24963
577.269	17.21961
577.467	14.25947
577.664	14.58119
577.862	15.48363
578.059	13.45898
578.257	15.38928
578.455	14.12978
578.652	14.46012
578.85	12.49448
579.047	14.68677
579.245	14.67709
579.442	14.2139
579.64	14.65478
579.837	12.6038
580.034	17.13891
580.232	14.00708
580.429	13.12493
580.627	15.1394
580.824	16.12254
581.021	15.15306
581.219	14.21352
581.416	13.54141
581.613	16.0357
581.811	16.00234
582.008	13.46594
582.205	15.60653
582.402	14.74656
582.6	16.79374
582.797	14.61109
582.994	15.01326
583.191	15.40579
583.388	14.63346
583.586	15.39614
583.783	15.9118
583.98	13.60647
584.177	14.83346
584.374	11.35272
584.571	14.55166
584.768	14.29024
584.965	14.33384
585.162	15.43239
585.359	16.56894
585.556	14.49652
585.753	14.71864
585.95	13.1295
586.147	13.52404
586.344	15.18007
586.541	14.1287
586.738	13.07281
586.935	14.31561
587.132	13.82958
587.329	15.69147
587.526	14.54559
587.722	20.40014
587.919	12.96331
588.116	15.2278
588.313	16.41954
588.51	17.39326
588.706	14.5815
588.903	15.34246
589.1	16.06134
589.297	18.09879
589.493	14.72614
589.69	15.48413
589.887	14.31736
590.083	13.59592
590.28	13.92767
590.477	16.09228
590.673	15.83174
590.87	16.50798
591.067	14.47037
591.263	15.81993
591.46	15.51417
591.656	14.80969
591.853	16.72067
592.049	14.03004
592.246	14.25042
592.442	16.2106
592.639	16.4719
592.835	13.47695
593.032	15.44642
593.228	13.2662
593.425	13.2857
593.621	13.08489
593.817	15.2958
594.014	14.19832
594.21	15.23839
594.406	16.25837
594.603	15.88551
594.799	14.29526
594.995	12.36844
595.192	16.58166
595.388	14.47046
595.584	14.62896
595.78	13.28516
595.977	17.36369
596.173	17.12276
596.369	15.06975
596.565	14.1233
596.761	13.50016
596.957	16.64034
597.154	14.24039
597.35	14.63163
597.546	14.20083
597.742	16.03172
597.938	15.60244
598.134	14.47768
598.33	15.546
598.526	17.01445
598.722	15.78397
598.918	17.77328
599.114	16.05188
599.31	13.92567
599.506	15.31866
599.702	13.94708
599.898	15.42005
600.094	16.27244
600.29	16.21511
600.485	16.24952
600.681	14.32715
600.877	17.48047
601.073	15.36377
601.269	17.3454
601.465	16.83274
601.66	13.85167
601.856	13.22089
602.052	17.17592
602.248	14.71101
602.443	12.7087
602.639	13.80052
602.835	13.87735
603.03	14.03295
603.226	16.39699
603.422	14.07823
603.617	14.72765
603.813	14.7274
604.009	14.68805
604.204	16.47686
604.4	13.54189
604.595	16.53093
604.791	14.21124
604.986	15.65698
605.182	14.58496
605.377	15.03163
605.573	14.89277
605.768	15.60598
605.964	16.14125
606.159	16.19752
606.355	17.08122
606.55	14.99676
606.746	17.01541
606.941	15.24586
607.136	18.24896
607.332	19.36052
607.527	13.9096
607.722	15.74987
607.918	15.22086
608.113	14.3138
608.308	16.2864
608.503	16.01606
608.699	16.02311
608.894	16.10119
609.089	14.58439
609.284	15.85077
609.479	14.92198
609.675	16.3544
609.87	15.12436
610.065	16.47258
610.26	16.95699
610.455	16.78888
610.65	15.49095
610.845	15.77138
611.04	17.2475
611.235	15.73908
611.43	15.04637
611.625	13.92614
611.82	17.70677
612.015	14.52744
612.21	17.54427
612.405	13.2291
612.6	18.37668
612.795	17.34912
612.99	16.2789
613.185	13.86923
613.38	14.33444
613.575	15.68904
613.77	19.78632
613.965	13.40227
614.159	14.13469
614.354	17.39172
614.549	17.04587
614.744	16.85031
614.938	14.05665
615.133	13.176
615.328	17.65195
615.523	17.43326
615.717	20.35977
615.912	14.66826
616.107	15.70121
616.301	15.34449
616.496	14.96134
616.691	18.52893
616.885	16.93568
617.08	20.35248
617.274	17.68826
617.469	19.14188
617.664	16.60721
617.858	14.92798
618.053	16.33596
618.247	15.53137
618.442	12.68721
618.636	18.22448
618.831	14.81022
619.025	14.80413
619.219	20.04089
619.414	10.62831
619.608	16.1901
619.803	14.92214
619.997	19.41134
620.191	17.76806
620.386	16.45674
620.58	16.04924
620.774	13.03449
620.969	13.39638
621.163	16.26282
621.357	14.04777
621.551	15.13486
621.746	15.87652
621.94	15.56367
622.134	21.90778
622.328	19.27491
622.522	13.28228
622.716	17.73835
622.911	17.85046
623.105	17.70185
623.299	16.9312
623.493	21.42305
623.687	14.94386
623.881	15.31119
624.075	17.06366
624.269	18.24415
624.463	13.09228
624.657	13.28346
624.851	17.00679
625.045	17.42
625.239	17.743
625.433	15.58508
625.627	18.55936
625.821	15.61327
626.015	15.09082
626.209	16.62135
626.403	14.14061
626.596	16.81935
626.79	17.55037
626.984	14.27343
627.178	17.30511
627.372	17.2393
627.565	17.51322
627.759	14.12518
627.953	14.17175
628.147	17.03035
628.34	17.23234
628.534	20.19494
628.728	15.86946
628.921	18.10035
629.115	17.54581
629.309	18.00076
629.502	17.73802
629.696	16.62769
629.89	15.96407
630.083	17.08029
630.277	17.37084
630.47	19.68299
630.664	16.0402
630.857	14.10785
631.051	17.60431
631.244	18.67033
631.438	18.14242
631.631	15.43677
631.825	18.97028
632.018	17.7146
632.212	20.36887
632.405	18.59487
632.598	15.15452
632.792	16.94739
632.985	12.35215
633.178	16.25728
633.372	16.39362
633.565	16.55641
633.758	19.16109
633.952	15.07025
634.145	15.11216
634.338	16.41578
634.531	15.73886
634.724	15.6576
634.918	17.0556
635.111	16.39605
635.304	15.80165
635.497	21.09678
635.69	17.2595
635.883	19.37806
636.077	14.65743
636.27	17.66587
636.463	17.05886
636.656	17.67144
636.849	16.39353
637.042	17.8371
637.235	19.75255
637.428	18.34799
637.621	17.86174
637.814	19.71349
638.007	20.02531
638.2	20.14318
638.393	21.0118
638.586	14.4409
638.778	16.14771
638.971	17.27104
639.164	20.86753
639.357	17.84845
639.55	20.06146
639.743	19.23312
639.935	18.8621
640.128	21.60937
640.321	18.77368
640.514	17.60365
640.707	22.57019
640.899	18.94556
641.092	14.12001
641.285	33.1033
641.477	12.63841
641.67	22.22423
641.863	20.37241
642.055	18.34045
642.248	17.56616
642.441	16.99119
642.633	18.33127
642.826	20.27628
643.018	20.89242
643.211	22.15142
643.403	21.36311
643.596	23.03408
643.788	21.94323
643.981	17.38191
644.173	20.10586
644.366	17.65948
644.558	14.25463
644.751	20.64301
644.943	15.00536
645.135	22.1079
645.328	22.53068
645.52	19.69259
645.712	20.59411
645.905	25.68169
646.097	15.57042
646.289	18.92378
646.482	22.47667
646.674	17.2866
646.866	20.96315
647.058	19.61161
647.251	16.0549
647.443	17.07396
647.635	18.40259
647.827	15.88794
648.019	16.41949
648.211	18.68161
648.404	18.73737
648.596	22.18978
648.788	19.17145
648.98	19.2893
649.172	19.15464
649.364	19.27758
649.556	14.43139
649.748	25.7316
649.94	16.18201
650.132	19.76582
650.324	16.52408
650.516	16.79932
650.708	21.71825
650.9	15.13192
651.092	17.8804
651.284	15.0551
651.476	16.06832
651.667	19.78644
651.859	21.68275
652.051	18.78865
652.243	18.92401
652.435	17.24468
652.627	19.78016
652.818	19.95393
653.01	14.31495
653.202	16.57657
653.394	17.73922
653.585	20.58213
653.777	30.58867
653.969	22.36126
654.16	22.01259
654.352	16.32992
654.544	19.27105
654.735	21.88439
654.927	19.665
655.118	23.30109
655.31	21.31599
655.502	21.73428
655.693	17.8866
655.885	20.77788
656.076	23.36261
656.268	19.47684
656.459	22.60501
656.651	22.7434
656.842	17.76738
657.034	17.04418
657.225	21.34373
657.416	22.71529
657.608	22.92638
657.799	18.65572
657.99	22.20059
658.182	17.46553
658.373	17.39518
658.564	20.89622
658.756	19.4925
658.947	18.78848
659.138	16.90528
659.33	18.30137
659.521	17.33502
659.712	18.87451
659.903	18.68919
660.094	17.74236
660.286	15.46052
660.477	24.44542
660.668	21.33026
660.859	19.55832
661.05	15.78848
661.241	21.34876
661.432	21.07986
661.623	18.83138
661.814	18.26009
662.006	15.3816
662.197	20.88434
662.388	22.9386
662.579	20.3731
662.77	24.09295
662.96	27.7273
663.151	22.48126
663.342	15.39153
663.533	21.73935
663.724	19.82878
663.915	25.20598
664.106	19.84301
664.297	25.3737
664.488	22.44062
664.678	18.5554
664.869	22.53577
665.06	22.91997
665.251	21.16827
665.442	21.90574
665.632	17.5663
665.823	26.00345
666.014	11.98491
666.204	22.13843
666.395	24.26898
666.586	29.43846
666.776	22.58092
666.967	26.2302
667.158	20.82679
667.348	24.82255
667.539	17.55973
667.729	23.43413
667.92	18.69921
668.111	23.53912
668.301	22.5492
668.492	20.27399
668.682	20.93872
668.873	20.30044
669.063	17.3056
669.253	21.65974
669.444	23.78645
669.634	20.51755
669.825	27.10965
670.015	24.49503
670.206	18.44471
670.396	27.52285
670.586	20.58273
670.777	22.56767
670.967	14.78883
671.157	21.67799
671.347	19.28321
671.538	26.28222
671.728	22.55355
671.918	27.26495
672.108	25.06174
672.299	21.16699
672.489	22.69385
672.679	19.77708
672.869	23.25264
673.059	27.61935
673.249	23.58989
673.44	18.67201
673.63	20.81473
673.82	24.72946
674.01	18.9453
674.2	22.48954
674.39	31.99221
674.58	23.40251
674.77	22.53509
674.96	21.10548
675.15	36.14619
675.34	25.81987
675.53	21.68669
675.72	21.12244
675.91	17.38081
676.099	28.37976
676.289	28.97359
676.479	25.74914
676.669	20.79846
676.859	23.53431
677.049	18.62937
677.238	22.40318
677.428	28.74589
677.618	23.30938
677.808	25.39735
677.997	24.12637
678.187	18.73194
678.377	21.78842
678.567	20.919
678.756	20.32212
678.946	21.34256
679.136	17.8769
679.325	19.21617
679.515	19.09002
679.704	17.59887
679.894	23.42804
680.084	22.40692
680.273	25.65299
680.463	19.1429
680.652	18.90359
680.842	21.04824
681.031	24.92834
681.221	19.405
681.41	24.27606
681.6	21.5506
681.789	24.75606
681.978	26.93228
682.168	23.02749
682.357	23.41726
682.547	24.46553
682.736	23.27798
682.925	26.90837
683.115	26.59626
683.304	25.88978
683.493	24.40923
683.682	25.32765
683.872	24.45789
684.061	28.29255
684.25	25.87131
684.439	29.58951
684.629	26.0148
684.818	36.25852
685.007	22.69719
685.196	22.53776
685.385	29.3543
685.574	25.04562
685.763	25.64322
685.952	24.2738
686.142	19.35409
686.331	29.42706
686.52	17.84252
686.709	29.18822
686.898	29.1567
687.087	26.40963
687.276	30.97171
687.465	27.38195
687.654	23.1131
687.842	30.22342
688.031	20.22008
688.22	29.07525
688.409	24.95124
688.598	25.22412
688.787	34.49448
688.976	24.61629
689.165	31.23561
689.353	23.05425
689.542	26.32189
689.731	27.06631
689.92	32.2029
690.108	28.6462
690.297	24.08632
690.486	25.26773
690.675	28.70232
690.863	33.34455
691.052	32.63048
691.241	27.09157
691.429	26.78923
691.618	32.81822
691.806	21.1823
691.995	24.85392
692.184	26.06625
692.372	24.03107
692.561	27.08003
692.749	26.22348
692.938	36.01634
693.126	29.68179
693.315	24.61672
693.503	29.53712
693.692	28.85207
693.88	31.41932
694.068	36.09145
694.257	26.83473
694.445	28.65732
694.634	17.98253
694.822	31.50284
695.01	32.01935
695.199	32.08513
695.387	33.96138
695.575	32.66226
695.763	26.70479
695.952	25.21803
696.14	20.61789
696.328	24.81372
696.516	26.76075
696.705	27.9996
696.893	27.50343
697.081	19.26109
697.269	28.37052
697.457	21.47335
697.645	20.93579
697.833	28.57446
698.021	21.99827
698.21	22.87587
698.398	23.92575
698.586	20.42027
698.774	20.09119
698.962	23.64359
699.15	21.61955
699.338	19.27298
699.526	27.13518
699.714	22.72625
699.901	23.87759
700.089	29.786
700.277	23.40229
700.465	25.27123
700.653	30.21082
700.841	29.09631
701.029	23.07749
701.217	32.01412
701.404	28.09692
701.592	34.76841
701.78	36.17479
701.968	26.06603
702.155	26.77811
702.343	22.33018
702.531	34.41469
702.718	29.92229
702.906	27.00365
703.094	26.0829
703.281	33.81688
703.469	27.66282
703.657	33.40138
703.844	44.34526
704.032	36.29631
704.219	25.76556
704.407	31.20407
704.595	35.39464
704.782	29.98536
704.97	27.37671
705.157	27.1138
705.345	37.71486
705.532	42.69122
705.719	30.73799
705.907	37.42947
706.094	30.41728
706.282	39.11104
706.469	27.34562
706.656	30.17321
706.844	28.5095
707.031	34.4709
707.218	31.51786
707.406	38.75955
707.593	33.45326
707.78	33.22341
707.968	29.20424
708.155	25.83965
708.342	33.73124
708.529	32.55648
708.716	30.63794
708.904	39.15273
709.091	33.587
709.278	24.36305
709.465	41.73192
709.652	40.11655
709.839	37.79018
710.026	31.95959
710.213	22.11136
710.4	32.75141
710.587	35.12935
710.774	35.78869
710.961	36.17972
711.148	31.43373
711.335	37.63744
711.522	30.09988
711.709	32.64271
711.896	43.66283
712.083	36.0533
712.27	26.90738
712.457	32.11473
712.644	23.86668
712.831	41.8137
713.017	32.42718
713.204	35.00674
713.391	28.95012
713.578	39.0642
713.765	39.34458
713.951	34.40821
714.138	51.13077
714.325	36.91491
714.512	33.40056
714.698	28.35507
714.885	42.40071
715.072	34.28048
715.258	32.98429
715.445	28.99699
715.631	40.88901
715.818	19.28414
716.005	29.73693
716.191	36.4018
716.378	31.30592
716.564	38.2809
716.751	28.43988
716.937	30.47865
717.124	40.5415
717.31	29.4871
717.497	42.75584
717.683	30.15934
717.869	49.21537
718.056	31.59696
718.242	36.82717
718.429	33.7249
718.615	27.84277
718.801	34.90945
718.988	40.77218
719.174	38.18051
719.36	34.97923
719.547	43.36916
719.733	37.15924
719.919	38.44796
720.105	40.46589
720.291	34.54245
720.478	37.22442
720.664	35.55356
720.85	33.46667
721.036	54.82646
721.222	45.07391
721.408	36.47797
721.595	50.48408
721.781	47.62064
721.967	42.50138
722.153	48.72168
722.339	40.40584
722.525	39.39909
722.711	29.89559
722.897	28.37099
723.083	34.15599
723.269	44.61993
723.455	54.12605
723.641	57.83383
723.827	38.97888
724.012	41.3855
724.198	34.64243
724.384	47.04113
724.57	40.50797
724.756	27.26004
724.942	25.85356
725.127	43.56648
725.313	48.02544
725.499	48.10851
725.685	50.32242
725.87	40.4666
726.056	32.68567
726.242	47.93063
726.428	26.64127
726.613	43.73834
726.799	35.52475
726.985	30.08075
727.17	27.63417
727.356	48.16177
727.541	31.45122
727.727	36.88248
727.913	42.93903
728.098	34.11782
728.284	42.1386
728.469	28.77836
728.655	31.78767
728.84	42.84533
729.026	44.17774
729.211	44.35517
729.397	39.47221
729.582	42.47462
729.767	37.70566
729.953	39.84835
730.138	43.98101
730.323	23.03912
730.509	30.11302
730.694	49.45339
730.879	41.57361
731.065	39.04672
731.25	54.29922
731.435	43.06622
731.621	26.99032
731.806	33.98966
731.991	39.62382
732.176	28.69108
732.361	47.5612
732.547	38.87121
732.732	27.07262
732.917	55.88835
733.102	30.52344
733.287	32.55295
733.472	38.40987
733.657	39.92896
733.842	27.60101
734.027	36.42216
734.212	38.84523
734.397	33.60886
734.582	40.75145
734.767	46.14678
734.952	51.19523
735.137	20.89766
735.322	50.95829
735.507	42.7992
735.692	43.93995
735.877	57.70128
736.062	54.91676
736.247	43.8492
736.431	40.43344
736.616	50.01411
736.801	42.59228
736.986	41.04478
737.171	34.20774
737.355	32.20304
737.54	49.55678
737.725	40.83685
737.909	62.64732
738.094	36.21063
738.279	48.76793
738.463	37.62714
738.648	46.14566
738.833	43.04244
739.017	55.03575
739.202	37.11153
739.386	40.30075
739.571	32.20317
739.756	45.81357
739.94	41.15834
740.125	48.45552
740.309	34.11554
740.494	47.09648
740.678	41.23486
740.863	45.20675
741.047	43.01193
741.231	52.32512
741.416	34.3567
741.6	57.40731
741.785	36.48018
741.969	48.62044
742.153	53.18074
742.338	24.99756
742.522	42.98213
742.706	49.7078
742.89	32.48144
743.075	43.98415
743.259	56.11245
743.443	49.16885
743.627	54.74658
743.812	63.44854
743.996	28.04778
744.18	42.73239
744.364	39.1498
744.548	67.93984
744.732	41.93931
744.916	50.77625
745.1	47.07761
745.285	40.73321
745.469	48.56711
745.653	60.69708
745.837	30.83584
746.021	67.38091
746.205	56.14864
746.389	44.6431
746.573	41.32813
746.757	60.14747
746.94	38.80389
747.124	55.58538
747.308	32.36515
747.492	55.89803
747.676	37.95768
747.86	67.71417
748.044	39.01694
748.227	27.94135
748.411	80.35843
748.595	45.86046
748.779	35.1239
748.963	48.01415
749.146	45.36494
749.33	36.43777
749.514	33.24374
749.697	56.5739
749.881	38.95184
750.065	35.67116
750.248	44.04491
750.432	69.70277
750.616	44.56731
750.799	32.91267
750.983	65.51636
751.166	72.30589
751.35	30.43366
751.533	50.32028
751.717	56.00503
751.9	61.29269
752.084	41.41997
752.267	34.77791
752.451	38.08885
752.634	46.17332
752.818	50.70135
753.001	53.32928
753.184	56.17051
753.368	49.43554
753.551	15.44853
753.734	37.1291
753.918	65.06965
754.101	38.5713
754.284	53.61172
754.467	41.25199
754.651	38.96497
754.834	37.87148
755.017	58.18208
755.2	55.78827
755.384	34.75152
755.567	54.45959
755.75	57.18016
755.933	43.20682
756.116	48.36041
756.299	41.31361
756.482	35.97121
756.665	51.69882
756.848	44.28675
757.032	50.1051
757.215	31.15665
757.398	38.46685
757.581	38.88197
757.764	75.58115
757.947	44.35051
758.129	57.15251
758.312	19.23668
758.495	43.79957
758.678	45.21902
758.861	43.75197
759.044	64.07477
759.227	38.31763
759.41	38.42636
759.592	52.48066
759.775	44.29046
759.958	55.32219
760.141	34.12597
760.324	72.9302
760.506	60.76035
760.689	56.73223
760.872	71.90412
761.054	50.36085
761.237	42.46279
761.42	49.8298
761.602	54.32034
761.785	49.07918
761.968	55.16489
762.15	64.21473
762.333	42.69757
762.515	47.08495
762.698	38.42339
762.88	50.64799
763.063	44.15562
763.245	49.28139
763.428	33.33742
763.61	36.32149
763.793	29.22084
763.975	44.17405
764.158	36.59321
764.34	35.82895
764.522	32.27346
764.705	39.03561
764.887	53.45191
765.069	28.5916
765.252	51.37287
765.434	50.7565
765.616	43.70991
765.799	39.75657
765.981	53.58604
766.163	38.56805
766.345	56.80765
766.528	39.95839
766.71	24.19045
766.892	48.13185
767.074	60.59231
767.256	44.69288
767.438	67.73564
767.62	51.22816
767.802	74.55702
767.985	57.16201
768.167	71.73194
768.349	41.64671
768.531	55.91326
768.713	54.26911
768.895	60.05999
769.077	58.47738
769.259	80.27723
769.441	116.80177
769.623	63.20244
769.804	72.64376
769.986	68.91592
770.168	85.29989
770.35	100.4144
770.532	73.97026
770.714	78.69871
770.896	80.96154
771.077	43.33987
771.259	82.95659
771.441	71.24207
771.623	88.78958
771.804	111.8286
771.986	39.62339
772.168	57.34106
772.35	87.50289
772.531	114.07553
772.713	67.22184
772.894	91.69123
773.076	67.34547
773.258	59.59205
773.439	88.04409
773.621	101.59636
773.802	50.30005
773.984	57.72805
774.166	76.54062
774.347	99.8369
774.529	88.65949
774.71	38.40268
774.891	68.42677
775.073	63.21549
775.254	100.58751
775.436	58.61802
775.617	111.89613
775.799	58.7507
775.98	99.89426
776.161	101.44605
776.343	103.96163
776.524	68.61734
776.705	64.43089
776.886	39.3751
777.068	72.07506
777.249	129.27519
777.43	114.79072
777.611	51.11187
777.793	62.32606
777.974	103.34474
778.155	59.11252
778.336	52.60082
778.517	117.43859
778.698	56.41164
778.879	37.87769
779.061	23.97604
779.242	78.58222
779.423	80.16511
779.604	61.70979
779.785	66.79229
779.966	75.15768
780.147	90.67119
780.328	95.42306
780.509	129.41818
780.69	83.1123
780.871	58.10706
781.051	43.98684
781.232	75.42578
781.413	72.10846
781.594	66.33208
781.775	60.99346
781.956	58.22179
782.137	34.95957
782.317	58.30197
782.498	77.697
782.679	68.47809
782.86	72.80573
783.04	57.36662
783.221	78.02934
783.402	112.86875
783.583	72.79003
783.763	85.57708
783.944	62.3262
784.124	45.0602
784.305	103.93579
784.486	83.36532
784.666	69.40247
784.847	40.52831
785.027	130.7564
785.208	54.68026
785.388	59.52732
785.569	58.0422
785.749	64.82697
785.93	61.03421
786.11	41.60991
786.291	79.93026
786.471	75.48048
786.652	88.44867
786.832	68.59276
787.012	74.76518
787.193	50.15249
787.373	72.06694
787.553	62.8568
787.734	75.61338
787.914	62.19817
788.094	78.10259
788.275	76.15398
788.455	62.93821
788.635	46.91042
788.815	72.35875
788.995	48.65373
789.176	40.35172
789.356	55.24864
789.536	64.351
789.716	81.6287
789.896	56.08318
790.076	58.0189
790.256	72.80823
790.436	30.61457
790.616	53.82084
790.796	75.9798
790.976	63.00858
791.156	54.62252
791.336	89.49421
791.516	79.04247
791.696	63.81382
791.876	42.27998
792.056	71.69462
792.236	88.5823
792.416	85.29026
792.596	79.6274
792.776	78.40846
792.956	84.02307
793.135	104.54849
793.315	50.77585
793.495	96.50951
793.675	86.87378
793.854	87.93134
794.034	90.26024
794.214	49.69346
794.394	87.17646
794.573	93.05993
794.753	72.9975
794.933	51.94691
795.112	73.85567
795.292	87.27554
795.472	111.1052
795.651	46.93939
795.831	66.56472
796.01	61.81712
796.19	64.66401
796.369	66.00152
796.549	78.07701
796.728	62.64423
796.908	43.26831
797.087	49.26172
797.267	60.33056
797.446	48.23979
797.626	80.39335
797.805	80.35927
797.984	54.63041
798.164	84.43467
798.343	51.12962
798.522	75.02356
798.702	69.87146
798.881	46.19496
799.06	64.49316
799.239	34.39175
799.419	51.89674
799.598	102.97157
799.777	80.65022
799.956	96.97602
800.136	60.91216
800.315	61.19105
800.494	79.6488
800.673	94.5578
800.852	84.84443
801.031	91.75008
801.21	81.4579
801.389	62.24763
801.568	75.08449
801.747	113.17045
801.926	76.12576
802.105	105.94806
802.284	58.11932
802.463	103.72758
802.642	72.42728
802.821	77.94816
803	99.63921
803.179	88.33451
803.358	96.14863
803.537	60.23446
803.716	74.1682
803.895	55.38555
804.073	70.26186
804.252	59.75001
804.431	83.14827
804.61	66.25636
804.789	92.17134
804.967	59.26172
805.146	58.52945
805.325	116.02158
805.503	81.61299
805.682	44.28325
805.861	132.62523
806.039	99.1175
806.218	59.06985
806.397	76.88616
806.575	70.7229
806.754	77.71892
806.932	54.51079
807.111	106.22254
807.289	88.93123
807.468	76.06594
807.646	99.49866
807.825	86.33475
808.003	75.53467
808.182	92.79703
808.36	76.48499
808.539	55.34496
808.717	111.75386
808.895	56.08366
809.074	83.2891
809.252	74.20682
809.43	87.47929
809.609	100.58817
809.787	117.58759
809.965	69.07214
810.144	76.71667
810.322	71.20595
810.5	83.96649
810.678	69.55981
810.856	128.49244
811.035	103.6181
811.213	92.77338
811.391	107.0181
811.569	80.65666
811.747	152.86449
811.925	102.9285
812.103	60.78372
812.281	74.77889
812.459	121.38968
812.637	122.96052
812.816	98.42671
812.994	127.36204
813.171	108.13282
813.349	90.98675
813.527	109.55012
813.705	111.95825
813.883	138.2037
814.061	104.15781
814.239	132.11841
814.417	125.6985
814.595	86.56403
814.773	85.66239
814.95	84.83622
815.128	87.38731
815.306	81.6759
815.484	79.5673
815.662	62.79647
815.839	56.37808
816.017	64.13938
816.195	112.12396
816.372	72.05688
816.55	94.99919
816.728	116.91543
816.905	77.49231
817.083	125.04911
817.261	77.08232
817.438	132.51739
817.616	126.11811
817.793	65.83666
817.971	101.26573
818.148	94.99685
818.326	112.85338
818.503	85.13632
818.681	113.00691
818.858	67.71153
819.036	75.01009
819.213	80.78611
819.391	59.76957
819.568	59.24042
819.745	54.88502
819.923	89.53662
820.1	60.73257
820.277	53.35886
820.455	64.94201
820.632	65.07638
820.809	64.34268
820.986	44.66117
821.164	36.93325
821.341	33.19958
821.518	41.89588
821.695	31.02671
821.872	30.2659
822.05	26.99112
822.227	22.67039
822.404	23.5969
822.581	27.26065
822.758	23.44458
822.935	23.75103
823.112	26.70025
823.289	22.73266
823.466	27.66657
823.643	26.24165
823.82	31.00162
823.997	29.69293
824.174	34.45867
824.351	43.49082
824.528	42.48399
824.705	40.37689
824.882	43.11593
825.059	55.0058
825.236	39.24315
825.412	42.51988
825.589	50.21961
825.766	65.66932
825.943	43.54346
826.12	50.66018
826.296	35.12872
826.473	42.45258
826.65	42.81105
826.827	51.73164
827.003	35.14486
827.18	38.02475
827.357	42.94032
827.533	39.77035
827.71	24.89794
827.887	36.00025
828.063	40.24484
828.24	35.16035
828.416	47.39131
828.593	39.90145
828.769	55.89054
828.946	62.87644
829.122	65.57332
829.299	61.5283
829.475	41.73088
829.652	62.65801
829.828	103.35047
830.005	66.24695
830.181	89.92311
830.357	63.66562
830.534	91.18536
830.71	70.61331
830.886	89.70571
831.063	89.80551
831.239	108.68011
831.415	56.29879
831.592	109.94879
831.768	73.25163
831.944	63.57424
832.12	104.79543
832.296	97.61189
832.473	86.03848
832.649	66.39391
832.825	80.11428
833.001	48.97964
833.177	71.41952
833.353	62.91327
833.529	37.76402
833.705	52.00251
833.881	39.73792
834.058	40.23146
834.234	43.27001
834.41	42.73128
834.586	34.40605
834.761	42.89789
834.937	46.26091
835.113	48.78055
835.289	44.49556
835.465	54.37612
835.641	48.63927
835.817	55.06506
835.993	97.33023
836.169	52.96131
836.344	72.45367
836.52	83.15452
836.696	81.49822
836.872	61.31282
837.048	151.95272
837.223	67.3235
837.399	132.42218
837.575	104.72178
837.75	98.05399
837.926	126.79459
838.102	209.85992
838.277	155.40415
838.453	197.45139
838.628	206.37047
838.804	90.98043
838.98	191.30041
839.155	99.01333
839.331	126.02358
839.506	84.77624
839.682	95.24435
839.857	106.97109
840.033	129.89719
840.208	70.58044
840.384	40.65042
840.559	72.75689
840.734	103.05987
840.91	143.74828
841.085	91.74262
841.26	95.05066
841.436	83.82797
841.611	82.85797
841.786	120.56195
841.962	172.75228
842.137	108.61362
842.312	71.69101
842.487	98.17316
842.663	73.83527
842.838	84.96008
843.013	290.5772
843.188	148.14831
843.363	143.19188
843.538	246.75597
843.714	260.96117
843.889	260.0204
844.064	261.46015
844.239	229.33815
844.414	276.0453
844.589	184.67703
844.764	343.67369
844.939	308.85321
845.114	390.64556
845.289	378.43924
845.464	398.68609
845.639	316.61464
845.814	150.10925
845.989	192.64741
846.163	199.59405
846.338	247.94366
846.513	358.76128
846.688	220.77121
846.863	214.42242
847.038	195.44165
847.212	230.95284
847.387	267.2808
847.562	275.03726
847.737	298.56102
847.911	117.11268
848.086	140.37473
848.261	485.01549
848.435	202.35218
848.61	312.59682
848.785	157.32606
848.959	320.67469
849.134	456.64119
849.308	529.18355
849.483	238.39745
849.658	364.2172
849.832	196.64783
850.007	162.51846
850.181	654.06175
850.356	185.15805
850.53	533.44469
850.705	143.7638
850.879	100.96286
851.053	208.93025
851.228	193.77376
851.402	303.26153
851.577	347.47421
851.751	441.49827
851.925	260.96975
852.099	122.13499
852.274	175.99311
852.448	217.09048
852.622	326.7751
852.797	241.50071
852.971	257.10684
853.145	256.77022
853.319	674.63115
853.493	368.68656
853.668	206.9535
853.842	436.39563
854.016	354.14849
854.19	404.3146
854.364	243.72382
854.538	278.34594
854.712	354.45739
854.886	231.82369
855.06	213.55435
855.234	87.42092
855.408	446.09817
855.582	358.36274
855.756	376.36537
855.93	457.41047
856.104	254.23667
856.278	357.23523
856.452	222.52415
856.626	318.95291
856.8	545.89386
856.973	306.23373
857.147	293.48195
857.321	305.96208
857.495	371.54631
857.669	252.18481
857.842	209.36184
858.016	355.17436
858.19	160.81474
858.364	870.27756
858.537	195.32644
858.711	246.09154
858.885	227.12804
859.058	212.16994
859.232	122.6142
859.405	132.04594
859.579	356.57643
859.753	308.06771
859.926	172.80484
860.1	114.38101
860.273	241.41098
860.447	464.35506
860.62	238.85554
860.794	482.91896
860.967	265.59907
861.141	364.38012
861.314	701.12916
861.487	314.60009
861.661	406.54421
861.834	541.6892
862.008	369.57028
862.181	257.70729
862.354	252.26325
862.528	320.95547
862.701	204.17426
862.874	145.10249
863.047	211.5364
863.221	204.5467
863.394	104.2431
863.567	375.59487
863.74	95.46685
863.913	373.93115
864.087	306.11283
864.26	345.46131
864.433	198.01378
864.606	545.57207
864.779	247.16749
864.952	124.12822
865.125	190.78544
865.298	247.07533
865.471	239.01046
865.644	512.93445
865.817	376.3109
865.99	350.05819
866.163	477.56714
866.336	209.36996
866.509	236.61038
866.682	198.97438
866.855	431.8357
867.028	151.88164
867.2	289.45257
867.373	112.15328
867.546	246.99514
867.719	602.91243
867.892	302.49957
868.064	166.51506
868.237	275.36313
868.41	270.86208
868.583	156.92784
868.755	150.70048
868.928	217.75375
869.101	597.19109
869.273	351.94512
869.446	294.18587
869.619	414.71647
869.791	232.83994
869.964	391.02672
870.136	366.54931
870.309	264.12354
870.481	255.03443
870.654	122.90002
870.826	283.02424
870.999	182.57576
871.171	285.83558
871.344	178.99138
871.516	202.19556
871.689	162.45205
871.861	216.99837
872.033	165.57318
872.206	197.94554
872.378	348.16324
872.55	193.81133
872.723	137.21359
872.895	202.51676
873.067	360.28889
873.24	354.17409
873.412	194.43203
873.584	217.10165
873.756	201.47456
873.928	259.2287
874.101	268.02411
874.273	281.87049
874.445	109.87343
874.617	140.40723
874.789	248.17375
874.961	216.02938
875.133	272.40046
875.305	223.38438
875.477	147.10372
875.649	117.12935
875.821	141.68136
875.993	416.62034
876.165	159.34247
876.337	240.90188
876.509	235.50851
876.681	250.24857
876.853	253.48057
877.025	246.34893
877.197	155.6466
877.369	139.36353
877.541	301.37449
877.712	84.79709
877.884	143.0589
878.056	264.9088
878.228	154.19957
878.4	262.21363
878.571	138.03577
878.743	96.13759
878.915	205.60861
879.086	129.41604
879.258	159.71821
879.43	139.10119
879.601	116.38652
879.773	129.91434
879.945	37.07633
880.116	52.66765
880.288	36.28802
880.459	39.17054
880.631	30.53392
880.802	35.66359
880.974	33.22475
881.145	24.25339
881.317	31.91474
881.488	24.75541
881.66	27.28621
881.831	25.19042
882.002	33.24208
882.174	25.9291
882.345	31.76442
882.517	20.62812
882.688	40.60827
882.859	33.27706
883.03	50.75522
883.202	51.84022
883.373	44.76769
883.544	45.71933
883.715	71.43166
883.887	63.60388
884.058	55.31744
884.229	77.70187
884.4	75.95918
884.571	90.61585
884.742	75.49859
884.914	81.49783
885.085	109.593
885.256	149.50259
885.427	118.6617
885.598	149.60382
885.769	144.87336
885.94	154.4687
886.111	99.47327
886.282	174.36615
886.453	129.96439
886.624	100.13099
886.795	187.0078
886.966	146.94233
887.136	197.39789
887.307	139.94476
887.478	265.61253
887.649	206.09215
887.82	242.53998
887.991	189.10449
888.161	254.7798
888.332	240.45691
888.503	120.64881
888.674	334.73182
888.844	405.36167
889.015	294.23707
889.186	128.60586
889.356	358.65897
889.527	120.83371
889.698	592.41933
889.868	170.25892
890.039	245.57281
890.209	213.5985
890.38	291.95225
890.551	262.92182
890.721	330.36767
890.892	298.80118
891.062	195.95721
891.233	266.55935
891.403	186.17536
891.574	144.14709
891.744	200.64018
891.914	221.13947
892.085	226.89209
892.255	81.66395
892.425	388.69809
892.596	233.3537
892.766	248.21249
892.936	281.5206
893.107	264.85938
893.277	150.78426
893.447	111.12325
893.618	82.02963
893.788	169.65165
893.958	91.52433
894.128	83.92293
894.298	97.30744
894.468	129.28315
894.639	62.09414
894.809	45.30746
894.979	69.18198
895.149	77.57248
895.319	62.97511
895.489	82.85739
895.659	117.69766
895.829	79.26164
895.999	86.4441
896.169	70.623
896.339	89.36321
896.509	173.16637
896.679	197.7159
896.849	195.12738
897.019	274.65819
897.189	217.67981
897.358	185.77018
897.528	271.46229
897.698	103.09529
897.868	248.05448
898.038	482.26674
898.208	477.59872
898.377	116.15253
898.547	465.42711
898.717	678.84801
898.886	245.34586
899.056	425.15147
899.226	689.47254
899.395	335.40967
899.565	593.4008
899.735	329.54432
899.904	553.8137
900.074	582.98813
900.244	210.13102
900.413	817.42046
900.583	169.73736
900.752	310.19414
900.922	787.11577
901.091	56.06637
901.261	459.27789
901.43	414.3358
901.599	374.33366
901.769	1425.89068
901.938	588.89685
902.108	463.4284
902.277	798.6267
902.446	150.37881
902.616	155.21692
902.785	209.50096
902.954	398.82856
903.124	257.444
903.293	179.70206
903.462	99.53508
903.631	146.52367
903.801	108.43545
903.97	57.87815
904.139	92.32563
904.308	76.82453
904.477	59.61885
904.646	41.716
904.816	56.92731
904.985	89.06285
905.154	138.46058
