Data from WindowProjectSample_Transmission__19__00019__07640732466332057.txt Node

Date: Mon May 05 17:12:46 EDT 2025
User: jessi
Spectrometer: SR400872
Trigger mode: 0
Integration Time (sec): 5.000010E-1
Scans to average: 20
Electric dark correction enabled: true
Nonlinearity correction enabled: true
Boxcar width: 0
XAxis mode: Wavelengths
Number of Pixels in Spectrum: 3648
>>>>>Begin Spectral Data<<<<<
184.909	21518.42339
185.132	-5203.83266
185.355	-3091.66688
185.578	-18052.82819
185.801	1640.16548
186.024	10492.97495
186.247	-1843.86571
186.47	1210.44979
186.693	385.36372
186.916	395.10047
187.139	-3705.81397
187.362	3345.63998
187.585	4635.33672
187.808	3566.93189
188.031	7.00608
188.254	-53875.01943
188.476	-1704.91518
188.699	6287.27033
188.922	576.89591
189.145	-15374.31216
189.368	-689.01474
189.591	-1444.60217
189.813	3075.9448
190.036	-50622.53469
190.259	-880.77779
190.482	-5065.49475
190.705	7215.29189
190.927	-2594.97729
191.15	13314.72984
191.373	3420.525
191.595	-8580.80866
191.818	-4191.20373
192.041	-6194.02296
192.263	-3364.27316
192.486	-832.56915
192.709	-3862.2673
192.931	7713.5405
193.154	-27983.49911
193.377	-2853.24107
193.599	-2499.60552
193.822	-9714.24698
194.044	-1937.27119
194.267	1267.79013
194.489	261.45295
194.712	-42252.69888
194.934	-32296.56699
195.157	1052.14929
195.379	1425.15677
195.602	-6739.03805
195.824	-1317.76209
196.047	-9050.86658
196.269	2732.35387
196.492	-6302.54398
196.714	29703.4587
196.936	-8807.76842
197.159	-1217.09239
197.381	1121.99984
197.604	428.43893
197.826	12245.07203
198.048	-10173.52143
198.271	-2873.10306
198.493	7360.29267
198.715	2353.68955
198.938	-540.5971
199.16	7479.83706
199.382	-101641.70896
199.604	2830.25661
199.827	-1025.986
200.049	-3034.75302
200.271	13741.39006
200.493	1243.65622
200.715	-38677.17206
200.938	-6039.10702
201.16	-4032.17435
201.382	19874.79306
201.604	2311.88297
201.826	2308.07356
202.048	-1789.74522
202.27	-1943.46259
202.492	-36423.59356
202.715	3004.08564
202.937	-4438.61019
203.159	-6385.1358
203.381	1555.796
203.603	6748.39299
203.825	6257.89608
204.047	2345.64604
204.269	-2816.8306
204.491	2212.40413
204.713	5763.52673
204.935	-468041.31399
205.156	1145.19159
205.378	-3094.12081
205.6	1619.81462
205.822	156521.59189
206.044	-930.31514
206.266	1630.97431
206.488	4475.65219
206.71	-5345.17158
206.932	1098.89702
207.153	12040.31278
207.375	-6728.69951
207.597	-38690.72379
207.819	-2803.31348
208.041	2346.55616
208.262	534.27174
208.484	791.24174
208.706	-792.57122
208.927	-802.56415
209.149	547.77025
209.371	-3033.04935
209.593	-292.99435
209.814	-820.86033
210.036	547.10505
210.258	-632.78763
210.479	1783.62972
210.701	1634.98146
210.922	3238.20268
211.144	-3747.045
211.366	2111.18342
211.587	7467.81103
211.809	-8260.30515
212.03	2151.41223
212.252	415.20264
212.473	2085.36735
212.695	-6440.41561
212.916	3009.62641
213.138	-644.38316
213.359	3816.36589
213.581	5216.34657
213.802	-758.75411
214.024	1124.69772
214.245	2083.74594
214.466	1825.29099
214.688	-2957.33851
214.909	-1146.82813
215.131	-1744.04151
215.352	-3066.7949
215.573	14533.73549
215.795	5238.09597
216.016	5425.90148
216.237	876.21485
216.459	3649.65884
216.68	1899.4929
216.901	4929.10033
217.122	-3118.67851
217.344	-11128.37339
217.565	3394.29902
217.786	8968.88599
218.007	15880.45087
218.228	-598.2073
218.45	5785.09207
218.671	779.31841
218.892	35737.27285
219.113	1515.15726
219.334	-425.52567
219.555	10092.55159
219.776	3032.2569
219.997	21895.52959
220.219	3181.90201
220.44	-12318.7237
220.661	459.35369
220.882	1517.79728
221.103	-1037.82807
221.324	2272.28704
221.545	2323.60812
221.766	-8737.73538
221.987	908.15666
222.208	1666.98469
222.429	4335.46869
222.65	183.02921
222.87	15158.52352
223.091	707.38008
223.312	597.08882
223.533	1320.53715
223.754	1482.18134
223.975	1400.11031
224.196	2046.10954
224.417	1371.76762
224.637	597.19901
224.858	133.74448
225.079	1128.21169
225.3	660.62338
225.521	3739.36591
225.741	464.74968
225.962	483.93941
226.183	145.34244
226.404	637.97932
226.624	416.04115
226.845	655.58355
227.066	411.25825
227.286	259.66841
227.507	133.24435
227.728	111.86081
227.948	244.77703
228.169	72.78074
228.389	87.56227
228.61	44.40547
228.831	63.68582
229.051	4.001
229.272	37.71234
229.492	56.76052
229.713	14.80465
229.933	37.56734
230.154	32.74736
230.374	53.65677
230.595	38.4263
230.815	22.06003
231.036	40.45266
231.256	-7.48398
231.477	69.62883
231.697	37.83189
231.917	39.99236
232.138	56.32379
232.358	113.87645
232.579	102.93462
232.799	21.11715
233.019	98.6628
233.24	113.65454
233.46	38.15485
233.68	65.56854
233.901	43.08213
234.121	25.52598
234.341	11.46517
234.561	-6.19862
234.782	20.20719
235.002	67.08766
235.222	-5.02692
235.442	64.95134
235.662	29.47086
235.883	60.58371
236.103	52.92299
236.323	40.02594
236.543	27.90539
236.763	39.26079
236.983	43.17231
237.203	41.53409
237.423	57.93928
237.643	85.71453
237.864	72.96005
238.084	19.59754
238.304	24.78986
238.524	42.31158
238.744	41.20959
238.964	73.34682
239.184	59.51865
239.404	64.54291
239.624	36.56366
239.843	58.35568
240.063	37.22275
240.283	21.98348
240.503	26.56129
240.723	26.55305
240.943	14.02705
241.163	19.55024
241.383	8.11794
241.603	7.58339
241.822	9.82215
242.042	6.51236
242.262	8.283
242.482	9.29296
242.702	10.78566
242.921	2.51269
243.141	7.17677
243.361	5.96741
243.581	9.55025
243.8	7.61516
244.02	4.91358
244.24	9.47477
244.459	9.32237
244.679	17.29529
244.899	11.73746
245.118	13.34719
245.338	12.44272
245.558	13.78038
245.777	8.49718
245.997	10.92692
246.216	10.37247
246.436	5.92582
246.655	4.81984
246.875	3.13628
247.094	6.40371
247.314	2.03773
247.533	3.65111
247.753	4.32524
247.972	3.40059
248.192	1.13958
248.411	1.80806
248.631	3.52776
248.85	4.74852
249.07	3.7333
249.289	5.77335
249.508	4.88104
249.728	7.58616
249.947	6.95822
250.166	8.60389
250.386	4.2229
250.605	6.46969
250.824	10.52315
251.044	7.03366
251.263	28.88459
251.482	14.54508
251.701	11.51308
251.921	0.14515
252.14	3.03978
252.359	3.49572
252.578	9.70106
252.798	3.55641
253.017	9.13586
253.236	3.84336
253.455	5.43453
253.674	10.37134
253.893	4.63029
254.112	7.87369
254.331	11.12373
254.551	9.405
254.77	4.05859
254.989	13.12563
255.208	8.91912
255.427	14.67212
255.646	12.38831
255.865	21.857
256.084	9.33281
256.303	10.90802
256.522	14.18737
256.741	3.38775
256.96	1.71624
257.179	8.6809
257.397	10.77698
257.616	5.8621
257.835	6.15602
258.054	15.55833
258.273	10.33055
258.492	10.92551
258.711	6.31593
258.93	3.26503
259.148	4.81477
259.367	4.39392
259.586	5.57581
259.805	2.4582
260.023	5.33836
260.242	3.95927
260.461	2.82552
260.68	1.24779
260.898	4.49717
261.117	1.35121
261.336	0.94462
261.554	3.53148
261.773	3.29444
261.992	1.00291
262.21	3.48521
262.429	3.53238
262.648	7.52507
262.866	8.04849
263.085	5.83293
263.303	4.80486
263.522	9.03729
263.74	8.72104
263.959	15.57268
264.178	7.12839
264.396	6.8059
264.615	4.74862
264.833	10.64497
265.051	8.63751
265.27	10.83589
265.488	11.05858
265.707	6.44023
265.925	10.8903
266.144	4.57184
266.362	5.79128
266.58	5.35093
266.799	5.0784
267.017	5.97453
267.235	5.25358
267.454	3.45247
267.672	1.7736
267.89	4.37036
268.109	4.52975
268.327	4.40942
268.545	1.1468
268.763	3.83578
268.982	1.43705
269.2	4.09694
269.418	2.93683
269.636	2.11821
269.854	4.44778
270.073	3.25853
270.291	2.09013
270.509	1.85416
270.727	4.40198
270.945	7.19282
271.163	7.10429
271.381	1.27214
271.599	3.39616
271.817	5.48931
272.036	1.83053
272.254	3.09723
272.472	2.49807
272.69	2.47871
272.908	2.30247
273.126	4.66807
273.344	5.19366
273.562	1.68432
273.779	2.43621
273.997	3.73132
274.215	4.13369
274.433	2.91394
274.651	4.44286
274.869	4.66741
275.087	2.81566
275.305	3.97879
275.523	2.66437
275.74	3.04388
275.958	5.37773
276.176	8.13321
276.394	2.46724
276.612	3.23922
276.829	3.19687
277.047	2.70233
277.265	2.91683
277.483	3.69606
277.7	4.28434
277.918	3.50724
278.136	6.12883
278.353	2.81289
278.571	1.68361
278.789	4.26244
279.006	0.87486
279.224	2.86532
279.442	5.07999
279.659	3.61836
279.877	2.45798
280.094	5.98502
280.312	1.31264
280.529	3.39721
280.747	0.85777
280.964	2.75728
281.182	6.03346
281.399	2.64393
281.617	3.99985
281.834	2.54522
282.052	1.91119
282.269	3.13236
282.487	2.51503
282.704	2.1587
282.921	2.28607
283.139	3.4983
283.356	4.22324
283.574	3.89505
283.791	1.87717
284.008	5.56156
284.226	2.93901
284.443	3.36738
284.66	4.54087
284.877	3.50794
285.095	1.94681
285.312	1.71137
285.529	0.89835
285.746	0.86597
285.964	2.00729
286.181	1.39713
286.398	1.92284
286.615	2.72597
286.832	2.61587
287.05	0.61738
287.267	1.87899
287.484	1.72912
287.701	2.63269
287.918	2.62131
288.135	2.686
288.352	1.2466
288.569	1.47064
288.786	2.43478
289.003	2.01502
289.22	2.90391
289.437	1.57125
289.654	3.00379
289.871	3.04489
290.088	2.94554
290.305	2.24582
290.522	1.71861
290.739	1.9703
290.956	3.19308
291.173	3.46448
291.39	3.48718
291.607	2.5323
291.824	1.77333
292.04	1.27495
292.257	2.81708
292.474	3.2177
292.691	2.02939
292.908	1.0838
293.125	1.73776
293.341	1.10209
293.558	5.01004
293.775	2.04912
293.992	2.15154
294.208	0.76761
294.425	1.54482
294.642	2.00845
294.858	3.00122
295.075	0.82672
295.292	2.05224
295.508	2.54921
295.725	4.27544
295.942	2.04862
296.158	1.70579
296.375	2.54996
296.591	2.01903
296.808	2.35837
297.024	2.67107
297.241	2.97167
297.458	3.23738
297.674	1.07222
297.891	2.73946
298.107	2.60979
298.323	2.12755
298.54	4.37441
298.756	2.63118
298.973	1.9197
299.189	4.45986
299.406	2.68402
299.622	4.19881
299.838	4.20916
300.055	4.13551
300.271	2.35241
300.487	2.7825
300.704	3.11015
300.92	2.5596
301.136	6.16419
301.353	4.50242
301.569	3.85095
301.785	4.09807
302.001	4.78098
302.218	4.33233
302.434	4.49118
302.65	3.04635
302.866	3.7722
303.083	6.43336
303.299	6.35947
303.515	4.48113
303.731	4.94051
303.947	3.28348
304.163	3.97576
304.379	4.72421
304.595	4.97435
304.812	3.91768
305.028	4.03954
305.244	4.54577
305.46	5.36535
305.676	5.64277
305.892	6.12604
306.108	5.59346
306.324	4.55419
306.54	6.58453
306.756	5.41904
306.972	5.26323
307.187	5.06805
307.403	6.20284
307.619	4.79013
307.835	6.18863
308.051	6.63021
308.267	4.39395
308.483	6.67798
308.699	5.92867
308.914	5.43606
309.13	5.32456
309.346	4.47161
309.562	4.85579
309.778	4.58702
309.993	6.16637
310.209	6.04622
310.425	4.91579
310.641	5.92986
310.856	5.28874
311.072	5.21819
311.288	5.9977
311.503	6.39406
311.719	4.75008
311.935	4.78619
312.15	6.82449
312.366	6.54772
312.581	6.7935
312.797	6.48793
313.013	7.24879
313.228	5.78094
313.444	5.97404
313.659	5.76736
313.875	6.73109
314.09	5.98619
314.306	7.50951
314.521	7.0413
314.737	6.96903
314.952	6.36968
315.168	6.49365
315.383	6.57406
315.599	5.93809
315.814	6.32187
316.029	7.06344
316.245	5.76115
316.46	4.85472
316.675	7.566
316.891	8.07227
317.106	9.30724
317.321	6.76884
317.537	7.2413
317.752	7.34484
317.967	7.52174
318.183	5.67508
318.398	6.39176
318.613	7.29973
318.828	8.02114
319.043	7.3024
319.259	6.58923
319.474	6.9081
319.689	8.09937
319.904	5.18773
320.119	7.68575
320.334	6.97531
320.549	6.74067
320.765	7.78533
320.98	7.27295
321.195	7.24679
321.41	7.05284
321.625	7.45361
321.84	8.41526
322.055	8.39977
322.27	6.47002
322.485	5.76902
322.7	7.5194
322.915	7.71638
323.13	6.64386
323.345	8.62179
323.56	8.11885
323.775	7.8137
323.989	7.77997
324.204	7.46922
324.419	8.63148
324.634	6.46188
324.849	7.46437
325.064	10.55972
325.279	8.60527
325.493	7.89878
325.708	8.29473
325.923	6.96067
326.138	7.49389
326.352	9.01458
326.567	8.53319
326.782	7.24511
326.997	7.36922
327.211	8.20173
327.426	8.07267
327.641	7.5713
327.855	6.43762
328.07	8.24844
328.285	9.47035
328.499	7.15574
328.714	7.89423
328.928	7.93438
329.143	7.61564
329.358	8.80336
329.572	8.69566
329.787	9.0707
330.001	10.10208
330.216	6.69797
330.43	9.91333
330.645	8.98698
330.859	8.56296
331.074	6.94299
331.288	8.03853
331.503	9.45545
331.717	7.05723
331.931	8.15038
332.146	8.33367
332.36	9.76623
332.575	8.49839
332.789	8.15806
333.003	8.55853
333.218	8.70133
333.432	7.84305
333.646	9.1875
333.86	10.12181
334.075	9.78361
334.289	7.84867
334.503	7.08912
334.717	9.0421
334.932	8.48219
335.146	9.17392
335.36	7.58066
335.574	8.96561
335.788	8.68141
336.003	9.28557
336.217	9.13246
336.431	8.73977
336.645	7.86011
336.859	7.39002
337.073	8.09525
337.287	8.64617
337.501	7.30332
337.715	9.08723
337.929	9.43152
338.143	7.94059
338.357	8.82628
338.571	8.60213
338.785	9.74176
338.999	8.58976
339.213	8.4959
339.427	8.03792
339.641	10.2166
339.855	8.65021
340.069	8.25746
340.283	9.72451
340.497	10.39733
340.711	9.52792
340.924	9.04277
341.138	8.14885
341.352	7.92996
341.566	9.12215
341.78	7.78151
341.993	8.70709
342.207	8.57367
342.421	9.42808
342.635	8.92647
342.848	9.04324
343.062	7.24732
343.276	8.75593
343.49	10.63259
343.703	8.71393
343.917	10.22131
344.131	10.23716
344.344	8.70261
344.558	9.24107
344.771	8.2892
344.985	10.75434
345.199	10.93413
345.412	9.99466
345.626	9.80073
345.839	8.24561
346.053	8.55518
346.266	8.91181
346.48	10.06516
346.693	9.93476
346.907	9.71532
347.12	8.7501
347.334	9.72635
347.547	9.90281
347.76	9.46615
347.974	10.43076
348.187	9.70356
348.401	9.16637
348.614	8.76789
348.827	9.32281
349.041	9.73245
349.254	8.3213
349.467	9.1441
349.681	8.82749
349.894	8.84458
350.107	10.6095
350.32	11.32299
350.534	8.75038
350.747	9.46137
350.96	9.19017
351.173	9.23007
351.386	9.6116
351.6	9.26668
351.813	9.44244
352.026	9.43397
352.239	8.94814
352.452	9.38691
352.665	10.71466
352.878	9.8
353.092	11.46164
353.305	10.40274
353.518	10.12371
353.731	9.06953
353.944	10.81939
354.157	9.68494
354.37	9.67928
354.583	9.12125
354.796	9.16563
355.009	10.76194
355.222	10.40581
355.435	10.16985
355.647	11.11204
355.86	9.80138
356.073	10.46471
356.286	9.87351
356.499	11.06639
356.712	10.92415
356.925	10.95355
357.138	11.08323
357.35	10.066
357.563	10.31622
357.776	10.84409
357.989	10.63087
358.201	11.14896
358.414	11.04421
358.627	11.81822
358.84	10.62887
359.052	10.00305
359.265	10.07536
359.478	11.50015
359.69	8.84829
359.903	11.41823
360.116	11.52393
360.328	9.77352
360.541	11.34153
360.753	10.43355
360.966	10.67514
361.179	10.89396
361.391	10.90474
361.604	10.67308
361.816	10.98774
362.029	11.07422
362.241	10.76107
362.454	11.15699
362.666	10.7334
362.879	11.82009
363.091	11.15095
363.304	11.01153
363.516	11.03953
363.728	10.61765
363.941	11.4915
364.153	11.32148
364.366	9.73828
364.578	10.48188
364.79	11.1432
365.003	11.36716
365.215	10.75279
365.427	11.56873
365.639	11.82882
365.852	11.21641
366.064	12.65621
366.276	10.98949
366.488	11.34648
366.701	10.76936
366.913	11.04362
367.125	10.96975
367.337	10.54449
367.549	10.89645
367.762	11.27846
367.974	11.21709
368.186	10.89214
368.398	12.00101
368.61	11.47163
368.822	11.78394
369.034	10.86928
369.246	11.88699
369.458	13.31255
369.67	10.62794
369.882	12.44198
370.094	9.90466
370.306	12.13844
370.518	11.18755
370.73	10.76902
370.942	10.96569
371.154	11.44593
371.366	11.25433
371.578	11.79674
371.79	11.26107
372.002	12.3095
372.214	13.21356
372.425	11.53537
372.637	12.73719
372.849	11.76114
373.061	10.23695
373.273	11.81363
373.484	11.72408
373.696	11.9922
373.908	10.02032
374.12	12.30398
374.331	11.88678
374.543	10.90078
374.755	11.0979
374.967	11.66056
375.178	12.33143
375.39	11.2651
375.602	11.77728
375.813	10.49765
376.025	11.07558
376.236	11.8465
376.448	12.01126
376.66	11.59336
376.871	11.76557
377.083	12.6629
377.294	13.18894
377.506	11.59679
377.717	12.98141
377.929	12.2486
378.14	11.80863
378.352	12.35798
378.563	12.50488
378.775	13.05964
378.986	11.44538
379.197	12.0102
379.409	11.40939
379.62	12.32408
379.832	12.20952
380.043	11.63825
380.254	12.1571
380.466	11.32325
380.677	13.96579
380.888	13.28366
381.1	13.90745
381.311	13.87628
381.522	12.42203
381.733	14.10273
381.945	12.2291
382.156	12.02656
382.367	11.90744
382.578	14.02478
382.789	14.0803
383.001	11.71309
383.212	13.40324
383.423	13.26285
383.634	13.05155
383.845	12.92375
384.056	12.1471
384.267	12.51963
384.478	12.47054
384.69	11.72081
384.901	12.8106
385.112	12.69525
385.323	13.81152
385.534	12.72536
385.745	12.69432
385.956	12.65428
386.167	11.98972
386.378	12.9478
386.588	12.24168
386.799	11.96648
387.01	11.73095
387.221	13.01352
387.432	12.59427
387.643	13.64314
387.854	12.58034
388.065	12.59159
388.275	12.5816
388.486	12.3467
388.697	12.61731
388.908	12.29688
389.119	13.49971
389.329	13.58492
389.54	12.74328
389.751	12.82351
389.962	13.56727
390.172	12.66642
390.383	12.58112
390.594	12.29313
390.804	12.25126
391.015	12.51708
391.226	13.06071
391.436	13.37968
391.647	13.21183
391.858	13.38795
392.068	11.96421
392.279	12.35111
392.489	13.35544
392.7	13.59979
392.91	12.622
393.121	12.57987
393.331	13.33714
393.542	13.60099
393.752	13.5676
393.963	13.35077
394.173	13.1679
394.384	13.28609
394.594	13.14866
394.804	12.46008
395.015	13.36871
395.225	13.51707
395.436	12.50371
395.646	13.46024
395.856	12.89828
396.067	12.10615
396.277	13.66263
396.487	13.27681
396.697	13.3179
396.908	13.36254
397.118	13.38755
397.328	13.13963
397.538	13.69749
397.749	12.47876
397.959	13.70965
398.169	13.26139
398.379	12.31007
398.589	13.38535
398.8	13.33418
399.01	13.36593
399.22	13.0492
399.43	14.50165
399.64	13.15423
399.85	13.55248
400.06	13.27777
400.27	12.64258
400.48	13.19699
400.69	13.94504
400.9	12.90507
401.11	12.58423
401.32	13.65317
401.53	12.86257
401.74	14.15293
401.95	13.48829
402.16	12.73875
402.37	13.36296
402.58	12.91651
402.79	13.45433
403	14.05103
403.209	12.86157
403.419	13.99407
403.629	12.8472
403.839	13.97045
404.049	13.78818
404.258	13.25592
404.468	12.97003
404.678	13.8286
404.888	14.32522
405.097	13.46689
405.307	13.41267
405.517	14.06289
405.727	13.83619
405.936	13.27963
406.146	13.80336
406.356	14.36521
406.565	13.51435
406.775	13.33811
406.984	13.32252
407.194	14.66682
407.404	13.44253
407.613	13.88736
407.823	14.05831
408.032	14.32257
408.242	14.12628
408.451	13.21883
408.661	13.3645
408.87	14.55303
409.08	13.06165
409.289	13.66065
409.499	13.78338
409.708	13.59979
409.918	12.37279
410.127	13.8174
410.336	14.62201
410.546	14.16989
410.755	13.49125
410.964	13.68343
411.174	13.24814
411.383	14.11074
411.592	14.00089
411.802	13.2167
412.011	14.11017
412.22	13.66857
412.429	14.92929
412.639	14.78534
412.848	14.20411
413.057	14.6067
413.266	14.48797
413.475	13.85906
413.685	14.1895
413.894	14.48987
414.103	14.48472
414.312	14.29127
414.521	13.65731
414.73	13.98883
414.939	15.15686
415.148	14.39336
415.357	14.25943
415.566	13.90287
415.776	13.91796
415.985	13.97584
416.194	14.48837
416.403	15.32829
416.611	13.37237
416.82	13.99401
417.029	14.4325
417.238	13.98586
417.447	13.93785
417.656	14.25958
417.865	14.08732
418.074	14.37932
418.283	14.57899
418.492	15.22522
418.7	14.89943
418.909	16.1652
419.118	15.29304
419.327	15.69695
419.536	15.70503
419.744	15.91748
419.953	17.31172
420.162	17.76617
420.371	17.43167
420.579	18.32244
420.788	19.16069
420.997	19.31396
421.205	20.01831
421.414	19.68482
421.623	20.00032
421.831	19.5671
422.04	20.16963
422.249	19.08421
422.457	19.27826
422.666	18.15047
422.874	18.93771
423.083	19.08201
423.291	19.04056
423.5	18.99817
423.708	19.66707
423.917	20.18531
424.125	19.87159
424.334	19.78297
424.542	21.51434
424.751	21.04821
424.959	20.64939
425.167	20.59748
425.376	20.34475
425.584	18.70287
425.793	18.47082
426.001	17.24994
426.209	17.00391
426.418	15.75999
426.626	15.20827
426.834	15.04281
427.042	15.37692
427.251	15.10179
427.459	15.8747
427.667	15.39734
427.875	14.75465
428.084	15.06065
428.292	16.0161
428.5	15.53939
428.708	14.77259
428.916	14.78391
429.124	15.31452
429.333	15.16222
429.541	15.07675
429.749	15.38043
429.957	15.33949
430.165	16.97719
430.373	14.60385
430.581	15.51715
430.789	16.23688
430.997	15.28436
431.205	15.01872
431.413	15.60445
431.621	15.30379
431.829	15.84118
432.037	15.32527
432.245	15.55909
432.453	15.94177
432.661	15.53273
432.869	16.65822
433.076	15.29076
433.284	15.73788
433.492	16.22993
433.7	16.50562
433.908	15.87219
434.116	15.97117
434.323	15.99234
434.531	15.95297
434.739	16.19493
434.947	16.33451
435.154	16.26682
435.362	15.81102
435.57	15.74321
435.778	15.46875
435.985	16.03417
436.193	15.54872
436.401	16.51828
436.608	15.71354
436.816	15.65781
437.023	16.67986
437.231	16.81009
437.439	16.13342
437.646	16.21115
437.854	16.11059
438.061	16.38787
438.269	15.93486
438.476	16.34858
438.684	16.04811
438.891	15.95025
439.099	15.70754
439.306	15.65671
439.514	15.83579
439.721	16.9278
439.929	16.74398
440.136	17.74063
440.343	17.95936
440.551	18.10079
440.758	19.68764
440.965	18.2489
441.173	18.12094
441.38	17.99057
441.587	17.52834
441.795	17.3055
442.002	16.65962
442.209	16.57668
442.416	16.73711
442.624	16.6355
442.831	16.42316
443.038	15.97537
443.245	15.71505
443.452	16.15338
443.66	16.53532
443.867	16.05009
444.074	16.00277
444.281	15.91811
444.488	16.14304
444.695	16.39289
444.902	16.18266
445.109	17.60556
445.316	17.62238
445.523	18.44766
445.73	18.98817
445.937	20.15387
446.144	20.70997
446.351	21.44456
446.558	20.34308
446.765	22.62179
446.972	21.54285
447.179	21.28266
447.386	21.71953
447.593	19.78027
447.8	20.60348
448.007	18.70219
448.214	17.79562
448.42	17.12903
448.627	17.21236
448.834	16.6756
449.041	16.50124
449.248	16.51097
449.454	16.97141
449.661	17.3609
449.868	16.3007
450.075	16.40978
450.281	15.46987
450.488	15.96587
450.695	16.00002
450.901	16.15821
451.108	16.1514
451.315	16.99663
451.521	16.31647
451.728	16.98132
451.935	16.15778
452.141	16.50503
452.348	16.49623
452.554	16.70386
452.761	16.37232
452.967	17.59755
453.174	16.86325
453.38	16.96439
453.587	16.15555
453.793	16.81847
454	17.19091
454.206	17.88127
454.413	17.32178
454.619	17.03579
454.825	16.34661
455.032	17.14748
455.238	17.29123
455.445	16.21095
455.651	16.85272
455.857	15.97915
456.064	16.56539
456.27	16.45976
456.476	16.45902
456.682	16.16348
456.889	16.95079
457.095	16.94875
457.301	17.98998
457.507	16.74733
457.714	16.79024
457.92	16.77152
458.126	16.39378
458.332	16.65071
458.538	16.52116
458.744	16.62529
458.951	16.75438
459.157	19.22022
459.363	18.9706
459.569	19.63721
459.775	20.55414
459.981	20.59052
460.187	21.23541
460.393	21.31155
460.599	21.4431
460.805	20.24443
461.011	19.03103
461.217	18.31736
461.423	17.78831
461.629	17.20147
461.835	17.46495
462.041	16.91981
462.247	17.91195
462.453	16.91826
462.658	17.05148
462.864	17.42515
463.07	17.02598
463.276	17.12909
463.482	17.06603
463.688	17.77121
463.893	16.83017
464.099	17.0277
464.305	17.93587
464.511	16.91042
464.716	17.0251
464.922	17.73031
465.128	16.78217
465.333	18.16625
465.539	17.62299
465.745	17.22552
465.95	17.2793
466.156	18.76799
466.362	17.97625
466.567	17.24565
466.773	16.97966
466.978	18.13748
467.184	16.88536
467.389	16.49852
467.595	17.61397
467.8	17.08775
468.006	18.17072
468.211	18.05131
468.417	16.90175
468.622	17.68008
468.828	17.92481
469.033	17.7969
469.239	18.9374
469.444	17.32651
469.649	17.9075
469.855	17.57122
470.06	17.39533
470.266	17.12352
470.471	17.84113
470.676	17.73187
470.881	16.69799
471.087	18.44137
471.292	19.05606
471.497	16.90163
471.703	17.60709
471.908	17.30786
472.113	17.70189
472.318	17.97758
472.523	17.10241
472.729	17.87938
472.934	17.86803
473.139	17.38771
473.344	17.79024
473.549	18.21075
473.754	17.32572
473.959	19.17901
474.164	17.25102
474.369	17.6734
474.575	18.07399
474.78	17.70876
474.985	17.27593
475.19	16.60526
475.395	17.31641
475.6	17.61396
475.804	18.4277
476.009	17.59606
476.214	17.69169
476.419	17.53584
476.624	16.83289
476.829	17.28455
477.034	18.12504
477.239	17.40557
477.444	17.99484
477.648	18.08874
477.853	18.00915
478.058	17.66349
478.263	17.39681
478.468	17.40044
478.672	17.32289
478.877	18.59426
479.082	18.61585
479.287	18.0945
479.491	17.86784
479.696	17.44753
479.901	18.30218
480.105	18.08171
480.31	17.4666
480.515	17.75017
480.719	18.89564
480.924	17.59406
481.128	17.29172
481.333	18.00549
481.538	17.97966
481.742	18.63296
481.947	20.13423
482.151	21.71619
482.356	23.31013
482.56	26.82747
482.765	29.99956
482.969	35.48067
483.174	40.34105
483.378	46.43557
483.582	49.18035
483.787	52.70452
483.991	54.71016
484.196	55.98866
484.4	55.55073
484.604	56.00221
484.809	52.25348
485.013	49.2022
485.217	44.64174
485.422	39.78037
485.626	35.74649
485.83	33.11745
486.034	31.59837
486.239	31.84459
486.443	32.54198
486.647	33.52679
486.851	35.16408
487.055	37.66058
487.26	38.54734
487.464	40.35267
487.668	40.49762
487.872	41.86127
488.076	41.92679
488.28	40.66175
488.484	38.64599
488.688	37.26592
488.892	35.3278
489.096	32.61984
489.3	30.27675
489.504	28.04843
489.708	26.27774
489.912	25.30241
490.116	24.59524
490.32	24.24736
490.524	25.85547
490.728	27.45887
490.932	29.33362
491.136	31.13942
491.34	33.20297
491.544	34.04814
491.748	34.73936
491.951	34.98382
492.155	34.46513
492.359	33.60792
492.563	31.37968
492.767	29.63403
492.97	26.64808
493.174	23.87749
493.378	21.6817
493.582	19.32885
493.785	18.30963
493.989	18.27266
494.193	18.34696
494.396	18.08076
494.6	18.6783
494.804	18.21797
495.007	17.88542
495.211	18.00537
495.414	18.13317
495.618	18.3762
495.822	18.92245
496.025	18.34219
496.229	18.66607
496.432	18.08204
496.636	18.52701
496.839	18.37623
497.043	19.16708
497.246	18.76968
497.45	18.43137
497.653	18.68093
497.856	18.7162
498.06	18.17584
498.263	18.45535
498.467	18.32067
498.67	18.88256
498.873	18.70853
499.077	18.49869
499.28	18.50513
499.483	18.69085
499.686	18.90037
499.89	18.65021
500.093	18.94925
500.296	18.12695
500.499	19.33479
500.703	18.47999
500.906	18.75257
501.109	19.42094
501.312	18.64556
501.515	18.46751
501.719	18.65911
501.922	19.17143
502.125	18.62923
502.328	18.48637
502.531	18.06526
502.734	18.59257
502.937	17.75101
503.14	18.58953
503.343	18.09701
503.546	18.34786
503.749	18.19919
503.952	19.00274
504.155	18.3717
504.358	18.7914
504.561	18.81328
504.764	17.97852
504.967	18.76366
505.17	18.58567
505.373	19.44192
505.576	18.61591
505.778	18.99332
505.981	18.20453
506.184	19.20182
506.387	17.76466
506.59	19.58294
506.793	19.05806
506.995	18.89107
507.198	17.78396
507.401	18.81002
507.604	18.88912
507.806	18.26301
508.009	18.38487
508.212	19.14148
508.414	18.43357
508.617	18.53289
508.82	18.81203
509.022	19.49505
509.225	18.85378
509.427	18.07771
509.63	19.32547
509.833	18.8352
510.035	18.50483
510.238	18.05554
510.44	19.42296
510.643	17.87182
510.845	19.72359
511.048	19.00848
511.25	18.41544
511.453	18.72854
511.655	18.85088
511.858	18.57293
512.06	19.22918
512.262	18.88337
512.465	19.21585
512.667	18.56374
512.869	18.34081
513.072	19.02074
513.274	19.24041
513.476	19.0883
513.679	19.2319
513.881	18.36592
514.083	19.55257
514.286	18.37402
514.488	18.54801
514.69	18.33981
514.892	18.05002
515.094	19.16344
515.297	18.30292
515.499	18.83712
515.701	18.42758
515.903	19.56022
516.105	19.59284
516.307	19.11815
516.509	17.85629
516.711	18.11065
516.913	18.66145
517.116	18.7621
517.318	18.54447
517.52	19.40476
517.722	19.12379
517.924	18.25375
518.126	19.15803
518.328	18.92874
518.529	19.75098
518.731	20.69256
518.933	19.39148
519.135	19.59057
519.337	20.11558
519.539	19.32666
519.741	18.41119
519.943	18.83062
520.145	18.91942
520.346	19.29765
520.548	18.7473
520.75	19.03298
520.952	18.75168
521.153	19.08814
521.355	19.30983
521.557	18.44116
521.759	18.82471
521.96	18.79674
522.162	18.32108
522.364	19.35247
522.565	18.64642
522.767	19.23942
522.969	19.38713
523.17	19.17119
523.372	19.21236
523.573	18.65916
523.775	18.69076
523.977	18.47184
524.178	19.75381
524.38	18.50167
524.581	19.11612
524.783	18.70356
524.984	19.12492
525.186	19.07407
525.387	20.00663
525.589	20.29742
525.79	20.76476
525.991	20.99798
526.193	21.77543
526.394	21.40772
526.596	22.29505
526.797	22.81861
526.998	22.48053
527.2	23.7651
527.401	26.46582
527.602	28.86058
527.803	32.88772
528.005	35.71034
528.206	38.77842
528.407	41.0207
528.608	42.12664
528.81	43.16382
529.011	43.05952
529.212	43.97007
529.413	41.9096
529.614	39.64115
529.815	36.9251
530.017	33.80415
530.218	29.95451
530.419	26.75897
530.62	25.25952
530.821	23.75291
531.022	21.91394
531.223	22.15987
531.424	21.63645
531.625	21.79685
531.826	21.4513
532.027	22.29721
532.228	24.19101
532.429	25.03219
532.63	26.26542
532.831	28.04319
533.032	28.6935
533.233	29.88716
533.433	29.66069
533.634	30.18477
533.835	29.3204
534.036	28.40435
534.237	27.24844
534.438	25.44533
534.638	23.19971
534.839	21.64532
535.04	20.67573
535.241	19.56982
535.441	20.19161
535.642	19.85086
535.843	19.67591
536.043	20.12776
536.244	20.62194
536.445	21.09357
536.645	22.01662
536.846	21.8187
537.047	22.11141
537.247	20.99523
537.448	20.47964
537.648	19.88888
537.849	19.27349
538.049	19.13869
538.25	19.46678
538.451	19.27365
538.651	18.6339
538.851	19.36367
539.052	19.61282
539.252	19.40396
539.453	18.98928
539.653	19.22281
539.854	19.06629
540.054	19.23757
540.254	21.95228
540.455	24.119
540.655	25.5532
540.855	28.50697
541.056	30.39331
541.256	31.16941
541.456	32.59228
541.657	32.77506
541.857	33.50153
542.057	31.95046
542.257	31.05681
542.458	30.43037
542.658	28.9414
542.858	26.07856
543.058	25.04952
543.258	23.73264
543.458	21.73207
543.659	20.77222
543.859	20.98233
544.059	20.35229
544.259	19.36778
544.459	19.94439
544.659	19.1261
544.859	19.48872
545.059	19.04808
545.259	19.62195
545.459	19.3995
545.659	19.71209
545.859	19.32172
546.059	19.53546
546.259	19.04332
546.459	18.74374
546.659	18.9812
546.859	19.85117
547.059	19.60882
547.258	19.65854
547.458	19.7348
547.658	18.94945
547.858	18.92801
548.058	19.51463
548.258	19.219
548.457	18.78032
548.657	20.52107
548.857	19.25465
549.057	19.71303
549.256	19.4182
549.456	18.84949
549.656	18.29271
549.855	20.26574
550.055	18.92163
550.255	20.06942
550.454	19.37866
550.654	19.46435
550.853	20.13331
551.053	19.56058
551.253	19.43231
551.452	19.38713
551.652	18.57003
551.851	18.4552
552.051	19.16114
552.25	19.00223
552.45	18.93302
552.649	19.0716
552.849	18.91209
553.048	19.47449
553.248	19.83376
553.447	18.73321
553.646	19.86704
553.846	20.72143
554.045	20.11813
554.244	18.53849
554.444	20.17234
554.643	18.67954
554.842	20.17246
555.042	20.33306
555.241	18.8749
555.44	18.51654
555.64	19.59282
555.839	20.13707
556.038	19.52892
556.237	18.80243
556.436	19.42776
556.636	19.40519
556.835	18.64052
557.034	20.21108
557.233	19.27537
557.432	18.20019
557.631	19.85543
557.83	19.2161
558.029	18.81973
558.228	18.72235
558.427	18.56299
558.626	19.54914
558.825	18.41359
559.024	19.06909
559.223	20.37237
559.422	19.09467
559.621	19.4604
559.82	17.55669
560.019	19.07465
560.218	18.88017
560.417	17.76834
560.616	18.62776
560.815	21.34152
561.014	18.25223
561.212	20.20527
561.411	19.36871
561.61	18.34131
561.809	18.94601
562.008	20.35546
562.206	19.02868
562.405	19.56056
562.604	19.07053
562.803	19.27962
563.001	19.14578
563.2	18.32142
563.399	19.31371
563.597	18.48501
563.796	19.07509
563.995	18.42182
564.193	19.67511
564.392	18.93326
564.59	20.53496
564.789	17.91408
564.988	19.04036
565.186	19.41484
565.385	19.04536
565.583	19.03998
565.782	19.24581
565.98	19.12053
566.179	19.26176
566.377	18.74107
566.575	18.85167
566.774	20.20711
566.972	19.99979
567.171	20.79755
567.369	20.22775
567.567	19.38499
567.766	19.49958
567.964	18.05327
568.162	19.52885
568.361	20.08654
568.559	19.04794
568.757	19.1844
568.956	19.07531
569.154	19.26267
569.352	19.63748
569.55	19.27956
569.748	19.24586
569.947	18.6463
570.145	18.63946
570.343	18.63844
570.541	20.28338
570.739	18.45461
570.937	19.25814
571.135	19.62626
571.333	20.73928
571.532	20.55894
571.73	19.45961
571.928	20.05779
572.126	19.767
572.324	19.14456
572.522	20.16102
572.72	21.32243
572.918	19.40891
573.116	19.6387
573.313	19.24253
573.511	19.15454
573.709	18.88355
573.907	19.79589
574.105	19.03496
574.303	18.24793
574.501	18.32738
574.699	19.68779
574.896	19.54083
575.094	19.82013
575.292	18.46351
575.49	19.95478
575.688	19.22728
575.885	20.28081
576.083	21.0813
576.281	19.66883
576.478	18.76743
576.676	19.726
576.874	18.32454
577.071	19.25891
577.269	20.80053
577.467	19.22274
577.664	19.15215
577.862	19.89333
578.059	18.65739
578.257	19.9678
578.455	18.96539
578.652	19.09442
578.85	17.8529
579.047	19.33673
579.245	18.93521
579.442	19.11696
579.64	18.93687
579.837	17.84371
580.034	21.25607
580.232	18.96759
580.429	18.28391
580.627	19.73799
580.824	20.16209
581.021	19.59089
581.219	18.97201
581.416	18.70813
581.613	20.11404
581.811	20.301
582.008	18.66097
582.205	19.84613
582.402	19.45414
582.6	20.89857
582.797	19.33589
582.994	19.5586
583.191	19.93331
583.388	19.15098
583.586	20.12731
583.783	20.17324
583.98	18.27836
584.177	19.09281
584.374	17.16907
584.571	18.83612
584.768	19.09219
584.965	18.79428
585.162	19.8956
585.359	20.46206
585.556	19.30765
585.753	19.37522
585.95	18.39088
586.147	18.46689
586.344	19.66915
586.541	18.80013
586.738	18.25845
586.935	19.308
587.132	18.65261
587.329	20.1019
587.526	19.26256
587.722	23.35623
587.919	18.22942
588.116	19.68187
588.313	20.39176
588.51	21.07307
588.706	19.20363
588.903	19.86131
589.1	20.23817
589.297	21.78674
589.493	19.45562
589.69	19.89261
589.887	18.92597
590.083	18.46879
590.28	18.94727
590.477	20.14455
590.673	20.11032
590.87	20.63513
591.067	18.95793
591.263	19.60745
591.46	19.5486
591.656	19.1225
591.853	20.81667
592.049	18.6726
592.246	18.95192
592.442	20.14479
592.639	20.43299
592.835	18.62144
593.032	19.59858
593.228	18.41482
593.425	18.20339
593.621	18.06655
593.817	19.77231
594.014	18.7951
594.21	19.74718
594.406	20.51549
594.603	19.84608
594.799	18.96349
594.995	17.71082
595.192	20.3962
595.388	19.21478
595.584	19.23495
595.78	18.31826
595.977	21.84244
596.173	21.08878
596.369	19.37024
596.565	18.96686
596.761	18.61671
596.957	20.71974
597.154	19.17441
597.35	19.35412
597.546	19.2565
597.742	20.25334
597.938	19.98833
598.134	19.08404
598.33	19.71724
598.526	20.61178
598.722	19.55723
598.918	20.86492
599.114	19.98678
599.31	18.38906
599.506	19.47184
599.702	18.57848
599.898	19.50637
600.094	20.21363
600.29	20.21034
600.485	20.20355
600.681	18.67129
600.877	21.16883
601.073	19.66339
601.269	21.33859
601.465	20.88091
601.66	18.6409
601.856	17.82009
602.052	21.50945
602.248	19.35699
602.443	18.09083
602.639	18.57526
602.835	18.88428
603.03	18.91241
603.226	20.49654
603.422	18.95994
603.617	19.6828
603.813	19.63132
604.009	19.46342
604.204	20.89803
604.4	18.90928
604.595	20.82287
604.791	19.1133
604.986	20.05435
605.182	19.41893
605.377	19.57552
605.573	19.53555
605.768	19.74979
605.964	20.22045
606.159	20.2088
606.355	20.55034
606.55	19.18483
606.746	20.29793
606.941	19.47157
607.136	21.34498
607.332	22.27679
607.527	18.48895
607.722	19.82901
607.918	19.47714
608.113	18.93369
608.308	20.64285
608.503	20.26017
608.699	20.22313
608.894	20.54321
609.089	19.38057
609.284	20.31903
609.479	19.63172
609.675	20.59635
609.87	19.82192
610.065	20.79032
610.26	21.05832
610.455	20.84647
610.65	20.181
610.845	20.39974
611.04	20.84688
611.235	19.69196
611.43	19.7814
611.625	18.91818
611.82	21.31697
612.015	19.4567
612.21	21.59211
612.405	18.6748
612.6	21.58577
612.795	21.49845
612.99	20.53272
613.185	18.89858
613.38	19.26014
613.575	19.91985
613.77	23.08045
613.965	18.30337
614.159	19.14514
614.354	21.28677
614.549	20.9164
614.744	20.3498
614.938	19.02702
615.133	18.50427
615.328	21.35483
615.523	21.05921
615.717	22.78565
615.912	19.40767
616.107	19.77599
616.301	19.68322
616.496	19.34158
616.691	21.66739
616.885	20.73564
617.08	23.34389
617.274	20.92137
617.469	21.98722
617.664	20.58885
617.858	19.52961
618.053	20.44656
618.247	19.59267
618.442	17.51591
618.636	21.61054
618.831	19.33461
619.025	19.29454
619.219	23.2008
619.414	16.95894
619.608	19.75895
619.803	19.67361
619.997	22.60429
620.191	21.19187
620.386	20.18157
620.58	19.85918
620.774	18.09937
620.969	18.33006
621.163	20.01596
621.357	18.9233
621.551	19.5776
621.746	20.00949
621.94	19.47266
622.134	23.70939
622.328	22.18276
622.522	18.59054
622.716	21.12129
622.911	21.15166
623.105	21.05626
623.299	20.67804
623.493	23.72982
623.687	19.02531
623.881	19.26062
624.075	20.77188
624.269	21.66699
624.463	17.86644
624.657	18.18404
624.851	20.90871
625.045	20.88016
625.239	21.17684
625.433	19.92475
625.627	22.26466
625.821	19.74273
626.015	19.52526
626.209	20.58709
626.403	18.69306
626.596	20.8453
626.79	21.107
626.984	19.1851
627.178	21.00053
627.372	21.04221
627.565	21.28035
627.759	19.08574
627.953	19.2519
628.147	20.71146
628.34	21.24864
628.534	22.96267
628.728	19.91208
628.921	21.29521
629.115	21.05987
629.309	21.39195
629.502	21.45093
629.696	20.43468
629.89	20.4228
630.083	20.60297
630.277	20.77042
630.47	22.08632
630.664	19.71858
630.857	18.66892
631.051	21.10666
631.244	21.54023
631.438	21.33153
631.631	19.84673
631.825	21.94761
632.018	20.67026
632.212	22.35865
632.405	21.69617
632.598	19.27035
632.792	20.35299
632.985	17.74289
633.178	20.10228
633.372	20.32488
633.565	20.24305
633.758	21.83304
633.952	19.53317
634.145	19.37798
634.338	20.47031
634.531	19.68526
634.724	19.64805
634.918	20.57351
635.111	20.11379
635.304	19.99541
635.497	23.39755
635.69	20.85033
635.883	21.95192
636.077	18.97945
636.27	20.94885
636.463	20.7452
636.656	20.73101
636.849	20.29918
637.042	21.3154
637.235	22.70189
637.428	21.44615
637.621	20.9334
637.814	22.34386
638.007	22.64972
638.2	22.52358
638.393	22.74679
638.586	18.59902
638.778	20.07527
638.971	20.0365
639.164	22.39651
639.357	20.79386
639.55	22.61997
639.743	21.59
639.935	21.19908
640.128	23.67158
640.321	21.48404
640.514	20.91036
640.707	23.8854
640.899	21.11349
641.092	18.07905
641.285	36.21107
641.477	17.55729
641.67	24.27973
641.863	22.74272
642.055	20.89997
642.248	20.55529
642.441	20.2368
642.633	21.42594
642.826	22.14157
643.018	22.85788
643.211	23.63697
643.403	23.75268
643.596	24.25262
643.788	23.01722
643.981	20.41558
644.173	22.09479
644.366	20.34647
644.558	18.08839
644.751	22.68124
644.943	19.29053
645.135	23.17656
645.328	23.31971
645.52	21.80163
645.712	22.419
645.905	25.75236
646.097	19.06116
646.289	21.34564
646.482	24.6883
646.674	19.81162
646.866	22.89531
647.058	21.58119
647.251	19.34492
647.443	20.18638
647.635	20.80048
647.827	19.0561
648.019	19.41442
648.211	20.62358
648.404	21.35011
648.596	24.14854
648.788	21.46461
648.98	21.64695
649.172	21.8826
649.364	21.58079
649.556	18.42311
649.748	25.9452
649.94	19.54621
650.132	22.46766
650.324	19.95483
650.516	20.28856
650.708	23.30574
650.9	19.05181
651.092	18.73394
651.284	19.30699
651.476	19.84551
651.667	22.79002
651.859	24.05323
652.051	21.00485
652.243	21.95501
652.435	20.79662
652.627	22.55271
652.818	22.57278
653.01	18.85561
653.202	20.2128
653.394	20.58194
653.585	22.06777
653.777	29.1402
653.969	23.94948
654.16	23.61126
654.352	19.74807
654.544	21.24847
654.735	22.87068
654.927	21.72994
655.118	24.24067
655.31	22.68262
655.502	23.52638
655.693	21.39029
655.885	22.69722
656.076	24.12857
656.268	22.21716
656.459	24.56407
656.651	24.03528
656.842	20.74006
657.034	20.53319
657.225	23.37245
657.416	24.64172
657.608	24.13185
657.799	21.98947
657.99	24.413
658.182	21.24011
658.373	21.26752
658.564	24.17211
658.756	23.00717
658.947	22.0543
659.138	20.94219
659.33	21.66924
659.521	21.35831
659.712	22.01521
659.903	22.03167
660.094	21.48321
660.286	19.82814
660.477	25.41163
660.668	23.25234
660.859	22.01764
661.05	19.80771
661.241	22.56378
661.432	22.627
661.623	21.32299
661.814	21.12461
662.006	19.40563
662.197	22.491
662.388	24.55483
662.579	22.55887
662.77	24.35106
662.96	26.95706
663.151	24.02132
663.342	18.74626
663.533	23.37476
663.724	21.84079
663.915	25.75204
664.106	21.74412
664.297	25.60171
664.488	23.09482
664.678	20.9406
664.869	24.13887
665.06	23.64827
665.251	22.94696
665.442	23.47473
665.632	20.40248
665.823	25.98396
666.014	17.15904
666.204	24.08997
666.395	25.22484
666.586	26.81255
666.776	24.04014
666.967	26.19359
667.158	22.78445
667.348	25.22411
667.539	20.93923
667.729	24.59147
667.92	21.39681
668.111	24.7865
668.301	24.15458
668.492	22.36317
668.682	23.44002
668.873	23.0067
669.063	20.56532
669.253	23.54815
669.444	26.0355
669.634	23.11122
669.825	26.69236
670.015	25.44805
670.206	21.64872
670.396	26.67483
670.586	22.55621
670.777	23.96445
670.967	19.16254
671.157	22.44345
671.347	21.39838
671.538	25.7907
671.728	24.33582
671.918	27.27159
672.108	24.60326
672.299	22.59551
672.489	23.68416
672.679	21.20716
672.869	24.32644
673.059	28.26633
673.249	24.20009
673.44	21.08528
673.63	22.85214
673.82	25.28134
674.01	20.93924
674.2	24.20018
674.39	29.39852
674.58	24.71563
674.77	23.50487
674.96	22.40862
675.15	32.27029
675.34	25.68645
675.53	23.55221
675.72	22.75487
675.91	19.98866
676.099	28.02363
676.289	28.64898
676.479	26.20921
676.669	22.34121
676.859	25.02521
677.049	21.98051
677.238	23.42296
677.428	27.7397
677.618	25.26752
677.808	28.3766
677.997	25.54675
678.187	21.96674
678.377	24.18843
678.567	23.0642
678.756	23.10085
678.946	24.33256
679.136	21.26257
679.325	23.14661
679.515	22.35356
679.704	21.62282
679.894	26.29115
680.084	25.26795
680.273	27.0878
680.463	22.93911
680.652	22.70118
680.842	24.85405
681.031	26.46421
681.221	22.64615
681.41	25.84808
681.6	23.84055
681.789	25.82429
681.978	27.01927
682.168	24.94062
682.357	24.28845
682.547	25.48007
682.736	25.02836
682.925	27.63659
683.115	27.48211
683.304	26.78927
683.493	24.6118
683.682	25.70893
683.872	25.61015
684.061	27.43048
684.25	26.43118
684.439	29.86021
684.629	27.09799
684.818	32.90403
685.007	25.01314
685.196	24.26469
685.385	29.70597
685.574	25.83579
685.763	26.13406
685.952	25.82122
686.142	22.21366
686.331	29.18105
686.52	21.76617
686.709	30.45385
686.898	29.55468
687.087	27.24399
687.276	29.62108
687.465	28.43481
687.654	25.48654
687.842	29.73732
688.031	23.11679
688.22	29.34098
688.409	26.13331
688.598	26.44932
688.787	32.33868
688.976	26.12546
689.165	31.06729
689.353	24.76714
689.542	27.5534
689.731	28.52667
689.92	31.92277
690.108	28.26107
690.297	25.00717
690.486	26.86515
690.675	28.15001
690.863	30.94072
691.052	30.21593
691.241	26.75813
691.429	27.71959
691.618	30.02747
691.806	23.62301
691.995	25.30932
692.184	26.73303
692.372	25.38528
692.561	27.21194
692.749	27.05511
692.938	35.64
693.126	28.63531
693.315	26.18137
693.503	28.48466
693.692	30.08018
693.88	29.6493
694.068	32.73967
694.257	27.72747
694.445	29.11852
694.634	21.87236
694.822	29.38105
695.01	31.1058
695.199	32.95576
695.387	31.76957
695.575	31.071
695.763	27.01392
695.952	26.40013
696.14	23.5195
696.328	25.89998
696.516	27.22282
696.705	28.52356
696.893	27.88706
697.081	22.80266
697.269	30.04803
697.457	24.20928
697.645	24.26899
697.833	29.78786
698.021	25.78662
698.21	26.2719
698.398	26.87449
698.586	24.72496
698.774	24.74205
698.962	27.41005
699.15	25.20591
699.338	23.79941
699.526	28.74965
699.714	25.91959
699.901	25.76288
700.089	29.35935
700.277	25.54141
700.465	27.01684
700.653	29.0341
700.841	27.91946
701.029	25.60717
701.217	31.48763
701.404	27.17894
701.592	32.13488
701.78	33.95362
701.968	27.21584
702.155	27.06869
702.343	24.11748
702.531	31.5152
702.718	29.02002
702.906	26.42512
703.094	26.20845
703.281	32.24421
703.469	27.98882
703.657	31.25124
703.844	38.626
704.032	34.72598
704.219	27.53089
704.407	30.29728
704.595	33.08387
704.782	29.62858
704.97	29.21606
705.157	28.46317
705.345	36.12364
705.532	41.77457
705.719	33.91354
705.907	36.56896
706.094	32.95754
706.282	39.56345
706.469	32.85405
706.656	34.79632
706.844	33.20822
707.031	38.67521
707.218	36.63095
707.406	41.13655
707.593	38.16777
707.78	38.01274
707.968	36.60786
708.155	34.16723
708.342	38.74497
708.529	38.58748
708.716	37.27754
708.904	41.7657
709.091	38.92034
709.278	33.38432
709.465	43.48436
709.652	41.2724
709.839	40.14818
710.026	35.98023
710.213	30.24338
710.4	35.16902
710.587	37.0702
710.774	38.01795
710.961	38.65843
711.148	35.69865
711.335	38.16955
711.522	34.62779
711.709	37.54225
711.896	43.45198
712.083	39.00359
712.27	33.01088
712.457	36.69613
712.644	30.84043
712.831	43.25405
713.017	36.53867
713.204	37.69508
713.391	33.19034
713.578	38.1638
713.765	39.86263
713.951	35.58124
714.138	45.49612
714.325	35.21565
714.512	32.94812
714.698	29.92574
714.885	38.44852
715.072	32.96439
715.258	32.46741
715.445	30.85575
715.631	36.33525
715.818	23.59185
716.005	30.08837
716.191	34.65728
716.378	30.07889
716.564	35.27586
716.751	28.62828
716.937	29.96653
717.124	35.14788
717.31	27.9148
717.497	40.32705
717.683	29.09284
717.869	39.23937
718.056	29.73999
718.242	33.46688
718.429	30.73837
718.615	27.38911
718.801	31.2331
718.988	36.34781
719.174	33.76632
719.36	30.52153
719.547	36.29254
719.733	32.71707
719.919	33.53507
720.105	33.98938
720.291	31.65334
720.478	32.16245
720.664	32.40877
720.85	29.63087
721.036	43.58436
721.222	39.38272
721.408	31.96562
721.595	39.53117
721.781	38.80006
721.967	37.34388
722.153	38.97914
722.339	35.68211
722.525	34.05578
722.711	28.57701
722.897	27.29944
723.083	30.66318
723.269	37.10076
723.455	45.3872
723.641	51.33965
723.827	33.51094
724.012	35.01061
724.198	33.9608
724.384	39.60012
724.57	35.1191
724.756	26.2178
724.942	25.97338
725.127	38.52616
725.313	38.52417
725.499	38.16872
725.685	41.51932
725.87	34.88082
726.056	29.39949
726.242	39.27655
726.428	26.57623
726.613	37.33371
726.799	31.55082
726.985	28.65062
727.17	26.18871
727.356	42.33513
727.541	29.66369
727.727	32.71675
727.913	37.1035
728.098	30.81928
728.284	36.67182
728.469	28.71039
728.655	30.57745
728.84	38.65652
729.026	37.43298
729.211	36.96437
729.397	35.88578
729.582	37.20854
729.767	33.39244
729.953	35.54952
730.138	39.67272
730.323	24.00831
730.509	29.16892
730.694	41.2842
730.879	37.18706
731.065	34.56794
731.25	44.82116
731.435	37.41473
731.621	28.14551
731.806	32.02078
731.991	34.96005
732.176	27.01181
732.361	42.07188
732.547	35.02602
732.732	27.69193
732.917	45.25638
733.102	29.12912
733.287	30.74934
733.472	33.93506
733.657	33.83668
733.842	27.48577
734.027	31.59854
734.212	33.22319
734.397	30.28333
734.582	34.09982
734.767	38.95754
734.952	41.55879
735.137	23.28264
735.322	40.743
735.507	36.30639
735.692	34.51388
735.877	44.43522
736.062	43.27427
736.247	36.80757
736.431	33.85688
736.616	39.40323
736.801	36.01284
736.986	35.113
737.171	29.78047
737.355	29.49242
737.54	41.49995
737.725	35.39275
737.909	49.5086
738.094	32.34424
738.279	38.88092
738.463	32.97673
738.648	38.53242
738.833	37.08425
739.017	46.50069
739.202	33.13704
739.386	34.07881
739.571	30.51515
739.756	39.12618
739.94	34.10839
740.125	37.81045
740.309	31.07129
740.494	39.76154
740.678	36.65479
740.863	37.96835
741.047	36.15553
741.231	43.88713
741.416	32.24772
741.6	43.23256
741.785	31.02946
741.969	40.0804
742.153	43.01534
742.338	26.00588
742.522	35.67791
742.706	40.64893
742.89	28.93753
743.075	36.12045
743.259	42.32629
743.443	41.06416
743.627	42.85801
743.812	48.11512
743.996	27.65564
744.18	34.48376
744.364	33.90039
744.548	49.83
744.732	33.7203
744.916	42.07285
745.1	39.5896
745.285	34.36724
745.469	40.09954
745.653	45.67496
745.837	30.32087
746.021	50.76218
746.205	43.32282
746.389	36.94056
746.573	35.36701
746.757	45.70775
746.94	33.14299
747.124	43.49687
747.308	29.97373
747.492	42.99232
747.676	30.64353
747.86	52.72586
748.044	33.69577
748.227	27.39799
748.411	59.39434
748.595	36.92271
748.779	31.65127
748.963	39.89834
749.146	36.72804
749.33	33.07729
749.514	31.06159
749.697	43.53711
749.881	32.58909
750.065	31.2986
750.248	37.76008
750.432	51.01018
750.616	36.8212
750.799	31.30228
750.983	52.42327
751.166	50.91677
751.35	28.76637
751.533	41.34491
751.717	46.77849
751.9	46.49908
752.084	35.92554
752.267	31.87918
752.451	33.1693
752.634	38.07865
752.818	41.17182
753.001	42.23841
753.184	43.65813
753.368	39.72836
753.551	18.45479
753.734	32.36208
753.918	52.49666
754.101	32.87381
754.284	41.65508
754.467	34.6011
754.651	33.77816
754.834	32.75731
755.017	44.56305
755.2	44.82015
755.384	31.58871
755.567	42.00942
755.75	43.8911
755.933	35.56653
756.116	41.93212
756.299	33.14763
756.482	32.33704
756.665	40.67012
756.848	37.24378
757.032	38.9627
757.215	29.32726
757.398	31.35797
757.581	32.40602
757.764	56.67095
757.947	35.92531
758.129	44.18603
758.312	21.67081
758.495	36.73105
758.678	36.72528
758.861	34.48642
759.044	49.71179
759.227	31.88301
759.41	33.48929
759.592	42.21559
759.775	35.28876
759.958	42.7976
760.141	30.48703
760.324	54.92762
760.506	46.6037
760.689	43.15273
760.872	52.1211
761.054	40.78071
761.237	37.20821
761.42	38.76873
761.602	43.28054
761.785	40.70259
761.968	46.01638
762.15	50.74962
762.333	37.50079
762.515	41.32734
762.698	36.27797
762.88	44.45432
763.063	40.60365
763.245	46.21208
763.428	32.77598
763.61	35.91319
763.793	31.27842
763.975	40.32227
764.158	36.02298
764.34	34.8117
764.522	33.18214
764.705	37.2258
764.887	47.81414
765.069	29.4312
765.252	41.58816
765.434	42.28423
765.616	39.40517
765.799	33.45455
765.981	42.2966
766.163	33.87872
766.345	46.3304
766.528	34.38595
766.71	25.73404
766.892	39.90034
767.074	47.39552
767.256	37.02801
767.438	50.81178
767.62	40.28919
767.802	55.0904
767.985	42.96384
768.167	51.51972
768.349	35.9943
768.531	43.12681
768.713	41.06075
768.895	46.43156
769.077	41.48667
769.259	58.9028
769.441	75.92316
769.623	44.49825
769.804	51.81049
769.986	47.72531
770.168	56.27149
770.35	67.46647
770.532	53.21785
770.714	57.87598
770.896	56.45953
771.077	29.20799
771.259	60.79687
771.441	51.14475
771.623	62.74842
771.804	74.64518
771.986	35.2989
772.168	44.72613
772.35	58.43213
772.531	73.41717
772.713	52.45548
772.894	64.67504
773.076	50.67263
773.258	47.08345
773.439	65.80846
773.621	71.52577
773.802	41.73218
773.984	45.55623
774.166	54.09503
774.347	66.4271
774.529	64.73875
774.71	29.90003
774.891	50.72597
775.073	46.26878
775.254	66.12465
775.436	44.19561
775.617	77.73656
775.799	45.81827
775.98	65.3759
776.161	70.31024
776.343	72.79805
776.524	51.16922
776.705	49.13384
776.886	32.82626
777.068	52.94533
777.249	99.66264
777.43	75.04032
777.611	39.08356
777.793	47.77254
777.974	72.55222
778.155	44.26989
778.336	42.85368
778.517	82.2801
778.698	42.68191
778.879	32.2324
779.061	24.04569
779.242	55.74892
779.423	57.16982
779.604	44.77085
779.785	46.74556
779.966	55.77048
780.147	65.26132
780.328	63.79936
780.509	85.26071
780.69	64.89808
780.871	45.2505
781.051	36.11041
781.232	53.93252
781.413	52.79052
781.594	47.3326
781.775	45.15312
781.956	43.46496
782.137	31.90853
782.317	46.17575
782.498	52.45778
782.679	50.60559
782.86	55.81559
783.04	44.99897
783.221	54.91871
783.402	74.34153
783.583	52.12969
783.763	63.11641
783.944	47.12358
784.124	34.91327
784.305	76.09647
784.486	60.3406
784.666	51.80359
784.847	36.00822
785.027	96.14204
785.208	44.35341
785.388	45.07468
785.569	45.35813
785.749	49.86788
785.93	47.17135
786.11	36.05162
786.291	60.08477
786.471	54.33815
786.652	63.56511
786.832	49.9584
787.012	54.78293
787.193	40.05724
787.373	53.69003
787.553	47.20485
787.734	54.77998
787.914	48.69167
788.094	64.16814
788.275	56.11207
788.455	46.89813
788.635	38.22814
788.815	54.82867
788.995	41.18439
789.176	35.95322
789.356	43.90487
789.536	49.77739
789.716	56.25727
789.896	43.69299
790.076	45.94675
790.256	55.62116
790.436	28.69403
790.616	42.34306
790.796	55.23308
790.976	47.95061
791.156	43.48788
791.336	59.04365
791.516	54.91601
791.696	50.37353
791.876	35.91656
792.056	53.45639
792.236	61.46444
792.416	60.25977
792.596	54.93962
792.776	57.9181
792.956	60.47209
793.135	75.50682
793.315	40.92468
793.495	65.12114
793.675	60.40747
793.854	62.4671
794.034	64.50492
794.214	40.67462
794.394	61.60623
794.573	67.18629
794.753	54.10737
794.933	43.34262
795.112	55.7432
795.292	64.54339
795.472	74.87052
795.651	36.93998
795.831	51.80284
796.01	47.79061
796.19	48.86807
796.369	53.37094
796.549	57.5148
796.728	49.03789
796.908	37.41617
797.087	39.6046
797.267	48.88733
797.446	39.79896
797.626	57.13805
797.805	57.53074
797.984	44.06512
798.164	60.67091
798.343	43.19014
798.522	54.41944
798.702	54.9607
798.881	38.81706
799.06	50.16096
799.239	31.11296
799.419	42.67237
799.598	75.32973
799.777	55.85764
799.956	67.08787
800.136	49.08945
800.315	41.55435
800.494	55.2852
800.673	66.01096
800.852	61.5016
801.031	67.54563
801.21	59.02221
801.389	48.09321
801.568	53.53231
801.747	77.9559
801.926	53.77587
802.105	69.84267
802.284	45.53686
802.463	73.00654
802.642	56.9182
802.821	54.7088
803	71.44185
803.179	65.52804
803.358	66.84971
803.537	45.11714
803.716	51.65136
803.895	46.1932
804.073	52.31926
804.252	44.71783
804.431	59.01663
804.61	50.1267
804.789	66.08163
804.967	46.8531
805.146	46.2519
805.325	81.83285
805.503	59.14553
805.682	38.68005
805.861	98.82931
806.039	70.08296
806.218	49.96826
806.397	54.82378
806.575	51.72404
806.754	58.96897
806.932	41.50571
807.111	66.72519
807.289	65.83515
807.468	54.23614
807.646	66.02186
807.825	61.93913
808.003	58.23076
808.182	64.90934
808.36	55.36756
808.539	43.96426
808.717	73.01447
808.895	45.32185
809.074	58.29213
809.252	54.03193
809.43	61.39546
809.609	68.87339
809.787	74.51112
809.965	50.81982
810.144	56.24998
810.322	53.5138
810.5	60.90981
810.678	51.22291
810.856	86.3101
811.035	68.89843
811.213	64.55296
811.391	74.71349
811.569	59.75494
811.747	108.90463
811.925	72.56182
812.103	47.52021
812.281	54.68754
812.459	78.02826
812.637	81.72021
812.816	65.18039
812.994	86.95869
813.171	75.40897
813.349	62.08677
813.527	69.38703
813.705	75.38018
813.883	96.61344
814.061	67.64936
814.239	83.14432
814.417	91.60216
814.595	63.99397
814.773	62.92432
814.95	59.18993
815.128	63.48825
815.306	59.8028
815.484	52.6111
815.662	45.72205
815.839	42.80758
816.017	50.91569
816.195	74.05011
816.372	52.88414
816.55	70.14409
816.728	79.4076
816.905	54.45068
817.083	80.15552
817.261	58.62051
817.438	101.48881
817.616	82.49713
817.793	48.98918
817.971	71.00952
818.148	67.38488
818.326	74.20579
818.503	61.686
818.681	82.50072
818.858	55.02757
819.036	54.92364
819.213	61.86634
819.391	50.61371
819.568	47.49533
819.745	44.608
819.923	68.62629
820.1	54.42915
820.277	45.46115
820.455	53.07447
820.632	54.73309
820.809	58.5676
820.986	43.83299
821.164	38.25383
821.341	36.96426
821.518	47.66801
821.695	38.9902
821.872	37.10646
822.05	34.84112
822.227	31.73712
822.404	32.72154
822.581	35.7712
822.758	33.07668
822.935	33.40606
823.112	35.45466
823.289	33.18109
823.466	36.01097
823.643	35.31424
823.82	38.48604
823.997	36.76741
824.174	40.47394
824.351	46.13992
824.528	45.32821
824.705	42.95973
824.882	45.44246
825.059	51.78488
825.236	43.6926
825.412	44.77164
825.589	48.90926
825.766	61.32747
825.943	45.41624
826.12	50.13326
826.296	41.48417
826.473	46.58988
826.65	46.38049
826.827	51.38722
827.003	40.17452
827.18	43.46289
827.357	46.32238
827.533	41.98976
827.71	32.54925
827.887	39.27688
828.063	42.26756
828.24	38.84055
828.416	44.73773
828.593	40.78051
828.769	51.21057
828.946	50.76254
829.122	53.56319
829.299	51.93648
829.475	38.88866
829.652	51.57685
829.828	72.15659
830.005	50.95809
830.181	65.80586
830.357	53.85564
830.534	67.4832
830.71	56.86078
830.886	67.18939
831.063	66.01974
831.239	77.62224
831.415	49.00547
831.592	75.66192
831.768	56.64866
831.944	51.47939
832.12	83.39734
832.296	78.45897
832.473	65.85045
832.649	49.9721
832.825	67.84369
833.001	47.88765
833.177	61.20277
833.353	55.83843
833.529	40.11348
833.705	53.32137
833.881	40.92982
834.058	40.63848
834.234	43.03411
834.41	42.55905
834.586	37.0205
834.761	41.72811
834.937	43.67725
835.113	45.35505
835.289	41.48149
835.465	45.30866
835.641	42.92042
835.817	46.51335
835.993	66.39979
836.169	43.7993
836.344	57.99443
836.52	60.93814
836.696	57.47455
836.872	50.81247
837.048	106.65577
837.223	53.57159
837.399	85.91956
837.575	71.91802
837.75	69.19405
837.926	87.51279
838.102	123.01461
838.277	103.07899
838.453	131.90636
838.628	133.12749
838.804	65.4433
838.98	114.09092
839.155	70.67187
839.331	87.66228
839.506	63.11867
839.682	69.57209
839.857	87.86309
840.033	99.00045
840.208	57.22889
840.384	37.8502
840.559	57.20399
840.734	76.74531
840.91	95.22106
841.085	63.1376
841.26	65.22862
841.436	62.63657
841.611	60.88728
841.786	84.2004
841.962	103.0061
842.137	70.78513
842.312	54.89954
842.487	66.73627
842.663	56.45784
842.838	65.20912
843.013	173.89277
843.188	88.62365
843.363	80.70167
843.538	146.27617
843.714	147.62611
843.889	153.11863
844.064	163.701
844.239	133.1018
844.414	150.26938
844.589	109.73917
844.764	181.72767
844.939	181.68557
845.114	194.66622
845.289	190.04081
845.464	247.91219
845.639	176.50526
845.814	94.28032
845.989	108.14366
846.163	131.18039
846.338	136.63881
846.513	185.9852
846.688	123.14172
846.863	126.13078
847.038	117.45563
847.212	130.50669
847.387	135.79111
847.562	143.98983
847.737	172.69597
847.911	78.78293
848.086	87.33874
848.261	280.03494
848.435	121.00933
848.61	182.33181
848.785	99.90554
848.959	179.99484
849.134	237.50827
849.308	247.18445
849.483	142.80658
849.658	209.00125
849.832	117.9613
850.007	110.79896
850.181	271.22436
850.356	117.22258
850.53	254.26737
850.705	90.62557
850.879	62.99448
851.053	130.62671
851.228	126.19819
851.402	152.01164
851.577	187.66816
851.751	205.8588
851.925	142.11786
852.099	79.67718
852.274	107.09903
852.448	131.8578
852.622	143.4173
852.797	141.99437
852.971	128.22683
853.145	141.4343
853.319	377.0176
853.493	198.05481
853.668	115.71208
853.842	238.03819
854.016	199.80311
854.19	230.86065
854.364	153.78022
854.538	158.71669
854.712	200.38903
854.886	134.17359
855.06	127.1795
855.234	62.66513
855.408	213.62544
855.582	182.8519
855.756	186.20754
855.93	233.36688
856.104	164.49217
856.278	189.45886
856.452	132.22317
856.626	180.90855
856.8	280.65883
856.973	182.45618
857.147	156.27463
857.321	165.73038
857.495	203.30035
857.669	134.63016
857.842	128.62336
858.016	200.37537
858.19	112.17373
858.364	304.14722
858.537	128.15509
858.711	150.74878
858.885	134.43633
859.058	119.51982
859.232	71.25536
859.405	92.02616
859.579	191.13141
859.753	160.41828
859.926	117.46616
860.1	85.46577
860.273	145.91611
860.447	229.66196
860.62	127.39358
860.794	264.9832
860.967	165.35741
861.141	196.64613
861.314	281.63245
861.487	181.50559
861.661	220.26706
861.834	221.59574
862.008	201.54356
862.181	150.2385
862.354	153.61915
862.528	165.65374
862.701	127.18114
862.874	94.03417
863.047	132.76314
863.221	130.83978
863.394	77.12062
863.567	221.6192
863.74	63.59273
863.913	191.90882
864.087	168.0518
864.26	193.7857
864.433	147.16871
864.606	246.1046
864.779	147.48292
864.952	90.1934
865.125	118.73801
865.298	143.57488
865.471	149.18841
865.644	276.77564
865.817	228.65258
865.99	183.84064
866.163	218.06852
866.336	125.191
866.509	149.17648
866.682	131.12077
866.855	209.38127
867.028	103.28284
867.2	180.8118
867.373	74.33848
867.546	161.83982
867.719	281.11086
867.892	184.56428
868.064	114.02965
868.237	167.61802
868.41	158.41227
868.583	90.8234
868.755	105.72749
868.928	153.68804
869.101	289.94361
869.273	210.70875
869.446	181.55621
869.619	208.54062
869.791	144.61624
869.964	209.84889
870.136	192.0483
870.309	161.81242
870.481	168.5612
870.654	87.10207
870.826	163.97877
870.999	130.11443
871.171	190.48139
871.344	129.83094
871.516	152.67917
871.689	118.72931
871.861	150.74909
872.033	115.33467
872.206	137.18593
872.378	204.8674
872.55	136.9067
872.723	103.27353
872.895	144.02294
873.067	214.46361
873.24	226.22065
873.412	126.60742
873.584	140.28603
873.756	128.33183
873.928	171.98134
874.101	176.15778
874.273	183.13226
874.445	77.95238
874.617	101.72046
874.789	164.73732
874.961	136.94495
875.133	188.20316
875.305	156.57719
875.477	107.03561
875.649	91.36963
875.821	116.17871
875.993	245.33894
876.165	108.24563
876.337	171.90735
876.509	135.91733
876.681	171.41951
876.853	164.98892
877.025	166.5855
877.197	115.88407
877.369	110.08157
877.541	198.20654
877.712	77.51638
877.884	103.26271
878.056	186.46823
878.228	105.31984
878.4	177.49786
878.571	109.82212
878.743	80.75767
878.915	167.38602
879.086	105.83119
879.258	125.4552
879.43	115.6473
879.601	100.78545
879.773	108.14626
879.945	40.67447
880.116	55.72126
880.288	42.50614
880.459	43.46224
880.631	38.41236
880.802	43.16925
880.974	41.86472
881.145	35.34168
881.317	41.88511
881.488	36.87237
881.66	38.8452
881.831	37.63115
882.002	44.39869
882.174	38.8444
882.345	44.14391
882.517	34.85821
882.688	48.86759
882.859	45.62386
883.03	58.52159
883.202	56.48534
883.373	55.28355
883.544	54.42591
883.715	76.48487
883.887	67.54479
884.058	60.74451
884.229	78.46283
884.4	81.18691
884.571	86.33894
884.742	78.59228
884.914	86.39737
885.085	109.4905
885.256	131.29961
885.427	113.10267
885.598	125.19703
885.769	133.20258
885.94	128.75426
886.111	96.00407
886.282	147.44642
886.453	124.60891
886.624	96.22585
886.795	143.86878
886.966	124.58363
887.136	150.2852
887.307	110.85313
887.478	183.59884
887.649	161.60806
887.82	171.26316
887.991	146.8888
888.161	181.38255
888.332	174.43081
888.503	103.33416
888.674	227.41437
888.844	235.17951
889.015	193.52069
889.186	96.98045
889.356	228.77606
889.527	103.70499
889.698	365.2899
889.868	132.70864
890.039	171.9341
890.209	153.76974
890.38	193.12058
890.551	171.1114
890.721	237.73947
890.892	199.17203
891.062	142.82573
891.233	179.5443
891.403	142.89775
891.574	121.04759
891.744	146.4325
891.914	189.94802
892.085	158.11543
892.255	69.64957
892.425	228.63214
892.596	191.78091
892.766	179.4226
892.936	229.41155
893.107	198.17899
893.277	127.58969
893.447	95.48995
893.618	76.45376
893.788	134.31373
893.958	82.89215
894.128	85.96406
894.298	88.27745
894.468	118.25418
894.639	56.28393
894.809	51.26654
894.979	69.3979
895.149	79.65475
895.319	66.13452
895.489	87.27141
895.659	101.39973
895.829	76.53847
895.999	81.04548
896.169	68.98832
896.339	77.36437
896.509	136.34134
896.679	149.65069
896.849	148.01955
897.019	205.0181
897.189	162.95868
897.358	145.61849
897.528	205.68044
897.698	92.98029
897.868	186.21654
898.038	301.93942
898.208	280.90931
898.377	114.3091
898.547	291.67695
898.717	448.11319
898.886	199.05756
899.056	285.49954
899.226	416.20897
899.395	255.02589
899.565	317.21594
899.735	231.01012
899.904	349.6891
900.074	299.02666
900.244	147.88851
900.413	536.51574
900.583	157.12833
900.752	213.45982
900.922	330.00543
901.091	66.77403
901.261	283.05934
901.43	281.07465
901.599	273.50334
901.769	582.2871
901.938	315.0464
902.108	305.30219
902.277	393.0335
902.446	112.41096
902.616	125.3903
902.785	191.2959
902.954	301.06898
903.124	202.19178
903.293	180.7274
903.462	106.64014
903.631	134.95758
903.801	106.44544
903.97	64.81641
904.139	96.87194
904.308	77.78889
904.477	64.21675
904.646	48.92376
904.816	65.64501
904.985	86.2931
905.154	116.94036
