Data from WindowProjectSample_Transmission__25__00025__07105889284695441.txt Node

Date: Mon May 05 17:25:32 EDT 2025
User: jessi
Spectrometer: SR400872
Trigger mode: 0
Integration Time (sec): 5.000010E-1
Scans to average: 20
Electric dark correction enabled: true
Nonlinearity correction enabled: true
Boxcar width: 0
XAxis mode: Wavelengths
Number of Pixels in Spectrum: 3648
>>>>>Begin Spectral Data<<<<<
184.909	20512.23012
185.132	-5026.93322
185.355	-3013.79783
185.578	-17437.55043
185.801	1837.69734
186.024	10070.71896
186.247	-1883.31897
186.47	1126.04213
186.693	377.4024
186.916	225.50781
187.139	-3607.85151
187.362	3277.23581
187.585	4015.94414
187.808	3440.05402
188.031	-36.91082
188.254	-45727.81154
188.476	-712.91604
188.699	6068.17962
188.922	502.04031
189.145	-15029.90287
189.368	-615.87499
189.591	-1220.16913
189.813	2950.38871
190.036	-48825.07437
190.259	-802.03308
190.482	-4455.60237
190.705	6962.7291
190.927	-2402.90446
191.15	13163.91176
191.373	3473.58866
191.595	-8268.33134
191.818	-4023.3404
192.041	-4905.16883
192.263	-3423.81218
192.486	-760.92171
192.709	-3835.36932
192.931	7828.8917
193.154	-27584.49582
193.377	-2742.98775
193.599	-2530.60051
193.822	-8764.39568
194.044	-1823.41725
194.267	1149.18571
194.489	297.89944
194.712	-42725.20263
194.934	-30916.65046
195.157	1165.06416
195.379	1307.25227
195.602	-6908.80318
195.824	-1340.04439
196.047	-9410.66603
196.269	2696.53451
196.492	-6568.86612
196.714	27648.62316
196.936	-8033.38995
197.159	-1111.18101
197.381	1116.9337
197.604	291.48118
197.826	11962.71132
198.048	-10773.87625
198.271	-2860.24571
198.493	7172.50517
198.715	2213.46788
198.938	-480.50464
199.16	7248.57324
199.382	-103630.99152
199.604	2798.50652
199.827	-1072.25835
200.049	-2940.47901
200.271	13599.06687
200.493	1189.96391
200.715	-36472.2996
200.938	-6060.86755
201.16	-4188.7308
201.382	19960.42707
201.604	2270.29018
201.826	2234.24804
202.048	-1896.10545
202.27	-1954.85889
202.492	-34351.73751
202.715	2787.0911
202.937	-4499.65842
203.159	-6068.02238
203.381	1447.24278
203.603	6746.65464
203.825	5850.13582
204.047	2349.92704
204.269	-2622.03233
204.491	2104.18407
204.713	5766.4481
204.935	-484709.72369
205.156	1150.97344
205.378	-2896.70854
205.6	1629.28461
205.822	147054.76196
206.044	-944.25906
206.266	1547.01265
206.488	4779.99321
206.71	-5124.72738
206.932	1035.79124
207.153	11656.08707
207.375	-7105.24258
207.597	-37333.62084
207.819	-2728.14788
208.041	2439.27486
208.262	474.18646
208.484	710.52177
208.706	-803.06704
208.927	-846.24805
209.149	538.30151
209.371	-2924.30812
209.593	-248.8578
209.814	-832.73534
210.036	628.50549
210.258	-687.50241
210.479	1755.78765
210.701	1653.85302
210.922	3131.50218
211.144	-3869.48126
211.366	2133.8977
211.587	5779.7537
211.809	-8144.92013
212.03	2240.50114
212.252	439.94214
212.473	1939.57137
212.695	-6666.40428
212.916	2753.36824
213.138	-664.9507
213.359	3588.99563
213.581	5063.62224
213.802	-860.42855
214.024	1055.03796
214.245	1999.40608
214.466	2597.25399
214.688	-3044.85633
214.909	-1161.61042
215.131	-1692.27709
215.352	-3014.59314
215.573	14254.3843
215.795	4946.72871
216.016	5242.75791
216.237	755.27124
216.459	3558.50436
216.68	1783.15004
216.901	4681.38575
217.122	-3211.07735
217.344	-11045.11102
217.565	3384.96569
217.786	8699.16372
218.007	16522.74872
218.228	-839.51739
218.45	5807.42925
218.671	758.10271
218.892	37445.98334
219.113	1532.43768
219.334	-291.99635
219.555	9006.95323
219.776	2953.94242
219.997	21613.68743
220.219	2637.35447
220.44	-10788.38268
220.661	449.94586
220.882	1479.86615
221.103	-1043.66458
221.324	2146.92303
221.545	2278.23517
221.766	-8651.98113
221.987	965.26936
222.208	1624.57914
222.429	4186.61317
222.65	235.47144
222.87	17154.03141
223.091	708.27729
223.312	535.98006
223.533	1394.53441
223.754	1446.7959
223.975	1361.79595
224.196	2100.31656
224.417	1360.59663
224.637	593.80214
224.858	101.40354
225.079	1116.51547
225.3	659.44409
225.521	3718.62896
225.741	477.76406
225.962	492.26987
226.183	130.09996
226.404	658.25429
226.624	403.40963
226.845	641.58543
227.066	384.84125
227.286	239.48983
227.507	129.99255
227.728	116.5762
227.948	230.85158
228.169	76.40448
228.389	81.9431
228.61	48.31537
228.831	59.91925
229.051	3.23858
229.272	37.56149
229.492	55.76636
229.713	13.64118
229.933	36.82992
230.154	31.43337
230.374	52.20964
230.595	38.18894
230.815	25.01537
231.036	37.65489
231.256	-10.20392
231.477	69.70036
231.697	35.30178
231.917	40.43944
232.138	53.03173
232.358	109.9429
232.579	99.54236
232.799	21.06091
233.019	101.24418
233.24	109.13075
233.46	37.89257
233.68	58.79127
233.901	40.70305
234.121	27.10969
234.341	15.31775
234.561	-4.79579
234.782	20.48039
235.002	64.33102
235.222	-5.75169
235.442	63.90196
235.662	31.3952
235.883	61.82938
236.103	48.37131
236.323	33.00604
236.543	26.83524
236.763	39.19207
236.983	42.49666
237.203	41.13527
237.423	54.79389
237.643	87.07005
237.864	74.03383
238.084	17.46343
238.304	25.7473
238.524	40.74027
238.744	39.34304
238.964	72.14778
239.184	59.89026
239.404	59.84727
239.624	32.7549
239.843	59.67715
240.063	35.60757
240.283	22.69842
240.503	24.08926
240.723	24.13085
240.943	13.82578
241.163	19.88659
241.383	14.00551
241.603	7.24474
241.822	9.36972
242.042	5.91262
242.262	8.21908
242.482	9.48312
242.702	10.39428
242.921	2.40798
243.141	6.47497
243.361	5.90159
243.581	9.52476
243.8	7.00451
244.02	5.28029
244.24	9.03734
244.459	9.07312
244.679	17.77351
244.899	11.17198
245.118	12.15041
245.338	11.94635
245.558	13.35361
245.777	8.14161
245.997	10.80243
246.216	10.41992
246.436	6.03458
246.655	4.79389
246.875	3.18737
247.094	6.23542
247.314	1.99824
247.533	3.38553
247.753	4.29122
247.972	3.31562
248.192	1.02517
248.411	1.69181
248.631	3.39464
248.85	4.63193
249.07	3.78291
249.289	5.64659
249.508	4.73833
249.728	6.74265
249.947	6.80602
250.166	8.51431
250.386	4.13885
250.605	6.50358
250.824	10.5117
251.044	7.26635
251.263	28.21348
251.482	14.5968
251.701	11.30022
251.921	0.05871
252.14	3.26317
252.359	3.61939
252.578	9.52195
252.798	3.37836
253.017	8.70675
253.236	4.19527
253.455	5.12369
253.674	10.00522
253.893	5.01405
254.112	7.78488
254.331	10.63876
254.551	8.05162
254.77	3.59609
254.989	12.57358
255.208	9.12178
255.427	14.73544
255.646	11.02532
255.865	21.72539
256.084	8.51387
256.303	9.79772
256.522	12.92801
256.741	2.71532
256.96	2.95542
257.179	8.38768
257.397	10.77652
257.616	5.83301
257.835	6.0658
258.054	14.45557
258.273	9.93791
258.492	10.74281
258.711	6.33818
258.93	3.02176
259.148	4.67255
259.367	4.73895
259.586	5.34446
259.805	2.36174
260.023	5.21672
260.242	3.73049
260.461	2.701
260.68	1.26626
260.898	4.3105
261.117	1.33774
261.336	0.88231
261.554	3.43712
261.773	3.2817
261.992	0.83889
262.21	3.08817
262.429	3.31533
262.648	7.00771
262.866	7.91827
263.085	5.54107
263.303	4.68541
263.522	8.21717
263.74	8.69691
263.959	15.166
264.178	7.02313
264.396	6.44745
264.615	4.78082
264.833	10.29193
265.051	8.7331
265.27	10.61225
265.488	10.71443
265.707	5.92925
265.925	10.77635
266.144	4.46863
266.362	5.36474
266.58	5.35613
266.799	4.84517
267.017	5.91528
267.235	5.07521
267.454	3.15432
267.672	1.72657
267.89	4.01219
268.109	4.23728
268.327	4.33226
268.545	0.59453
268.763	3.99498
268.982	1.66396
269.2	4.07904
269.418	3.16385
269.636	1.88272
269.854	4.72599
270.073	3.08334
270.291	1.79252
270.509	1.82292
270.727	4.18824
270.945	7.05674
271.163	6.97871
271.381	1.27616
271.599	3.12629
271.817	5.09715
272.036	1.74579
272.254	2.88433
272.472	2.23686
272.69	2.5155
272.908	2.38766
273.126	4.51472
273.344	5.23238
273.562	1.73207
273.779	2.64249
273.997	3.51045
274.215	4.2442
274.433	2.83236
274.651	4.16949
274.869	4.58879
275.087	2.65513
275.305	4.11564
275.523	2.40916
275.74	2.7947
275.958	5.35542
276.176	8.12606
276.394	2.58308
276.612	3.10173
276.829	2.94288
277.047	2.46438
277.265	2.83252
277.483	3.24781
277.7	4.23235
277.918	3.30391
278.136	6.09991
278.353	3.07549
278.571	1.62637
278.789	4.14579
279.006	0.8582
279.224	2.88481
279.442	5.01923
279.659	3.53866
279.877	2.54296
280.094	5.64646
280.312	0.98188
280.529	3.31973
280.747	1.06201
280.964	2.39133
281.182	5.78654
281.399	2.57846
281.617	3.67362
281.834	2.3189
282.052	1.77683
282.269	2.99844
282.487	2.41145
282.704	2.12939
282.921	1.99026
283.139	3.3698
283.356	3.95886
283.574	3.65064
283.791	1.92661
284.008	5.38918
284.226	2.95114
284.443	3.1877
284.66	4.39866
284.877	3.22397
285.095	2.05001
285.312	1.55533
285.529	0.89826
285.746	0.76481
285.964	1.99903
286.181	1.2822
286.398	1.88117
286.615	2.51158
286.832	2.51084
287.05	0.56294
287.267	1.77778
287.484	1.8181
287.701	2.49629
287.918	2.4614
288.135	2.59222
288.352	1.27114
288.569	1.3876
288.786	2.34082
289.003	1.92135
289.22	2.95798
289.437	1.61883
289.654	2.84857
289.871	2.95938
290.088	2.82993
290.305	2.22825
290.522	1.75073
290.739	1.89177
290.956	2.97783
291.173	3.37461
291.39	3.35762
291.607	2.26308
291.824	1.69227
292.04	1.2678
292.257	2.73433
292.474	3.16793
292.691	1.84326
292.908	0.91997
293.125	1.7299
293.341	1.10448
293.558	4.95071
293.775	1.98106
293.992	1.96993
294.208	0.93442
294.425	1.3833
294.642	1.95187
294.858	2.97112
295.075	0.73204
295.292	1.99279
295.508	2.43814
295.725	4.07407
295.942	1.90039
296.158	1.4779
296.375	2.36027
296.591	1.86151
296.808	2.17652
297.024	2.52267
297.241	2.75786
297.458	3.02168
297.674	0.93553
297.891	2.51217
298.107	2.39319
298.323	1.83156
298.54	4.01492
298.756	2.29607
298.973	1.63161
299.189	4.28068
299.406	2.49287
299.622	3.93433
299.838	3.92067
300.055	3.81946
300.271	2.05263
300.487	2.39955
300.704	2.83684
300.92	2.34207
301.136	5.87556
301.353	4.14548
301.569	3.57099
301.785	3.89302
302.001	4.43221
302.218	4.00444
302.434	4.38451
302.65	2.76826
302.866	3.56658
303.083	5.98071
303.299	5.97629
303.515	4.14737
303.731	4.52717
303.947	3.02942
304.163	3.85959
304.379	4.32742
304.595	4.72258
304.812	3.73338
305.028	3.84316
305.244	4.16892
305.46	5.18079
305.676	5.24665
305.892	5.80938
306.108	5.08311
306.324	4.26695
306.54	6.38975
306.756	5.252
306.972	4.93333
307.187	4.71766
307.403	6.0202
307.619	4.21979
307.835	5.82753
308.051	6.24295
308.267	4.01302
308.483	6.12561
308.699	5.37962
308.914	5.05649
309.13	4.90204
309.346	4.05558
309.562	4.31774
309.778	4.22994
309.993	5.62276
310.209	5.51136
310.425	4.41593
310.641	5.47142
310.856	4.69252
311.072	4.62364
311.288	5.49758
311.503	5.85097
311.719	4.16577
311.935	4.26138
312.15	6.25098
312.366	5.91242
312.581	6.1977
312.797	5.79339
313.013	6.49143
313.228	5.08359
313.444	5.37236
313.659	5.07506
313.875	5.96729
314.09	5.45555
314.306	6.61199
314.521	6.24343
314.737	6.21517
314.952	5.61481
315.168	5.74787
315.383	6.12673
315.599	5.28148
315.814	5.28677
316.029	6.16333
316.245	4.82374
316.46	4.13991
316.675	6.64332
316.891	7.2298
317.106	8.42141
317.321	5.98508
317.537	6.40383
317.752	6.65054
317.967	6.66684
318.183	5.0764
318.398	5.3472
318.613	6.34553
318.828	7.10433
319.043	6.47676
319.259	5.62118
319.474	5.89187
319.689	6.84718
319.904	4.35458
320.119	6.68102
320.334	5.94426
320.549	5.6617
320.765	6.86608
320.98	6.31651
321.195	6.27
321.41	5.87751
321.625	6.52445
321.84	7.43486
322.055	7.43162
322.27	5.38593
322.485	4.96312
322.7	6.59834
322.915	6.68933
323.13	5.52426
323.345	7.51671
323.56	6.8615
323.775	6.81124
323.989	6.59859
324.204	6.31611
324.419	7.34872
324.634	5.24404
324.849	6.32659
325.064	9.25832
325.279	7.31535
325.493	6.59434
325.708	6.99649
325.923	5.70291
326.138	6.13521
326.352	7.75502
326.567	7.20249
326.782	5.94126
326.997	5.90821
327.211	6.87162
327.426	6.67186
327.641	6.08181
327.855	5.13342
328.07	6.84699
328.285	8.19699
328.499	5.92664
328.714	6.44416
328.928	6.76563
329.143	6.22987
329.358	7.33599
329.572	7.17816
329.787	7.73096
330.001	8.52905
330.216	5.2224
330.43	8.18912
330.645	7.62204
330.859	7.23257
331.074	5.65761
331.288	6.47548
331.503	7.9424
331.717	5.48599
331.931	6.51425
332.146	6.70765
332.36	8.18842
332.575	6.74898
332.789	6.65448
333.003	6.85974
333.218	6.92502
333.432	6.11927
333.646	7.46817
333.86	8.3169
334.075	7.82446
334.289	6.07465
334.503	5.50197
334.717	7.00705
334.932	6.66758
335.146	7.41767
335.36	5.92258
335.574	7.09729
335.788	6.9408
336.003	7.49672
336.217	7.29263
336.431	7.1456
336.645	6.23675
336.859	5.86396
337.073	6.83853
337.287	7.05329
337.501	5.67388
337.715	7.31117
337.929	7.48232
338.143	6.03561
338.357	6.75026
338.571	6.45906
338.785	7.51547
338.999	6.37808
339.213	6.44628
339.427	5.7721
339.641	8.1087
339.855	6.38172
340.069	6.09421
340.283	7.74527
340.497	8.28925
340.711	7.35427
340.924	6.83588
341.138	6.07498
341.352	5.84496
341.566	7.12758
341.78	5.7939
341.993	6.67246
342.207	6.37042
342.421	7.2328
342.635	6.79589
342.848	6.81713
343.062	5.11939
343.276	6.46459
343.49	8.58051
343.703	6.46099
343.917	7.8859
344.131	8.0826
344.344	6.3374
344.558	6.7486
344.771	5.92099
344.985	8.32866
345.199	8.4139
345.412	7.46529
345.626	7.52022
345.839	5.87653
346.053	6.31304
346.266	6.35779
346.48	7.61265
346.693	7.41321
346.907	7.31361
347.12	6.37644
347.334	7.28628
347.547	7.40579
347.76	6.83579
347.974	8.01464
348.187	7.14853
348.401	6.69703
348.614	6.16726
348.827	6.80078
349.041	7.24504
349.254	5.79648
349.467	6.57351
349.681	6.21726
349.894	6.3901
350.107	8.09987
350.32	8.63734
350.534	6.15533
350.747	6.75592
350.96	6.57773
351.173	6.60357
351.386	6.95842
351.6	6.61157
351.813	6.63705
352.026	6.93143
352.239	6.1996
352.452	6.7967
352.665	8.12638
352.878	6.91686
353.092	8.726
353.305	7.83043
353.518	7.37982
353.731	6.39595
353.944	7.98969
354.157	6.88332
354.37	6.756
354.583	6.32586
354.796	6.25405
355.009	7.92233
355.222	7.55834
355.435	7.34464
355.647	8.18285
355.86	6.74415
356.073	7.59287
356.286	6.93829
356.499	8.22486
356.712	7.93807
356.925	7.96179
357.138	8.24559
357.35	6.98389
357.563	7.1982
357.776	7.64866
357.989	7.55108
358.201	8.07034
358.414	7.93955
358.627	8.71561
358.84	7.55771
359.052	6.78164
359.265	7.12609
359.478	8.42221
359.69	5.83172
359.903	8.26808
360.116	8.52368
360.328	6.75707
360.541	8.28899
360.753	7.37752
360.966	7.60053
361.179	7.83128
361.391	7.6475
361.604	7.51462
361.816	7.78766
362.029	7.84811
362.241	7.57982
362.454	7.97748
362.666	7.48158
362.879	8.50964
363.091	7.88028
363.304	7.65255
363.516	7.80818
363.728	7.22821
363.941	8.24982
364.153	8.06015
364.366	6.53403
364.578	7.16379
364.79	8.04837
365.003	8.14151
365.215	7.43949
365.427	8.32597
365.639	8.46892
365.852	7.96964
366.064	9.31103
366.276	7.77946
366.488	7.99567
366.701	7.53566
366.913	7.76353
367.125	7.79781
367.337	7.29658
367.549	7.55721
367.762	7.79345
367.974	7.81555
368.186	7.60176
368.398	8.53975
368.61	8.1132
368.822	8.26139
369.034	7.5658
369.246	8.41794
369.458	10.03765
369.67	7.32347
369.882	9.07493
370.094	6.63763
370.306	8.90901
370.518	7.73916
370.73	7.57963
370.942	7.64365
371.154	7.97182
371.366	7.83305
371.578	8.36841
371.79	7.87273
372.002	8.75938
372.214	9.62023
372.425	8.00778
372.637	9.30732
372.849	8.39221
373.061	6.88017
373.273	8.38459
373.484	8.2977
373.696	8.67483
373.908	6.67838
374.12	8.83027
374.331	8.60619
374.543	7.53447
374.755	7.6461
374.967	8.14889
375.178	8.97169
375.39	7.91577
375.602	8.39538
375.813	7.1752
376.025	7.75924
376.236	8.43899
376.448	8.60347
376.66	8.17156
376.871	8.35244
377.083	9.17334
377.294	9.77195
377.506	8.21456
377.717	9.55423
377.929	8.85098
378.14	8.44265
378.352	8.72416
378.563	9.13222
378.775	9.61294
378.986	7.86831
379.197	8.59048
379.409	8.07482
379.62	8.88045
379.832	8.85682
380.043	8.40094
380.254	8.75104
380.466	7.91244
380.677	10.53999
380.888	9.82841
381.1	10.43102
381.311	10.46946
381.522	8.91962
381.733	10.57619
381.945	8.69934
382.156	8.50683
382.367	8.39301
382.578	10.64634
382.789	10.60216
383.001	8.30674
383.212	10.0686
383.423	9.96111
383.634	9.66744
383.845	9.49394
384.056	8.66564
384.267	8.96251
384.478	9.05215
384.69	8.22955
384.901	9.36325
385.112	9.19099
385.323	10.31313
385.534	9.36306
385.745	9.31451
385.956	9.25964
386.167	8.5612
386.378	9.52524
386.588	8.71317
386.799	8.58721
387.01	8.17153
387.221	9.69736
387.432	9.25126
387.643	10.19533
387.854	8.98649
388.065	9.05789
388.275	9.16738
388.486	8.91187
388.697	9.23801
388.908	8.80246
389.119	10.0473
389.329	10.124
389.54	9.33719
389.751	9.49331
389.962	10.19593
390.172	9.37604
390.383	9.13593
390.594	8.90231
390.804	9.04353
391.015	9.08868
391.226	9.65059
391.436	9.78282
391.647	9.80826
391.858	9.93328
392.068	8.74642
392.279	9.01555
392.489	9.88157
392.7	10.33606
392.91	9.15362
393.121	9.16649
393.331	9.94177
393.542	10.29898
393.752	10.15229
393.963	9.94799
394.173	9.94697
394.384	10.09249
394.594	9.81059
394.804	9.01941
395.015	9.8259
395.225	9.9673
395.436	9.28586
395.646	9.99151
395.856	9.47169
396.067	8.95426
396.277	10.31066
396.487	9.94142
396.697	10.14867
396.908	10.01031
397.118	10.16721
397.328	9.87103
397.538	10.44555
397.749	9.22923
397.959	10.34
398.169	10.01879
398.379	9.0434
398.589	10.08373
398.8	9.86678
399.01	9.93482
399.22	9.64055
399.43	11.11666
399.64	9.9057
399.85	10.28838
400.06	10.06325
400.27	9.38704
400.48	9.89428
400.69	10.6203
400.9	9.58864
401.11	9.24996
401.32	10.37903
401.53	9.5527
401.74	10.81275
401.95	10.16185
402.16	9.52074
402.37	10.13537
402.58	9.72952
402.79	10.26632
403	10.59358
403.209	9.67355
403.419	10.77789
403.629	9.57119
403.839	10.74393
404.049	10.7058
404.258	9.88219
404.468	9.75417
404.678	10.5557
404.888	11.05742
405.097	10.13704
405.307	10.27586
405.517	10.71084
405.727	10.52891
405.936	10.1624
406.146	10.45396
406.356	11.23137
406.565	10.25758
406.775	10.06082
406.984	10.09258
407.194	11.45867
407.404	10.26831
407.613	10.68023
407.823	10.73414
408.032	10.9371
408.242	10.93783
408.451	10.04276
408.661	10.19271
408.87	11.38093
409.08	9.85062
409.289	10.59284
409.499	10.66762
409.708	10.55145
409.918	9.30881
410.127	10.62894
410.336	11.4954
410.546	10.96812
410.755	10.36825
410.964	10.45621
411.174	10.00564
411.383	10.93691
411.592	10.82428
411.802	10.15588
412.011	10.93305
412.22	10.52285
412.429	11.62739
412.639	11.43861
412.848	11.08283
413.057	11.46978
413.266	11.4402
413.475	10.62898
413.685	10.9822
413.894	11.2604
414.103	11.37676
414.312	11.21072
414.521	10.50979
414.73	10.86427
414.939	12.08641
415.148	11.29136
415.357	11.11236
415.566	10.80947
415.776	10.80042
415.985	10.98302
416.194	11.64279
416.403	12.23309
416.611	10.43537
416.82	11.00799
417.029	11.41452
417.238	11.0371
417.447	10.89506
417.656	11.35751
417.865	11.08554
418.074	11.345
418.283	11.53124
418.492	12.11644
418.7	12.0244
418.909	13.04716
419.118	12.13517
419.327	12.6017
419.536	12.5588
419.744	12.66325
419.953	13.98402
420.162	14.27333
420.371	13.84505
420.579	14.64563
420.788	15.43895
420.997	15.5908
421.205	16.17417
421.414	15.83268
421.623	15.8196
421.831	15.70573
422.04	16.13554
422.249	15.27936
422.457	15.52635
422.666	14.66438
422.874	15.46339
423.083	15.42077
423.291	15.46932
423.5	15.4663
423.708	15.98578
423.917	16.45045
424.125	16.00579
424.334	16.01385
424.542	17.58076
424.751	17.07836
424.959	16.72262
425.167	16.57941
425.376	16.64011
425.584	15.22731
425.793	14.95517
426.001	13.9696
426.209	13.94001
426.418	12.80812
426.626	12.41201
426.834	12.16089
427.042	12.53017
427.251	12.22145
427.459	12.99118
427.667	12.45594
427.875	11.80715
428.084	12.26629
428.292	13.16065
428.5	12.83318
428.708	11.88469
428.916	11.97913
429.124	12.56311
429.333	12.28839
429.541	12.40466
429.749	12.52685
429.957	12.64623
430.165	14.1577
430.373	11.82177
430.581	12.69737
430.789	13.39608
430.997	12.4528
431.205	12.26353
431.413	12.84426
431.621	12.44423
431.829	13.08219
432.037	12.58325
432.245	13.00761
432.453	12.91989
432.661	12.74933
432.869	13.79832
433.076	12.48161
433.284	12.80294
433.492	13.35714
433.7	13.57527
433.908	12.95537
434.116	13.06351
434.323	13.239
434.531	13.05596
434.739	13.36051
434.947	13.57287
435.154	13.46372
435.362	13.12033
435.57	12.91894
435.778	12.73616
435.985	13.24482
436.193	12.83177
436.401	13.72545
436.608	13.07808
436.816	12.9216
437.023	13.8003
437.231	13.94195
437.439	13.32423
437.646	13.44365
437.854	13.33911
438.061	13.59891
438.269	13.22623
438.476	13.5878
438.684	13.33386
438.891	13.23297
439.099	12.95612
439.306	12.88661
439.514	13.00889
439.721	14.0286
439.929	13.82211
440.136	14.81769
440.343	14.85412
440.551	15.0067
440.758	16.51354
440.965	15.24491
441.173	14.98302
441.38	14.85395
441.587	14.49084
441.795	14.27956
442.002	13.8331
442.209	13.82191
442.416	13.87768
442.624	14.00335
442.831	13.77288
443.038	13.40783
443.245	13.01979
443.452	13.48916
443.66	13.85845
443.867	13.26895
444.074	13.26054
444.281	13.27151
444.488	13.39636
444.695	13.60242
444.902	13.46779
445.109	14.67755
445.316	14.71162
445.523	15.26346
445.73	15.6645
445.937	16.74351
446.144	17.31712
446.351	17.8733
446.558	16.91543
446.765	18.82464
446.972	18.00571
447.179	17.64681
447.386	18.1731
447.593	16.44336
447.8	17.23136
448.007	15.65263
448.214	14.83121
448.42	14.25496
448.627	14.41355
448.834	13.89374
449.041	13.76271
449.248	13.76282
449.454	14.17793
449.661	14.72622
449.868	13.68935
450.075	13.58598
450.281	12.7919
450.488	13.32573
450.695	13.38163
450.901	13.44654
451.108	13.48471
451.315	14.32157
451.521	13.60892
451.728	14.35375
451.935	13.45722
452.141	13.72678
452.348	13.77963
452.554	13.93799
452.761	13.65955
452.967	14.76812
453.174	13.98425
453.38	14.18347
453.587	13.40461
453.793	14.02047
454	14.53733
454.206	15.08225
454.413	14.47826
454.619	14.29695
454.825	13.67065
455.032	14.32608
455.238	14.42124
455.445	13.49719
455.651	14.11275
455.857	13.16715
456.064	13.85959
456.27	13.86205
456.476	13.75913
456.682	13.42876
456.889	14.25771
457.095	14.18897
457.301	15.18345
457.507	14.1134
457.714	14.18214
457.92	13.96021
458.126	13.64158
458.332	14.00498
458.538	13.96102
458.744	14.00188
458.951	14.03365
459.157	16.29564
459.363	15.87725
459.569	16.55244
459.775	17.24943
459.981	17.20196
460.187	17.88428
460.393	17.85999
460.599	18.07548
460.805	17.07337
461.011	15.96303
461.217	15.55763
461.423	15.04683
461.629	14.51213
461.835	14.74605
462.041	14.3595
462.247	15.36097
462.453	14.38741
462.658	14.32543
462.864	14.88336
463.07	14.47423
463.276	14.46807
463.482	14.49006
463.688	15.06268
463.893	14.15884
464.099	14.33945
464.305	15.14896
464.511	14.20037
464.716	14.31732
464.922	14.87348
465.128	13.93076
465.333	15.39889
465.539	14.89269
465.745	14.49878
465.95	14.50775
466.156	16.00295
466.362	15.09356
466.567	14.55067
466.773	14.2518
466.978	15.34839
467.184	14.10292
467.389	13.72672
467.595	14.81168
467.8	14.35007
468.006	15.4072
468.211	15.32005
468.417	14.0927
468.622	14.88608
468.828	15.13808
469.033	14.89297
469.239	16.12773
469.444	14.43202
469.649	15.22232
469.855	14.61732
470.06	14.8134
470.266	14.2534
470.471	15.03154
470.676	15.07592
470.881	13.86921
471.087	15.51561
471.292	16.18285
471.497	14.14105
471.703	14.68338
471.908	14.51716
472.113	14.82563
472.318	15.21739
472.523	14.36766
472.729	15.08737
472.934	15.06676
473.139	14.68203
473.344	15.07473
473.549	15.45566
473.754	14.53722
473.959	16.47915
474.164	14.52324
474.369	14.73906
474.575	15.30024
474.78	14.98561
474.985	14.54521
475.19	14.04887
475.395	14.54937
475.6	14.91881
475.804	15.66119
476.009	14.93473
476.214	14.92228
476.419	14.77193
476.624	14.13161
476.829	14.5862
477.034	15.35506
477.239	14.61383
477.444	15.30419
477.648	15.40229
477.853	15.26862
478.058	14.94379
478.263	14.6688
478.468	14.54821
478.672	14.6033
478.877	15.81043
479.082	15.88772
479.287	15.3766
479.491	15.12896
479.696	14.74805
479.901	15.41334
480.105	15.52352
480.31	14.81812
480.515	15.18217
480.719	16.25459
480.924	14.91595
481.128	14.59193
481.333	15.34347
481.538	15.34453
481.742	15.84499
481.947	17.12693
482.151	18.56717
482.356	19.99235
482.56	22.96513
482.765	25.6689
482.969	30.19671
483.174	34.242
483.378	39.34387
483.582	41.65056
483.787	44.638
483.991	46.39083
484.196	47.28738
484.4	46.9849
484.604	47.362
484.809	44.1025
485.013	41.61623
485.217	37.96867
485.422	34.05479
485.626	30.78957
485.83	28.73047
486.034	27.34806
486.239	27.51417
486.443	28.06949
486.647	28.64648
486.851	30.05378
487.055	32.25589
487.26	32.74923
487.464	34.38633
487.668	34.31981
487.872	35.53151
488.076	35.35389
488.28	34.49885
488.484	32.77058
488.688	31.79605
488.892	30.10928
489.096	27.91624
489.3	25.89423
489.504	24.12089
489.708	22.68928
489.912	21.93201
490.116	21.30308
490.32	20.87968
490.524	22.24435
490.728	23.51151
490.932	25.02481
491.136	26.5097
491.34	28.19653
491.544	28.97766
491.748	29.52942
491.951	29.6673
492.155	29.23755
492.359	28.43181
492.563	26.60155
492.767	25.08606
492.97	22.79586
493.174	20.5017
493.378	18.59356
493.582	16.61775
493.785	15.73766
493.989	15.75408
494.193	15.63551
494.396	15.45374
494.6	16.02899
494.804	15.5817
495.007	15.26543
495.211	15.3685
495.414	15.36291
495.618	15.64884
495.822	16.13633
496.025	15.58171
496.229	16.00567
496.432	15.40784
496.636	15.74621
496.839	15.61836
497.043	16.4637
497.246	15.99408
497.45	15.66243
497.653	15.90344
497.856	15.89233
498.06	15.52598
498.263	15.82928
498.467	15.69895
498.67	16.11135
498.873	16.03497
499.077	15.72503
499.28	15.68633
499.483	15.90509
499.686	16.09793
499.89	15.88262
500.093	16.21583
500.296	15.45375
500.499	16.60999
500.703	15.75118
500.906	15.92301
501.109	16.59053
501.312	15.89063
501.515	15.78768
501.719	15.92562
501.922	16.41954
502.125	15.83586
502.328	15.79457
502.531	15.41527
502.734	15.80287
502.937	15.10679
503.14	15.96782
503.343	15.47819
503.546	15.67179
503.749	15.38313
503.952	16.15261
504.155	15.50823
504.358	16.12144
504.561	15.95647
504.764	15.15059
504.967	15.96729
505.17	15.85365
505.373	16.64141
505.576	15.88999
505.778	16.29092
505.981	15.4876
506.184	16.56861
506.387	15.09363
506.59	16.84987
506.793	16.42515
506.995	16.13153
507.198	15.16349
507.401	16.18907
507.604	16.16922
507.806	15.48626
508.009	15.59679
508.212	16.36526
508.414	15.63098
508.617	15.79376
508.82	16.0673
509.022	16.78363
509.225	16.10216
509.427	15.39074
509.63	16.66378
509.833	16.12137
510.035	15.78588
510.238	15.51853
510.44	16.65129
510.643	15.18846
510.845	16.91129
511.048	16.20517
511.25	15.82868
511.453	15.97854
511.655	16.2346
511.858	15.85979
512.06	16.45682
512.262	16.17751
512.465	16.43737
512.667	15.87526
512.869	15.48255
513.072	16.35663
513.274	16.44766
513.476	16.43003
513.679	16.58362
513.881	15.58585
514.083	16.879
514.286	15.80239
514.488	15.77555
514.69	15.65368
514.892	15.42512
515.094	16.30123
515.297	15.75249
515.499	16.17736
515.701	15.61869
515.903	16.82593
516.105	16.92246
516.307	16.4835
516.509	15.19126
516.711	15.55427
516.913	16.12154
517.116	16.05303
517.318	15.91889
517.52	16.61645
517.722	16.45258
517.924	15.59608
518.126	16.42261
518.328	16.1664
518.529	17.05727
518.731	17.82505
518.933	16.47968
519.135	16.72255
519.337	17.30531
519.539	16.55573
519.741	15.61779
519.943	16.20646
520.145	16.23272
520.346	16.67168
520.548	16.07555
520.75	16.41198
520.952	16.15912
521.153	16.50789
521.355	16.39323
521.557	15.83809
521.759	16.27033
521.96	16.18439
522.162	15.80809
522.364	16.75155
522.565	15.895
522.767	16.57989
522.969	16.69198
523.17	16.50512
523.372	16.43071
523.573	15.95535
523.775	16.10969
523.977	15.79469
524.178	17.18361
524.38	15.98271
524.581	16.43653
524.783	16.17223
524.984	16.56333
525.186	16.46771
525.387	17.15613
525.589	17.5178
525.79	17.79212
525.991	18.07515
526.193	18.8779
526.394	18.3745
526.596	19.34116
526.797	19.65949
526.998	19.58027
527.2	20.53893
527.401	23.02672
527.602	24.88963
527.803	28.42627
528.005	30.67102
528.206	33.38278
528.407	35.40389
528.608	36.44129
528.81	37.16328
529.011	36.863
529.212	37.83377
529.413	36.13153
529.614	34.08153
529.815	31.97347
530.017	29.32073
530.218	26.13911
530.419	23.52372
530.62	22.29416
530.821	20.91737
531.022	19.09362
531.223	19.43854
531.424	18.94868
531.625	18.95493
531.826	18.66253
532.027	19.4636
532.228	21.06359
532.429	21.68007
532.63	22.62484
532.831	24.12361
533.032	24.86881
533.233	25.91749
533.433	25.78049
533.634	26.1446
533.835	25.25257
534.036	24.48664
534.237	23.56918
534.438	22.05188
534.638	20.22443
534.839	18.99654
535.04	18.1912
535.241	17.16957
535.441	17.81661
535.642	17.36175
535.843	17.11675
536.043	17.4649
536.244	17.88476
536.445	18.33026
536.645	19.14345
536.846	18.9708
537.047	19.25774
537.247	18.20767
537.448	17.67399
537.648	17.24041
537.849	16.70613
538.049	16.743
538.25	16.99518
538.451	16.94584
538.651	16.27169
538.851	16.98685
539.052	17.27712
539.252	17.03086
539.453	16.65211
539.653	16.82994
539.854	16.62713
540.054	16.74164
540.254	19.10463
540.455	21.04712
540.655	22.14313
540.855	24.70794
541.056	26.3626
541.256	26.95471
541.456	28.34411
541.657	28.42066
541.857	29.14551
542.057	27.87008
542.257	26.94439
542.458	26.63038
542.658	25.3595
542.858	23.02231
543.058	22.23066
543.258	20.96949
543.458	19.18027
543.659	18.36619
543.859	18.51234
544.059	17.85635
544.259	17.03597
544.459	17.63464
544.659	16.89038
544.859	17.26908
545.059	16.79626
545.259	17.34645
545.459	17.14313
545.659	17.40891
545.859	17.11478
546.059	17.24049
546.259	16.70423
546.459	16.40775
546.659	16.57095
546.859	17.48357
547.059	17.1561
547.258	17.21537
547.458	17.34073
547.658	16.58283
547.858	16.44615
548.058	17.06676
548.258	16.76375
548.457	16.4385
548.657	18.0865
548.857	16.89142
549.057	17.30506
549.256	17.05597
549.456	16.52175
549.656	15.73717
549.855	18.02056
550.055	16.57063
550.255	17.81267
550.454	17.14734
550.654	17.17345
550.853	17.79483
551.053	17.20093
551.253	16.97505
551.452	17.13845
551.652	16.05601
551.851	16.00375
552.051	16.53116
552.25	16.5945
552.45	16.47467
552.649	16.6441
552.849	16.39593
553.048	16.92749
553.248	17.435
553.447	16.3867
553.646	17.36133
553.846	18.29729
554.045	17.65249
554.244	16.02091
554.444	17.7772
554.643	16.42995
554.842	17.7668
555.042	17.97518
555.241	16.37555
555.44	16.14202
555.64	17.19477
555.839	17.72217
556.038	17.14145
556.237	16.38819
556.436	16.91957
556.636	16.80345
556.835	16.32115
557.034	17.78248
557.233	16.7906
557.432	15.71571
557.631	17.41851
557.83	16.63373
558.029	16.45621
558.228	16.32728
558.427	16.17395
558.626	17.05648
558.825	16.18865
559.024	16.55724
559.223	17.93029
559.422	16.52527
559.621	17.01136
559.82	15.35805
560.019	16.76661
560.218	16.35859
560.417	15.47758
560.616	16.38628
560.815	18.79454
561.014	15.91295
561.212	17.79308
561.411	16.90786
561.61	16.14584
561.809	16.55793
562.008	17.85848
562.206	16.67173
562.405	17.15891
562.604	16.80665
562.803	16.93959
563.001	16.71531
563.2	15.90338
563.399	17.0931
563.597	16.06757
563.796	16.70884
563.995	16.09288
564.193	17.26313
564.392	16.64398
564.59	18.15005
564.789	15.75145
564.988	16.66131
565.186	17.03474
565.385	16.86014
565.583	16.80608
565.782	16.7766
565.98	16.89167
566.179	16.73648
566.377	16.36774
566.575	16.45793
566.774	18.01121
566.972	17.57562
567.171	18.34482
567.369	17.76923
567.567	17.18333
567.766	17.14149
567.964	15.73982
568.162	17.28578
568.361	17.66884
568.559	16.66909
568.757	17.1983
568.956	16.90715
569.154	16.96298
569.352	17.27318
569.55	16.89224
569.748	16.91581
569.947	16.35843
570.145	16.27974
570.343	16.42923
570.541	17.99203
570.739	16.12096
570.937	16.90594
571.135	17.20061
571.333	18.48989
571.532	18.3233
571.73	17.10442
571.928	17.64675
572.126	17.51631
572.324	16.95529
572.522	17.82523
572.72	18.94914
572.918	17.06709
573.116	17.62748
573.313	16.92663
573.511	16.99546
573.709	16.77963
573.907	17.73781
574.105	16.79266
574.303	16.03295
574.501	16.03342
574.699	17.47318
574.896	17.35693
575.094	17.58219
575.292	16.32079
575.49	17.72474
575.688	16.9065
575.885	18.00535
576.083	18.85934
576.281	17.62533
576.478	16.54085
576.676	17.49199
576.874	16.0922
577.071	17.03162
577.269	18.61944
577.467	17.00105
577.664	17.03162
577.862	17.69562
578.059	16.39078
578.257	17.77359
578.455	16.72893
578.652	17.00806
578.85	15.65178
579.047	17.10202
579.245	16.78774
579.442	16.98021
579.64	16.6151
579.837	15.91623
580.034	18.84893
580.232	16.62193
580.429	16.12611
580.627	17.31752
580.824	17.77437
581.021	17.43712
581.219	16.55858
581.416	16.55511
581.613	18.0353
581.811	17.84544
582.008	16.36502
582.205	17.85034
582.402	17.2437
582.6	18.48984
582.797	16.98591
582.994	17.28455
583.191	17.68468
583.388	16.82537
583.586	17.68901
583.783	17.77739
583.98	16.29885
584.177	17.08493
584.374	15.09255
584.571	16.90171
584.768	16.97674
584.965	16.64053
585.162	17.44122
585.359	18.26264
585.556	17.17577
585.753	17.35407
585.95	15.97156
586.147	16.09632
586.344	17.50781
586.541	16.8085
586.738	16.28006
586.935	16.9356
587.132	16.65859
587.329	18.0677
587.526	16.79552
587.722	21.05496
587.919	16.14348
588.116	17.34516
588.313	18.32832
588.51	18.66331
588.706	16.94888
588.903	17.64681
589.1	18.01602
589.297	19.48192
589.493	17.20709
589.69	17.73412
589.887	16.90236
590.083	16.25828
590.28	16.66653
590.477	18.12641
590.673	17.58375
590.87	18.28078
591.067	16.84075
591.263	17.43114
591.46	17.56272
591.656	16.99821
591.853	18.56286
592.049	16.54685
592.246	16.70379
592.442	17.86246
592.639	18.12816
592.835	16.4732
593.032	17.63158
593.228	16.18364
593.425	16.0811
593.621	15.95581
593.817	17.62753
594.014	16.66278
594.21	17.38157
594.406	18.09284
594.603	17.59398
594.799	16.70888
594.995	15.54283
595.192	18.30458
595.388	17.05602
595.584	17.00586
595.78	16.32023
595.977	19.61425
596.173	18.65685
596.369	17.2266
596.565	16.7033
596.761	16.42
596.957	18.3254
597.154	17.08967
597.35	17.0234
597.546	16.96437
597.742	17.96937
597.938	17.74295
598.134	16.97152
598.33	17.7462
598.526	18.58594
598.722	17.58369
598.918	18.86749
599.114	17.74013
599.31	16.38336
599.506	17.26164
599.702	16.53817
599.898	17.39712
600.094	17.85692
600.29	17.94947
600.485	17.99756
600.681	16.54123
600.877	18.89568
601.073	17.14464
601.269	19.09621
601.465	18.62328
601.66	16.48191
601.856	15.84565
602.052	19.29112
602.248	17.20015
602.443	15.72216
602.639	16.41195
602.835	16.82681
603.03	16.69464
603.226	18.27374
603.422	16.7271
603.617	17.33328
603.813	17.23786
604.009	17.25185
604.204	18.48555
604.4	16.56321
604.595	18.61264
604.791	16.97177
604.986	18.08756
605.182	17.05021
605.377	17.45725
605.573	17.53649
605.768	17.82081
605.964	18.19645
606.159	18.18603
606.355	18.60496
606.55	17.34703
606.746	18.56758
606.941	17.40076
607.136	19.35261
607.332	20.16084
607.527	16.493
607.722	17.85435
607.918	17.2665
608.113	16.88485
608.308	18.51377
608.503	18.0967
608.699	17.98428
608.894	18.32618
609.089	17.18638
609.284	18.16173
609.479	17.57375
609.675	18.51415
609.87	17.73483
610.065	18.69627
610.26	18.83775
610.455	18.69297
610.65	18.16049
610.845	18.44339
611.04	18.97132
611.235	18.13808
611.43	18.00856
611.625	17.19169
611.82	19.66581
612.015	17.46689
612.21	19.86362
612.405	16.69817
612.6	19.74463
612.795	19.5599
612.99	18.56977
613.185	17.06609
613.38	17.17519
613.575	18.15704
613.77	20.82891
613.965	16.52053
614.159	17.18003
614.354	19.23588
614.549	18.85701
614.744	18.24331
614.938	16.81329
615.133	16.44824
615.328	19.17053
615.523	18.88093
615.717	20.77557
615.912	17.21843
616.107	17.89356
616.301	17.44183
616.496	17.18355
616.691	19.27373
616.885	18.61898
617.08	20.81054
617.274	18.85338
617.469	19.89728
617.664	18.57901
617.858	17.41831
618.053	18.13103
618.247	17.61127
618.442	15.50504
618.636	19.5131
618.831	17.10702
619.025	17.23115
619.219	20.80091
619.414	14.73878
619.608	17.38348
619.803	17.23175
619.997	20.22779
620.191	19.01232
620.386	18.37617
620.58	17.61586
620.774	16.00536
620.969	16.19079
621.163	17.97709
621.357	16.91647
621.551	17.72561
621.746	17.95307
621.94	17.40003
622.134	21.62462
622.328	20.18072
622.522	16.23369
622.716	19.07359
622.911	19.08512
623.105	19.06862
623.299	18.54379
623.493	21.4223
623.687	17.09012
623.881	17.16148
624.075	18.74153
624.269	19.47254
624.463	15.89722
624.657	16.08365
624.851	18.51524
625.045	18.93184
625.239	19.11506
625.433	17.63677
625.627	20.07638
625.821	17.59545
626.015	17.30605
626.209	18.4525
626.403	16.662
626.596	18.91569
626.79	19.36216
626.984	17.02238
627.178	19.11647
627.372	18.87751
627.565	19.22354
627.759	17.015
627.953	17.25491
628.147	18.83739
628.34	19.21881
628.534	20.95749
628.728	18.06084
628.921	19.21929
629.115	18.96309
629.309	19.49897
629.502	19.5904
629.696	18.48898
629.89	18.19999
630.083	18.66506
630.277	18.58643
630.47	20.32042
630.664	17.8384
630.857	16.6039
631.051	19.24969
631.244	19.68113
631.438	19.19693
631.631	17.42734
631.825	19.96564
632.018	19.0411
632.212	20.59298
632.405	19.80291
632.598	17.37454
632.792	18.6054
632.985	15.70132
633.178	17.98743
633.372	18.42939
633.565	18.12905
633.758	19.87584
633.952	17.47892
634.145	17.11361
634.338	17.96844
634.531	17.97648
634.724	17.27635
634.918	18.37619
635.111	18.02656
635.304	18.07858
635.497	21.51554
635.69	18.91408
635.883	19.97691
636.077	17.36795
636.27	18.88216
636.463	18.70043
636.656	18.96516
636.849	18.15841
637.042	19.1315
637.235	20.97193
637.428	19.31528
637.621	19.19846
637.814	20.1406
638.007	20.24686
638.2	20.28613
638.393	20.96239
638.586	16.72375
638.778	17.86786
638.971	18.20607
639.164	20.34174
639.357	18.79863
639.55	21.01408
639.743	19.66906
639.935	19.31043
640.128	21.79588
640.321	20.31593
640.514	18.73381
640.707	21.80011
640.899	19.4834
641.092	16.38918
641.285	34.11641
641.477	15.93243
641.67	22.55382
641.863	20.54787
642.055	19.10905
642.248	18.93605
642.441	18.44395
642.633	19.52604
642.826	20.08532
643.018	20.7147
643.211	21.90339
643.403	22.11664
643.596	22.56399
643.788	22.19941
643.981	18.4601
644.173	20.20535
644.366	18.18695
644.558	16.41562
644.751	20.7116
644.943	17.37158
645.135	21.29125
645.328	21.65879
645.52	20.04096
645.712	20.56131
645.905	23.58564
646.097	17.58396
646.289	19.68592
646.482	22.71522
646.674	17.88926
646.866	21.40152
647.058	20.05747
647.251	17.75698
647.443	18.28796
647.635	18.90375
647.827	17.5546
648.019	17.82855
648.211	18.54489
648.404	19.17673
648.596	22.06796
648.788	19.76414
648.98	19.30937
649.172	20.13328
649.364	19.96158
649.556	16.80223
649.748	24.16156
649.94	17.62413
650.132	20.47628
650.324	18.39551
650.516	18.30342
650.708	21.33621
650.9	17.38907
651.092	17.24018
651.284	17.67386
651.476	17.9815
651.667	20.63742
651.859	21.97222
652.051	19.21098
652.243	20.04073
652.435	19.25182
652.627	20.91887
652.818	20.56609
653.01	17.43385
653.202	18.31631
653.394	18.84206
653.585	20.74534
653.777	26.90812
653.969	22.16835
654.16	21.60893
654.352	17.79053
654.544	19.47185
654.735	21.72769
654.927	20.29792
655.118	22.37916
655.31	21.04264
655.502	22.14075
655.693	19.52955
655.885	20.86482
656.076	22.43878
656.268	20.54545
656.459	22.21657
656.651	22.27291
656.842	19.51754
657.034	19.14165
657.225	21.42869
657.416	22.38246
657.608	22.42459
657.799	20.2998
657.99	22.76176
658.182	19.44764
658.373	19.46355
658.564	22.6315
658.756	21.04827
658.947	20.4272
659.138	19.2393
659.33	19.95197
659.521	19.75015
659.712	20.47435
659.903	20.45241
660.094	19.99806
660.286	18.57779
660.477	23.50633
660.668	21.51331
660.859	20.52613
661.05	18.16385
661.241	21.3538
661.432	21.0163
661.623	20.1786
661.814	19.86219
662.006	18.10648
662.197	20.85407
662.388	22.38248
662.579	21.05103
662.77	22.76144
662.96	25.37278
663.151	21.99982
663.342	17.41088
663.533	21.93963
663.724	20.85172
663.915	24.27543
664.106	20.65999
664.297	24.22654
664.488	21.6477
664.678	19.39408
664.869	22.23454
665.06	22.30369
665.251	20.97689
665.442	21.87729
665.632	19.04176
665.823	24.49748
666.014	15.76384
666.204	22.024
666.395	23.61365
666.586	25.21292
666.776	22.34609
666.967	25.22586
667.158	21.0151
667.348	23.70112
667.539	19.36545
667.729	23.1196
667.92	19.93221
668.111	22.92103
668.301	22.73392
668.492	20.54734
668.682	21.95243
668.873	21.19526
669.063	18.9172
669.253	22.5106
669.444	24.08994
669.634	21.3348
669.825	25.37075
670.015	24.12077
670.206	19.77557
670.396	25.59247
670.586	21.27525
670.777	22.60234
670.967	17.62555
671.157	21.02777
671.347	20.09347
671.538	24.87823
671.728	22.72984
671.918	25.54342
672.108	23.5897
672.299	21.30537
672.489	22.3577
672.679	20.36714
672.869	22.79072
673.059	26.73453
673.249	23.15056
673.44	19.33216
673.63	21.27095
673.82	23.71592
674.01	19.67365
674.2	22.69104
674.39	27.44657
674.58	23.56281
674.77	21.94992
674.96	21.27516
675.15	30.53536
675.34	24.52166
675.53	21.89878
675.72	21.27153
675.91	18.7866
676.099	26.30022
676.289	27.35157
676.479	24.849
676.669	20.77366
676.859	23.16343
677.049	20.60617
677.238	22.21012
677.428	26.56101
677.618	23.39973
677.808	26.4079
677.997	23.8907
678.187	20.85587
678.377	22.63284
678.567	21.21198
678.756	21.81667
678.946	22.69948
679.136	19.97821
679.325	21.58228
679.515	20.994
679.704	20.38528
679.894	24.74557
680.084	23.77174
680.273	25.42793
680.463	21.56098
680.652	21.00166
680.842	22.81847
681.031	25.07066
681.221	21.64524
681.41	24.52399
681.6	22.4824
681.789	24.56089
681.978	25.8102
682.168	23.88795
682.357	23.35704
682.547	23.97446
682.736	23.98662
682.925	26.00364
683.115	26.0671
683.304	25.24924
683.493	23.68582
683.682	24.29549
683.872	24.45954
684.061	25.71347
684.25	24.05537
684.439	28.64887
684.629	25.16762
684.818	31.45267
685.007	23.46365
685.196	22.4758
685.385	27.977
685.574	24.43881
685.763	24.53435
685.952	24.26339
686.142	21.17969
686.331	27.18146
686.52	20.48939
686.709	29.04033
686.898	28.64589
687.087	25.6447
687.276	28.31943
687.465	27.25094
687.654	23.87387
687.842	27.81926
688.031	21.67086
688.22	27.56666
688.409	24.8321
688.598	24.63008
688.787	30.77467
688.976	24.55456
689.165	29.44581
689.353	23.59543
689.542	25.8211
689.731	27.20538
689.92	30.01434
690.108	26.32426
690.297	23.85142
690.486	25.26343
690.675	26.98969
690.863	29.05674
691.052	28.84462
691.241	25.33649
691.429	25.5167
691.618	28.77002
691.806	22.23682
691.995	24.69645
692.184	25.04473
692.372	24.02502
692.561	25.34126
692.749	25.84418
692.938	34.3302
693.126	27.01327
693.315	24.93943
693.503	27.8476
693.692	28.27263
693.88	27.85041
694.068	31.21486
694.257	26.4142
694.445	27.36264
694.634	20.6587
694.822	28.0264
695.01	28.75707
695.199	31.61736
695.387	29.98419
695.575	29.1122
695.763	25.63335
695.952	24.8162
696.14	22.11544
696.328	24.56362
696.516	26.29205
696.705	27.18187
696.893	26.18018
697.081	21.68376
697.269	28.45387
697.457	23.25892
697.645	22.8247
697.833	28.19715
698.021	24.38195
698.21	24.99877
698.398	25.37729
698.586	23.71564
698.774	23.24072
698.962	26.10241
699.15	23.56453
699.338	22.62987
699.526	27.81565
699.714	24.46177
699.901	24.58571
700.089	28.11334
700.277	24.6807
700.465	25.99339
700.653	28.00287
700.841	26.76913
701.029	24.01174
701.217	30.82294
701.404	26.21697
701.592	30.69713
701.78	33.08888
701.968	25.89471
702.155	25.81333
702.343	22.52854
702.531	30.39556
702.718	27.80123
702.906	25.19541
703.094	24.69475
703.281	30.62029
703.469	26.37916
703.657	29.90748
703.844	36.7853
704.032	33.15724
704.219	26.11505
704.407	29.09887
704.595	31.99762
704.782	28.62187
704.97	27.66604
705.157	27.55255
705.345	33.80205
705.532	40.61128
705.719	31.46417
705.907	34.39399
706.094	31.03116
706.282	37.42022
706.469	30.68254
706.656	32.78163
706.844	31.23805
707.031	35.8933
707.218	34.2395
707.406	37.84612
707.593	35.20905
707.78	35.73135
707.968	34.16864
708.155	31.168
708.342	35.51483
708.529	36.26572
708.716	35.41513
708.904	38.75283
709.091	36.01223
709.278	30.64859
709.465	40.77961
709.652	38.78076
709.839	37.49611
710.026	33.37305
710.213	28.31536
710.4	33.47561
710.587	34.61417
710.774	35.51188
710.961	37.12824
711.148	33.78855
711.335	36.38699
711.522	32.58832
711.709	35.17435
711.896	40.76166
712.083	36.92549
712.27	31.00489
712.457	34.93925
712.644	28.3682
712.831	41.10252
713.017	34.56161
713.204	36.02791
713.391	30.9956
713.578	36.86074
713.765	38.53766
713.951	34.17752
714.138	43.71087
714.325	33.62035
714.512	31.41882
714.698	28.30355
714.885	36.88127
715.072	31.42573
715.258	31.30196
715.445	28.90926
715.631	35.42198
715.818	22.09213
716.005	28.61584
716.191	33.02977
716.378	29.3448
716.564	33.55816
716.751	27.60219
716.937	29.16898
717.124	33.76385
717.31	27.18209
717.497	37.6113
717.683	28.40867
717.869	38.98843
718.056	28.48876
718.242	32.59464
718.429	29.59158
718.615	26.45765
718.801	30.38576
718.988	34.96086
719.174	32.79858
719.36	29.08109
719.547	35.33405
719.733	31.50208
719.919	31.93876
720.105	32.65725
720.291	30.84314
720.478	30.93402
720.664	31.85561
720.85	28.89227
721.036	41.86678
721.222	37.32859
721.408	31.45046
721.595	37.60583
721.781	37.26792
721.967	35.68734
722.153	38.37598
722.339	34.36089
722.525	32.99513
722.711	26.92862
722.897	26.61101
723.083	30.15263
723.269	35.26145
723.455	43.70556
723.641	49.67498
723.827	32.43579
724.012	33.67055
724.198	30.93151
724.384	38.12031
724.57	34.09141
724.756	26.51388
724.942	24.10714
725.127	37.01061
725.313	37.48558
725.499	37.36371
725.685	40.50816
725.87	34.04423
726.056	28.45827
726.242	38.60085
726.428	25.97687
726.613	35.82286
726.799	29.85366
726.985	27.48816
727.17	25.38268
727.356	41.34477
727.541	28.50993
727.727	32.64427
727.913	35.94597
728.098	30.29447
728.284	35.93773
728.469	27.38998
728.655	28.99782
728.84	37.35642
729.026	36.08657
729.211	35.44447
729.397	34.64722
729.582	36.42087
729.767	33.02433
729.953	34.37118
730.138	39.22566
730.323	23.62951
730.509	28.12575
730.694	40.27982
730.879	35.87556
731.065	34.34227
731.25	43.85081
731.435	36.61094
731.621	27.01992
731.806	30.2979
731.991	33.8587
732.176	27.28048
732.361	40.60614
732.547	34.68623
732.732	26.74333
732.917	43.69129
733.102	28.04534
733.287	30.5156
733.472	32.54788
733.657	33.25522
733.842	26.77934
734.027	30.76713
734.212	32.87685
734.397	30.44135
734.582	33.90385
734.767	37.80235
734.952	40.49308
735.137	22.80322
735.322	40.22384
735.507	35.97991
735.692	34.38199
735.877	43.72179
736.062	43.10674
736.247	36.29101
736.431	33.24184
736.616	39.04818
736.801	35.23123
736.986	33.09891
737.171	29.20091
737.355	28.53214
737.54	39.89862
737.725	34.51269
737.909	47.33002
738.094	31.86471
738.279	38.26758
738.463	32.81687
738.648	36.8594
738.833	36.44633
739.017	44.99654
739.202	32.13673
739.386	33.23583
739.571	29.93857
739.756	38.12013
739.94	33.97044
740.125	37.05335
740.309	31.14734
740.494	38.7834
740.678	35.67281
740.863	36.40419
741.047	35.26172
741.231	42.31063
741.416	31.42492
741.6	42.91738
741.785	31.21141
741.969	39.83505
742.153	42.91428
742.338	25.47572
742.522	33.95762
742.706	38.85812
742.89	28.86338
743.075	34.48948
743.259	41.94024
743.443	40.51288
743.627	42.45473
743.812	46.72061
743.996	25.74639
744.18	33.36555
744.364	32.8879
744.548	47.94203
744.732	32.51429
744.916	40.41654
745.1	38.18163
745.285	33.76957
745.469	38.56987
745.653	43.71349
745.837	28.73059
746.021	49.03231
746.205	42.48539
746.389	36.61303
746.573	34.40674
746.757	44.8761
746.94	33.50301
747.124	43.2094
747.308	29.87544
747.492	42.12218
747.676	30.62707
747.86	50.38292
748.044	33.0895
748.227	27.61395
748.411	59.40378
748.595	35.73084
748.779	31.22752
748.963	38.27381
749.146	37.30195
749.33	31.81795
749.514	32.00565
749.697	43.01196
749.881	33.0443
750.065	30.53555
750.248	37.75595
750.432	49.70754
750.616	35.27857
750.799	31.22985
750.983	50.92399
751.166	50.27757
751.35	27.75701
751.533	39.19013
751.717	45.82244
751.9	46.53013
752.084	34.87579
752.267	31.53781
752.451	32.73331
752.634	37.37396
752.818	40.77098
753.001	41.31832
753.184	44.37387
753.368	39.2341
753.551	18.10525
753.734	32.18001
753.918	51.78007
754.101	33.18168
754.284	40.65476
754.467	33.2931
754.651	32.52622
754.834	32.61471
755.017	43.6178
755.2	44.4998
755.384	31.75571
755.567	41.68805
755.75	42.32624
755.933	35.66645
756.116	42.13742
756.299	34.49599
756.482	32.30113
756.665	40.51279
756.848	36.96284
757.032	39.35084
757.215	29.00658
757.398	30.88185
757.581	32.11323
757.764	55.15857
757.947	36.46696
758.129	43.06196
758.312	21.5693
758.495	36.31915
758.678	36.41381
758.861	35.14544
759.044	48.54459
759.227	32.13212
759.41	33.38938
759.592	42.76175
759.775	35.67273
759.958	43.60856
760.141	29.91369
760.324	53.03533
760.506	47.64193
760.689	42.19423
760.872	51.56049
761.054	39.73188
761.237	36.71311
761.42	38.48416
761.602	42.52697
761.785	40.57965
761.968	45.36042
762.15	49.55724
762.333	37.52922
762.515	41.78435
762.698	35.71053
762.88	44.45518
763.063	40.23191
763.245	44.72893
763.428	32.58079
763.61	35.08978
763.793	30.86923
763.975	39.64423
764.158	37.08325
764.34	33.84845
764.522	32.71595
764.705	37.58737
764.887	47.27232
765.069	29.2246
765.252	41.47602
765.434	42.1897
765.616	39.87655
765.799	34.30121
765.981	42.6586
766.163	34.97987
766.345	47.20807
766.528	34.63771
766.71	26.00997
766.892	39.60045
767.074	47.72047
767.256	35.74649
767.438	50.12919
767.62	40.01049
767.802	54.75802
767.985	43.60843
768.167	51.69964
768.349	36.53143
768.531	43.42881
768.713	41.04042
768.895	43.44825
769.077	41.99136
769.259	57.91877
769.441	75.67144
769.623	44.57207
769.804	50.4799
769.986	48.51393
770.168	56.11709
770.35	65.7861
770.532	51.8008
770.714	57.3618
770.896	56.2517
771.077	32.06011
771.259	59.00553
771.441	52.7981
771.623	62.70048
771.804	71.95642
771.986	33.76315
772.168	43.27372
772.35	57.50823
772.531	73.77506
772.713	48.99089
772.894	62.90676
773.076	49.59106
773.258	45.95295
773.439	64.22113
773.621	70.92806
773.802	39.48085
773.984	45.8154
774.166	54.36528
774.347	66.26829
774.529	61.13445
774.71	29.88314
774.891	46.84459
775.073	44.1496
775.254	63.24285
775.436	44.59207
775.617	76.9842
775.799	45.5845
775.98	64.85096
776.161	70.50523
776.343	74.13007
776.524	50.65569
776.705	48.17967
776.886	32.6168
777.068	55.77808
777.249	101.98221
777.43	72.9317
777.611	39.28268
777.793	46.02644
777.974	72.03835
778.155	44.80609
778.336	40.13937
778.517	80.44993
778.698	42.64802
778.879	31.87857
779.061	23.62275
779.242	56.52545
779.423	55.21175
779.604	46.39472
779.785	48.10195
779.966	54.01597
780.147	64.29242
780.328	63.71172
780.509	83.45855
780.69	63.07248
780.871	44.16777
781.051	36.95368
781.232	52.38519
781.413	52.5663
781.594	48.8097
781.775	48.11631
781.956	42.21873
782.137	29.27493
782.317	45.39647
782.498	52.84036
782.679	53.5634
782.86	56.14789
783.04	44.22024
783.221	54.5153
783.402	73.21005
783.583	49.93386
783.763	63.31168
783.944	47.37755
784.124	37.21731
784.305	74.53349
784.486	59.49327
784.666	52.86848
784.847	35.36375
785.027	95.86941
785.208	45.58209
785.388	45.98452
785.569	45.92058
785.749	49.04693
785.93	46.63615
786.11	35.28848
786.291	59.90438
786.471	53.91138
786.652	61.81193
786.832	49.04826
787.012	54.52514
787.193	38.39113
787.373	53.05289
787.553	47.61412
787.734	55.31085
787.914	48.21226
788.094	64.03282
788.275	56.20125
788.455	47.48712
788.635	38.47576
788.815	54.50779
788.995	40.70845
789.176	34.74611
789.356	43.49059
789.536	49.17441
789.716	57.23091
789.896	43.01803
790.076	46.23195
790.256	56.36401
790.436	29.60461
790.616	40.67484
790.796	54.85285
790.976	46.60656
791.156	43.41578
791.336	59.06445
791.516	56.0869
791.696	48.85283
791.876	37.78596
792.056	53.01201
792.236	63.39334
792.416	60.55103
792.596	53.85538
792.776	56.33111
792.956	59.76303
793.135	74.74065
793.315	39.10878
793.495	64.92918
793.675	62.10821
793.854	59.02284
794.034	63.53219
794.214	42.05873
794.394	61.27255
794.573	67.562
794.753	54.28024
794.933	41.84191
795.112	55.58569
795.292	64.41223
795.472	74.12694
795.651	37.44375
795.831	50.65205
796.01	48.31264
796.19	48.74276
796.369	52.40639
796.549	56.51128
796.728	49.54569
796.908	38.55424
797.087	39.17532
797.267	50.0125
797.446	39.63816
797.626	57.50292
797.805	57.74241
797.984	42.33879
798.164	61.57695
798.343	41.53969
798.522	54.81204
798.702	54.13189
798.881	38.5908
799.06	48.66173
799.239	32.93153
799.419	42.16698
799.598	74.6549
799.777	55.50638
799.956	65.80106
800.136	47.52114
800.315	42.55276
800.494	56.78172
800.673	65.5687
800.852	61.12792
801.031	66.23496
801.21	59.42266
801.389	47.0503
801.568	53.27312
801.747	77.08112
801.926	52.00689
802.105	70.52908
802.284	47.68279
802.463	72.98351
802.642	57.08181
802.821	56.48203
803	71.51802
803.179	63.7486
803.358	64.96466
803.537	45.91125
803.716	52.58187
803.895	46.15673
804.073	50.59746
804.252	43.8769
804.431	59.5336
804.61	49.83066
804.789	63.33798
804.967	46.11342
805.146	48.15956
805.325	82.43486
805.503	56.27018
805.682	39.33556
805.861	96.0073
806.039	71.3147
806.218	49.1368
806.397	56.18229
806.575	52.10519
806.754	58.07322
806.932	41.4661
807.111	66.11761
807.289	63.79639
807.468	55.00349
807.646	65.24308
807.825	62.24558
808.003	57.64074
808.182	67.18995
808.36	54.11602
808.539	43.30984
808.717	71.2974
808.895	45.20699
809.074	58.71562
809.252	52.31195
809.43	61.42675
809.609	69.90269
809.787	73.48034
809.965	52.67673
810.144	52.35956
810.322	53.33824
810.5	59.13711
810.678	51.72188
810.856	83.49732
811.035	70.87915
811.213	61.78365
811.391	74.06526
811.569	58.42042
811.747	103.90649
811.925	71.38074
812.103	45.59118
812.281	57.5463
812.459	81.73196
812.637	80.57386
812.816	64.23376
812.994	83.87631
813.171	74.19118
813.349	61.85902
813.527	67.23513
813.705	76.27087
813.883	93.38666
814.061	66.48809
814.239	80.54965
814.417	88.58928
814.595	62.58137
814.773	62.52649
814.95	58.92209
815.128	62.9194
815.306	58.51884
815.484	55.12667
815.662	46.85495
815.839	41.41883
816.017	50.21738
816.195	73.53416
816.372	50.6998
816.55	67.17966
816.728	77.33587
816.905	53.70335
817.083	80.88032
817.261	54.18758
817.438	99.0333
817.616	82.10958
817.793	48.90837
817.971	68.74851
818.148	67.01807
818.326	75.54753
818.503	59.92873
818.681	81.71535
818.858	51.82426
819.036	55.8511
819.213	60.3913
819.391	49.97674
819.568	49.46042
819.745	45.20249
819.923	67.17472
820.1	54.55882
820.277	45.79305
820.455	53.45722
820.632	55.60755
820.809	58.89006
820.986	43.57949
821.164	39.42532
821.341	37.70379
821.518	48.04892
821.695	39.9098
821.872	38.63286
822.05	35.47347
822.227	32.59775
822.404	33.8774
822.581	35.94641
822.758	34.11861
822.935	34.2988
823.112	36.6854
823.289	33.88241
823.466	36.67864
823.643	36.1498
823.82	39.57867
823.997	37.99318
824.174	40.28777
824.351	47.02949
824.528	45.81996
824.705	43.54556
824.882	45.59915
825.059	52.83454
825.236	44.36429
825.412	44.49538
825.589	49.2808
825.766	61.54023
825.943	45.93897
826.12	49.30719
826.296	41.4862
826.473	46.95516
826.65	46.51874
826.827	50.90724
827.003	40.80133
827.18	43.69548
827.357	46.52558
827.533	42.51133
827.71	33.08023
827.887	39.79555
828.063	42.68716
828.24	39.09963
828.416	45.16883
828.593	41.23849
828.769	50.51025
828.946	51.56838
829.122	52.77459
829.299	52.00671
829.475	40.82903
829.652	52.15665
829.828	71.91388
830.005	51.58628
830.181	65.46375
830.357	53.97022
830.534	66.34876
830.71	54.8694
830.886	65.63152
831.063	66.12402
831.239	74.97942
831.415	45.21182
831.592	77.49491
831.768	55.45707
831.944	50.93628
832.12	83.24528
832.296	77.5446
832.473	67.66257
832.649	50.34966
832.825	68.34998
833.001	47.15041
833.177	61.33606
833.353	55.59026
833.529	40.04
833.705	54.12632
833.881	41.5042
834.058	41.61139
834.234	43.76975
834.41	43.47577
834.586	37.82628
834.761	41.71889
834.937	44.44493
835.113	44.63937
835.289	42.24042
835.465	45.66555
835.641	42.9433
835.817	47.28695
835.993	65.98831
836.169	45.00537
836.344	57.73456
836.52	61.99852
836.696	58.35237
836.872	52.64634
837.048	106.67316
837.223	53.86229
837.399	85.31935
837.575	70.79401
837.75	71.13867
837.926	88.70171
838.102	121.01017
838.277	101.83122
838.453	128.78172
838.628	133.00341
838.804	60.76831
838.98	114.90999
839.155	69.49797
839.331	89.77746
839.506	66.17063
839.682	69.14757
839.857	88.02958
840.033	98.94455
840.208	56.28516
840.384	38.2074
840.559	56.39464
840.734	76.83403
840.91	95.11104
841.085	61.2055
841.26	65.00975
841.436	60.3507
841.611	59.66396
841.786	83.11934
841.962	99.35843
842.137	70.87908
842.312	53.37686
842.487	66.06176
842.663	56.53725
842.838	67.50523
843.013	166.8021
843.188	92.58941
843.363	80.8324
843.538	147.33202
843.714	143.30319
843.889	151.86812
844.064	159.81917
844.239	134.07682
844.414	144.22385
844.589	107.97409
844.764	183.41314
844.939	174.28644
845.114	191.06629
845.289	179.23037
845.464	238.4899
845.639	169.88356
845.814	93.55426
845.989	104.77852
846.163	132.53806
846.338	130.48735
846.513	176.01183
846.688	123.50514
846.863	123.23186
847.038	117.64872
847.212	128.91742
847.387	133.72592
847.562	136.99095
847.737	165.48575
847.911	77.91857
848.086	89.40767
848.261	252.90543
848.435	122.3491
848.61	170.09383
848.785	105.38115
848.959	174.26782
849.134	228.82221
849.308	234.65413
849.483	138.46976
849.658	203.83284
849.832	122.63421
850.007	107.30076
850.181	263.30711
850.356	114.0908
850.53	250.14429
850.705	95.70025
850.879	68.79843
851.053	128.10993
851.228	120.13331
851.402	142.70889
851.577	185.79928
851.751	204.66337
851.925	138.50965
852.099	76.85799
852.274	105.57153
852.448	129.07857
852.622	141.49727
852.797	139.77396
852.971	122.09792
853.145	142.29148
853.319	372.17364
853.493	194.06746
853.668	114.3694
853.842	234.86478
854.016	194.32951
854.19	223.02292
854.364	141.24106
854.538	150.67441
854.712	193.55246
854.886	128.51626
855.06	119.6006
855.234	65.19109
855.408	214.25015
855.582	180.63459
855.756	180.26396
855.93	235.35765
856.104	175.70615
856.278	185.54877
856.452	139.78997
856.626	180.22307
856.8	275.51981
856.973	170.22927
857.147	159.23143
857.321	163.09847
857.495	197.31204
857.669	133.21012
857.842	123.81053
858.016	195.77056
858.19	113.6859
858.364	301.88373
858.537	127.47201
858.711	144.03046
858.885	134.71504
859.058	120.81465
859.232	72.0408
859.405	83.93301
859.579	191.24795
859.753	158.96004
859.926	108.96263
860.1	88.18075
860.273	143.36582
860.447	219.09097
860.62	125.85612
860.794	263.16942
860.967	159.31366
861.141	196.24167
861.314	278.99064
861.487	176.35121
861.661	220.8733
861.834	211.67142
862.008	189.55309
862.181	143.24574
862.354	148.64167
862.528	162.76282
862.701	119.05027
862.874	89.26909
863.047	129.48364
863.221	128.86808
863.394	73.21836
863.567	220.97051
863.74	59.53559
863.913	183.89519
864.087	161.38451
864.26	185.04965
864.433	142.81132
864.606	239.53718
864.779	144.10005
864.952	79.1914
865.125	118.60121
865.298	138.26147
865.471	147.8013
865.644	273.41816
865.817	222.42013
865.99	184.28419
866.163	212.49633
866.336	128.78268
866.509	146.94468
866.682	124.60642
866.855	207.78714
867.028	99.76136
867.2	171.82456
867.373	75.01173
867.546	162.22856
867.719	266.3949
867.892	174.9527
868.064	111.25702
868.237	168.64733
868.41	148.06227
868.583	106.07609
868.755	99.88604
868.928	151.7738
869.101	275.50274
869.273	203.70202
869.446	179.21168
869.619	205.11208
869.791	138.21801
869.964	201.99619
870.136	191.94086
870.309	156.51898
870.481	158.68456
870.654	83.85446
870.826	154.08883
870.999	129.11083
871.171	190.42902
871.344	124.72086
871.516	152.04962
871.689	114.60756
871.861	158.56734
872.033	117.07632
872.206	135.80966
872.378	203.74752
872.55	131.44353
872.723	96.8711
872.895	138.87859
873.067	202.64083
873.24	220.05607
873.412	123.76483
873.584	136.47768
873.756	126.57128
873.928	168.57505
874.101	168.35395
874.273	181.53977
874.445	74.99302
874.617	95.96207
874.789	164.23308
874.961	133.95439
875.133	180.52448
875.305	157.96512
875.477	102.36939
875.649	94.2584
875.821	116.81006
875.993	243.18209
876.165	107.62688
876.337	166.42424
876.509	136.41859
876.681	163.2349
876.853	161.64203
877.025	163.7162
877.197	113.87862
877.369	106.29918
877.541	199.04868
877.712	73.45199
877.884	103.64384
878.056	183.56867
878.228	106.45179
878.4	171.33299
878.571	107.52253
878.743	81.38931
878.915	162.34505
879.086	103.94425
879.258	125.22062
879.43	111.99904
879.601	100.45315
879.773	106.16503
879.945	40.67316
880.116	57.54972
880.288	42.84519
880.459	45.01551
880.631	39.72695
880.802	44.33425
880.974	43.01984
881.145	36.16892
881.317	42.57984
881.488	37.26686
881.66	39.50834
881.831	38.02229
882.002	44.83806
882.174	38.67391
882.345	43.48037
882.517	35.29749
882.688	48.10235
882.859	44.53
883.03	58.24718
883.202	56.5414
883.373	53.36092
883.544	53.10097
883.715	75.63582
883.887	64.67376
884.058	61.10075
884.229	76.84188
884.4	78.12019
884.571	85.0486
884.742	77.01529
884.914	85.11069
885.085	106.13478
885.256	124.35579
885.427	104.96155
885.598	122.60653
885.769	127.21098
885.94	122.3175
886.111	93.8248
886.282	141.85036
886.453	120.72053
886.624	92.33134
886.795	136.08838
886.966	119.32247
887.136	146.15278
887.307	104.92076
887.478	176.36847
887.649	158.57266
887.82	166.81202
887.991	136.83133
888.161	177.40284
888.332	170.84815
888.503	99.72856
888.674	220.08748
888.844	233.34832
889.015	192.12926
889.186	100.12139
889.356	220.76968
889.527	99.42686
889.698	359.16532
889.868	136.24268
890.039	161.70048
890.209	145.49366
890.38	190.7414
890.551	165.49787
890.721	233.219
890.892	189.8449
891.062	143.0431
891.233	161.50472
891.403	141.69798
891.574	112.84109
891.744	135.14609
891.914	186.93897
892.085	157.96738
892.255	66.27249
892.425	227.46743
892.596	191.35883
892.766	168.36086
892.936	231.9199
893.107	190.35578
893.277	115.7148
893.447	94.34195
893.618	75.46107
893.788	130.77486
893.958	83.64603
894.128	83.9356
894.298	89.77734
894.468	115.33482
894.639	62.12839
894.809	50.95061
894.979	70.32694
895.149	77.78698
895.319	66.43208
895.489	88.24417
895.659	100.92006
895.829	76.55838
895.999	77.70602
896.169	65.01096
896.339	74.73179
896.509	132.65328
896.679	149.58903
896.849	143.6158
897.019	194.77937
897.189	155.25422
897.358	142.5361
897.528	195.00104
897.698	84.72803
897.868	181.7385
898.038	288.89426
898.208	279.65928
898.377	115.80752
898.547	288.97333
898.717	421.10871
898.886	189.9705
899.056	280.33128
899.226	402.09135
899.395	248.23294
899.565	308.79319
899.735	218.52494
899.904	348.25631
900.074	291.88354
900.244	147.54884
900.413	501.89408
900.583	142.72838
900.752	195.02837
900.922	316.55871
901.091	54.61831
901.261	279.99278
901.43	255.90016
901.599	271.89952
901.769	550.37003
901.938	299.19238
902.108	299.77341
902.277	368.55844
902.446	123.16319
902.616	134.56125
902.785	188.21333
902.954	296.12525
903.124	205.22284
903.293	166.34405
903.462	101.69189
903.631	134.01114
903.801	102.51765
903.97	66.29842
904.139	95.63266
904.308	75.67162
904.477	64.95639
904.646	48.90417
904.816	64.12019
904.985	84.55207
905.154	118.26066
