Data from WindowProjectSample_Transmission__31__00031.txt Node

Date: Sat May 03 15:34:40 EDT 2025
User: jessi
Spectrometer: SR400872
Trigger mode: 0
Integration Time (sec): 5.000010E-1
Scans to average: 6
Electric dark correction enabled: true
Nonlinearity correction enabled: true
Boxcar width: 0
XAxis mode: Wavelengths
Number of Pixels in Spectrum: 3648
>>>>>Begin Spectral Data<<<<<
184.909	18711.87811
185.132	2597.73214
185.355	23755.52185
185.578	-8197.59779
185.801	328.23367
186.024	-1534.49318
186.247	787.89369
186.47	1804.78959
186.693	-144.61922
186.916	-2318.24647
187.139	-2707.33919
187.362	1711.58829
187.585	2887.98374
187.808	-3541.87117
188.031	-1706.73119
188.254	-1518.5137
188.476	-926.91293
188.699	2443.58939
188.922	-1080.93225
189.145	-10306.53299
189.368	-406.87866
189.591	-1288.78203
189.813	-1710.65861
190.036	1306.64756
190.259	1577.29984
190.482	619.98211
190.705	10638.68725
190.927	-1137.20245
191.15	3531.52741
191.373	2237.66844
191.595	-2339.53128
191.818	2584.69984
192.041	-296.70444
192.263	2644.70485
192.486	2076.07607
192.709	-5717.54918
192.931	3006.80687
193.154	-6492.89287
193.377	198526.08668
193.599	1457.36903
193.822	1737.13951
194.044	-2197.8064
194.267	494.87241
194.489	-561.04564
194.712	1503.91804
194.934	3307.71581
195.157	-12309.90012
195.379	856.5706
195.602	2389.90801
195.824	2071.46919
196.047	2470.55652
196.269	3102.00569
196.492	3704.041
196.714	2800.8618
196.936	1217.33498
197.159	1465.99554
197.381	-2481.5535
197.604	-786.80139
197.826	6605.02126
198.048	3177.80065
198.271	4178.8629
198.493	2281.95822
198.715	-6415.54717
198.938	-565.4849
199.16	1956.97336
199.382	1476.05488
199.604	-625.45954
199.827	9246.49528
200.049	1012.42243
200.271	-3154.1826
200.493	-55459.47938
200.715	2467.62867
200.938	6757.71362
201.16	-7558.38103
201.382	-3010.78062
201.604	-2158.67989
201.826	7017.19665
202.048	1042.37782
202.27	-16893.17438
202.492	4894.49037
202.715	-1191.48174
202.937	4741.35375
203.159	-2298.54559
203.381	977.16895
203.603	-3715.27611
203.825	-2714.47992
204.047	3444.93735
204.269	-2042.19074
204.491	2346.48987
204.713	2057.02227
204.935	15707.7764
205.156	1965.32439
205.378	-9409.65383
205.6	-4413.73967
205.822	9100.44966
206.044	-603.42366
206.266	4332.43351
206.488	1125.82251
206.71	28492.81374
206.932	2394.56806
207.153	-4893.79861
207.375	-1974.68735
207.597	8891.07601
207.819	4324.82035
208.041	2365.17002
208.262	-2962.00648
208.484	-1141.03906
208.706	-2656.77726
208.927	29972.0082
209.149	991.82877
209.371	-6720.58448
209.593	1520.50725
209.814	4840.49695
210.036	-3924.39405
210.258	-4775.71985
210.479	-1333.72182
210.701	1003.12305
210.922	7197.12071
211.144	-1328.27803
211.366	-6514.98292
211.587	-626.78663
211.809	10179.70483
212.03	-1178.06225
212.252	-1923.87731
212.473	805.45268
212.695	-2233.92446
212.916	3024.68671
213.138	4526.10632
213.359	-1929.36164
213.581	6603.40936
213.802	-1865.28133
214.024	18960.92347
214.245	-3484.94923
214.466	-576.79166
214.688	1666.58932
214.909	900.28887
215.131	-94188.67804
215.352	1636.54854
215.573	2552.16342
215.795	3041.90734
216.016	4280.30597
216.237	-664.57839
216.459	6672.81349
216.68	97088.89362
216.901	-83960.27176
217.122	1885.67918
217.344	6339.54961
217.565	-59589.79609
217.786	1508.49297
218.007	2066.73741
218.228	-1220.06649
218.45	-1169.93112
218.671	-1130.32741
218.892	1091.21999
219.113	-20370.55
219.334	-519.70256
219.555	-5262.26427
219.776	1580.59931
219.997	3421.42259
220.219	1276.88649
220.44	2362.95123
220.661	-3578.3339
220.882	3606.82878
221.103	-1272.54192
221.324	988.59503
221.545	2248.30832
221.766	-6022.2966
221.987	4076.18128
222.208	-1642.71368
222.429	3496.72842
222.65	-95.28522
222.87	-607.86453
223.091	8279.07328
223.312	2485.01145
223.533	6986.64147
223.754	1921.84561
223.975	1501.87185
224.196	-12010.88201
224.417	997.30567
224.637	893.79429
224.858	-802.87575
225.079	7017.0789
225.3	614.55647
225.521	2038.89392
225.741	1525.08616
225.962	833.79067
226.183	258.48342
226.404	680.57097
226.624	612.09148
226.845	396.04139
227.066	430.51792
227.286	208.82819
227.507	102.8509
227.728	84.23158
227.948	126.72004
228.169	37.57168
228.389	47.62743
228.61	25.96151
228.831	34.82265
229.051	3.55457
229.272	22.2011
229.492	30.84777
229.713	9.05732
229.933	23.12403
230.154	20.11855
230.374	32.7369
230.595	23.38168
230.815	16.99342
231.036	24.14441
231.256	-5.0775
231.477	42.33982
231.697	26.2829
231.917	27.40217
232.138	41.5971
232.358	77.19067
232.579	63.8704
232.799	12.25177
233.019	67.45856
233.24	78.40724
233.46	24.2971
233.68	40.39313
233.901	32.40085
234.121	18.67245
234.341	8.06585
234.561	-0.80313
234.782	15.93479
235.002	49.3564
235.222	-0.19956
235.442	39.8594
235.662	22.04601
235.883	42.17925
236.103	38.10999
236.323	27.61828
236.543	18.77545
236.763	28.99482
236.983	29.40946
237.203	31.16627
237.423	44.3718
237.643	63.56568
237.864	52.80828
238.084	16.73205
238.304	23.19776
238.524	34.7579
238.744	27.72846
238.964	47.31228
239.184	46.42641
239.404	45.03118
239.624	25.0769
239.843	41.91702
240.063	23.79495
240.283	17.80018
240.503	17.20129
240.723	16.07309
240.943	9.99985
241.163	13.56703
241.383	10.65972
241.603	4.78868
241.822	6.41975
242.042	4.77117
242.262	6.44046
242.482	6.79065
242.702	8.46124
242.921	2.81303
243.141	6.22146
243.361	5.33548
243.581	7.55366
243.8	6.64211
244.02	4.25839
244.24	8.3429
244.459	7.98347
244.679	14.39073
244.899	9.88389
245.118	11.10256
245.338	9.36483
245.558	10.43027
245.777	6.4333
245.997	7.93695
246.216	7.62256
246.436	4.20397
246.655	3.15965
246.875	2.56501
247.094	4.882
247.314	1.64067
247.533	2.78811
247.753	3.7912
247.972	2.7297
248.192	1.21463
248.411	1.68132
248.631	3.36848
248.85	4.13591
249.07	2.83816
249.289	5.15749
249.508	4.10172
249.728	6.45075
249.947	6.77032
250.166	7.09838
250.386	3.91442
250.605	6.01783
250.824	8.66667
251.044	7.22845
251.263	20.6505
251.482	10.75628
251.701	9.71467
251.921	-0.10141
252.14	3.48422
252.359	4.11749
252.578	8.58879
252.798	2.75158
253.017	7.91039
253.236	3.55331
253.455	5.12062
253.674	10.31293
253.893	4.59124
254.112	6.43758
254.331	9.842
254.551	8.59911
254.77	3.51248
254.989	12.03093
255.208	10.78988
255.427	13.26111
255.646	10.62861
255.865	18.71517
256.084	6.62867
256.303	8.96807
256.522	12.3467
256.741	3.20164
256.96	3.25024
257.179	7.95617
257.397	8.362
257.616	5.15307
257.835	6.39792
258.054	11.95143
258.273	7.37799
258.492	9.18055
258.711	5.70519
258.93	2.66341
259.148	3.15706
259.367	3.63934
259.586	4.6749
259.805	2.03676
260.023	4.30611
260.242	3.38479
260.461	2.36942
260.68	1.40554
260.898	3.86089
261.117	1.44839
261.336	0.88365
261.554	3.44221
261.773	3.24023
261.992	0.52701
262.21	3.0479
262.429	4.00158
262.648	6.54634
262.866	7.27879
263.085	4.78936
263.303	4.60273
263.522	7.28497
263.74	8.03118
263.959	12.89787
264.178	6.32686
264.396	6.17813
264.615	4.30754
264.833	9.72877
265.051	8.4511
265.27	8.22865
265.488	9.14557
265.707	6.06041
265.925	9.27607
266.144	4.15375
266.362	5.81661
266.58	5.17516
266.799	4.34433
267.017	5.49947
267.235	4.55023
267.454	2.73878
267.672	1.94375
267.89	3.7998
268.109	3.90595
268.327	3.9913
268.545	1.00564
268.763	3.73943
268.982	1.51862
269.2	4.64897
269.418	2.81202
269.636	2.2385
269.854	3.64724
270.073	3.0934
270.291	1.82989
270.509	1.91722
270.727	4.02625
270.945	5.94055
271.163	6.49584
271.381	1.60966
271.599	2.46293
271.817	4.62896
272.036	1.63227
272.254	2.90257
272.472	2.1734
272.69	2.28253
272.908	2.28153
273.126	3.92228
273.344	4.60848
273.562	1.67482
273.779	2.28699
273.997	3.4937
274.215	4.0198
274.433	2.65238
274.651	3.94708
274.869	4.25022
275.087	2.51409
275.305	3.8871
275.523	2.04981
275.74	2.79621
275.958	5.0228
276.176	6.9588
276.394	2.3415
276.612	2.91591
276.829	2.73202
277.047	2.43042
277.265	2.69248
277.483	3.27034
277.7	4.15863
277.918	3.27333
278.136	5.63646
278.353	3.06413
278.571	1.62026
278.789	4.44721
279.006	0.90784
279.224	2.62629
279.442	4.45245
279.659	2.91911
279.877	2.39006
280.094	4.75889
280.312	1.2872
280.529	3.11673
280.747	0.8592
280.964	2.39946
281.182	5.36757
281.399	2.53392
281.617	3.66917
281.834	2.41776
282.052	2.24357
282.269	2.85973
282.487	2.31036
282.704	1.77208
282.921	2.32855
283.139	3.0665
283.356	3.88006
283.574	3.29082
283.791	1.80864
284.008	4.55169
284.226	2.61659
284.443	3.13426
284.66	3.68275
284.877	3.06862
285.095	2.10295
285.312	1.45146
285.529	0.9339
285.746	0.81142
285.964	1.84008
286.181	1.34526
286.398	1.92132
286.615	2.50137
286.832	2.43319
287.05	0.87824
287.267	1.62661
287.484	1.89621
287.701	2.52452
287.918	2.45821
288.135	2.65639
288.352	1.33489
288.569	1.37112
288.786	2.2959
289.003	1.78756
289.22	2.4355
289.437	1.72566
289.654	2.87918
289.871	2.87047
290.088	2.63414
290.305	2.11797
290.522	1.59861
290.739	2.04973
290.956	2.75558
291.173	3.57291
291.39	3.12009
291.607	2.34469
291.824	1.73472
292.04	1.15371
292.257	2.66473
292.474	3.06954
292.691	1.68567
292.908	1.07858
293.125	1.75916
293.341	0.99941
293.558	4.82963
293.775	1.84006
293.992	2.06053
294.208	0.95584
294.425	0.91705
294.642	1.70418
294.858	2.54765
295.075	0.69974
295.292	1.81823
295.508	2.35468
295.725	3.4179
295.942	1.78422
296.158	1.1012
296.375	1.90335
296.591	1.45472
296.808	1.55765
297.024	1.78982
297.241	2.08111
297.458	2.30387
297.674	0.19095
297.891	1.76887
298.107	1.30481
298.323	1.00879
298.54	2.66148
298.756	1.22576
298.973	0.61315
299.189	2.79295
299.406	1.15604
299.622	2.66484
299.838	2.74782
300.055	2.57638
300.271	0.73989
300.487	0.892
300.704	1.04951
300.92	0.83507
301.136	3.67813
301.353	2.69675
301.569	1.93714
301.785	2.27322
302.001	2.49914
302.218	2.18941
302.434	2.08326
302.65	0.62065
302.866	1.54007
303.083	3.72053
303.299	3.40761
303.515	1.80128
303.731	1.991
303.947	0.64283
304.163	1.16328
304.379	1.99215
304.595	2.33734
304.812	1.47485
305.028	1.13386
305.244	1.67148
305.46	2.60944
305.676	2.75762
305.892	2.9223
306.108	2.06088
306.324	1.41179
306.54	3.50825
306.756	2.46438
306.972	2.39852
307.187	1.61616
307.403	3.1731
307.619	1.42425
307.835	2.77889
308.051	3.23231
308.267	0.57947
308.483	2.73964
308.699	2.3382
308.914	1.96065
309.13	1.77965
309.346	0.51114
309.562	1.01311
309.778	0.61368
309.993	2.22891
310.209	1.87729
310.425	0.80038
310.641	1.54355
310.856	0.8978
311.072	0.85871
311.288	1.7451
311.503	1.85886
311.719	0.42705
311.935	0.334
312.15	2.12338
312.366	1.86229
312.581	2.31846
312.797	1.8194
313.013	2.34442
313.228	1.37846
313.444	1.82055
313.659	1.34665
313.875	2.02557
314.09	1.86481
314.306	2.90732
314.521	2.65633
314.737	2.39625
314.952	2.12251
315.168	1.91862
315.383	2.41823
315.599	1.73816
315.814	1.62904
316.029	2.60943
316.245	0.74744
316.46	0.83377
316.675	2.98697
316.891	3.68201
317.106	4.42385
317.321	2.54479
317.537	2.48349
317.752	2.73916
317.967	2.90049
318.183	1.17278
318.398	1.75382
318.613	3.02445
318.828	3.25336
319.043	2.69186
319.259	1.55292
319.474	2.29863
319.689	2.99121
319.904	0.35813
320.119	2.60327
320.334	2.3597
320.549	1.99695
320.765	3.06767
320.98	2.3153
321.195	2.90738
321.41	1.88029
321.625	2.58974
321.84	3.54387
322.055	3.65942
322.27	1.44425
322.485	1.28265
322.7	1.99226
322.915	3.13653
323.13	1.33054
323.345	3.311
323.56	2.85615
323.775	2.78622
323.989	2.54995
324.204	2.07869
324.419	2.68214
324.634	0.99263
324.849	1.85093
325.064	4.15671
325.279	2.96908
325.493	2.51862
325.708	2.78788
325.923	1.20374
326.138	1.26937
326.352	3.48053
326.567	2.85331
326.782	1.64136
326.997	1.4271
327.211	2.41192
327.426	2.32757
327.641	1.72458
327.855	0.77606
328.07	2.56052
328.285	3.57073
328.499	1.72775
328.714	2.43035
328.928	2.61562
329.143	2.13261
329.358	2.84087
329.572	2.82176
329.787	3.27803
330.001	4.43024
330.216	0.79266
330.43	3.5985
330.645	3.50817
330.859	2.77784
331.074	1.46305
331.288	2.1855
331.503	3.14865
331.717	1.14135
331.931	2.04018
332.146	2.07281
332.36	3.8007
332.575	2.59117
332.789	2.37643
333.003	1.86646
333.218	2.53572
333.432	1.71129
333.646	2.71735
333.86	3.53826
334.075	3.70934
334.289	1.73434
334.503	1.35511
334.717	2.78444
334.932	2.5747
335.146	3.32593
335.36	1.8719
335.574	2.59035
335.788	2.49549
336.003	3.36239
336.217	2.54932
336.431	2.57396
336.645	1.49511
336.859	1.21539
337.073	1.85422
337.287	2.27715
337.501	1.1665
337.715	2.472
337.929	2.59924
338.143	1.20852
338.357	2.04316
338.571	1.25652
338.785	2.60259
338.999	1.67166
339.213	1.89187
339.427	0.76958
339.641	3.10307
339.855	1.91236
340.069	1.72181
340.283	2.97941
340.497	3.61649
340.711	2.33454
340.924	1.58429
341.138	1.30276
341.352	0.92381
341.566	2.34105
341.78	0.6355
341.993	1.52392
342.207	1.19686
342.421	2.44412
342.635	2.02312
342.848	1.5663
343.062	0.24576
343.276	1.34763
343.49	3.92437
343.703	1.61849
343.917	2.73266
344.131	2.83911
344.344	1.30056
344.558	1.5678
344.771	1.16713
344.985	3.24544
345.199	3.34424
345.412	2.18798
345.626	2.29134
345.839	0.64106
346.053	0.89797
346.266	1.17576
346.48	2.61348
346.693	2.38213
346.907	2.6385
347.12	1.39677
347.334	2.11809
347.547	2.52086
347.76	1.82341
347.974	2.90913
348.187	2.32797
348.401	1.805
348.614	1.49861
348.827	1.86851
349.041	2.54945
349.254	0.70625
349.467	1.86396
349.681	0.93461
349.894	1.38985
350.107	3.10874
350.32	3.40493
350.534	0.61516
350.747	1.66819
350.96	1.37741
351.173	1.5458
351.386	1.69448
351.6	1.51474
351.813	1.4735
352.026	1.93878
352.239	1.19758
352.452	1.62742
352.665	2.72006
352.878	1.76497
353.092	3.75769
353.305	2.44269
353.518	2.23253
353.731	1.11359
353.944	3.06126
354.157	1.33993
354.37	1.23748
354.583	0.96502
354.796	0.8275
355.009	2.78369
355.222	1.93011
355.435	1.98698
355.647	2.87409
355.86	1.21681
356.073	1.9764
356.286	1.5197
356.499	2.62194
356.712	2.24229
356.925	2.27621
357.138	2.73219
357.35	1.20801
357.563	1.63386
357.776	2.13297
357.989	1.87367
358.201	2.26614
358.414	1.95403
358.627	3.06153
358.84	1.71258
359.052	1.04962
359.265	1.21095
359.478	2.8736
359.69	-0.04879
359.903	2.56956
360.116	2.69441
360.328	0.77032
360.541	2.63539
360.753	1.39532
360.966	1.60267
361.179	1.72142
361.391	1.61033
361.604	1.21374
361.816	1.527
362.029	1.4499
362.241	1.28004
362.454	1.6579
362.666	1.26845
362.879	2.11634
363.091	1.65118
363.304	1.51451
363.516	1.68182
363.728	1.04537
363.941	2.33132
364.153	1.78001
364.366	0.44765
364.578	1.06782
364.79	2.33344
365.003	2.06559
365.215	1.65693
365.427	2.4501
365.639	2.86154
365.852	2.30506
366.064	3.45682
366.276	1.73308
366.488	2.45683
366.701	1.72377
366.913	1.83094
367.125	1.99342
367.337	1.4851
367.549	1.79508
367.762	1.92952
367.974	1.90743
368.186	1.70333
368.398	2.77125
368.61	2.48219
368.822	2.47942
369.034	1.95692
369.246	2.75041
369.458	4.02722
369.67	1.27335
369.882	3.45773
370.094	0.51128
370.306	3.21041
370.518	1.80243
370.73	1.43984
370.942	1.67404
371.154	2.04034
371.366	1.70661
371.578	2.50122
371.79	1.8871
372.002	3.06319
372.214	3.63531
372.425	2.12011
372.637	3.37339
372.849	2.3839
373.061	0.52863
373.273	2.63752
373.484	2.67251
373.696	2.87313
373.908	0.62392
374.12	2.88869
374.331	2.64918
374.543	1.71677
374.755	1.37293
374.967	2.24692
375.178	2.94166
375.39	2.12339
375.602	2.4569
375.813	1.30246
376.025	1.46936
376.236	2.31656
376.448	2.50893
376.66	2.23289
376.871	2.19107
377.083	2.98014
377.294	3.63172
377.506	2.04286
377.717	3.19533
377.929	2.50932
378.14	2.03143
378.352	2.83085
378.563	2.92294
378.775	3.59575
378.986	1.79931
379.197	2.43707
379.409	1.94546
379.62	3.07053
379.832	2.67331
380.043	2.25142
380.254	2.78546
380.466	1.55507
380.677	4.57563
380.888	4.21584
381.1	4.60866
381.311	4.51817
381.522	2.84074
381.733	4.7892
381.945	2.52632
382.156	2.56481
382.367	2.40721
382.578	4.85668
382.789	4.75121
383.001	2.29173
383.212	3.86299
383.423	4.03899
383.634	3.53691
383.845	3.31392
384.056	2.45318
384.267	2.92681
384.478	2.85859
384.69	1.92123
384.901	3.30008
385.112	3.10643
385.323	4.13962
385.534	3.22957
385.745	3.35254
385.956	3.2898
386.167	2.35056
386.378	3.37335
386.588	2.49481
386.799	2.34758
387.01	1.86686
387.221	3.82302
387.432	3.08859
387.643	4.48863
387.854	2.97242
388.065	2.82637
388.275	2.94069
388.486	2.80087
388.697	3.18488
388.908	2.82966
389.119	4.04429
389.329	4.3946
389.54	3.17048
389.751	3.59463
389.962	4.11453
390.172	3.21405
390.383	3.15972
390.594	2.86347
390.804	2.74709
391.015	2.9105
391.226	3.40339
391.436	3.73861
391.647	3.62163
391.858	3.75493
392.068	2.2843
392.279	2.69739
392.489	3.71024
392.7	4.05761
392.91	3.13615
393.121	2.87918
393.331	3.80165
393.542	4.34906
393.752	4.15287
393.963	3.82493
394.173	3.89331
394.384	4.18153
394.594	3.53979
394.804	2.87416
395.015	3.57308
395.225	4.09843
395.436	3.06855
395.646	4.12307
395.856	3.33728
396.067	2.72057
396.277	4.26815
396.487	4.00946
396.697	3.98259
396.908	4.36041
397.118	4.18531
397.328	3.75599
397.538	4.39783
397.749	3.38558
397.959	4.28246
398.169	4.22687
398.379	2.80461
398.589	3.93513
398.8	4.10984
399.01	4.05491
399.22	3.70294
399.43	5.35071
399.64	3.91994
399.85	4.27718
400.06	3.95602
400.27	3.42027
400.48	3.89254
400.69	4.75925
400.9	3.55016
401.11	3.28001
401.32	4.64877
401.53	3.44662
401.74	4.81431
401.95	4.35953
402.16	3.76408
402.37	4.14543
402.58	3.6931
402.79	4.54642
403	4.45574
403.209	3.68174
403.419	4.77951
403.629	3.63309
403.839	4.82529
404.049	4.74922
404.258	3.80292
404.468	3.85114
404.678	4.86952
404.888	5.14482
405.097	4.33784
405.307	4.1827
405.517	4.94514
405.727	4.69243
405.936	4.03617
406.146	4.65208
406.356	5.3319
406.565	4.28363
406.775	4.02127
406.984	4.19443
407.194	5.77249
407.404	4.46878
407.613	4.74337
407.823	5.03172
408.032	5.44973
408.242	5.29167
408.451	4.07906
408.661	4.39682
408.87	5.7004
409.08	3.96825
409.289	4.86603
409.499	4.61621
409.708	4.43593
409.918	3.18836
410.127	4.68645
410.336	5.75616
410.546	5.10831
410.755	4.46006
410.964	4.42431
411.174	3.91532
411.383	4.96371
411.592	4.83668
411.802	4.22113
412.011	5.14195
412.22	4.60943
412.429	5.82642
412.639	5.66946
412.848	5.45718
413.057	5.90982
413.266	5.48977
413.475	5.04642
413.685	5.48254
413.894	5.3364
414.103	5.61774
414.312	5.31159
414.521	4.61015
414.73	5.05913
414.939	6.19826
415.148	5.30108
415.357	5.06278
415.566	4.9711
415.776	4.83442
415.985	4.99586
416.194	5.64845
416.403	6.43354
416.611	4.38309
416.82	4.91964
417.029	5.50231
417.238	4.90053
417.447	4.90547
417.656	5.31365
417.865	5.10152
418.074	5.51645
418.283	5.94359
418.492	6.86494
418.7	6.9962
418.909	8.28561
419.118	6.94563
419.327	7.53439
419.536	7.27971
419.744	7.11506
419.953	8.60014
420.162	8.7224
420.371	7.80884
420.579	8.13716
420.788	9.29298
420.997	9.52075
421.205	9.62922
421.414	9.37499
421.623	9.64875
421.831	8.87014
422.04	9.63614
422.249	8.73822
422.457	9.02977
422.666	8.3407
422.874	9.43123
423.083	9.46129
423.291	9.36472
423.5	9.21114
423.708	9.58001
423.917	10.207
424.125	9.45411
424.334	9.29212
424.542	11.2428
424.751	10.56863
424.959	10.0605
425.167	10.44022
425.376	10.20381
425.584	9.04753
425.793	9.00547
426.001	7.93439
426.209	8.4532
426.418	7.17423
426.626	6.7605
426.834	6.50796
427.042	6.54217
427.251	6.19249
427.459	6.8825
427.667	6.55187
427.875	5.50986
428.084	6.10604
428.292	7.23227
428.5	6.84198
428.708	5.77908
428.916	5.90256
429.124	6.49036
429.333	6.27325
429.541	6.32734
429.749	6.52449
429.957	6.31483
430.165	7.92773
430.373	5.55603
430.581	6.34621
430.789	7.33573
430.997	6.33753
431.205	5.95128
431.413	6.66023
431.621	6.28549
431.829	7.01969
432.037	6.34139
432.245	6.83487
432.453	6.95595
432.661	6.56368
432.869	7.88559
433.076	6.63621
433.284	7.11165
433.492	7.93669
433.7	8.06083
433.908	7.2245
434.116	7.49297
434.323	7.33384
434.531	7.2014
434.739	7.34194
434.947	7.44107
435.154	7.56432
435.362	6.89881
435.57	6.77192
435.778	6.43055
435.985	7.03475
436.193	6.46497
436.401	7.69288
436.608	6.90194
436.816	6.54138
437.023	7.74366
437.231	7.94612
437.439	7.14164
437.646	7.31502
437.854	7.22628
438.061	7.52871
438.269	7.05247
438.476	7.67016
438.684	7.31714
438.891	7.37028
439.099	7.43333
439.306	7.11617
439.514	7.35759
439.721	8.90884
439.929	8.20351
440.136	9.41675
440.343	9.33288
440.551	9.05543
440.758	10.91107
440.965	9.70528
441.173	9.26615
441.38	8.92966
441.587	9.01431
441.795	8.6762
442.002	8.33065
442.209	8.1574
442.416	8.20629
442.624	7.95908
442.831	7.78907
443.038	7.13051
443.245	6.85055
443.452	7.09859
443.66	7.77449
443.867	7.13023
444.074	6.9727
444.281	7.26697
444.488	7.57886
444.695	8.09571
444.902	8.10386
445.109	9.5325
445.316	9.0403
445.523	9.50328
445.73	9.48499
445.937	10.32029
446.144	11.077
446.351	11.47185
446.558	10.21637
446.765	12.1472
446.972	11.43292
447.179	10.93871
447.386	11.67052
447.593	10.05075
447.8	11.03529
448.007	9.64052
448.214	8.97433
448.42	8.43489
448.627	9.0977
448.834	8.2744
449.041	7.85754
449.248	7.60292
449.454	8.10753
449.661	8.50028
449.868	7.35477
450.075	7.24279
450.281	6.68733
450.488	6.982
450.695	7.06464
450.901	7.03746
451.108	7.19739
451.315	8.22755
451.521	7.26748
451.728	8.13277
451.935	7.14105
452.141	7.48688
452.348	7.63258
452.554	7.68605
452.761	7.35837
452.967	8.76416
453.174	7.76753
453.38	7.73467
453.587	6.97275
453.793	7.72914
454	8.13975
454.206	9.03588
454.413	8.28893
454.619	8.15795
454.825	7.43185
455.032	8.18339
455.238	8.2134
455.445	6.91918
455.651	7.72747
455.857	6.59986
456.064	7.74382
456.27	7.56225
456.476	7.57704
456.682	7.00476
456.889	7.90096
457.095	8.12269
457.301	9.07397
457.507	7.77723
457.714	7.91454
457.92	7.96546
458.126	7.35937
458.332	7.83247
458.538	7.73009
458.744	8.20914
458.951	8.72761
459.157	10.99159
459.363	10.39988
459.569	10.56826
459.775	11.37859
459.981	11.09546
460.187	11.52182
460.393	11.81191
460.599	11.76381
460.805	10.63385
461.011	9.89279
461.217	9.96773
461.423	9.11687
461.629	8.3733
461.835	8.56092
462.041	8.14754
462.247	9.2929
462.453	8.21126
462.658	7.93484
462.864	8.64945
463.07	8.42028
463.276	8.1285
463.482	8.20156
463.688	9.20868
463.893	7.57123
464.099	8.06738
464.305	9.2314
464.511	7.83359
464.716	8.12998
464.922	8.79645
465.128	7.5708
465.333	9.17282
465.539	8.7964
465.745	8.64479
465.95	8.25623
466.156	10.20553
466.362	9.23186
466.567	8.54006
466.773	8.17845
466.978	9.45785
467.184	7.9239
467.389	7.47813
467.595	8.71461
467.8	8.19707
468.006	9.31513
468.211	9.23542
468.417	7.83023
468.622	8.77031
468.828	8.93693
469.033	8.78344
469.239	10.58534
469.444	8.10341
469.649	9.11749
469.855	8.49094
470.06	8.69811
470.266	8.05131
470.471	9.12754
470.676	8.92613
470.881	7.43036
471.087	9.32248
471.292	10.01592
471.497	7.75119
471.703	8.42987
471.908	8.33167
472.113	8.81681
472.318	9.39378
472.523	8.07113
472.729	9.01128
472.934	8.93777
473.139	8.57928
473.344	9.00711
473.549	9.67869
473.754	8.35681
473.959	10.26662
474.164	8.56432
474.369	8.69854
474.575	9.0318
474.78	8.99641
474.985	8.23985
475.19	7.57162
475.395	8.39943
475.6	8.67111
475.804	9.6884
476.009	8.90966
476.214	8.70123
476.419	8.5671
476.624	7.91571
476.829	8.58089
477.034	9.26675
477.239	8.74318
477.444	9.2452
477.648	9.35917
477.853	9.36338
478.058	8.79948
478.263	8.51511
478.468	8.33837
478.672	8.74194
478.877	10.05979
479.082	10.05585
479.287	9.24425
479.491	9.13952
479.696	8.51982
479.901	9.67593
480.105	9.53508
480.31	8.58026
480.515	9.11997
480.719	10.50126
480.924	8.86414
481.128	8.85
481.333	9.99739
481.538	10.2869
481.742	10.50109
481.947	11.98446
482.151	12.91265
482.356	13.85881
482.56	16.46306
482.765	18.46567
482.969	21.87432
483.174	24.56445
483.378	28.78415
483.582	29.92574
483.787	32.15676
483.991	32.55864
484.196	32.92069
484.4	32.1756
484.604	32.49036
484.809	29.35142
485.013	27.92667
485.217	24.92278
485.422	21.96983
485.626	19.96457
485.83	18.79446
486.034	18.03619
486.239	18.56103
486.443	19.19845
486.647	19.58926
486.851	21.38554
487.055	23.01486
487.26	23.03183
487.464	24.14599
487.668	23.55062
487.872	24.18536
488.076	24.43017
488.28	23.2948
488.484	21.73001
488.688	21.07377
488.892	19.87588
489.096	18.24334
489.3	16.98936
489.504	15.74658
489.708	15.18777
489.912	14.65604
490.116	14.4823
490.32	14.11718
490.524	15.31221
490.728	16.50713
490.932	17.50162
491.136	18.63651
491.34	20.00303
491.544	20.91312
491.748	20.58662
491.951	20.56322
492.155	19.9236
492.359	19.37658
492.563	17.34162
492.767	16.47405
492.97	14.54309
493.174	12.8632
493.378	11.65646
493.582	10.37605
493.785	9.97115
493.989	9.81461
494.193	9.43275
494.396	8.74991
494.6	9.39494
494.804	9.00689
495.007	9.30898
495.211	9.25876
495.414	9.66239
495.618	9.69888
495.822	10.41956
496.025	9.63786
496.229	10.1815
496.432	9.8932
496.636	10.18611
496.839	10.43009
497.043	11.22053
497.246	10.65362
497.45	10.29974
497.653	10.62086
497.856	10.33167
498.06	9.81017
498.263	9.88755
498.467	9.84877
498.67	10.36263
498.873	9.98456
499.077	9.86189
499.28	9.71462
499.483	10.01494
499.686	10.52581
499.89	9.85169
500.093	10.46377
500.296	9.4084
500.499	11.05824
500.703	9.82052
500.906	10.00286
501.109	10.92227
501.312	10.0209
501.515	9.87474
501.719	10.12061
501.922	10.67693
502.125	9.9216
502.328	9.74404
502.531	9.24119
502.734	9.70305
502.937	8.77215
503.14	9.93902
503.343	9.45932
503.546	9.68301
503.749	9.61314
503.952	10.3444
504.155	9.31533
504.358	10.3007
504.561	10.1214
504.764	9.09065
504.967	10.11917
505.17	9.99615
505.373	10.91449
505.576	9.88863
505.778	10.58272
505.981	9.45076
506.184	10.61278
506.387	9.01009
506.59	11.10202
506.793	10.68706
506.995	10.30577
507.198	8.8912
507.401	10.29599
507.604	10.21133
507.806	9.32291
508.009	9.51706
508.212	10.36671
508.414	9.57735
508.617	9.91448
508.82	10.27935
509.022	11.27667
509.225	10.35022
509.427	9.27934
509.63	10.8126
509.833	10.26914
510.035	9.87444
510.238	9.37017
510.44	11.10936
510.643	9.00867
510.845	11.20928
511.048	10.45907
511.25	9.95564
511.453	10.11698
511.655	10.15225
511.858	10.07577
512.06	10.80069
512.262	10.27622
512.465	10.95516
512.667	10.22151
512.869	9.48429
513.072	10.59372
513.274	10.79109
513.476	10.66053
513.679	10.91658
513.881	9.75569
514.083	11.29188
514.286	9.87025
514.488	9.86526
514.69	9.60541
514.892	9.57306
515.094	10.68288
515.297	9.84787
515.499	10.36151
515.701	9.6429
515.903	11.25627
516.105	11.44444
516.307	10.63526
516.509	9.20892
516.711	9.51745
516.913	10.29485
517.116	10.26279
517.318	10.08228
517.52	10.73381
517.722	10.60974
517.924	10.20326
518.126	11.48699
518.328	11.19888
518.529	12.11189
518.731	12.77103
518.933	11.19454
519.135	11.3589
519.337	12.1583
519.539	11.31843
519.741	9.61517
519.943	10.60959
520.145	10.39278
520.346	11.04566
520.548	10.48823
520.75	10.65815
520.952	10.36915
521.153	10.84969
521.355	10.92937
521.557	9.96496
521.759	10.38159
521.96	10.4348
522.162	9.60666
522.364	11.13023
522.565	10.05447
522.767	10.92842
522.969	11.08836
523.17	10.77951
523.372	10.65298
523.573	10.18029
523.775	10.37726
523.977	9.72865
524.178	11.66275
524.38	10.27245
524.581	10.92761
524.783	10.32372
524.984	11.53991
525.186	11.49415
525.387	12.30321
525.589	12.49271
525.79	12.59622
525.991	12.48065
526.193	13.29998
526.394	12.57995
526.596	13.53268
526.797	14.13564
526.998	13.76594
527.2	14.41381
527.401	17.11623
527.602	18.58166
527.803	21.60727
528.005	23.4156
528.206	25.06706
528.407	26.73673
528.608	26.59113
528.81	27.12172
529.011	26.22598
529.212	26.9958
529.413	24.97707
529.614	23.46352
529.815	21.92194
530.017	19.97936
530.218	17.50862
530.419	15.60323
530.62	14.74704
530.821	14.07777
531.022	12.51222
531.223	13.55157
531.424	13.31358
531.625	13.6693
531.826	13.4136
532.027	14.07391
532.228	15.79492
532.429	16.06292
532.63	16.71512
532.831	17.88816
533.032	18.08559
533.233	19.07884
533.433	18.71448
533.634	18.99236
533.835	17.9424
534.036	17.0956
534.237	16.23817
534.438	15.16786
534.638	13.08185
534.839	12.8343
535.04	12.46871
535.241	11.65665
535.441	12.95757
535.642	12.35524
535.843	11.89065
536.043	12.37774
536.244	12.74679
536.445	13.12508
536.645	13.94157
536.846	13.69219
537.047	14.05439
537.247	12.36685
537.448	12.20056
537.648	12.0137
537.849	11.38423
538.049	11.48144
538.25	11.64073
538.451	11.73017
538.651	10.82086
538.851	11.66832
539.052	12.03532
539.252	11.83629
539.453	11.02891
539.653	11.52834
539.854	11.37694
540.054	12.68896
540.254	14.62811
540.455	16.40102
540.655	16.71929
540.855	18.8596
541.056	20.44592
541.256	20.41903
541.456	21.36508
541.657	20.77836
541.857	21.6566
542.057	19.52332
542.257	18.79397
542.458	18.81248
542.658	17.9087
542.858	15.725
543.058	15.74485
543.258	14.77112
543.458	12.7783
543.659	12.26271
543.859	12.86951
544.059	12.61445
544.259	11.73294
544.459	12.22607
544.659	11.41966
544.859	12.01533
545.059	11.15433
545.259	12.09397
545.459	11.81061
545.659	12.39491
545.859	11.62503
546.059	11.82061
546.259	11.22221
546.459	11.05397
546.659	11.15152
546.859	12.18106
547.059	12.07532
547.258	12.0492
547.458	12.08605
547.658	11.30066
547.858	11.14642
548.058	12.1963
548.258	11.67019
548.457	11.00685
548.657	13.26124
548.857	11.78847
549.057	12.28923
549.256	12.28156
549.456	11.392
549.656	10.09088
549.855	13.08928
550.055	11.47565
550.255	12.96709
550.454	12.1018
550.654	12.1237
550.853	12.83185
551.053	12.128
551.253	11.93106
551.452	11.96897
551.652	10.93217
551.851	10.73725
552.051	11.38095
552.25	11.44811
552.45	11.25716
552.649	11.55953
552.849	11.30529
553.048	11.75042
553.248	12.44179
553.447	11.223
553.646	12.60787
553.846	13.32832
554.045	12.64064
554.244	10.88879
554.444	13.15256
554.643	10.9067
554.842	13.24194
555.042	13.60791
555.241	11.18495
555.44	10.85437
555.64	12.71475
555.839	13.26787
556.038	12.26224
556.237	11.26587
556.436	12.00874
556.636	12.47103
556.835	11.58097
557.034	13.36697
557.233	11.92737
557.432	10.7758
557.631	12.97747
557.83	11.64086
558.029	11.74946
558.228	11.29612
558.427	11.061
558.626	12.40007
558.825	11.45231
559.024	11.87624
559.223	13.80056
559.422	11.93625
559.621	12.04219
559.82	10.00209
560.019	11.85036
560.218	12.07864
560.417	9.7454
560.616	11.57221
560.815	14.85327
561.014	11.01795
561.212	13.44575
561.411	12.37204
561.61	11.03415
561.809	11.93097
562.008	13.32053
562.206	11.99873
562.405	12.7313
562.604	11.74952
562.803	12.46347
563.001	11.84072
563.2	11.35867
563.399	12.45103
563.597	11.28975
563.796	12.18035
563.995	11.10572
564.193	12.98917
564.392	11.9654
564.59	14.25908
564.789	10.81588
564.988	11.77072
565.186	12.51958
565.385	12.09833
565.583	12.17536
565.782	12.23953
565.98	12.45577
566.179	12.38522
566.377	11.7332
566.575	12.06792
566.774	13.48065
566.972	12.99474
567.171	14.26046
567.369	13.80256
567.567	12.6821
567.766	12.89506
567.964	10.77808
568.162	12.91573
568.361	13.37954
568.559	12.21895
568.757	12.88566
568.956	12.67412
569.154	12.60486
569.352	13.10949
569.55	12.38593
569.748	12.39614
569.947	12.04597
570.145	11.70816
570.343	11.80563
570.541	13.45079
570.739	11.44353
570.937	12.59995
571.135	12.96043
571.333	14.28727
571.532	14.11527
571.73	12.79319
571.928	13.9448
572.126	13.23519
572.324	12.31476
572.522	14.01584
572.72	15.24577
572.918	13.08759
573.116	13.20747
573.313	12.94921
573.511	13.01708
573.709	12.28347
573.907	13.63261
574.105	12.5176
574.303	11.56332
574.501	11.53712
574.699	13.21265
574.896	13.32357
575.094	13.48197
575.292	11.89739
575.49	13.80692
575.688	12.58277
575.885	13.92032
576.083	14.70208
576.281	13.69207
576.478	12.35077
576.676	13.36221
576.874	11.29656
577.071	12.67576
577.269	15.23367
577.467	12.82092
577.664	12.68248
577.862	14.09531
578.059	11.71858
578.257	13.77651
578.455	12.36485
578.652	13.17765
578.85	10.82242
579.047	12.7978
579.245	12.75705
579.442	12.68359
579.64	12.7574
579.837	11.10971
580.034	15.45952
580.232	12.54269
580.429	11.54129
580.627	13.32506
580.824	14.19849
581.021	13.40739
581.219	12.60165
581.416	11.77274
581.613	14.09641
581.811	14.46057
582.008	12.18349
582.205	13.95284
582.402	13.18658
582.6	14.28005
582.797	12.80495
582.994	12.7627
583.191	13.9929
583.388	12.49544
583.586	13.75635
583.783	13.73007
583.98	12.22008
584.177	13.23704
584.374	9.98624
584.571	12.58954
584.768	12.78484
584.965	11.76175
585.162	13.74513
585.359	14.95276
585.556	12.8438
585.753	12.96307
585.95	11.19639
586.147	11.98788
586.344	13.4117
586.541	12.90114
586.738	11.21408
586.935	12.59666
587.132	12.22125
587.329	13.99326
587.526	13.23276
587.722	18.2032
587.919	11.56009
588.116	13.94756
588.313	14.53832
588.51	15.37972
588.706	12.46925
588.903	13.74505
589.1	14.08672
589.297	15.63189
589.493	13.37057
589.69	13.71519
589.887	12.48906
590.083	12.46834
590.28	12.86495
590.477	13.91357
590.673	14.1979
590.87	15.00268
591.067	13.02783
591.263	13.66971
591.46	13.69922
591.656	12.33564
591.853	14.80444
592.049	12.19723
592.246	12.32372
592.442	14.63086
592.639	14.61439
592.835	12.38509
593.032	13.69346
593.228	11.58046
593.425	11.26392
593.621	11.52459
593.817	13.45552
594.014	12.09359
594.21	13.75189
594.406	14.26395
594.603	13.79372
594.799	12.66322
594.995	10.69949
595.192	14.65137
595.388	12.78313
595.584	13.1078
595.78	11.8245
595.977	15.84752
596.173	15.29865
596.369	13.27988
596.565	12.50377
596.761	12.13578
596.957	15.08355
597.154	13.05284
597.35	13.09197
597.546	13.05443
597.742	14.57894
597.938	14.07555
598.134	12.8302
598.33	14.15366
598.526	15.05388
598.722	13.60087
598.918	15.90069
599.114	13.61116
599.31	12.25341
599.506	13.06354
599.702	12.64372
599.898	13.02817
600.094	14.0046
600.29	14.16144
600.485	14.56475
600.681	11.99339
600.877	15.38213
601.073	13.31367
601.269	15.55202
601.465	14.67831
601.66	12.24204
601.856	11.59844
602.052	15.39985
602.248	13.01236
602.443	11.89787
602.639	12.15301
602.835	12.56054
603.03	12.46652
603.226	14.62322
603.422	12.48857
603.617	13.0286
603.813	13.55755
604.009	13.60481
604.204	15.21716
604.4	12.3943
604.595	14.93396
604.791	12.60684
604.986	14.04448
605.182	13.22163
605.377	13.31705
605.573	13.63132
605.768	14.15543
605.964	14.33952
606.159	14.6466
606.355	15.01886
606.55	13.17001
606.746	15.40034
606.941	13.19996
607.136	16.13809
607.332	17.12589
607.527	12.32093
607.722	13.93771
607.918	13.23631
608.113	12.78601
608.308	14.68829
608.503	14.54465
608.699	14.36099
608.894	14.63831
609.089	13.11473
609.284	14.16465
609.479	13.81958
609.675	14.93221
609.87	13.95938
610.065	15.1825
610.26	15.21882
610.455	14.90238
610.65	14.07854
610.845	13.96206
611.04	15.47815
611.235	13.68036
611.43	13.17321
611.625	12.36581
611.82	15.63626
612.015	13.21221
612.21	15.43098
612.405	11.85756
612.6	15.83066
612.795	15.54934
612.99	14.33665
613.185	12.28794
613.38	12.71402
613.575	13.4788
613.77	17.94851
613.965	11.59401
614.159	12.34103
614.354	15.83496
614.549	15.28315
614.744	14.90043
614.938	12.32759
615.133	11.71494
615.328	15.78702
615.523	15.09702
615.717	18.08278
615.912	12.59132
616.107	14.25233
616.301	13.66631
616.496	13.31973
616.691	16.1116
616.885	15.09654
617.08	18.41694
617.274	15.05558
617.469	17.0108
617.664	14.85992
617.858	13.2844
618.053	14.72717
618.247	13.81867
618.442	10.71733
618.636	16.12483
618.831	13.02514
619.025	13.44859
619.219	18.26271
619.414	10.05849
619.608	13.73357
619.803	13.36289
619.997	17.54443
620.191	15.6207
620.386	14.63586
620.58	14.35467
620.774	11.88458
620.969	11.98178
621.163	14.44679
621.357	12.45857
621.551	13.27691
621.746	13.94173
621.94	13.57428
622.134	19.57343
622.328	17.50257
622.522	11.71508
622.716	15.25611
622.911	15.91596
623.105	16.08623
623.299	15.06551
623.493	19.2815
623.687	12.9175
623.881	13.76354
624.075	14.31624
624.269	16.08953
624.463	11.54253
624.657	11.59179
624.851	15.20392
625.045	15.63119
625.239	15.79089
625.433	13.8747
625.627	16.60131
625.821	13.5219
626.015	13.2917
626.209	14.32356
626.403	12.0658
626.596	15.15303
626.79	16.07044
626.984	12.76378
627.178	15.33365
627.372	15.54005
627.565	15.49917
627.759	12.653
627.953	13.03528
628.147	15.41092
628.34	15.56013
628.534	17.75751
628.728	14.38002
628.921	15.8683
629.115	15.54437
629.309	16.05155
629.502	16.10272
629.696	14.47171
629.89	14.3401
630.083	14.44616
630.277	15.23326
630.47	17.45581
630.664	14.13831
630.857	11.88251
631.051	15.87647
631.244	16.74542
631.438	15.76383
631.631	13.25229
631.825	17.23301
632.018	15.2829
632.212	17.10752
632.405	16.49503
632.598	13.50949
632.792	14.08114
632.985	10.64222
633.178	14.49221
633.372	14.1887
633.565	14.25602
633.758	17.02933
633.952	12.93715
634.145	13.10514
634.338	14.11475
634.531	13.65853
634.724	13.79896
634.918	14.4336
635.111	14.14998
635.304	13.90662
635.497	19.10255
635.69	15.19152
635.883	16.71586
636.077	12.85637
636.27	15.44964
636.463	15.25206
636.656	15.32132
636.849	14.31973
637.042	16.22071
637.235	17.17249
637.428	16.45515
637.621	16.68771
637.814	16.88999
638.007	17.80242
638.2	17.37099
638.393	18.25556
638.586	12.64227
638.778	14.49109
638.971	14.64261
639.164	17.9542
639.357	15.09275
639.55	18.36447
639.743	16.66891
639.935	15.63686
640.128	18.95392
640.321	16.03107
640.514	14.82656
640.707	20.08261
640.899	16.01411
641.092	11.29464
641.285	31.56715
641.477	10.91224
641.67	20.47834
641.863	17.9358
642.055	15.53848
642.248	14.49275
642.441	14.30103
642.633	16.17495
642.826	18.44642
643.018	17.88863
643.211	20.55459
643.403	19.03753
643.596	20.15821
643.788	18.98892
643.981	14.82829
644.173	17.63712
644.366	15.4348
644.558	11.24643
644.751	17.80785
644.943	12.63508
645.135	18.05209
645.328	19.24178
645.52	16.47115
645.712	17.53339
645.905	22.62802
646.097	12.70228
646.289	16.18684
646.482	21.11253
646.674	14.41774
646.866	18.78873
647.058	16.43087
647.251	13.92138
647.443	14.29457
647.635	15.32073
647.827	13.02219
648.019	14.65558
648.211	15.22055
648.404	15.60614
648.596	19.73466
648.788	16.21822
648.98	15.95362
649.172	16.85818
649.364	16.87483
649.556	12.3759
649.748	22.63323
649.94	14.41087
650.132	17.56608
650.324	13.74505
650.516	15.06339
650.708	18.77322
650.9	12.87427
651.092	12.50852
651.284	12.74883
651.476	13.52206
651.667	17.42144
651.859	18.68238
652.051	15.97736
652.243	15.44353
652.435	14.47612
652.627	18.16422
652.818	16.59063
653.01	12.08066
653.202	13.85596
653.394	14.91523
653.585	17.42665
653.777	27.0013
653.969	19.12306
654.16	19.01621
654.352	13.39789
654.544	15.42627
654.735	18.46835
654.927	16.72532
655.118	20.009
655.31	17.22574
655.502	19.61305
655.693	14.89503
655.885	17.86531
656.076	19.72931
656.268	17.33893
656.459	20.42626
656.651	19.58635
656.842	15.14684
657.034	14.30596
657.225	18.96879
657.416	19.28346
657.608	19.98536
657.799	16.68485
657.99	19.48996
658.182	15.47083
658.373	15.25206
658.564	18.75217
658.756	16.65961
658.947	16.1815
659.138	14.31032
659.33	15.535
659.521	15.51057
659.712	16.30151
659.903	16.23272
660.094	15.67593
660.286	13.7941
660.477	21.02883
660.668	17.89688
660.859	16.48778
661.05	12.97405
661.241	18.74475
661.432	18.1172
661.623	16.2939
661.814	15.83181
662.006	12.59791
662.197	17.14715
662.388	20.24648
662.579	16.98997
662.77	23.663
662.96	24.26078
663.151	19.41507
663.342	13.08409
663.533	18.70881
663.724	16.233
663.915	22.08503
664.106	16.83088
664.297	21.87635
664.488	18.84094
664.678	15.31683
664.869	20.04098
665.06	20.77616
665.251	18.64381
665.442	18.74817
665.632	14.12091
665.823	22.78648
666.014	8.80252
666.204	19.42245
666.395	21.11924
666.586	25.20942
666.776	20.11342
666.967	21.88691
667.158	18.31164
667.348	20.53364
667.539	14.40943
667.729	20.34887
667.92	16.14677
668.111	20.52999
668.301	19.60286
668.492	17.46288
668.682	17.91885
668.873	17.29612
669.063	14.50325
669.253	18.74209
669.444	20.08682
669.634	17.39107
669.825	24.20459
670.015	20.89505
670.206	14.64464
670.396	23.31767
670.586	17.8181
670.777	19.43601
670.967	11.8476
671.157	17.59086
671.347	15.66085
671.538	22.90011
671.728	19.96709
671.918	23.33908
672.108	20.93782
672.299	16.9398
672.489	19.7352
672.679	16.21056
672.869	18.99279
673.059	24.84378
673.249	21.18903
673.44	14.90014
673.63	18.67522
673.82	21.30026
674.01	16.10275
674.2	21.42307
674.39	27.74346
674.58	21.01996
674.77	18.26389
674.96	17.90769
675.15	31.11415
675.34	23.20278
675.53	19.25297
675.72	19.36566
675.91	13.9686
676.099	24.49515
676.289	25.85629
676.479	21.98424
676.669	16.95338
676.859	20.79334
677.049	15.93597
677.238	18.66373
677.428	24.89714
677.618	19.38975
677.808	23.47452
677.997	20.74336
678.187	15.52507
678.377	19.18637
678.567	16.72118
678.756	17.87248
678.946	18.84159
679.136	14.73412
679.325	16.88915
679.515	16.31788
679.704	15.40276
679.894	20.85261
680.084	20.0631
680.273	21.69672
680.463	17.09048
680.652	16.5484
680.842	19.01573
681.031	22.32393
681.221	17.16551
681.41	21.22084
681.6	18.87014
681.789	22.67477
681.978	23.50219
682.168	21.27557
682.357	20.31689
682.547	21.57083
682.736	20.6242
682.925	24.66583
683.115	23.40275
683.304	22.80308
683.493	21.51754
683.682	21.45265
683.872	22.19873
684.061	24.46659
684.25	21.63036
684.439	26.68595
684.629	22.19253
684.818	32.27494
685.007	20.01634
685.196	19.85002
685.385	26.51981
685.574	21.86414
685.763	22.47248
685.952	21.6387
686.142	17.03949
686.331	25.36165
686.52	14.89537
686.709	26.88885
686.898	26.16677
687.087	24.10002
687.276	26.9814
687.465	24.3772
687.654	21.18956
687.842	26.75491
688.031	17.39196
688.22	27.18824
688.409	22.23403
688.598	22.33503
688.787	31.88896
688.976	21.62286
689.165	28.56873
689.353	18.90291
689.542	23.38323
689.731	25.16555
689.92	30.56776
690.108	24.22535
690.297	20.63433
690.486	22.05364
690.675	25.40155
690.863	28.55
691.052	28.01844
691.241	23.94683
691.429	23.20687
691.618	28.65661
691.806	17.35562
691.995	20.45825
692.184	23.51078
692.372	20.17311
692.561	23.52958
692.749	22.77739
692.938	34.07843
693.126	25.52485
693.315	22.17335
693.503	26.05349
693.692	26.16648
693.88	27.89039
694.068	31.92058
694.257	23.26283
694.445	24.9026
694.634	15.07543
694.822	27.48368
695.01	28.14945
695.199	29.26725
695.387	29.28502
695.575	27.07397
695.763	22.62134
695.952	21.02355
696.14	18.0232
696.328	21.66466
696.516	24.30383
696.705	24.71361
696.893	24.20923
697.081	16.1193
697.269	25.62944
697.457	19.32877
697.645	18.71053
697.833	25.49869
698.021	20.10937
698.21	21.3292
698.398	22.31989
698.586	18.70621
698.774	18.93507
698.962	21.74807
699.15	19.43322
699.338	17.51579
699.526	24.37232
699.714	21.05888
699.901	21.30105
700.089	26.59258
700.277	20.16483
700.465	22.83229
700.653	26.57424
700.841	24.75874
701.029	20.2299
701.217	27.71668
701.404	23.71517
701.592	31.32902
701.78	33.19082
701.968	22.53026
702.155	23.46549
702.343	16.53903
702.531	29.38332
702.718	26.9124
702.906	23.6435
703.094	21.39392
703.281	29.70421
703.469	25.36917
703.657	28.8015
703.844	38.41713
704.032	32.51596
704.219	21.38917
704.407	26.56198
704.595	30.76433
704.782	25.16177
704.97	23.72336
705.157	22.01999
705.345	32.14812
705.532	38.86045
705.719	27.35963
705.907	32.53087
706.094	25.99392
706.282	33.11353
706.469	24.32445
706.656	27.5958
706.844	24.26398
707.031	30.91104
707.218	27.44397
707.406	34.36708
707.593	29.43759
707.78	29.50635
707.968	25.67884
708.155	21.40132
708.342	29.15155
708.529	28.569
708.716	27.42172
708.904	34.70531
709.091	29.09883
709.278	20.90278
709.465	36.63446
709.652	34.76077
709.839	32.89579
710.026	29.21577
710.213	19.86691
710.4	28.87885
710.587	31.2504
710.774	33.12079
710.961	32.74589
711.148	28.18803
711.335	33.01287
711.522	25.99276
711.709	29.6173
711.896	39.70706
712.083	31.61341
712.27	23.43871
712.457	30.24066
712.644	20.59512
712.831	38.01463
713.017	29.39678
713.204	31.38735
713.391	25.37389
713.578	34.64071
713.765	35.72062
713.951	29.40186
714.138	46.23652
714.325	31.38792
714.512	28.32839
714.698	24.26452
714.885	36.30496
715.072	29.22576
715.258	29.56205
715.445	26.48298
715.631	35.62666
715.818	16.25072
716.005	26.03684
716.191	33.21919
716.378	26.74211
716.564	33.86381
716.751	25.15929
716.937	26.88274
717.124	34.34334
717.31	25.89987
717.497	38.25645
717.683	25.82755
717.869	43.69235
718.056	27.92477
718.242	33.38283
718.429	29.53898
718.615	24.3558
718.801	30.88943
718.988	33.98374
719.174	35.2704
719.36	30.49779
719.547	36.89949
719.733	33.1048
719.919	34.43296
720.105	35.8112
720.291	31.18382
720.478	31.32129
720.664	30.50349
720.85	27.595
721.036	49.66838
721.222	43.16013
721.408	30.57627
721.595	44.22442
721.781	41.86365
721.967	38.74668
722.153	42.59245
722.339	34.9582
722.525	32.51024
722.711	26.20537
722.897	24.90057
723.083	28.31543
723.269	37.29416
723.455	49.64347
723.641	54.18961
723.827	33.11623
724.012	35.80284
724.198	29.76533
724.384	42.02039
724.57	36.87684
724.756	22.85888
724.942	21.45614
725.127	39.86475
725.313	41.66622
725.499	41.65201
725.685	47.63851
725.87	34.49426
726.056	26.74871
726.242	42.30515
726.428	22.21947
726.613	39.1655
726.799	32.06154
726.985	23.86074
727.17	22.75057
727.356	45.06119
727.541	26.60221
727.727	33.15545
727.913	36.6052
728.098	29.38657
728.284	38.68167
728.469	24.52268
728.655	26.41998
728.84	38.48226
729.026	37.6353
729.211	39.61473
729.397	36.04168
729.582	37.13067
729.767	33.41389
729.953	35.84338
730.138	41.82402
730.323	19.60251
730.509	26.62172
730.694	45.48003
730.879	37.50474
731.065	33.05066
731.25	48.34066
731.435	38.66748
731.621	24.69124
731.806	30.406
731.991	34.49124
732.176	23.72525
732.361	44.02415
732.547	38.05102
732.732	22.12567
732.917	50.06602
733.102	24.69453
733.287	28.07877
733.472	34.25238
733.657	33.85575
733.842	23.72388
734.027	30.40432
734.212	32.38464
734.397	28.96694
734.582	33.02549
734.767	41.08503
734.952	44.61416
735.137	16.66451
735.322	44.84161
735.507	35.67907
735.692	33.57546
735.877	50.8876
736.062	48.41751
736.247	38.57398
736.431	33.22887
736.616	41.99863
736.801	35.97759
736.986	35.4292
737.171	28.24924
737.355	22.88993
737.54	43.03762
737.725	33.36995
737.909	56.29777
738.094	31.53385
738.279	41.96593
738.463	33.7363
738.648	41.10424
738.833	38.38465
739.017	51.54493
739.202	34.53118
739.386	33.48935
739.571	28.84487
739.756	41.50379
739.94	36.36152
740.125	42.37547
740.309	29.52316
740.494	40.64617
740.678	35.22663
740.863	41.46061
741.047	38.20514
741.231	48.72255
741.416	30.33546
741.6	47.73077
741.785	26.5991
741.969	45.01564
742.153	47.06339
742.338	19.24503
742.522	34.94572
742.706	41.708
742.89	23.77948
743.075	37.68557
743.259	48.30773
743.443	46.10507
743.627	50.43154
743.812	56.01797
743.996	16.79404
744.18	34.97621
744.364	32.401
744.548	58.21914
744.732	34.37154
744.916	42.33399
745.1	41.76788
745.285	34.72878
745.469	44.35208
745.653	52.74384
745.837	25.33628
746.021	60.1023
746.205	46.89871
746.389	36.49844
746.573	32.03483
746.757	50.31182
746.94	35.82649
747.124	51.35847
747.308	25.87093
747.492	46.0102
747.676	33.93832
747.86	57.57451
748.044	33.14458
748.227	22.26813
748.411	73.50537
748.595	41.3714
748.779	29.05803
748.963	41.49245
749.146	41.04767
749.33	30.16213
749.514	27.41461
749.697	49.34496
749.881	31.52121
750.065	27.86731
750.248	38.00092
750.432	61.0846
750.616	39.24545
750.799	25.93081
750.983	59.75775
751.166	64.80138
751.35	25.14386
751.533	50.10746
751.717	53.72662
751.9	51.78528
752.084	34.72668
752.267	24.99511
752.451	31.95206
752.634	39.02384
752.818	42.50152
753.001	47.55917
753.184	50.75743
753.368	42.65417
753.551	9.65445
753.734	32.87956
753.918	58.88996
754.101	29.50585
754.284	44.75759
754.467	36.1139
754.651	34.96727
754.834	33.77029
755.017	50.03017
755.2	52.08216
755.384	27.78986
755.567	46.5914
755.75	50.40418
755.933	37.90458
756.116	40.09363
756.299	31.67597
756.482	29.56681
756.665	46.0275
756.848	39.4836
757.032	45.45239
757.215	26.68495
757.398	32.02609
757.581	30.17049
757.764	66.57217
757.947	38.85607
758.129	51.24616
758.312	11.32639
758.495	37.75662
758.678	37.86178
758.861	36.19026
759.044	61.24904
759.227	34.42088
759.41	29.53846
759.592	47.51434
759.775	38.71629
759.958	49.31912
760.141	25.9757
760.324	61.82162
760.506	53.02646
760.689	47.82959
760.872	68.03924
761.054	44.45479
761.237	36.82418
761.42	44.72694
761.602	49.09651
761.785	45.00242
761.968	53.6038
762.15	57.78886
762.333	34.83635
762.515	40.1721
762.698	34.72572
762.88	45.17723
763.063	41.87873
763.245	47.61401
763.428	30.18248
763.61	33.45548
763.793	28.10648
763.975	41.88742
764.158	33.47824
764.34	34.97836
764.522	30.42955
764.705	36.31976
764.887	51.21309
765.069	25.16134
765.252	46.88686
765.434	46.34605
765.616	37.52751
765.799	31.27605
765.981	46.02729
766.163	31.43657
766.345	49.47986
766.528	30.89329
766.71	14.23673
766.892	40.90484
767.074	52.6848
767.256	38.97316
767.438	60.30672
767.62	44.95828
767.802	64.72145
767.985	49.23637
768.167	63.82806
768.349	38.69732
768.531	46.90523
768.713	44.56084
768.895	52.99745
769.077	44.85878
769.259	75.81418
769.441	100.96356
769.623	50.5788
769.804	62.07109
769.986	61.4866
770.168	76.04726
770.35	87.80907
770.532	69.01295
770.714	70.12624
770.896	73.42367
771.077	31.66931
771.259	78.01371
771.441	61.39863
771.623	82.49394
771.804	104.36355
771.986	29.09442
772.168	49.58025
772.35	73.42639
772.531	106.11959
772.713	60.50125
772.894	83.79553
773.076	61.79651
773.258	53.45593
773.439	85.29456
773.621	90.94438
773.802	43.41307
773.984	60.39879
774.166	65.35898
774.347	97.38886
774.529	83.54732
774.71	24.4473
774.891	58.29445
775.073	53.67333
775.254	97.20249
775.436	48.40632
775.617	103.74557
775.799	53.82528
775.98	89.12254
776.161	98.22325
776.343	94.08845
776.524	60.44965
776.705	53.84338
776.886	31.29988
777.068	66.92666
777.249	121.43707
777.43	102.95224
777.611	39.12443
777.793	58.76613
777.974	92.77819
778.155	56.58085
778.336	47.52048
778.517	110.27702
778.698	45.64508
778.879	27.38323
779.061	14.43038
779.242	67.23075
779.423	69.13689
779.604	50.20772
779.785	56.44076
779.966	67.86062
780.147	82.62484
780.328	88.89782
780.509	116.12153
780.69	83.58238
780.871	51.42545
781.051	35.03012
781.232	63.76381
781.413	68.22189
781.594	56.12426
781.775	55.2414
781.956	46.23802
782.137	24.98658
782.317	49.90669
782.498	72.61676
782.679	70.79348
782.86	68.80442
783.04	47.01903
783.221	72.75397
783.402	106.7378
783.583	65.09708
783.763	77.02417
783.944	57.04692
784.124	34.32622
784.305	101.85287
784.486	74.27537
784.666	58.12009
784.847	30.59876
785.027	122.94998
785.208	46.65356
785.388	51.78681
785.569	49.35
785.749	57.0993
785.93	52.31623
786.11	31.73062
786.291	72.84117
786.471	62.89457
786.652	79.4975
786.832	58.01454
787.012	72.30365
787.193	41.27801
787.373	68.79633
787.553	55.64627
787.734	69.72608
787.914	54.54849
788.094	74.70639
788.275	72.18048
788.455	53.25528
788.635	38.99116
788.815	65.3173
788.995	40.46897
789.176	34.68407
789.356	45.23664
789.536	54.51216
789.716	71.61719
789.896	45.42309
790.076	52.16488
790.256	66.36412
790.436	20.06986
790.616	43.00639
790.796	65.06286
790.976	55.56692
791.156	46.44252
791.336	76.69341
791.516	68.00003
791.696	56.84127
791.876	32.83003
792.056	68.28998
792.236	85.12978
792.416	76.24438
792.596	71.83821
792.776	69.35766
792.956	76.91397
793.135	96.06719
793.315	40.98311
793.495	85.01698
793.675	79.29201
793.854	84.23368
794.034	83.27597
794.214	44.86616
794.394	79.44434
794.573	86.85916
794.753	61.18369
794.933	50.46371
795.112	68.78298
795.292	78.86182
795.472	97.34842
795.651	37.37155
795.831	66.15175
796.01	53.60069
796.19	52.718
796.369	61.36405
796.549	71.2434
796.728	58.96223
796.908	41.95915
797.087	42.30715
797.267	58.14274
797.446	40.99325
797.626	73.04142
797.805	69.2846
797.984	52.59487
798.164	79.11523
798.343	43.65671
798.522	67.40548
798.702	61.645
798.881	35.21306
799.06	57.95782
799.239	24.75361
799.419	43.59429
799.598	97.29905
799.777	71.65385
799.956	83.99541
800.136	57.21883
800.315	46.15269
800.494	69.08748
800.673	84.76144
800.852	79.46535
801.031	86.15922
801.21	76.65577
801.389	50.99243
801.568	67.25792
801.747	105.36712
801.926	63.53957
802.105	97.08632
802.284	57.7347
802.463	96.26722
802.642	71.37491
802.821	68.25876
803	85.58431
803.179	83.79075
803.358	90.1079
803.537	49.80108
803.716	75.10522
803.895	47.12824
804.073	67.68925
804.252	50.37464
804.431	70.87778
804.61	63.58804
804.789	85.69354
804.967	49.06491
805.146	50.45968
805.325	110.16431
805.503	80.62185
805.682	37.27924
805.861	128.75661
806.039	97.71642
806.218	54.30312
806.397	72.63569
806.575	66.79366
806.754	69.22429
806.932	43.15063
807.111	96.5802
807.289	86.65199
807.468	65.80468
807.646	87.84242
807.825	75.70674
808.003	71.04185
808.182	87.35475
808.36	60.79524
808.539	45.74154
808.717	98.46113
808.895	43.69089
809.074	70.13377
809.252	63.66142
809.43	88.94136
809.609	96.26013
809.787	108.45993
809.965	59.10315
810.144	70.35385
810.322	56.6585
810.5	72.21069
810.678	65.45333
810.856	112.84539
811.035	92.44255
811.213	100.08424
811.391	98.60286
811.569	71.54271
811.747	153.66825
811.925	107.14335
812.103	46.23337
812.281	67.8562
812.459	119.2672
812.637	114.75015
812.816	97.69008
812.994	120.43254
813.171	102.04616
813.349	87.73031
813.527	103.93579
813.705	98.58695
813.883	125.82801
814.061	100.30095
814.239	120.26816
814.417	126.74147
814.595	91.81661
814.773	75.25816
814.95	82.57751
815.128	79.54329
815.306	74.90641
815.484	70.0976
815.662	52.4962
815.839	49.74812
816.017	62.25125
816.195	105.72323
816.372	61.9757
816.55	103.18829
816.728	112.31968
816.905	73.46133
817.083	113.98656
817.261	72.21147
817.438	149.34418
817.616	121.36102
817.793	53.68576
817.971	89.34259
818.148	87.99677
818.326	119.13009
818.503	79.63964
818.681	108.5706
818.858	63.59519
819.036	70.78423
819.213	76.56521
819.391	57.79548
819.568	53.40022
819.745	50.0896
819.923	87.337
820.1	62.0186
820.277	50.8542
820.455	62.76596
820.632	64.19197
820.809	65.13406
820.986	40.75211
821.164	35.72902
821.341	31.34321
821.518	43.35874
821.695	33.50568
821.872	32.89109
822.05	28.71893
822.227	25.62306
822.404	27.06327
822.581	29.85946
822.758	27.83359
822.935	27.8585
823.112	30.8688
823.289	27.0483
823.466	31.14527
823.643	29.38647
823.82	34.22409
823.997	31.49647
824.174	35.99015
824.351	43.31458
824.528	41.48233
824.705	39.05966
824.882	40.08125
825.059	51.26361
825.236	36.97291
825.412	37.59591
825.589	48.39446
825.766	63.96191
825.943	40.39734
826.12	47.09407
826.296	33.66288
826.473	41.57322
826.65	42.99624
826.827	52.50443
827.003	36.76802
827.18	41.04321
827.357	44.98635
827.533	39.55451
827.71	24.27898
827.887	35.85576
828.063	41.30531
828.24	37.23865
828.416	46.24586
828.593	39.04856
828.769	55.43212
828.946	57.21433
829.122	58.66411
829.299	59.13106
829.475	27.90195
829.652	55.8607
829.828	87.95353
830.005	57.2225
830.181	75.30058
830.357	53.22505
830.534	76.74907
830.71	69.40105
830.886	83.47756
831.063	78.10671
831.239	100.58209
831.415	44.08766
831.592	105.9248
831.768	60.13567
831.944	54.33415
832.12	110.63771
832.296	104.1395
832.473	81.81893
832.649	54.01061
832.825	81.14494
833.001	46.09305
833.177	65.66375
833.353	62.63515
833.529	37.66656
833.705	53.41629
833.881	39.29699
834.058	44.22828
834.234	42.82514
834.41	42.23327
834.586	32.71014
834.761	40.34561
834.937	44.1554
835.113	43.943
835.289	40.87516
835.465	47.80404
835.641	42.67589
835.817	47.27102
835.993	83.08032
836.169	41.38807
836.344	62.84771
836.52	70.26202
836.696	78.44425
836.872	55.01544
837.048	145.8127
837.223	59.1374
837.399	135.91322
837.575	103.33174
837.75	95.37205
837.926	132.1188
838.102	212.64138
838.277	160.66249
838.453	232.16731
838.628	216.70479
838.804	81.96634
838.98	212.77207
839.155	104.19096
839.331	135.99193
839.506	97.774
839.682	86.90632
839.857	110.26069
840.033	135.86844
840.208	60.6754
840.384	37.25386
840.559	66.84234
840.734	106.44464
840.91	151.05521
841.085	92.95351
841.26	96.40952
841.436	80.06473
841.611	85.42806
841.786	126.15931
841.962	171.96321
842.137	127.03334
842.312	60.57036
842.487	102.98752
842.663	80.40791
842.838	110.71485
843.013	320.11403
843.188	186.98365
843.363	140.00731
843.538	312.04552
843.714	364.92372
843.889	307.44259
844.064	291.70069
844.239	243.02095
844.414	475.76303
844.589	263.26382
844.764	414.57753
844.939	375.11463
845.114	423.16406
845.289	435.53998
845.464	509.08139
845.639	389.46644
845.814	209.93729
845.989	317.37645
846.163	253.96034
846.338	327.55327
846.513	412.60482
846.688	259.34201
846.863	305.80434
847.038	237.08147
847.212	285.80006
847.387	334.5082
847.562	312.42891
847.737	470.77983
847.911	167.22842
848.086	177.72817
848.261	482.38953
848.435	269.38638
848.61	381.46428
848.785	208.17633
848.959	399.73663
849.134	462.60459
849.308	686.94765
849.483	308.54769
849.658	528.40187
849.832	256.25553
850.007	242.54716
850.181	659.78722
850.356	282.87965
850.53	804.20717
850.705	321.84867
850.879	173.4912
851.053	308.42896
851.228	312.85149
851.402	485.53203
851.577	475.31685
851.751	586.28584
851.925	361.76311
852.099	129.69764
852.274	238.47117
852.448	317.71376
852.622	482.62231
852.797	331.46409
852.971	353.85309
853.145	417.14915
853.319	749.44928
853.493	651.36497
853.668	512.78842
853.842	780.89045
854.016	488.67485
854.19	702.76517
854.364	361.52633
854.538	359.16587
854.712	778.01694
854.886	435.61365
855.06	326.71738
855.234	126.50402
855.408	634.64104
855.582	424.27634
855.756	648.60001
855.93	560.52137
856.104	633.94275
856.278	557.19213
856.452	365.24816
856.626	411.31436
856.8	912.31653
856.973	412.05415
857.147	470.59247
857.321	484.65468
857.495	486.79275
857.669	316.21555
857.842	469.99333
858.016	599.31083
858.19	238.9725
858.364	786.46987
858.537	388.0194
858.711	513.89035
858.885	381.91779
859.058	241.50111
859.232	177.08968
859.405	157.43347
859.579	478.06934
859.753	542.95386
859.926	232.48797
860.1	244.68295
860.273	374.2182
860.447	487.80424
860.62	400.28008
860.794	586.7008
860.967	346.44018
861.141	511.81192
861.314	800.26705
861.487	476.14398
861.661	469.79181
861.834	536.67223
862.008	711.30948
862.181	424.82729
862.354	517.5061
862.528	456.66856
862.701	326.77817
862.874	208.22977
863.047	320.85642
863.221	288.14451
863.394	192.83061
863.567	403.45285
863.74	162.31309
863.913	462.30249
864.087	529.01595
864.26	500.41331
864.433	369.36555
864.606	619.59189
864.779	383.46685
864.952	167.49753
865.125	415.80395
865.298	312.08698
865.471	339.17644
865.644	778.6761
865.817	516.77106
865.99	496.93704
866.163	453.0264
866.336	271.37791
866.509	346.8014
866.682	598.77373
866.855	706.13828
867.028	220.86933
867.2	401.80552
867.373	149.40278
867.546	379.03255
867.719	686.18592
867.892	437.9348
868.064	296.88834
868.237	320.5339
868.41	368.55928
868.583	180.27811
868.755	235.10098
868.928	449.40949
869.101	826.37866
869.273	532.44648
869.446	559.72115
869.619	581.55087
869.791	363.65727
869.964	509.14899
870.136	886.54745
870.309	370.83265
870.481	432.48689
870.654	213.33059
870.826	341.03244
870.999	224.54492
871.171	419.90304
871.344	263.27343
871.516	318.24977
871.689	246.54412
871.861	323.75967
872.033	258.34042
872.206	270.94309
872.378	355.01131
872.55	365.34954
872.723	189.47065
872.895	332.86978
873.067	448.6524
873.24	394.05836
873.412	340.03892
873.584	408.6648
873.756	350.1736
873.928	466.09455
874.101	356.0224
874.273	421.48559
874.445	126.90864
874.617	244.10188
874.789	319.0147
874.961	328.77495
875.133	366.57634
875.305	374.33091
875.477	292.71424
875.649	155.80903
875.821	192.06044
875.993	631.52035
876.165	360.02087
876.337	364.93813
876.509	313.96507
876.681	354.58948
876.853	356.2343
877.025	339.19166
877.197	244.88028
877.369	173.22029
877.541	323.70237
877.712	89.15666
877.884	174.52432
878.056	352.58251
878.228	186.19586
878.4	402.7311
878.571	182.15754
878.743	115.74905
878.915	281.21461
879.086	137.70004
879.258	183.18192
879.43	172.54147
879.601	142.18757
879.773	140.68136
879.945	37.02432
880.116	57.78039
880.288	36.26008
880.459	39.12918
880.631	34.57436
880.802	38.15107
880.974	36.11497
881.145	27.35445
881.317	35.97285
881.488	28.71402
881.66	31.57557
881.831	29.85897
882.002	38.01999
882.174	30.6464
882.345	35.64631
882.517	23.35121
882.688	42.54398
882.859	35.61096
883.03	54.18301
883.202	50.29874
883.373	46.36511
883.544	40.29146
883.715	70.388
883.887	61.10636
884.058	50.40327
884.229	68.02273
884.4	73.96291
884.571	83.64073
884.742	72.66747
884.914	76.94802
885.085	109.51615
885.256	157.11305
885.427	134.74632
885.598	165.83643
885.769	147.1001
885.94	152.37866
886.111	102.89761
886.282	191.74887
886.453	165.56154
886.624	114.49699
886.795	217.62526
886.966	171.86868
887.136	229.48907
887.307	151.21036
887.478	327.94305
887.649	268.39899
887.82	262.50549
887.991	216.54669
888.161	353.81189
888.332	361.02055
888.503	146.41044
888.674	382.30518
888.844	533.27606
889.015	347.82456
889.186	212.39322
889.356	521.14897
889.527	203.40391
889.698	664.49781
889.868	242.88227
890.039	427.79459
890.209	288.54177
890.38	374.864
890.551	372.69126
890.721	411.21788
890.892	479.09189
891.062	402.40714
891.233	521.2885
891.403	461.25683
891.574	330.02964
891.744	249.84514
891.914	352.45741
892.085	408.02047
892.255	108.35336
892.425	446.75635
892.596	333.19146
892.766	408.82666
892.936	478.21032
893.107	388.47564
893.277	156.86096
893.447	188.26109
893.618	115.6955
893.788	190.71177
893.958	131.77368
894.128	104.78278
894.298	124.12379
894.468	156.99148
894.639	71.24162
894.809	42.05271
894.979	76.47362
895.149	96.84344
895.319	71.12731
895.489	113.25143
895.659	147.07324
895.829	86.18547
895.999	84.30593
896.169	77.98657
896.339	92.89376
896.509	196.36893
896.679	211.75723
896.849	239.34678
897.019	284.59577
897.189	251.69368
897.358	217.96022
897.528	336.78991
897.698	219.12944
897.868	330.72755
898.038	641.46726
898.208	632.42813
898.377	212.51106
898.547	974.83554
898.717	1390.78666
898.886	417.24557
899.056	618.3562
899.226	1493.2987
899.395	746.06638
899.565	1263.98768
899.735	768.78757
899.904	899.98614
900.074	1031.41698
900.244	320.71585
900.413	1256.61471
900.583	438.18058
900.752	1307.15319
900.922	1023.67647
901.091	220.75973
901.261	1922.86275
901.43	542.64886
901.599	2265.52641
901.769	1504.05546
901.938	1102.67209
902.108	1634.63501
902.277	795.75394
902.446	425.73014
902.616	386.22648
902.785	556.93669
902.954	728.42501
903.124	510.2262
903.293	292.35677
903.462	140.10781
903.631	212.4666
903.801	146.62064
903.97	62.81149
904.139	114.20261
904.308	87.71332
904.477	73.81771
904.646	40.27591
904.816	67.58234
904.985	108.69887
905.154	150.0817
