Data from WindowProjectSample_Transmission__52__00052__011903772825754244.txt Node

Date: Mon May 05 18:11:57 EDT 2025
User: jessi
Spectrometer: SR400872
Trigger mode: 0
Integration Time (sec): 5.000010E-1
Scans to average: 20
Electric dark correction enabled: true
Nonlinearity correction enabled: true
Boxcar width: 0
XAxis mode: Wavelengths
Number of Pixels in Spectrum: 3648
>>>>>Begin Spectral Data<<<<<
184.909	20524.0955
185.132	-5034.69598
185.355	-2929.24386
185.578	-17732.09507
185.801	1423.93864
186.024	10058.69917
186.247	-1651.0273
186.47	1146.41679
186.693	413.24226
186.916	328.30448
187.139	-3666.99946
187.362	3567.49967
187.585	4237.70496
187.808	3582.33471
188.031	79.31532
188.254	-52064.33035
188.476	-711.21092
188.699	6065.06876
188.922	763.03278
189.145	-14738.25551
189.368	-704.25789
189.591	-1385.4486
189.813	2983.08673
190.036	-50932.6286
190.259	-845.83242
190.482	-4222.90072
190.705	7181.88032
190.927	-2416.42535
191.15	13078.3668
191.373	3321.9566
191.595	-8634.91643
191.818	-4144.78077
192.041	-5158.09194
192.263	-3501.60643
192.486	-671.20053
192.709	-3774.81852
192.931	7782.39855
193.154	-28507.42882
193.377	-2750.56611
193.599	-2540.0321
193.822	-9060.58288
194.044	-1942.06983
194.267	1110.19088
194.489	250.85777
194.712	-42328.64903
194.934	-30562.17784
195.157	1235.35914
195.379	1305.48886
195.602	-6544.57524
195.824	-1326.08527
196.047	-8146.72516
196.269	2774.20654
196.492	-6364.17127
196.714	28014.29283
196.936	-8283.04685
197.159	-1177.42172
197.381	1149.21987
197.604	537.42566
197.826	12158.9199
198.048	-10409.95966
198.271	-2791.86883
198.493	7295.77048
198.715	2204.78565
198.938	-517.09709
199.16	7063.94762
199.382	-103295.28339
199.604	2403.04066
199.827	-1055.31002
200.049	-2835.68214
200.271	13783.43569
200.493	1201.69362
200.715	-39317.34903
200.938	-5928.44658
201.16	-4054.41869
201.382	19657.18342
201.604	2316.42455
201.826	2249.93038
202.048	-1866.28153
202.27	-1958.49322
202.492	-35378.38795
202.715	2959.4426
202.937	-4376.84449
203.159	-6304.92374
203.381	1441.59149
203.603	6773.64696
203.825	6037.90773
204.047	2131.23495
204.269	-2691.96654
204.491	2155.31332
204.713	6046.14771
204.935	-464593.46565
205.156	1091.77646
205.378	-2908.94455
205.6	1678.4423
205.822	150661.84808
206.044	-1031.59613
206.266	1574.11943
206.488	4682.45477
206.71	-4981.18493
206.932	1037.14294
207.153	11918.4396
207.375	-6847.04939
207.597	-37571.47755
207.819	-2835.10128
208.041	2454.48112
208.262	464.88341
208.484	667.27434
208.706	-776.29391
208.927	-725.67531
209.149	527.29388
209.371	-2933.75855
209.593	-285.45609
209.814	-745.27015
210.036	489.61758
210.258	-605.77083
210.479	1661.54188
210.701	1596.03047
210.922	3292.40916
211.144	-3758.50002
211.366	2119.87288
211.587	7915.56458
211.809	-8050.99987
212.03	2285.66717
212.252	454.1506
212.473	2129.6643
212.695	-6514.62011
212.916	2708.63121
213.138	-591.07069
213.359	3772.94789
213.581	4942.9328
213.802	-633.54978
214.024	1124.19731
214.245	1981.82384
214.466	3678.11556
214.688	-3155.14795
214.909	-1158.72964
215.131	-1662.65166
215.352	-2964.39407
215.573	14374.18673
215.795	5224.31858
216.016	5238.27158
216.237	819.38908
216.459	3573.18575
216.68	1825.05365
216.901	4896.77702
217.122	-3261.92159
217.344	-11179.06981
217.565	3434.76949
217.786	8816.61523
218.007	14846.68007
218.228	-776.01554
218.45	5887.7824
218.671	700.52151
218.892	36858.03245
219.113	1527.02674
219.334	-395.21715
219.555	9193.43265
219.776	3033.94338
219.997	22723.60812
220.219	2621.04739
220.44	-10052.13722
220.661	450.43452
220.882	1416.22183
221.103	-998.22269
221.324	2353.01853
221.545	2285.80364
221.766	-8768.52079
221.987	876.91581
222.208	1693.98668
222.429	4174.40249
222.65	268.99027
222.87	20104.74758
223.091	710.17138
223.312	595.62132
223.533	1364.9927
223.754	1445.63977
223.975	1379.52724
224.196	1886.33704
224.417	1309.78519
224.637	632.95504
224.858	68.69321
225.079	1032.36478
225.3	646.70579
225.521	3777.84011
225.741	458.83699
225.962	520.10279
226.183	135.89835
226.404	663.27574
226.624	419.77443
226.845	601.89503
227.066	412.43912
227.286	242.93393
227.507	132.49962
227.728	111.59707
227.948	230.31017
228.169	75.46602
228.389	86.3417
228.61	45.2553
228.831	62.44339
229.051	2.95453
229.272	38.10464
229.492	55.931
229.713	13.60383
229.933	37.70344
230.154	33.09428
230.374	52.92435
230.595	39.20272
230.815	20.62309
231.036	37.84501
231.256	-7.09651
231.477	66.51092
231.697	37.83732
231.917	39.60696
232.138	55.12752
232.358	102.09263
232.579	103.44536
232.799	16.22809
233.019	100.20387
233.24	111.08503
233.46	40.35232
233.68	62.40624
233.901	41.64658
234.121	25.39753
234.341	10.8735
234.561	-4.1397
234.782	22.44345
235.002	67.04805
235.222	-4.80819
235.442	64.98712
235.662	31.34847
235.883	60.36646
236.103	48.41416
236.323	34.53274
236.543	28.86119
236.763	40.03037
236.983	40.3269
237.203	40.0698
237.423	61.98728
237.643	85.72514
237.864	74.50719
238.084	17.79838
238.304	25.93634
238.524	43.56566
238.744	40.44859
238.964	72.40919
239.184	60.85692
239.404	65.61111
239.624	33.68174
239.843	60.52743
240.063	36.50817
240.283	21.93071
240.503	25.08352
240.723	25.39962
240.943	14.14382
241.163	19.63476
241.383	14.90718
241.603	7.16918
241.822	9.86755
242.042	6.02937
242.262	8.06687
242.482	9.5285
242.702	10.59959
242.921	2.8
243.141	6.43601
243.361	6.17897
243.581	9.01507
243.8	6.78665
244.02	5.559
244.24	9.89627
244.459	8.70072
244.679	17.3661
244.899	11.13232
245.118	13.31416
245.338	11.45679
245.558	13.73844
245.777	8.05093
245.997	10.25684
246.216	10.33556
246.436	6.25822
246.655	4.63671
246.875	3.18492
247.094	6.19238
247.314	2.07003
247.533	3.55502
247.753	4.29513
247.972	3.19495
248.192	1.18172
248.411	1.74211
248.631	3.40553
248.85	4.61301
249.07	3.67386
249.289	5.62143
249.508	4.82198
249.728	7.58536
249.947	6.89655
250.166	8.45565
250.386	4.33801
250.605	7.09944
250.824	10.04799
251.044	7.49606
251.263	28.4312
251.482	14.18771
251.701	11.78678
251.921	-0.41499
252.14	3.3117
252.359	3.96763
252.578	9.66824
252.798	3.45807
253.017	9.18306
253.236	4.13231
253.455	5.54385
253.674	9.99421
253.893	4.65994
254.112	7.76057
254.331	11.38602
254.551	9.01011
254.77	3.20267
254.989	13.03405
255.208	9.906
255.427	15.40731
255.646	11.71616
255.865	21.17658
256.084	8.86437
256.303	10.65272
256.522	13.61027
256.741	3.54922
256.96	2.50942
257.179	8.33017
257.397	10.72906
257.616	5.88068
257.835	6.15485
258.054	15.26717
258.273	10.46801
258.492	11.04188
258.711	6.59914
258.93	3.04337
259.148	4.68663
259.367	4.57906
259.586	5.53761
259.805	2.18977
260.023	5.26139
260.242	3.98205
260.461	2.75391
260.68	1.33186
260.898	4.49477
261.117	1.34408
261.336	0.87427
261.554	3.42054
261.773	3.26291
261.992	0.77824
262.21	3.2796
262.429	3.44845
262.648	7.18645
262.866	8.10102
263.085	5.55244
263.303	4.69162
263.522	8.23048
263.74	8.62554
263.959	15.32285
264.178	7.06624
264.396	6.30659
264.615	4.56395
264.833	10.34623
265.051	9.13464
265.27	10.19668
265.488	11.05687
265.707	6.40968
265.925	10.96025
266.144	4.90432
266.362	5.67175
266.58	5.40762
266.799	5.36821
267.017	5.99892
267.235	5.36305
267.454	3.31526
267.672	1.6462
267.89	4.0094
268.109	4.23503
268.327	4.34778
268.545	0.82323
268.763	4.2304
268.982	1.21954
269.2	4.50824
269.418	2.90823
269.636	1.78589
269.854	4.81558
270.073	2.99704
270.291	1.936
270.509	1.78744
270.727	4.49569
270.945	7.11543
271.163	7.13017
271.381	1.45366
271.599	3.27066
271.817	5.28025
272.036	1.70963
272.254	3.04552
272.472	2.39886
272.69	2.42644
272.908	2.27559
273.126	4.51481
273.344	5.09478
273.562	1.77032
273.779	2.50764
273.997	3.80389
274.215	4.09478
274.433	2.70215
274.651	4.26134
274.869	4.62875
275.087	2.95547
275.305	3.91865
275.523	2.50732
275.74	2.91625
275.958	5.18906
276.176	8.34879
276.394	2.46889
276.612	3.2915
276.829	3.09345
277.047	2.56097
277.265	3.06294
277.483	3.51466
277.7	4.23118
277.918	3.53793
278.136	6.33519
278.353	2.96071
278.571	1.93916
278.789	4.2655
279.006	1.04417
279.224	2.96628
279.442	5.0795
279.659	3.47401
279.877	2.40623
280.094	5.83686
280.312	1.13263
280.529	3.30252
280.747	0.92935
280.964	2.64049
281.182	6.01079
281.399	2.61428
281.617	3.78538
281.834	2.42808
282.052	2.00192
282.269	3.17267
282.487	2.61438
282.704	2.15682
282.921	2.29184
283.139	3.36805
283.356	3.81731
283.574	3.73932
283.791	1.93278
284.008	5.52876
284.226	2.90806
284.443	3.15191
284.66	4.19276
284.877	3.38654
285.095	2.0531
285.312	1.63519
285.529	0.88938
285.746	0.76509
285.964	1.99134
286.181	1.38711
286.398	1.94654
286.615	2.55124
286.832	2.54043
287.05	0.40253
287.267	1.80456
287.484	1.81187
287.701	2.55113
287.918	2.486
288.135	2.61016
288.352	1.10639
288.569	1.27573
288.786	2.35085
289.003	1.99452
289.22	2.90752
289.437	1.63827
289.654	2.85458
289.871	3.00003
290.088	2.89723
290.305	2.20544
290.522	1.60118
290.739	2.00312
290.956	3.05804
291.173	3.41571
291.39	3.32878
291.607	2.37776
291.824	1.62255
292.04	1.12485
292.257	2.97704
292.474	3.17762
292.691	1.86455
292.908	0.87376
293.125	1.60798
293.341	0.95183
293.558	5.00373
293.775	1.95803
293.992	1.8331
294.208	0.88071
294.425	1.24097
294.642	1.7954
294.858	2.90666
295.075	0.55838
295.292	2.02654
295.508	2.23802
295.725	3.94241
295.942	1.5473
296.158	1.21242
296.375	1.93707
296.591	1.59749
296.808	1.63134
297.024	1.91809
297.241	2.22771
297.458	2.39339
297.674	0.12966
297.891	1.83816
298.107	1.43876
298.323	1.10052
298.54	2.9401
298.756	1.2587
298.973	0.56554
299.189	2.98775
299.406	1.19089
299.622	2.75106
299.838	2.60281
300.055	2.63349
300.271	0.45853
300.487	0.94338
300.704	1.20854
300.92	0.57331
301.136	4.15189
301.353	2.51231
301.569	1.72975
301.785	2.09452
302.001	2.49125
302.218	2.0797
302.434	2.18451
302.65	0.68105
302.866	1.55518
303.083	3.87293
303.299	3.66819
303.515	1.90119
303.731	1.89846
303.947	0.57671
304.163	1.0627
304.379	2.04922
304.595	2.32021
304.812	1.07734
305.028	1.20508
305.244	1.71345
305.46	2.5532
305.676	2.61582
305.892	3.01944
306.108	2.23163
306.324	1.41896
306.54	3.72237
306.756	2.53587
306.972	2.30792
307.187	1.6646
307.403	3.26758
307.619	1.54563
307.835	3.01299
308.051	3.48134
308.267	0.87645
308.483	2.75139
308.699	2.36353
308.914	1.97781
309.13	1.74523
309.346	0.49085
309.562	0.96405
309.778	0.58421
309.993	2.41709
310.209	1.79306
310.425	0.91707
310.641	1.58187
310.856	0.96293
311.072	0.87881
311.288	1.71743
311.503	1.86232
311.719	0.29361
311.935	0.23194
312.15	2.18047
312.366	1.76977
312.581	2.20056
312.797	1.65886
313.013	2.48854
313.228	1.21424
313.444	1.8147
313.659	1.17195
313.875	2.16716
314.09	1.62076
314.306	3.24406
314.521	2.48907
314.737	2.42156
314.952	1.74813
315.168	1.68384
315.383	2.31649
315.599	1.58424
315.814	1.43455
316.029	2.50567
316.245	0.72635
316.46	0.52022
316.675	3.01452
316.891	3.45991
317.106	4.41935
317.321	2.14173
317.537	2.47631
317.752	2.60826
317.967	2.79119
318.183	1.07827
318.398	1.51109
318.613	2.64288
318.828	3.21492
319.043	2.73766
319.259	1.62008
319.474	2.10244
319.689	3.06701
319.904	0.51415
320.119	2.50228
320.334	2.25227
320.549	1.59668
320.765	2.88545
320.98	1.95473
321.195	2.53201
321.41	1.80699
321.625	2.60578
321.84	3.47514
322.055	3.68715
322.27	1.36956
322.485	1.01421
322.7	2.25721
322.915	2.78789
323.13	1.12505
323.345	3.3126
323.56	2.4945
323.775	2.51802
323.989	2.26848
324.204	2.17308
324.419	2.98166
324.634	0.83283
324.849	1.6655
325.064	4.78349
325.279	2.69951
325.493	2.31702
325.708	2.82921
325.923	1.29018
326.138	1.28605
326.352	3.43196
326.567	2.75876
326.782	1.71131
326.997	1.26622
327.211	2.49858
327.426	2.22113
327.641	1.50594
327.855	0.58806
328.07	2.25482
328.285	3.46989
328.499	1.489
328.714	2.20399
328.928	2.59357
329.143	1.816
329.358	2.75217
329.572	2.75821
329.787	2.99356
330.001	4.12493
330.216	0.90488
330.43	3.45093
330.645	3.44621
330.859	2.81154
331.074	1.41332
331.288	1.97103
331.503	3.01445
331.717	0.98905
331.931	2.15251
332.146	2.04756
332.36	3.4842
332.575	2.35182
332.789	2.18435
333.003	1.98635
333.218	2.27958
333.432	1.26258
333.646	2.60247
333.86	3.3447
334.075	3.31128
334.289	1.45848
334.503	1.26275
334.717	2.23747
334.932	2.38671
335.146	3.06166
335.36	1.62265
335.574	2.52449
335.788	2.26917
336.003	2.91573
336.217	2.33338
336.431	2.48828
336.645	1.46621
336.859	0.86276
337.073	1.7196
337.287	2.03941
337.501	1.04235
337.715	2.14674
337.929	2.7794
338.143	0.99465
338.357	1.81465
338.571	1.20344
338.785	2.29429
338.999	1.60072
339.213	1.46153
339.427	0.6323
339.641	3.03762
339.855	1.77953
340.069	1.42332
340.283	2.86026
340.497	3.62749
340.711	2.18701
340.924	1.67358
341.138	1.03911
341.352	0.76713
341.566	2.15133
341.78	0.56166
341.993	1.47251
342.207	1.09525
342.421	1.9568
342.635	1.6382
342.848	1.48706
343.062	0.15239
343.276	1.25201
343.49	3.67275
343.703	1.39337
343.917	2.75657
344.131	2.54844
344.344	1.34619
344.558	1.56823
344.771	0.96831
344.985	3.31667
345.199	3.09657
345.412	2.04669
345.626	2.04681
345.839	0.52737
346.053	0.87713
346.266	0.95844
346.48	2.45936
346.693	2.14305
346.907	2.04786
347.12	1.09947
347.334	2.1511
347.547	2.06608
347.76	1.38771
347.974	2.80284
348.187	2.10075
348.401	1.41514
348.614	1.3438
348.827	1.36743
349.041	2.32207
349.254	0.43939
349.467	1.50109
349.681	0.77421
349.894	1.30675
350.107	2.78553
350.32	3.10223
350.534	0.59325
350.747	1.37671
350.96	1.07168
351.173	1.21864
351.386	1.50262
351.6	1.32776
351.813	1.1645
352.026	1.6616
352.239	0.6101
352.452	1.48691
352.665	2.44796
352.878	1.65973
353.092	3.29732
353.305	2.34444
353.518	1.76623
353.731	1.12989
353.944	2.72091
354.157	1.21719
354.37	0.86084
354.583	1.0282
354.796	0.35249
355.009	2.42758
355.222	1.8752
355.435	1.72862
355.647	2.37347
355.86	0.84452
356.073	1.61962
356.286	1.18254
356.499	2.19986
356.712	1.7031
356.925	2.02829
357.138	2.20209
357.35	0.87395
357.563	1.32822
357.776	1.6226
357.989	1.25836
358.201	1.90596
358.414	1.6526
358.627	2.49486
358.84	1.32718
359.052	0.67693
359.265	0.91132
359.478	2.27891
359.69	-0.27878
359.903	1.9999
360.116	2.14965
360.328	0.32663
360.541	2.09758
360.753	0.64851
360.966	1.00253
361.179	1.1453
361.391	1.04755
361.604	0.71126
361.816	1.09454
362.029	0.84238
362.241	0.76714
362.454	0.88388
362.666	0.67601
362.879	1.39228
363.091	1.17023
363.304	0.73701
363.516	1.29439
363.728	0.63542
363.941	1.75105
364.153	0.99997
364.366	-0.10249
364.578	0.71246
364.79	1.59282
365.003	1.18661
365.215	0.95194
365.427	1.66075
365.639	2.0684
365.852	1.48118
366.064	3.08724
366.276	0.946
366.488	1.72512
366.701	1.08137
366.913	1.25739
367.125	1.19147
367.337	0.8359
367.549	0.9781
367.762	1.48039
367.974	1.41235
368.186	0.79984
368.398	2.0098
368.61	1.83136
368.822	1.85539
369.034	1.39458
369.246	1.77837
369.458	3.44203
369.67	0.76416
369.882	2.68335
370.094	0.1237
370.306	2.58418
370.518	1.20116
370.73	0.8397
370.942	0.77305
371.154	1.25199
371.366	0.90449
371.578	1.3922
371.79	0.72316
372.002	2.15934
372.214	2.58884
372.425	1.38277
372.637	2.21665
372.849	1.53568
373.061	0.02275
373.273	1.60545
373.484	1.56038
373.696	2.00059
373.908	-0.00817
374.12	2.22856
374.331	1.59568
374.543	0.80209
374.755	0.68019
374.967	1.40106
375.178	1.75205
375.39	1.07681
375.602	1.35694
375.813	0.40871
376.025	0.55851
376.236	1.3776
376.448	1.46054
376.66	0.85926
376.871	0.86787
377.083	2.23456
377.294	2.18742
377.506	0.93134
377.717	2.21252
377.929	1.45012
378.14	0.8061
378.352	1.53717
378.563	1.41835
378.775	2.12504
378.986	0.71748
379.197	1.20723
379.409	0.91983
379.62	1.87474
379.832	1.61993
380.043	1.13795
380.254	1.34448
380.466	0.63924
380.677	3.32695
380.888	2.74897
381.1	3.01607
381.311	2.87982
381.522	1.20871
381.733	3.25856
381.945	1.20988
382.156	1.43708
382.367	0.96144
382.578	3.32399
382.789	3.13312
383.001	1.01246
383.212	2.25674
383.423	2.43859
383.634	2.21176
383.845	1.74506
384.056	1.03846
384.267	1.41316
384.478	1.27009
384.69	0.65126
384.901	1.64376
385.112	1.58717
385.323	2.36275
385.534	1.6534
385.745	1.49847
385.956	1.62331
386.167	0.70833
386.378	1.66303
386.588	0.63535
386.799	0.93315
387.01	0.29434
387.221	2.00156
387.432	1.22074
387.643	2.63035
387.854	1.27234
388.065	1.23585
388.275	1.3476
388.486	1.11295
388.697	1.2576
388.908	1.18218
389.119	2.22412
389.329	2.48694
389.54	1.47735
389.751	1.6094
389.962	2.25043
390.172	1.72426
390.383	1.16325
390.594	1.09104
390.804	1.09182
391.015	1.10645
391.226	1.51821
391.436	1.76328
391.647	1.64108
391.858	1.87211
392.068	0.34165
392.279	0.67399
392.489	1.48653
392.7	2.24898
392.91	0.88848
393.121	1.04404
393.331	1.77867
393.542	2.24046
393.752	1.68569
393.963	1.78645
394.173	1.58387
394.384	1.86549
394.594	1.57603
394.804	0.83892
395.015	1.67557
395.225	1.85943
395.436	0.98313
395.646	1.90757
395.856	1.13829
396.067	0.74269
396.277	2.26354
396.487	1.92842
396.697	1.81514
396.908	1.96758
397.118	2.13718
397.328	1.88931
397.538	2.29416
397.749	1.28337
397.959	2.19844
398.169	2.20249
398.379	1.01966
398.589	2.2373
398.8	1.79501
399.01	1.71027
399.22	1.59956
399.43	3.27528
399.64	1.65014
399.85	2.28382
400.06	1.85753
400.27	1.36364
400.48	1.8683
400.69	2.90736
400.9	1.51207
401.11	1.32912
401.32	2.46263
401.53	1.61741
401.74	3.01009
401.95	2.40415
402.16	1.28206
402.37	2.2063
402.58	1.59133
402.79	2.43194
403	2.67379
403.209	1.66775
403.419	2.62418
403.629	1.6228
403.839	2.55618
404.049	2.56908
404.258	1.69556
404.468	1.54975
404.678	2.27755
404.888	2.62308
405.097	1.65771
405.307	2.06761
405.517	2.46139
405.727	2.27238
405.936	1.98651
406.146	2.30234
406.356	2.98217
406.565	2.17219
406.775	1.86934
406.984	1.89747
407.194	3.29929
407.404	2.22424
407.613	2.5382
407.823	2.75125
408.032	2.8161
408.242	2.94074
408.451	2.11139
408.661	2.34221
408.87	3.44877
409.08	1.94647
409.289	2.5584
409.499	2.57938
409.708	2.50258
409.918	1.29986
410.127	2.50214
410.336	3.47133
410.546	2.83842
410.755	2.21019
410.964	2.34538
411.174	1.99332
411.383	2.77588
411.592	2.82487
411.802	1.95368
412.011	3.06708
412.22	2.42771
412.429	3.64886
412.639	3.41349
412.848	3.26203
413.057	3.34747
413.266	3.47122
413.475	2.71254
413.685	3.09136
413.894	3.29819
414.103	3.50682
414.312	3.25186
414.521	2.70271
414.73	2.83122
414.939	4.18877
415.148	3.11421
415.357	3.02505
415.566	2.60932
415.776	2.62014
415.985	2.59516
416.194	3.4274
416.403	3.97491
416.611	2.20237
416.82	2.6415
417.029	3.00956
417.238	2.64017
417.447	2.46223
417.656	2.81231
417.865	2.56407
418.074	2.7921
418.283	2.93053
418.492	3.48523
418.7	3.32293
418.909	4.08804
419.118	3.32769
419.327	3.51677
419.536	3.39832
419.744	3.18259
419.953	4.17322
420.162	4.27607
420.371	3.46833
420.579	3.61666
420.788	4.48567
420.997	4.49855
421.205	4.64448
421.414	4.40223
421.623	4.45542
421.831	4.16921
422.04	4.60735
422.249	3.93373
422.457	4.42467
422.666	3.79942
422.874	4.61443
423.083	4.70667
423.291	4.71286
423.5	4.47934
423.708	4.68072
423.917	5.04399
424.125	4.62085
424.334	4.44753
424.542	5.91032
424.751	5.36995
424.959	5.11623
425.167	5.30235
425.376	5.22068
425.584	4.4237
425.793	4.55101
426.001	3.8322
426.209	4.34939
426.418	3.50316
426.626	3.46547
426.834	3.33547
427.042	3.72447
427.251	3.29788
427.459	4.11233
427.667	3.74712
427.875	3.04671
428.084	3.38249
428.292	4.39358
428.5	3.91159
428.708	3.16712
428.916	3.1375
429.124	3.68143
429.333	3.39072
429.541	3.54584
429.749	3.72275
429.957	3.65499
430.165	5.1929
430.373	2.98151
430.581	3.83268
430.789	4.52712
430.997	3.48215
431.205	3.26627
431.413	3.87873
431.621	3.55753
431.829	4.15206
432.037	3.57763
432.245	3.77487
432.453	3.9628
432.661	3.68367
432.869	4.84428
433.076	3.38507
433.284	3.73367
433.492	4.18597
433.7	4.42351
433.908	3.71728
434.116	3.95261
434.323	4.0154
434.531	3.83866
434.739	4.19886
434.947	4.38214
435.154	4.2881
435.362	3.94341
435.57	3.82549
435.778	3.55527
435.985	4.09637
436.193	3.7246
436.401	4.56842
436.608	3.97527
436.816	3.6641
437.023	4.75953
437.231	4.82903
437.439	4.14114
437.646	4.3166
437.854	4.09059
438.061	4.34515
438.269	3.89107
438.476	4.35716
438.684	3.96942
438.891	3.86869
439.099	3.65834
439.306	3.5201
439.514	3.57852
439.721	4.38027
439.929	3.96618
440.136	4.74816
440.343	4.63208
440.551	4.47011
440.758	5.88781
440.965	4.86275
441.173	4.58865
441.38	4.30953
441.587	4.45035
441.795	4.1665
442.002	4.23243
442.209	4.22855
442.416	4.39938
442.624	4.43051
442.831	4.21345
443.038	3.88261
443.245	3.61936
443.452	3.91049
443.66	4.462
443.867	3.77141
444.074	3.8428
444.281	3.82798
444.488	3.98113
444.695	4.13048
444.902	3.96062
445.109	4.71655
445.316	4.32671
445.523	4.48354
445.73	4.461
445.937	5.1649
446.144	5.40794
446.351	5.58542
446.558	4.86618
446.765	6.08021
446.972	5.89427
447.179	5.38768
447.386	6.01682
447.593	4.8992
447.8	5.63755
448.007	4.66785
448.214	4.56249
448.42	4.11761
448.627	4.73806
448.834	4.18759
449.041	4.06653
449.248	4.09302
449.454	4.53864
449.661	5.18199
449.868	3.97683
450.075	3.91145
450.281	3.17999
450.488	3.6227
450.695	3.63984
450.901	3.80818
451.108	3.86167
451.315	4.62041
451.521	4.01363
451.728	4.6726
451.935	3.80169
452.141	4.0019
452.348	4.14746
452.554	4.05288
452.761	3.90215
452.967	4.92746
453.174	4.21061
453.38	4.38665
453.587	3.6222
453.793	4.21461
454	4.72186
454.206	5.27108
454.413	4.74542
454.619	4.35767
454.825	3.80713
455.032	4.612
455.238	4.58599
455.445	3.62824
455.651	4.23378
455.857	3.28232
456.064	3.99791
456.27	3.88451
456.476	4.00361
456.682	3.50368
456.889	4.37267
457.095	4.39533
457.301	5.55354
457.507	4.22616
457.714	4.22378
457.92	4.11793
458.126	3.84241
458.332	4.04555
458.538	3.92413
458.744	4.08182
458.951	4.02335
459.157	5.68028
459.363	4.79687
459.569	4.9193
459.775	5.56248
459.981	4.9228
460.187	5.22729
460.393	5.59329
460.599	6.00543
460.805	5.18101
461.011	4.80357
461.217	4.9679
461.423	4.92301
461.629	4.27872
461.835	4.69257
462.041	4.20921
462.247	5.1207
462.453	4.17723
462.658	4.24861
462.864	4.62503
463.07	4.42344
463.276	4.36739
463.482	4.33758
463.688	4.99595
463.893	4.05709
464.099	4.16049
464.305	5.05003
464.511	4.0234
464.716	4.30994
464.922	4.67586
465.128	3.95791
465.333	5.16385
465.539	4.6526
465.745	4.31281
465.95	4.29051
466.156	5.80495
466.362	4.93936
466.567	4.34302
466.773	4.00701
466.978	5.14255
467.184	3.80353
467.389	3.33173
467.595	4.48219
467.8	3.908
468.006	5.05756
468.211	4.8537
468.417	3.81388
468.622	4.47322
468.828	4.7195
469.033	4.60729
469.239	5.73239
469.444	4.05514
469.649	4.85764
469.855	4.29634
470.06	4.36405
470.266	3.87048
470.471	4.6256
470.676	4.52685
470.881	3.55136
471.087	5.01403
471.292	5.88576
471.497	3.66718
471.703	4.2509
471.908	4.04162
472.113	4.33563
472.318	4.83368
472.523	3.81349
472.729	4.58625
472.934	4.66017
473.139	4.00112
473.344	4.52574
473.549	4.91651
473.754	3.97042
473.959	5.82647
474.164	3.89969
474.369	4.18663
474.575	4.79399
474.78	4.29018
474.985	4.018
475.19	3.38687
475.395	3.90495
475.6	4.26893
475.804	5.11661
476.009	4.30123
476.214	4.29068
476.419	4.22584
476.624	3.5013
476.829	3.87197
477.034	4.66991
477.239	3.8838
477.444	4.59845
477.648	4.55688
477.853	4.56842
478.058	4.12467
478.263	3.85778
478.468	3.67525
478.672	3.79918
478.877	4.99182
479.082	5.04394
479.287	4.50594
479.491	4.26184
479.696	3.78295
479.901	4.64892
480.105	4.71297
480.31	4.02049
480.515	4.26501
480.719	5.31246
480.924	4.0458
481.128	3.74491
481.333	4.39288
481.538	4.37598
481.742	4.30485
481.947	5.01104
482.151	5.4299
482.356	5.60325
482.56	6.77647
482.765	7.40094
482.969	8.88146
483.174	10.09538
483.378	11.81439
483.582	12.09312
483.787	13.31506
483.991	13.42035
484.196	13.87438
484.4	13.61741
484.604	14.26363
484.809	12.61704
485.013	12.12124
485.217	11.02786
485.422	9.81535
485.626	8.88075
485.83	8.27184
486.034	7.84826
486.239	7.9938
486.443	8.07343
486.647	8.01285
486.851	8.73599
487.055	9.51177
487.26	9.08112
487.464	9.71279
487.668	9.29446
487.872	9.62506
488.076	9.99594
488.28	9.51137
488.484	8.85662
488.688	8.78541
488.892	8.42714
489.096	7.945
489.3	7.13211
489.504	6.70403
489.708	6.44637
489.912	6.3441
490.116	6.15935
490.32	5.52643
490.524	6.25324
490.728	6.64719
490.932	6.79073
491.136	7.05951
491.34	7.98761
491.544	8.14399
491.748	7.96859
491.951	8.07355
492.155	7.80353
492.359	7.74805
492.563	6.88317
492.767	6.54253
492.97	5.98934
493.174	5.29034
493.378	4.88682
493.582	4.1192
493.785	4.11438
493.989	4.23789
494.193	4.23796
494.396	3.96423
494.6	4.38194
494.804	4.05762
495.007	3.76138
495.211	3.80247
495.414	3.9416
495.618	4.15479
495.822	4.5857
496.025	4.05783
496.229	4.3965
496.432	3.69123
496.636	4.0763
496.839	3.85404
497.043	4.75088
497.246	4.21588
497.45	3.8292
497.653	3.99239
497.856	4.14187
498.06	3.55479
498.263	3.94134
498.467	3.7202
498.67	4.3871
498.873	4.11664
499.077	3.83173
499.28	3.85141
499.483	4.06716
499.686	4.20885
499.89	4.08627
500.093	4.39529
500.296	3.6213
500.499	4.6946
500.703	3.88879
500.906	4.0723
501.109	4.77019
501.312	3.90259
501.515	3.80808
501.719	4.03625
501.922	4.54895
502.125	3.98148
502.328	3.86959
502.531	3.45072
502.734	3.79164
502.937	3.08274
503.14	3.96116
503.343	3.45057
503.546	3.6166
503.749	3.43112
503.952	4.17505
504.155	3.36989
504.358	4.02667
504.561	3.8284
504.764	3.2489
504.967	3.86508
505.17	3.75673
505.373	4.48633
505.576	3.85001
505.778	4.12037
505.981	3.38622
506.184	4.43284
506.387	3.00936
506.59	4.69903
506.793	4.24188
506.995	3.98502
507.198	2.94816
507.401	3.97277
507.604	3.97698
507.806	3.33236
508.009	3.47004
508.212	4.07198
508.414	3.42272
508.617	3.47841
508.82	3.74514
509.022	4.40631
509.225	3.84653
509.427	3.06447
509.63	4.30324
509.833	3.65453
510.035	3.49679
510.238	2.9563
510.44	4.30486
510.643	2.85388
510.845	4.68164
511.048	3.88326
511.25	3.45195
511.453	3.59757
511.655	3.79061
511.858	3.51817
512.06	4.03283
512.262	3.64817
512.465	4.06433
512.667	3.34646
512.869	3.14402
513.072	3.7413
513.274	3.9977
513.476	3.86923
513.679	4.08022
513.881	3.06001
514.083	4.42474
514.286	3.23788
514.488	3.30776
514.69	3.10447
514.892	3.00472
515.094	3.80896
515.297	3.30573
515.499	3.67687
515.701	3.17165
515.903	4.44763
516.105	4.308
516.307	3.94785
516.509	2.66266
516.711	3.02405
516.913	3.62644
517.116	3.52444
517.318	3.3184
517.52	4.13102
517.722	3.79544
517.924	2.96273
518.126	3.73401
518.328	3.24391
518.529	3.91735
518.731	4.68501
518.933	3.30148
519.135	3.49716
519.337	4.20636
519.539	3.71874
519.741	2.76743
519.943	3.39511
520.145	3.40557
520.346	3.76229
520.548	3.295
520.75	3.61375
520.952	3.33365
521.153	3.58342
521.355	3.66371
521.557	3.06915
521.759	3.67143
521.96	3.52169
522.162	2.99032
522.364	3.93153
522.565	3.21069
522.767	3.71043
522.969	3.99928
523.17	3.64354
523.372	3.78654
523.573	3.12859
523.775	3.34515
523.977	3.04103
524.178	4.45617
524.38	3.20475
524.581	3.75733
524.783	3.32308
524.984	3.72956
525.186	3.53195
525.387	3.85568
525.589	3.63082
525.79	3.59831
525.991	3.43712
526.193	4.02111
526.394	3.29561
526.596	4.15731
526.797	4.13434
526.998	3.82188
527.2	3.70396
527.401	5.00227
527.602	5.20003
527.803	6.42719
528.005	6.60078
528.206	7.22932
528.407	7.73429
528.608	7.522
528.81	7.81747
529.011	7.33692
529.212	8.24401
529.413	7.5651
529.614	7.01047
529.815	6.85012
530.017	6.42742
530.218	5.61325
530.419	4.75009
530.62	4.77335
530.821	4.53974
531.022	3.59493
531.223	4.31237
531.424	4.26614
531.625	4.12606
531.826	3.95876
532.027	4.1269
532.228	4.92458
532.429	4.53969
532.63	4.60669
532.831	5.15363
533.032	5.11112
533.233	5.63981
533.433	5.41667
533.634	5.61565
533.835	5.10232
534.036	4.7853
534.237	4.80101
534.438	4.38786
534.638	3.79298
534.839	3.74377
535.04	3.92076
535.241	3.40684
535.441	4.18906
535.642	3.78983
535.843	3.14034
536.043	3.28356
536.244	3.40701
536.445	3.59928
536.645	4.20362
536.846	3.84346
537.047	4.46271
537.247	3.44239
537.448	3.51623
537.648	3.45596
537.849	3.45943
538.049	3.34398
538.25	3.70013
538.451	3.57333
538.651	3.03291
538.851	3.75496
539.052	4.03559
539.252	3.7788
539.453	3.46323
539.653	3.50375
539.854	3.47119
540.054	3.42289
540.254	4.43598
540.455	4.79029
540.655	4.38698
540.855	5.14561
541.056	5.80554
541.256	5.50696
541.456	6.26077
541.657	5.78769
541.857	6.54539
542.057	5.35475
542.257	5.19833
542.458	5.70226
542.658	5.90321
542.858	4.50403
543.058	5.07767
543.258	4.6393
543.458	3.63452
543.659	3.42315
543.859	4.00218
544.059	3.95622
544.259	3.54326
544.459	3.99148
544.659	3.34263
544.859	3.77136
545.059	3.35914
545.259	3.87982
545.459	3.67935
545.659	4.03776
545.859	3.63296
546.059	3.79991
546.259	3.16576
546.459	2.92785
546.659	3.15233
546.859	3.88533
547.059	3.68484
547.258	3.77642
547.458	3.77451
547.658	3.10899
547.858	2.98199
548.058	3.65973
548.258	3.5021
548.457	3.09838
548.657	4.92888
548.857	3.48372
549.057	4.11961
549.256	3.9445
549.456	3.45731
549.656	2.73554
549.855	4.95523
550.055	3.59252
550.255	4.70919
550.454	4.0175
550.654	4.31286
550.853	4.75071
551.053	4.28374
551.253	3.92402
551.452	4.14801
551.652	3.01128
551.851	2.84975
552.051	3.50868
552.25	3.46929
552.45	3.3423
552.649	3.47059
552.849	3.2159
553.048	3.85109
553.248	4.09384
553.447	3.25213
553.646	4.20928
553.846	5.28376
554.045	4.55298
554.244	3.138
554.444	4.67671
554.643	3.50235
554.842	4.83848
555.042	5.07726
555.241	3.62754
555.44	3.28377
555.64	4.14624
555.839	4.71461
556.038	4.22122
556.237	3.75704
556.436	4.00252
556.636	4.28594
556.835	3.46033
557.034	4.85602
557.233	3.91511
557.432	3.15586
557.631	4.58078
557.83	3.89725
558.029	3.81396
558.228	3.65883
558.427	3.43346
558.626	4.37318
558.825	3.42535
559.024	3.9749
559.223	5.33091
559.422	4.00963
559.621	4.44291
559.82	2.69147
560.019	4.06916
560.218	3.67839
560.417	2.46928
560.616	3.8575
560.815	6.19567
561.014	3.2496
561.212	4.98964
561.411	4.13791
561.61	3.18956
561.809	4.00136
562.008	5.31361
562.206	3.9773
562.405	4.31557
562.604	4.01993
562.803	4.0849
563.001	4.07085
563.2	3.33269
563.399	4.58561
563.597	3.55674
563.796	4.3034
563.995	3.34688
564.193	4.64497
564.392	3.75469
564.59	5.57357
564.789	2.97286
564.988	4.08
565.186	4.32874
565.385	4.1124
565.583	3.92628
565.782	4.1738
565.98	3.9154
566.179	4.05705
566.377	3.50609
566.575	3.53148
566.774	4.89477
566.972	4.72124
567.171	5.43216
567.369	5.15637
567.567	4.38694
567.766	4.37652
567.964	2.94976
568.162	4.76238
568.361	5.11394
568.559	4.09375
568.757	4.47289
568.956	4.42167
569.154	4.35544
569.352	4.78346
569.55	4.18858
569.748	4.38212
569.947	3.80646
570.145	3.84295
570.343	3.66434
570.541	5.4931
570.739	3.45763
570.937	4.38581
571.135	4.68055
571.333	5.89719
571.532	5.70238
571.73	4.53293
571.928	4.97737
572.126	4.80769
572.324	4.25674
572.522	5.15506
572.72	6.19248
572.918	4.37287
573.116	4.63873
573.313	4.2908
573.511	4.30257
573.709	4.19624
573.907	4.92732
574.105	4.22813
574.303	3.46964
574.501	3.46496
574.699	4.81525
574.896	4.68191
575.094	4.99599
575.292	3.75186
575.49	5.1455
575.688	4.52511
575.885	5.39377
576.083	6.13521
576.281	4.9868
576.478	4.15744
576.676	5.00013
576.874	3.90171
577.071	4.54602
577.269	6.29747
577.467	4.51733
577.664	4.74949
577.862	5.32525
578.059	4.28072
578.257	5.27167
578.455	4.60633
578.652	4.73974
578.85	3.44933
579.047	4.89485
579.245	4.63498
579.442	4.76452
579.64	4.6592
579.837	3.52773
580.034	6.77405
580.232	4.5964
580.429	4.05896
580.627	5.36379
580.824	5.68763
581.021	5.33772
581.219	4.67994
581.416	4.38134
581.613	5.995
581.811	5.90141
582.008	4.34342
582.205	5.65763
582.402	5.32001
582.6	6.24138
582.797	5.19789
582.994	5.41152
583.191	5.81097
583.388	5.08746
583.586	5.62496
583.783	5.97392
583.98	4.22949
584.177	5.16126
584.374	3.01556
584.571	4.96964
584.768	5.13435
584.965	4.74863
585.162	5.84412
585.359	6.40266
585.556	5.21122
585.753	5.51881
585.95	4.16782
586.147	4.47262
586.344	5.5358
586.541	5.09446
586.738	4.2753
586.935	5.10252
587.132	4.78671
587.329	6.30131
587.526	5.30708
587.722	9.33575
587.919	4.24925
588.116	5.51157
588.313	6.45404
588.51	6.99418
588.706	5.27925
588.903	5.73887
589.1	6.10405
589.297	7.69787
589.493	5.21509
589.69	5.8977
589.887	4.80225
590.083	4.42617
590.28	4.79676
590.477	6.28826
590.673	5.84375
590.87	6.34122
591.067	4.90237
591.263	5.75418
591.46	5.81383
591.656	5.23141
591.853	6.8694
592.049	4.83152
592.246	5.06049
592.442	6.43377
592.639	6.67738
592.835	4.68304
593.032	5.97663
593.228	4.26745
593.425	4.38626
593.621	4.44475
593.817	5.62418
594.014	4.81196
594.21	5.79179
594.406	6.43254
594.603	5.87131
594.799	5.12231
594.995	3.78925
595.192	6.46245
595.388	5.18212
595.584	5.11247
595.78	4.48657
595.977	7.80706
596.173	6.88932
596.369	5.33763
596.565	4.68631
596.761	4.44662
596.957	6.49157
597.154	4.86226
597.35	5.19999
597.546	4.98592
597.742	5.78659
597.938	5.73887
598.134	4.87941
598.33	5.64024
598.526	6.67343
598.722	6.03849
598.918	7.17332
599.114	6.28246
599.31	4.66689
599.506	5.61009
599.702	5.1369
599.898	6.1201
600.094	6.64859
600.29	6.56249
600.485	6.68563
600.681	5.43082
600.877	7.3889
601.073	5.98645
601.269	7.84891
601.465	7.27318
601.66	5.15576
601.856	4.30728
602.052	7.80257
602.248	5.6766
602.443	4.23301
602.639	4.72341
602.835	5.29436
603.03	5.19331
603.226	6.59469
603.422	5.15811
603.617	5.72339
603.813	5.47273
604.009	5.34649
604.204	6.8671
604.4	4.73526
604.595	6.73119
604.791	5.06209
604.986	6.07076
605.182	5.06889
605.377	5.42414
605.573	5.54979
605.768	5.81968
605.964	6.31123
606.159	6.39415
606.355	6.62494
606.55	5.58999
606.746	6.80673
606.941	6.04118
607.136	7.55565
607.332	8.5925
607.527	4.97933
607.722	6.38292
607.918	5.8472
608.113	5.28494
608.308	6.82624
608.503	6.59731
608.699	6.45255
608.894	6.59221
609.089	5.41571
609.284	6.46329
609.479	5.73805
609.675	6.67737
609.87	5.89316
610.065	6.60374
610.26	6.78554
610.455	6.83293
610.65	6.1462
610.845	6.56996
611.04	6.96522
611.235	6.01367
611.43	6.11208
611.625	5.42391
611.82	7.5634
612.015	5.70824
612.21	8.24756
612.405	5.10104
612.6	8.10471
612.795	7.98074
612.99	7.25373
613.185	5.39017
613.38	5.93924
613.575	6.75249
613.77	9.39859
613.965	4.93203
614.159	5.76983
614.354	7.90267
614.549	7.65556
614.744	7.01357
614.938	5.33841
615.133	5.33727
615.328	8.21683
615.523	7.85134
615.717	9.64208
615.912	6.0543
616.107	6.70391
616.301	6.19537
616.496	6.00094
616.691	8.48932
616.885	7.32888
617.08	9.61304
617.274	7.79084
617.469	8.89154
617.664	7.38552
617.858	6.21625
618.053	7.02757
618.247	6.33915
618.442	4.33642
618.636	8.34775
618.831	5.97706
619.025	5.91096
619.219	10.09966
619.414	3.51695
619.608	6.56784
619.803	5.92809
619.997	9.16898
620.191	7.88296
620.386	7.27272
620.58	6.66737
620.774	4.73429
620.969	5.02828
621.163	6.86878
621.357	5.54074
621.551	6.71006
621.746	6.95165
621.94	6.59222
622.134	10.59586
622.328	9.48136
622.522	5.48058
622.716	7.94995
622.911	7.88139
623.105	7.99175
623.299	7.42189
623.493	10.63912
623.687	5.99073
623.881	6.24985
624.075	7.78875
624.269	8.14001
624.463	4.93074
624.657	5.08529
624.851	7.63093
625.045	7.85029
625.239	7.96326
625.433	6.22797
625.627	8.98522
625.821	6.33805
626.015	6.09576
626.209	6.85097
626.403	4.99692
626.596	7.36267
626.79	7.80426
626.984	5.58833
627.178	7.39154
627.372	7.37767
627.565	7.66181
627.759	5.47828
627.953	5.78589
628.147	7.33968
628.34	7.80682
628.534	9.3642
628.728	6.59526
628.921	8.14639
629.115	7.83596
629.309	8.00535
629.502	8.56483
629.696	7.23544
629.89	6.8951
630.083	7.39335
630.277	7.50957
630.47	9.37471
630.664	6.84669
630.857	5.53672
631.051	8.25929
631.244	8.86757
631.438	8.45239
631.631	6.50382
631.825	9.00964
632.018	7.94491
632.212	9.49265
632.405	8.84922
632.598	6.36159
632.792	7.645
632.985	4.71523
633.178	6.71667
633.372	7.16547
633.565	7.11148
633.758	8.83769
633.952	6.39787
634.145	6.25835
634.338	7.20993
634.531	6.69538
634.724	6.28389
634.918	7.57923
635.111	6.79093
635.304	6.44636
635.497	10.27373
635.69	7.96302
635.883	8.81567
636.077	6.25372
636.27	7.84462
636.463	7.69142
636.656	7.88616
636.849	7.0385
637.042	8.23287
637.235	10.19909
637.428	8.66514
637.621	8.27712
637.814	9.69041
638.007	9.64564
638.2	9.95535
638.393	10.21165
638.586	6.14579
638.778	7.18326
638.971	7.41804
639.164	10.01154
639.357	8.16377
639.55	9.79073
639.743	8.79744
639.935	8.68953
640.128	11.21805
640.321	9.12174
640.514	8.41445
640.707	11.28025
640.899	8.99111
641.092	5.56159
641.285	23.74563
641.477	5.14563
641.67	11.58426
641.863	10.31317
642.055	8.39389
642.248	8.30642
642.441	7.72512
642.633	9.026
642.826	10.07576
643.018	10.12216
643.211	11.08943
643.403	11.60422
643.596	11.69252
643.788	10.82077
643.981	7.55261
644.173	9.3968
644.366	7.66756
644.558	5.87124
644.751	9.98376
644.943	6.59172
645.135	11.14381
645.328	10.97928
645.52	9.51743
645.712	10.2872
645.905	13.50888
646.097	6.73988
646.289	9.15847
646.482	12.04899
646.674	7.32292
646.866	10.46128
647.058	9.34315
647.251	7.00707
647.443	7.62918
647.635	8.21233
647.827	7.02745
648.019	6.73046
648.211	8.32883
648.404	8.77584
648.596	11.24316
648.788	9.33569
648.98	8.94881
649.172	9.72455
649.364	9.40369
649.556	6.03094
649.748	12.78664
649.94	7.49129
650.132	10.16115
650.324	7.58181
650.516	7.43967
650.708	10.52451
650.9	6.62093
651.092	6.3662
651.284	6.39014
651.476	6.82956
651.667	9.80979
651.859	10.99989
652.051	8.55037
652.243	9.31934
652.435	8.28678
652.627	9.62617
652.818	9.638
653.01	6.35706
653.202	7.5322
653.394	8.27816
653.585	9.55063
653.777	16.44995
653.969	11.77716
654.16	11.04539
654.352	7.59335
654.544	8.77684
654.735	11.03755
654.927	8.94806
655.118	11.65313
655.31	10.55324
655.502	10.8805
655.693	8.69785
655.885	10.09432
656.076	11.76006
656.268	9.80293
656.459	11.71158
656.651	11.50989
656.842	8.67189
657.034	7.96321
657.225	10.59613
657.416	11.72913
657.608	11.50811
657.799	9.35885
657.99	11.03103
658.182	7.82063
658.373	8.09727
658.564	11.10304
658.756	9.64491
658.947	8.7196
659.138	7.53476
659.33	8.14063
659.521	7.92045
659.712	8.69905
659.903	8.6221
660.094	8.25648
660.286	6.42261
660.477	11.95099
660.668	10.05112
660.859	8.82728
661.05	7.18626
661.241	10.19563
661.432	9.82279
661.623	8.82323
661.814	8.26131
662.006	6.90238
662.197	9.95242
662.388	11.2928
662.579	9.99782
662.77	11.98922
662.96	14.63205
663.151	11.61387
663.342	6.18797
663.533	10.90294
663.724	9.18913
663.915	13.2221
664.106	9.99435
664.297	13.5251
664.488	11.14204
664.678	8.96616
664.869	11.23106
665.06	11.49435
665.251	10.21114
665.442	10.85168
665.632	8.24403
665.823	14.03205
666.014	4.90713
666.204	11.36886
666.395	12.51535
666.586	14.63017
666.776	11.53029
666.967	13.60427
667.158	10.12329
667.348	13.30552
667.539	8.30115
667.729	12.08688
667.92	8.86551
668.111	11.86373
668.301	11.36898
668.492	9.5804
668.682	10.26492
668.873	9.97322
669.063	8.07631
669.253	10.52215
669.444	13.26355
669.634	10.00686
669.825	13.6316
670.015	12.40618
670.206	9.0321
670.396	14.50712
670.586	9.81073
670.777	11.60169
670.967	6.53256
671.157	10.11706
671.347	8.97348
671.538	13.7648
671.728	12.08918
671.918	14.50023
672.108	12.63574
672.299	10.1187
672.489	11.20181
672.679	9.08377
672.869	11.68922
673.059	15.47611
673.249	11.28614
673.44	8.47584
673.63	9.7878
673.82	12.64989
674.01	9.00248
674.2	11.82495
674.39	16.43561
674.58	11.9384
674.77	11.09953
674.96	10.16343
675.15	19.64218
675.34	13.2864
675.53	10.85779
675.72	9.92703
675.91	7.52084
676.099	15.10026
676.289	16.42399
676.479	13.42738
676.669	9.93433
676.859	12.13146
677.049	9.43678
677.238	11.35891
677.428	14.88892
677.618	11.89672
677.808	15.39386
677.997	12.21943
678.187	9.12202
678.377	10.93398
678.567	9.4838
678.756	10.30998
678.946	10.7862
679.136	8.18697
679.325	9.67915
679.515	9.0941
679.704	8.30521
679.894	13.08533
680.084	11.76132
680.273	13.47507
680.463	9.12007
680.652	8.9936
680.842	10.7006
681.031	13.09443
681.221	9.18742
681.41	11.96971
681.6	10.57677
681.789	12.33684
681.978	13.48347
682.168	12.12434
682.357	11.52192
682.547	12.00962
682.736	11.9314
682.925	14.15963
683.115	14.19109
683.304	13.32458
683.493	11.79575
683.682	12.77495
683.872	12.79804
684.061	14.33685
684.25	12.84808
684.439	17.49442
684.629	13.69796
684.818	19.85235
685.007	12.20699
685.196	11.06311
685.385	16.44699
685.574	12.88906
685.763	12.45008
685.952	13.02823
686.142	9.12146
686.331	15.47237
686.52	8.57234
686.709	17.16465
686.898	16.77422
687.087	13.61566
687.276	16.50188
687.465	15.48366
687.654	11.63232
687.842	15.89693
688.031	9.21021
688.22	16.24933
688.409	13.1968
688.598	13.05795
688.787	18.56679
688.976	12.78461
689.165	17.93506
689.353	11.48335
689.542	13.9773
689.731	15.88928
689.92	18.77648
690.108	14.89527
690.297	12.29051
690.486	13.58486
690.675	14.50988
690.863	17.53096
691.052	16.87823
691.241	13.94309
691.429	14.1721
691.618	16.84526
691.806	10.40945
691.995	12.4509
692.184	13.28893
692.372	12.26882
692.561	13.79796
692.749	14.01704
692.938	23.03772
693.126	15.07649
693.315	12.9601
693.503	15.46648
693.692	16.6686
693.88	16.54097
694.068	19.22991
694.257	14.3002
694.445	15.50732
694.634	8.814
694.822	16.17624
695.01	17.40733
695.199	20.28084
695.387	18.47995
695.575	17.64044
695.763	13.5569
695.952	13.59211
696.14	9.64689
696.328	12.59038
696.516	14.11969
696.705	14.79387
696.893	14.71086
697.081	9.27685
697.269	16.66694
697.457	11.17571
697.645	10.53161
697.833	15.70421
698.021	11.75856
698.21	11.96386
698.398	12.60066
698.586	10.08081
698.774	9.96548
698.962	12.8794
699.15	10.03048
699.338	9.26278
699.526	13.66358
699.714	11.12298
699.901	11.3049
700.089	14.71366
700.277	11.27243
700.465	12.54862
700.653	15.15263
700.841	14.43276
701.029	11.47161
701.217	17.33122
701.404	14.04788
701.592	18.08516
701.78	20.93085
701.968	13.22906
702.155	13.12417
702.343	10.79573
702.531	18.39835
702.718	15.59799
702.906	13.09308
703.094	12.54656
703.281	18.63849
703.469	13.6418
703.657	18.02813
703.844	25.31697
704.032	21.16594
704.219	14.05655
704.407	16.75729
704.595	19.81701
704.782	16.45913
704.97	14.88665
705.157	14.49793
705.345	21.67376
705.532	27.20841
705.719	19.0912
705.907	21.71643
706.094	18.79717
706.282	24.79722
706.469	18.5639
706.656	19.38548
706.844	18.18043
707.031	22.87346
707.218	20.66075
707.406	24.6069
707.593	22.4286
707.78	22.2724
707.968	20.50005
708.155	17.56901
708.342	23.60066
708.529	23.10868
708.716	21.76707
708.904	25.81398
709.091	22.647
709.278	17.29217
709.465	26.68234
709.652	25.32184
709.839	24.98238
710.026	20.36992
710.213	14.61207
710.4	20.44716
710.587	22.08562
710.774	23.40156
710.961	23.65571
711.148	20.50801
711.335	23.14452
711.522	19.2069
711.709	21.88888
711.896	27.41668
712.083	23.26037
712.27	17.17219
712.457	21.58337
712.644	15.31076
712.831	27.82812
713.017	21.5042
713.204	23.1235
713.391	17.67951
713.578	23.22356
713.765	24.88397
713.951	20.95298
714.138	30.72861
714.325	20.67621
714.512	18.86389
714.698	15.81348
714.885	23.51316
715.072	19.20005
715.258	18.58792
715.445	15.90528
715.631	22.65523
715.818	9.52288
716.005	15.66645
716.191	20.54043
716.378	16.39848
716.564	20.57609
716.751	14.75369
716.937	16.40291
717.124	21.30667
717.31	14.3496
717.497	25.63851
717.683	15.17169
717.869	26.06837
718.056	15.40386
718.242	19.97667
718.429	17.27483
718.615	13.46105
718.801	17.42936
718.988	22.37632
719.174	20.01373
719.36	16.75625
719.547	23.78334
719.733	19.41761
719.919	18.98753
720.105	20.69403
720.291	18.62397
720.478	19.45332
720.664	17.6966
720.85	15.8427
721.036	30.69533
721.222	25.7986
721.408	18.49816
721.595	25.77359
721.781	25.69288
721.967	24.3589
722.153	25.68498
722.339	21.77608
722.525	21.07738
722.711	14.59427
722.897	13.64568
723.083	17.77982
723.269	23.74001
723.455	32.17675
723.641	36.96001
723.827	19.89582
724.012	21.23286
724.198	19.91043
724.384	25.10355
724.57	20.51681
724.756	14.14542
724.942	11.51877
725.127	24.66516
725.313	25.29455
725.499	25.35401
725.685	28.75093
725.87	21.15046
726.056	16.14263
726.242	25.59077
726.428	13.16434
726.613	23.7766
726.799	18.04512
726.985	15.34423
727.17	12.96767
727.356	29.14098
727.541	15.82877
727.727	19.58271
727.913	23.17335
728.098	17.88257
728.284	23.88662
728.469	14.98961
728.655	15.99355
728.84	24.57174
729.026	22.93474
729.211	23.85564
729.397	21.27232
729.582	23.41629
729.767	18.84372
729.953	21.4486
730.138	26.12839
730.323	10.02049
730.509	15.28899
730.694	27.02301
730.879	22.38187
731.065	21.01337
731.25	31.397
731.435	22.58049
731.621	13.82998
731.806	17.52009
731.991	21.24418
732.176	14.87004
732.361	27.74162
732.547	21.89149
732.732	13.42251
732.917	31.15437
733.102	15.8698
733.287	17.8947
733.472	19.78364
733.657	19.83112
733.842	14.57597
734.027	17.66071
734.212	19.13827
734.397	17.17621
734.582	20.30644
734.767	24.07301
734.952	26.91636
735.137	9.43691
735.322	26.99317
735.507	22.25674
735.692	21.1359
735.877	30.77614
736.062	30.09625
736.247	22.10367
736.431	20.58803
736.616	26.10059
736.801	23.39211
736.986	20.58732
737.171	16.46684
737.355	14.94947
737.54	27.46163
737.725	20.96126
737.909	35.2437
738.094	18.85864
738.279	24.02275
738.463	19.8703
738.648	24.74533
738.833	22.62898
739.017	32.16975
739.202	20.25944
739.386	20.53175
739.571	16.81439
739.756	26.14404
739.94	21.03447
740.125	24.8186
740.309	17.99348
740.494	25.20644
740.678	21.53959
740.863	23.5809
741.047	21.90001
741.231	29.24249
741.416	18.87689
741.6	29.68585
741.785	17.56428
741.969	26.87061
742.153	29.01099
742.338	10.7789
742.522	22.29336
742.706	25.79517
742.89	15.29001
743.075	21.73015
743.259	29.21702
743.443	28.22203
743.627	28.22096
743.812	34.76387
743.996	14.16718
744.18	21.81149
744.364	19.9549
744.548	35.82237
744.732	20.94227
744.916	28.20534
745.1	25.98602
745.285	20.76554
745.469	25.34638
745.653	31.71008
745.837	16.26272
746.021	35.97363
746.205	28.8986
746.389	23.37881
746.573	21.33218
746.757	31.08533
746.94	20.14791
747.124	30.09946
747.308	15.84063
747.492	29.10883
747.676	18.49627
747.86	37.72549
748.044	19.42817
748.227	13.65709
748.411	46.42848
748.595	24.30888
748.779	18.44092
748.963	24.82511
749.146	23.39393
749.33	18.55884
749.514	17.44427
749.697	29.87792
749.881	18.26453
750.065	17.09305
750.248	23.0719
750.432	36.42482
750.616	22.55865
750.799	18.20267
750.983	38.42785
751.166	37.97409
751.35	13.83337
751.533	27.64427
751.717	33.42321
751.9	32.09453
752.084	21.51735
752.267	18.15501
752.451	17.99425
752.634	22.74391
752.818	26.37719
753.001	29.15435
753.184	30.36045
753.368	24.91543
753.551	5.30304
753.734	18.78378
753.918	38.18958
754.101	19.93615
754.284	27.88977
754.467	20.67677
754.651	19.57825
754.834	18.48398
755.017	30.11473
755.2	29.39711
755.384	17.45158
755.567	27.84863
755.75	29.67987
755.933	21.71991
756.116	29.12779
756.299	19.69087
756.482	18.9668
756.665	27.58142
756.848	24.41198
757.032	26.16118
757.215	15.90131
757.398	17.995
757.581	18.39326
757.764	42.15794
757.947	22.83115
758.129	29.10537
758.312	8.68038
758.495	22.39911
758.678	22.59401
758.861	21.8723
759.044	35.44231
759.227	17.93298
759.41	18.50874
759.592	28.0597
759.775	22.23879
759.958	28.67267
760.141	15.81546
760.324	38.84196
760.506	34.30747
760.689	29.08056
760.872	39.05258
761.054	26.95924
761.237	22.26154
761.42	25.11359
761.602	28.28284
761.785	25.09591
761.968	30.53373
762.15	35.94789
762.333	23.21202
762.515	26.92916
762.698	21.89646
762.88	30.14966
763.063	26.56366
763.245	31.15502
763.428	18.92113
763.61	21.06187
763.793	16.36447
763.975	25.2934
764.158	21.45347
764.34	20.05873
764.522	17.16194
764.705	21.95046
764.887	33.3077
765.069	14.72871
765.252	26.596
765.434	28.27735
765.616	23.9929
765.799	17.98685
765.981	27.38383
766.163	18.39825
766.345	32.70588
766.528	18.89965
766.71	10.94499
766.892	24.86405
767.074	31.53992
767.256	21.51089
767.438	35.42382
767.62	24.96553
767.802	40.02443
767.985	29.40998
768.167	37.10181
768.349	20.99743
768.531	28.66978
768.713	26.97772
768.895	30.7264
769.077	26.73921
769.259	43.21836
769.441	60.50808
769.623	31.16307
769.804	35.7711
769.986	34.49712
770.168	42.74109
770.35	52.74317
770.532	38.05588
770.714	42.80085
770.896	41.97776
771.077	16.28596
771.259	45.26248
771.441	38.07481
771.623	47.58837
771.804	58.54319
771.986	18.59286
772.168	29.70242
772.35	42.7736
772.531	61.59838
772.713	36.88054
772.894	48.36672
773.076	36.1077
773.258	31.33264
773.439	51.0668
773.621	55.47777
773.802	25.72895
773.984	28.53836
774.166	39.596
774.347	52.96324
774.529	46.43962
774.71	15.7742
774.891	33.84418
775.073	30.36804
775.254	49.8209
775.436	29.5309
775.617	63.42597
775.799	31.99341
775.98	49.54375
776.161	56.02423
776.343	58.02461
776.524	35.3186
776.705	34.35478
776.886	17.2396
777.068	40.79404
777.249	88.1089
777.43	60.47046
777.611	24.25575
777.793	32.81371
777.974	58.06045
778.155	30.95849
778.336	26.60485
778.517	66.89493
778.698	29.26606
778.879	16.33848
779.061	10.75377
779.242	41.81695
779.423	42.29684
779.604	31.07062
779.785	32.74643
779.966	40.05259
780.147	49.97482
780.328	49.05212
780.509	69.71649
780.69	49.78643
780.871	28.893
781.051	22.13286
781.232	37.99582
781.413	37.81011
781.594	33.69678
781.775	32.09925
781.956	29.43593
782.137	16.45548
782.317	31.17108
782.498	38.3591
782.679	38.16197
782.86	39.29153
783.04	29.21012
783.221	38.22108
783.402	61.91432
783.583	35.62505
783.763	48.90364
783.944	31.57891
784.124	23.08514
784.305	57.30103
784.486	44.50158
784.666	36.28495
784.847	19.32853
785.027	81.45704
785.208	29.88847
785.388	29.48707
785.569	29.35632
785.749	34.6845
785.93	32.25646
786.11	20.10222
786.291	42.67095
786.471	40.0807
786.652	48.14778
786.832	34.92385
787.012	39.01682
787.193	23.20894
787.373	37.71333
787.553	32.26636
787.734	39.14858
787.914	33.00485
788.094	49.84618
788.275	38.89892
788.455	33.00316
788.635	24.44773
788.815	39.4992
788.995	25.56235
789.176	20.61691
789.356	28.65177
789.536	34.44334
789.716	43.16904
789.896	27.87811
790.076	30.28147
790.256	40.06017
790.436	13.29757
790.616	24.68151
790.796	39.01369
790.976	31.32946
791.156	28.00272
791.336	42.66067
791.516	41.61489
791.696	33.07832
791.876	21.71354
792.056	37.20854
792.236	47.84723
792.416	44.54329
792.596	41.19261
792.776	41.88578
792.956	42.96026
793.135	59.22088
793.315	26.82971
793.495	49.1351
793.675	45.36916
793.854	46.85105
794.034	48.43113
794.214	25.12779
794.394	47.28236
794.573	50.87808
794.753	37.1063
794.933	27.21911
795.112	39.11888
795.292	49.24823
795.472	58.66947
795.651	21.7068
795.831	36.93767
796.01	32.68836
796.19	33.57672
796.369	36.18426
796.549	41.40332
796.728	34.07858
796.908	21.37967
797.087	24.87497
797.267	33.41295
797.446	24.24454
797.626	41.41317
797.805	42.64553
797.984	27.92266
798.164	45.41302
798.343	25.64093
798.522	39.40274
798.702	38.1544
798.881	23.42093
799.06	33.49921
799.239	16.91574
799.419	26.83454
799.598	58.73475
799.777	42.72911
799.956	50.64298
800.136	32.34411
800.315	25.87994
800.494	41.60177
800.673	48.10792
800.852	46.08669
801.031	51.37372
801.21	44.0505
801.389	31.06559
801.568	38.90977
801.747	61.50149
801.926	35.71922
802.105	54.27406
802.284	31.01741
802.463	57.24263
802.642	40.24003
802.821	38.83329
803	55.62935
803.179	48.18521
803.358	49.0057
803.537	28.64378
803.716	36.36988
803.895	29.77383
804.073	34.39394
804.252	28.21463
804.431	40.71356
804.61	35.51444
804.789	46.96424
804.967	31.72597
805.146	30.84207
805.325	66.84616
805.503	42.48004
805.682	21.60589
805.861	81.19709
806.039	54.96464
806.218	30.08856
806.397	38.174
806.575	35.6262
806.754	40.32992
806.932	25.51242
807.111	51.16517
807.289	48.82211
807.468	37.68453
807.646	48.79216
807.825	43.32718
808.003	39.66893
808.182	49.43139
808.36	37.81735
808.539	28.22403
808.717	56.35109
808.895	28.9382
809.074	40.27712
809.252	36.26431
809.43	46.44577
809.609	53.31043
809.787	57.63834
809.965	33.95712
810.144	37.99518
810.322	35.32483
810.5	45.67083
810.678	30.71277
810.856	66.68028
811.035	50.6099
811.213	46.91636
811.391	54.31946
811.569	39.18889
811.747	88.88852
811.925	54.92308
812.103	31.8006
812.281	36.70997
812.459	64.73479
812.637	61.98356
812.816	49.65711
812.994	70.78655
813.171	56.82696
813.349	45.47358
813.527	52.69207
813.705	58.51359
813.883	75.98469
814.061	49.93093
814.239	63.56722
814.417	68.4809
814.595	49.58275
814.773	43.00312
814.95	41.52925
815.128	46.31397
815.306	40.69077
815.484	38.99532
815.662	29.10861
815.839	25.43397
816.017	32.7232
816.195	55.96795
816.372	33.96663
816.55	51.03355
816.728	66.09126
816.905	38.58847
817.083	62.09503
817.261	38.98485
817.438	87.68654
817.616	64.51574
817.793	34.8915
817.971	52.19618
818.148	49.80781
818.326	59.40357
818.503	44.77513
818.681	64.39331
818.858	37.88599
819.036	40.63175
819.213	44.80491
819.391	31.91382
819.568	32.04067
819.745	27.4816
819.923	51.08962
820.1	36.92731
820.277	29.9587
820.455	35.23587
820.632	37.63699
820.809	41.51966
820.986	26.81639
821.164	20.74859
821.341	18.82608
821.518	30.18776
821.695	20.94957
821.872	18.6121
822.05	16.30611
822.227	13.25613
822.404	13.59167
822.581	16.21305
822.758	13.15754
822.935	13.47599
823.112	14.58947
823.289	12.44074
823.466	15.24173
823.643	14.18386
823.82	17.06599
823.997	15.16556
824.174	17.90633
824.351	24.19271
824.528	22.26046
824.705	20.50563
824.882	22.37965
825.059	29.39331
825.236	20.80533
825.412	22.06722
825.589	26.85986
825.766	39.56846
825.943	23.86132
826.12	28.22685
826.296	19.71953
826.473	25.64545
826.65	26.00523
826.827	31.33251
827.003	20.5786
827.18	23.12843
827.357	26.22797
827.533	22.04627
827.71	12.11211
827.887	19.66894
828.063	22.277
828.24	18.40385
828.416	25.45598
828.593	20.50292
828.769	29.69159
828.946	31.11099
829.122	31.40804
829.299	30.94818
829.475	18.79206
829.652	29.86074
829.828	51.59448
830.005	33.1392
830.181	43.30163
830.357	33.72478
830.534	45.81816
830.71	34.53641
830.886	44.29684
831.063	43.17408
831.239	56.62896
831.415	26.67725
831.592	58.82612
831.768	36.0746
831.944	30.52453
832.12	62.14634
832.296	59.64379
832.473	49.83174
832.649	32.34235
832.825	50.36431
833.001	30.15305
833.177	42.89655
833.353	39.61475
833.529	22.63609
833.705	35.69827
833.881	22.92169
834.058	22.05062
834.234	24.57206
834.41	24.19353
834.586	19.01033
834.761	22.81244
834.937	25.67109
835.113	26.50009
835.289	22.13262
835.465	26.65881
835.641	23.66179
835.817	27.04323
835.993	44.33516
836.169	22.06702
836.344	37.24271
836.52	41.07183
836.696	39.70938
836.872	30.41617
837.048	89.57471
837.223	31.75465
837.399	64.9211
837.575	50.19924
837.75	47.09832
837.926	66.36914
838.102	100.99569
838.277	76.33324
838.453	111.30984
838.628	111.11759
838.804	41.35879
838.98	99.34212
839.155	49.83531
839.331	68.02509
839.506	47.8123
839.682	46.77699
839.857	67.30105
840.033	80.99205
840.208	37.4089
840.384	19.70093
840.559	37.58153
840.734	58.41629
840.91	76.7036
841.085	45.98347
841.26	44.03726
841.436	41.52387
841.611	39.36765
841.786	61.8822
841.962	79.4656
842.137	49.75202
842.312	30.64298
842.487	42.51516
842.663	37.24027
842.838	47.57124
843.013	151.21636
843.188	74.64265
843.363	76.93533
843.538	125.64385
843.714	122.69414
843.889	128.67245
844.064	134.3464
844.239	111.08032
844.414	129.18357
844.589	86.30982
844.764	164.9199
844.939	155.16702
845.114	172.3526
845.289	161.36581
845.464	220.68156
845.639	150.95532
845.814	69.56658
845.989	88.03882
846.163	104.15194
846.338	110.83576
846.513	160.15028
846.688	101.45462
846.863	108.46394
847.038	94.22232
847.212	106.51736
847.387	110.69968
847.562	113.20044
847.737	146.45732
847.911	55.64492
848.086	66.4447
848.261	238.22413
848.435	97.46487
848.61	157.56204
848.785	75.45478
848.959	154.4456
849.134	211.50828
849.308	221.40422
849.483	117.65619
849.658	188.51139
849.832	95.92815
850.007	86.71241
850.181	251.36379
850.356	88.3106
850.53	225.15026
850.705	72.4922
850.879	39.98423
851.053	106.43613
851.228	97.0463
851.402	126.97351
851.577	163.72796
851.751	180.8144
851.925	117.34956
852.099	54.21201
852.274	80.41345
852.448	109.12421
852.622	129.85484
852.797	111.73751
852.971	112.15471
853.145	115.75575
853.319	338.66687
853.493	177.30986
853.668	90.23436
853.842	220.52661
854.016	179.52123
854.19	199.1215
854.364	126.75385
854.538	133.72513
854.712	176.54404
854.886	110.42863
855.06	95.86597
855.234	43.01018
855.408	187.61872
855.582	166.14986
855.756	163.59148
855.93	214.22212
856.104	140.60664
856.278	162.16717
856.452	120.10992
856.626	159.0095
856.8	261.51963
856.973	146.81382
857.147	142.36564
857.321	141.0707
857.495	176.20275
857.669	116.24235
857.842	95.23437
858.016	169.69081
858.19	86.37011
858.364	284.01024
858.537	103.3864
858.711	126.93849
858.885	109.28188
859.058	96.15572
859.232	49.656
859.405	64.6071
859.579	166.21296
859.753	143.47338
859.926	89.54597
860.1	62.30327
860.273	125.5292
860.447	199.29183
860.62	110.27125
860.794	245.50739
860.967	139.12666
861.141	174.51388
861.314	253.46623
861.487	152.89796
861.661	194.22895
861.834	195.44537
862.008	176.90418
862.181	121.88274
862.354	134.94675
862.528	138.78531
862.701	102.07452
862.874	62.81007
863.047	115.94728
863.221	105.21505
863.394	52.36279
863.567	203.2963
863.74	41.96696
863.913	167.25664
864.087	138.72149
864.26	171.01663
864.433	118.3253
864.606	228.61913
864.779	126.09575
864.952	56.55625
865.125	104.89565
865.298	117.59797
865.471	118.45687
865.644	253.50656
865.817	202.57666
865.99	166.67372
866.163	195.59022
866.336	110.22354
866.509	121.28696
866.682	110.41123
866.855	184.10757
867.028	72.36058
867.2	164.49852
867.373	50.93151
867.546	137.94577
867.719	268.99048
867.892	159.50059
868.064	85.32684
868.237	148.72192
868.41	122.33088
868.583	71.20005
868.755	73.7966
868.928	121.21679
869.101	262.7365
869.273	192.24178
869.446	151.52605
869.619	184.98203
869.791	123.38826
869.964	184.87844
870.136	169.16151
870.309	138.55286
870.481	140.84575
870.654	59.70106
870.826	137.0533
870.999	107.1171
871.171	172.67746
871.344	104.10821
871.516	110.82159
871.689	91.78186
871.861	124.57933
872.033	92.16769
872.206	111.9877
872.378	177.95118
872.55	116.79504
872.723	72.41871
872.895	117.49063
873.067	178.05659
873.24	201.05806
873.412	103.69731
873.584	117.29762
873.756	106.88736
873.928	142.13561
874.101	141.55099
874.273	162.10796
874.445	53.31333
874.617	74.88775
874.789	137.75686
874.961	107.17277
875.133	160.8806
875.305	131.31237
875.477	91.05192
875.649	73.2811
875.821	89.46569
875.993	223.63822
876.165	84.58326
876.337	144.40201
876.509	108.30932
876.681	142.81422
876.853	137.54136
877.025	139.49224
877.197	92.37966
877.369	85.94381
877.541	171.69401
877.712	44.30047
877.884	78.30633
878.056	157.53053
878.228	83.19519
878.4	152.74418
878.571	83.9984
878.743	58.37891
878.915	143.82455
879.086	79.60063
879.258	101.05565
879.43	91.71123
879.601	81.33449
879.773	85.23672
879.945	20.22263
880.116	36.10036
880.288	23.58073
880.459	26.20909
880.631	19.92588
880.802	23.90375
880.974	22.04544
881.145	15.36666
881.317	20.50839
881.488	15.14168
881.66	17.18092
881.831	15.12132
882.002	21.59892
882.174	15.42242
882.345	20.267
882.517	10.61267
882.688	24.07856
882.859	20.69472
883.03	32.49217
883.202	30.30745
883.373	26.24697
883.544	25.25792
883.715	47.90695
883.887	37.31984
884.058	32.27237
884.229	46.42285
884.4	47.47363
884.571	53.53209
884.742	47.83126
884.914	50.82671
885.085	74.3276
885.256	94.25929
885.427	75.85081
885.598	91.30443
885.769	92.59133
885.94	91.2047
886.111	59.43916
886.282	109.44041
886.453	87.83867
886.624	61.81712
886.795	106.93919
886.966	86.12995
887.136	118.92188
887.307	77.9981
887.478	152.11344
887.649	136.16079
887.82	138.50963
887.991	110.32551
888.161	153.00083
888.332	141.6841
888.503	69.40013
888.674	196.04853
888.844	204.4124
889.015	166.41269
889.186	73.8479
889.356	198.25844
889.527	75.26514
889.698	334.85573
889.868	106.97072
890.039	145.13998
890.209	119.93921
890.38	170.16771
890.551	140.89039
890.721	209.17724
890.892	167.01343
891.062	115.10636
891.233	143.94395
891.403	115.31144
891.574	89.99768
891.744	108.13249
891.914	153.66493
892.085	127.07313
892.255	41.68433
892.425	201.50958
892.596	156.04957
892.766	145.30409
892.936	205.91417
893.107	165.42278
893.277	93.84479
893.447	66.71814
893.618	48.50026
893.788	108.07381
893.958	56.50867
894.128	61.21162
894.298	68.10922
894.468	95.57852
894.639	42.56272
894.809	26.16822
894.979	45.94678
895.149	55.48581
895.319	44.83731
895.489	64.45669
895.659	79.19121
895.829	53.21014
895.999	53.82665
896.169	39.8
896.339	46.67428
896.509	103.79169
896.679	122.66614
896.849	114.78297
897.019	165.75444
897.189	124.90047
897.358	108.37343
897.528	166.81733
897.698	59.57703
897.868	151.18209
898.038	273.51301
898.208	244.39292
898.377	73.43543
898.547	247.39204
898.717	401.51062
898.886	159.41855
899.056	244.7148
899.226	372.8351
899.395	218.70976
899.565	282.17457
899.735	183.82507
899.904	306.45666
900.074	268.24781
900.244	114.67204
900.413	476.37101
900.583	103.70017
900.752	179.25723
900.922	285.17038
901.091	26.24422
901.261	239.96916
901.43	238.56217
901.599	239.00462
901.769	537.92645
901.938	279.66736
902.108	261.44261
902.277	342.3161
902.446	100.35632
902.616	119.86374
902.785	172.92611
902.954	280.00392
903.124	182.05966
903.293	139.41583
903.462	76.72244
903.631	110.82349
903.801	80.93704
903.97	43.14533
904.139	73.07854
904.308	55.51378
904.477	43.42413
904.646	28.15577
904.816	42.13891
904.985	61.21041
905.154	94.19252
