Data from WindowProjectSample_Transmission__15__00015__06457543871839371.txt Node

Date: Mon May 05 17:03:09 EDT 2025
User: jessi
Spectrometer: SR400872
Trigger mode: 0
Integration Time (sec): 5.000010E-1
Scans to average: 20
Electric dark correction enabled: true
Nonlinearity correction enabled: true
Boxcar width: 0
XAxis mode: Wavelengths
Number of Pixels in Spectrum: 3648
>>>>>Begin Spectral Data<<<<<
184.909	20790.67922
185.132	-5184.89069
185.355	-3096.08469
185.578	-18431.00409
185.801	1275.33625
186.024	10327.00885
186.247	-1853.57807
186.47	1166.39321
186.693	217.22573
186.916	275.28829
187.139	-3801.43188
187.362	3394.57682
187.585	4083.82534
187.808	3689.495
188.031	-28.9048
188.254	-59842.47567
188.476	-1729.18353
188.699	6305.09831
188.922	640.59896
189.145	-15154.41287
189.368	-714.82263
189.591	-1508.31629
189.813	3008.77073
190.036	-50570.52529
190.259	-905.61132
190.482	-4497.37662
190.705	7134.1589
190.927	-2361.55952
191.15	13352.21306
191.373	3213.47454
191.595	-8797.98133
191.818	-4203.5554
192.041	-6066.78861
192.263	-3480.86422
192.486	-1001.5166
192.709	-4018.46801
192.931	7963.57028
193.154	-28417.05352
193.377	-2838.00537
193.599	-2710.4576
193.822	-9658.92975
194.044	-1884.38143
194.267	1234.61839
194.489	267.96281
194.712	-46743.29589
194.934	-32521.01291
195.157	1193.17187
195.379	1447.9504
195.602	-6753.10857
195.824	-1299.25747
196.047	-8783.60776
196.269	2695.4012
196.492	-6921.63551
196.714	28142.70709
196.936	-8684.32068
197.159	-1206.94211
197.381	1291.04902
197.604	452.58757
197.826	12013.51765
198.048	-11043.3824
198.271	-2800.53442
198.493	7904.5784
198.715	2305.75881
198.938	-473.22083
199.16	7160.43202
199.382	-104163.86444
199.604	2834.75535
199.827	-1102.51064
200.049	-2948.37328
200.271	14083.61761
200.493	1299.8385
200.715	-39342.24174
200.938	-6145.7941
201.16	-4193.71304
201.382	22365.91154
201.604	2378.4365
201.826	2321.42486
202.048	-1854.61954
202.27	-1862.94754
202.492	-36193.29402
202.715	3137.16805
202.937	-4555.10377
203.159	-6498.00296
203.381	1541.33634
203.603	6918.68749
203.825	6779.73639
204.047	2313.95812
204.269	-3131.89655
204.491	2283.67747
204.713	6070.79515
204.935	-486123.38937
205.156	1158.51681
205.378	-3112.36006
205.6	1621.25164
205.822	156882.11219
206.044	-1151.66811
206.266	1628.09377
206.488	4246.10488
206.71	-5221.98341
206.932	1170.62751
207.153	12422.09457
207.375	-6653.41938
207.597	-38302.19923
207.819	-2820.59701
208.041	2521.17558
208.262	473.34782
208.484	704.85575
208.706	-802.71529
208.927	-826.81793
209.149	569.74762
209.371	-2917.62694
209.593	-285.10421
209.814	-809.11953
210.036	583.51776
210.258	-678.64513
210.479	1784.02712
210.701	1759.69257
210.922	3437.71231
211.144	-3989.68791
211.366	2143.85328
211.587	5394.20004
211.809	-8575.93972
212.03	2327.3119
212.252	464.22575
212.473	2162.68881
212.695	-6274.85587
212.916	2892.75284
213.138	-688.59999
213.359	3872.51408
213.581	5308.78575
213.802	-844.32252
214.024	1122.95603
214.245	2199.09722
214.466	3560.68027
214.688	-3149.73482
214.909	-1138.0548
215.131	-1749.29074
215.352	-3216.77588
215.573	14815.82146
215.795	5302.46236
216.016	5604.72228
216.237	826.68736
216.459	3813.93815
216.68	1797.3895
216.901	5024.96933
217.122	-3134.36459
217.344	-11375.6902
217.565	3330.26608
217.786	9094.40374
218.007	18340.02399
218.228	-639.18264
218.45	5662.7809
218.671	815.83022
218.892	40858.64035
219.113	1538.75296
219.334	-253.41389
219.555	9216.29902
219.776	3129.73476
219.997	22885.07226
220.219	2892.01325
220.44	-11563.16644
220.661	438.21131
220.882	1529.77479
221.103	-1112.78767
221.324	2193.34104
221.545	2272.85503
221.766	-8887.20072
221.987	979.38347
222.208	1754.75311
222.429	4152.82071
222.65	207.45197
222.87	19613.71914
223.091	748.60124
223.312	603.9554
223.533	1404.37294
223.754	1513.66362
223.975	1336.38353
224.196	2047.77534
224.417	1372.73465
224.637	672.65593
224.858	109.59584
225.079	1151.65242
225.3	647.43339
225.521	3790.96051
225.741	469.78756
225.962	513.79907
226.183	163.8646
226.404	676.52382
226.624	436.33968
226.845	623.02917
227.066	420.67651
227.286	262.97489
227.507	126.16649
227.728	112.05483
227.948	233.7382
228.169	73.70246
228.389	84.99723
228.61	47.15445
228.831	62.67666
229.051	2.70669
229.272	38.71842
229.492	55.83587
229.713	13.63607
229.933	38.01071
230.154	33.62853
230.374	54.33054
230.595	37.90492
230.815	23.89399
231.036	39.20978
231.256	-8.74237
231.477	69.73745
231.697	36.23117
231.917	40.48854
232.138	58.88069
232.358	111.74697
232.579	104.50966
232.799	16.42021
233.019	99.41758
233.24	113.29241
233.46	40.38582
233.68	66.0773
233.901	43.23254
234.121	27.9562
234.341	13.26361
234.561	-3.26154
234.782	22.43933
235.002	69.02033
235.222	-5.8559
235.442	67.47326
235.662	33.43633
235.883	61.49702
236.103	52.78382
236.323	40.86421
236.543	29.39651
236.763	38.06433
236.983	44.72267
237.203	43.54534
237.423	57.45866
237.643	88.91907
237.864	73.03563
238.084	18.70731
238.304	28.42985
238.524	45.97392
238.744	39.53854
238.964	74.69582
239.184	62.28521
239.404	65.32549
239.624	33.80488
239.843	60.10192
240.063	37.27127
240.283	20.92078
240.503	25.92345
240.723	25.43085
240.943	14.38754
241.163	19.53276
241.383	8.0054
241.603	7.70122
241.822	9.67169
242.042	6.35273
242.262	8.3877
242.482	9.78421
242.702	10.49851
242.921	3.29288
243.141	7.00624
243.361	6.10331
243.581	9.37663
243.8	7.86807
244.02	5.32689
244.24	9.48608
244.459	8.93057
244.679	17.72001
244.899	12.21661
245.118	12.88153
245.338	12.03473
245.558	14.00659
245.777	8.5153
245.997	10.50304
246.216	10.74499
246.436	6.61826
246.655	4.51963
246.875	2.92128
247.094	6.35883
247.314	1.91244
247.533	3.76992
247.753	4.29979
247.972	3.481
248.192	1.14262
248.411	1.89201
248.631	3.65235
248.85	4.74504
249.07	3.51094
249.289	5.66933
249.508	5.04938
249.728	7.6105
249.947	7.13892
250.166	8.76638
250.386	4.21284
250.605	6.70899
250.824	11.0566
251.044	7.99662
251.263	28.84277
251.482	15.02875
251.701	12.11601
251.921	-0.30783
252.14	3.33734
252.359	4.01709
252.578	10.34003
252.798	3.51152
253.017	9.47678
253.236	4.41043
253.455	5.76532
253.674	10.71897
253.893	4.70438
254.112	7.74409
254.331	11.41932
254.551	8.99634
254.77	3.63174
254.989	13.40464
255.208	9.98773
255.427	15.07044
255.646	12.47644
255.865	21.77042
256.084	9.3238
256.303	11.02444
256.522	14.22887
256.741	2.93633
256.96	2.84189
257.179	8.45097
257.397	10.68045
257.616	5.94598
257.835	5.76177
258.054	15.55475
258.273	10.64765
258.492	10.885
258.711	6.66757
258.93	3.41755
259.148	4.72963
259.367	4.62948
259.586	5.58697
259.805	2.36414
260.023	5.27604
260.242	3.88686
260.461	2.78313
260.68	1.24189
260.898	4.39959
261.117	1.38888
261.336	0.91522
261.554	3.44563
261.773	3.47959
261.992	0.81815
262.21	3.47246
262.429	3.84516
262.648	7.25707
262.866	7.9389
263.085	5.87053
263.303	5.10016
263.522	8.92977
263.74	9.02624
263.959	15.4573
264.178	7.42566
264.396	6.6634
264.615	4.58449
264.833	10.60648
265.051	8.75206
265.27	11.25574
265.488	11.18151
265.707	6.07259
265.925	10.67951
266.144	4.52149
266.362	5.85359
266.58	5.48024
266.799	5.08862
267.017	6.24842
267.235	5.43689
267.454	3.27921
267.672	1.87756
267.89	4.21146
268.109	4.53741
268.327	4.20358
268.545	1.29649
268.763	4.07918
268.982	1.60323
269.2	4.36123
269.418	3.09721
269.636	2.02449
269.854	4.7168
270.073	3.19816
270.291	2.07741
270.509	1.95393
270.727	4.48764
270.945	7.46004
271.163	7.25482
271.381	1.46214
271.599	3.25598
271.817	5.53614
272.036	1.88
272.254	3.11688
272.472	2.40134
272.69	2.67565
272.908	2.4334
273.126	4.63695
273.344	5.29553
273.562	1.57713
273.779	2.62221
273.997	3.76927
274.215	4.20406
274.433	2.91967
274.651	4.40338
274.869	4.72391
275.087	2.81487
275.305	4.05666
275.523	2.448
275.74	2.86426
275.958	5.65484
276.176	8.23696
276.394	2.57175
276.612	3.28432
276.829	3.37209
277.047	2.81997
277.265	3.00782
277.483	3.49754
277.7	4.28568
277.918	3.35526
278.136	6.40323
278.353	2.92074
278.571	1.80397
278.789	4.26384
279.006	1.02827
279.224	3.09779
279.442	5.18892
279.659	3.5993
279.877	2.63637
280.094	5.94252
280.312	1.18404
280.529	3.5853
280.747	0.89693
280.964	2.64361
281.182	6.05937
281.399	2.75764
281.617	3.89371
281.834	2.54794
282.052	1.92985
282.269	3.15496
282.487	2.47697
282.704	2.0678
282.921	2.31456
283.139	3.33131
283.356	3.95232
283.574	3.87454
283.791	1.8769
284.008	5.58131
284.226	3.1084
284.443	3.16963
284.66	4.51452
284.877	3.56504
285.095	2.08616
285.312	1.67116
285.529	0.94354
285.746	0.74783
285.964	2.13682
286.181	1.37249
286.398	1.94785
286.615	2.61561
286.832	2.62312
287.05	0.67985
287.267	1.84392
287.484	1.84714
287.701	2.65291
287.918	2.62792
288.135	2.70007
288.352	1.31207
288.569	1.286
288.786	2.45982
289.003	2.1689
289.22	3.0615
289.437	1.62279
289.654	2.83114
289.871	3.18668
290.088	2.98138
290.305	2.35054
290.522	1.72922
290.739	2.03356
290.956	3.16279
291.173	3.51745
291.39	3.49012
291.607	2.33193
291.824	1.64735
292.04	1.26623
292.257	2.94206
292.474	3.31238
292.691	1.97586
292.908	0.87219
293.125	1.7909
293.341	1.19845
293.558	4.91046
293.775	1.99846
293.992	2.26266
294.208	0.8323
294.425	1.30902
294.642	1.93517
294.858	2.83297
295.075	0.68903
295.292	1.97894
295.508	2.33665
295.725	4.24023
295.942	1.80679
296.158	1.36889
296.375	2.24627
296.591	1.79052
296.808	1.98585
297.024	2.354
297.241	2.52143
297.458	2.7989
297.674	0.61573
297.891	2.21906
298.107	2.00781
298.323	1.6072
298.54	3.70944
298.756	1.84183
298.973	1.26461
299.189	3.8116
299.406	1.96682
299.622	3.44539
299.838	3.55247
300.055	3.44679
300.271	1.5453
300.487	1.99262
300.704	2.24439
300.92	1.74622
301.136	5.24547
301.353	3.52752
301.569	2.82755
301.785	3.24685
302.001	3.72388
302.218	3.41078
302.434	3.63274
302.65	1.98193
302.866	2.69472
303.083	5.26132
303.299	5.07333
303.515	3.3136
303.731	3.6407
303.947	2.06441
304.163	2.72913
304.379	3.57247
304.595	3.85692
304.812	2.79656
305.028	2.85476
305.244	3.14574
305.46	3.9634
305.676	4.12407
305.892	4.73296
306.108	4.00854
306.324	3.27479
306.54	5.30241
306.756	4.10758
306.972	3.87903
307.187	3.5749
307.403	4.86191
307.619	3.19501
307.835	4.75321
308.051	5.07305
308.267	2.82754
308.483	4.90383
308.699	4.19478
308.914	3.76622
309.13	3.58522
309.346	2.64488
309.562	2.99532
309.778	2.67985
309.993	4.26353
310.209	4.03864
310.425	2.87364
310.641	3.92716
310.856	3.20376
311.072	3.07918
311.288	3.96323
311.503	4.23001
311.719	2.47892
311.935	2.59041
312.15	4.58969
312.366	4.18389
312.581	4.50251
312.797	4.12285
313.013	4.89003
313.228	3.55453
313.444	3.92552
313.659	3.5281
313.875	4.46361
314.09	3.94862
314.306	5.24004
314.521	4.89983
314.737	4.7891
314.952	4.03833
315.168	4.15046
315.383	4.54604
315.599	3.87469
315.814	3.90662
316.029	4.92362
316.245	3.342
316.46	2.54983
316.675	5.29935
316.891	5.70753
317.106	6.89821
317.321	4.39425
317.537	4.92301
317.752	5.07148
317.967	5.06203
318.183	3.44095
318.398	3.90225
318.613	5.07354
318.828	5.57444
319.043	4.98782
319.259	4.11485
319.474	4.40374
319.689	5.45268
319.904	2.90016
320.119	5.21592
320.334	4.48124
320.549	4.17393
320.765	5.49354
320.98	4.7866
321.195	4.8431
321.41	4.27619
321.625	5.16283
321.84	5.93921
322.055	6.01621
322.27	3.6566
322.485	3.41257
322.7	4.98682
322.915	5.20287
323.13	3.97563
323.345	6.06651
323.56	5.59782
323.775	5.30225
323.989	4.99267
324.204	4.80893
324.419	5.7627
324.634	3.62666
324.849	4.57031
325.064	7.76034
325.279	5.63912
325.493	5.11671
325.708	5.36896
325.923	4.09055
326.138	4.31531
326.352	6.21578
326.567	5.53378
326.782	4.31686
326.997	4.45624
327.211	5.20575
327.426	5.07767
327.641	4.47907
327.855	3.45649
328.07	5.30451
328.285	6.45403
328.499	4.39913
328.714	5.18101
328.928	5.25194
329.143	4.71611
329.358	5.85612
329.572	5.86486
329.787	6.1817
330.001	7.01129
330.216	3.62672
330.43	6.90276
330.645	6.07052
330.859	5.62653
331.074	4.24805
331.288	5.04212
331.503	6.20306
331.717	3.83702
331.931	5.19075
332.146	5.08492
332.36	6.7596
332.575	5.29252
332.789	5.22947
333.003	5.39441
333.218	5.49742
333.432	4.42165
333.646	5.87656
333.86	6.70968
334.075	6.48841
334.289	4.70824
334.503	4.10481
334.717	5.71242
334.932	5.36184
335.146	6.16161
335.36	4.41936
335.574	5.87807
335.788	5.41938
336.003	6.02558
336.217	5.93822
336.431	5.64627
336.645	4.75766
336.859	4.24449
337.073	5.12951
337.287	5.57485
337.501	4.08336
337.715	5.7641
337.929	6.0854
338.143	4.41083
338.357	5.12159
338.571	4.98384
338.785	6.04918
338.999	4.89787
339.213	4.88088
339.427	4.3318
339.641	6.61089
339.855	5.07482
340.069	4.71592
340.283	6.15175
340.497	6.90905
340.711	5.80439
340.924	5.40805
341.138	4.56222
341.352	4.35187
341.566	5.61749
341.78	4.05888
341.993	5.14388
342.207	4.84842
342.421	5.80449
342.635	5.33192
342.848	5.19853
343.062	3.53888
343.276	4.94394
343.49	7.09108
343.703	4.89938
343.917	6.4696
344.131	6.60332
344.344	4.87166
344.558	5.21892
344.771	4.43112
344.985	7.00416
345.199	7.07719
345.412	5.99724
345.626	6.00767
345.839	4.33726
346.053	4.71893
346.266	4.88965
346.48	6.2302
346.693	6.04381
346.907	5.84241
347.12	4.77011
347.334	5.7325
347.547	6.06378
347.76	5.60016
347.974	6.51017
348.187	5.84348
348.401	5.4944
348.614	5.00117
348.827	5.3789
349.041	5.97931
349.254	4.14696
349.467	5.22333
349.681	4.86018
349.894	4.93259
350.107	6.68216
350.32	7.33189
350.534	4.61584
350.747	5.42233
350.96	4.99367
351.173	5.2423
351.386	5.45892
351.6	5.2328
351.813	5.23493
352.026	5.46075
352.239	4.90478
352.452	5.50369
352.665	6.86443
352.878	5.68928
353.092	7.49191
353.305	6.3544
353.518	6.02029
353.731	4.99739
353.944	6.67751
354.157	5.51427
354.37	5.40771
354.583	4.89565
354.796	4.78961
355.009	6.64003
355.222	6.29586
355.435	5.89884
355.647	6.77204
355.86	5.52568
356.073	6.17846
356.286	5.66154
356.499	6.77915
356.712	6.48562
356.925	6.62915
357.138	6.78573
357.35	5.58799
357.563	5.88312
357.776	6.35475
357.989	6.20447
358.201	6.69656
358.414	6.43041
358.627	7.37664
358.84	6.1533
359.052	5.30567
359.265	5.72763
359.478	7.12486
359.69	4.40403
359.903	6.98002
360.116	7.08534
360.328	5.28088
360.541	7.09397
360.753	5.87749
360.966	6.22159
361.179	6.39582
361.391	6.18832
361.604	6.13464
361.816	6.40343
362.029	6.41181
362.241	6.10777
362.454	6.49738
362.666	6.04331
362.879	7.21814
363.091	6.51688
363.304	6.31419
363.516	6.48141
363.728	5.97813
363.941	7.02237
364.153	6.7078
364.366	5.16254
364.578	5.80037
364.79	6.77105
365.003	6.70779
365.215	6.08781
365.427	7.09156
365.639	7.24127
365.852	6.65867
366.064	8.15885
366.276	6.55205
366.488	6.8867
366.701	6.40924
366.913	6.41244
367.125	6.54313
367.337	6.01484
367.549	6.28649
367.762	6.66925
367.974	6.61765
368.186	6.51513
368.398	7.25456
368.61	7.02065
368.822	7.25972
369.034	6.44636
369.246	7.2954
369.458	9.04764
369.67	6.15966
369.882	8.02562
370.094	5.48064
370.306	7.91302
370.518	6.5914
370.73	6.43515
370.942	6.49472
371.154	6.96695
371.366	6.73395
371.578	7.42901
371.79	6.78834
372.002	7.77513
372.214	8.5916
372.425	7.04796
372.637	8.32075
372.849	7.45579
373.061	5.76447
373.273	7.32344
373.484	7.30465
373.696	7.77516
373.908	5.7058
374.12	7.86979
374.331	7.56193
374.543	6.55827
374.755	6.58502
374.967	7.2751
375.178	7.83628
375.39	6.90725
375.602	7.46396
375.813	6.19797
376.025	6.85784
376.236	7.44956
376.448	7.76128
376.66	7.29653
376.871	7.44992
377.083	8.35092
377.294	8.99298
377.506	7.38761
377.717	8.79155
377.929	7.92986
378.14	7.65113
378.352	8.01189
378.563	8.18235
378.775	8.69435
378.986	7.1346
379.197	7.83141
379.409	7.12863
379.62	8.11268
379.832	8.08961
380.043	7.58134
380.254	8.0572
380.466	7.13926
380.677	9.88138
380.888	9.17278
381.1	9.86083
381.311	9.7728
381.522	8.18099
381.733	9.95046
381.945	8.06382
382.156	7.97809
382.367	7.76788
382.578	10.12191
382.789	10.19355
383.001	7.8493
383.212	9.45755
383.423	9.29491
383.634	9.24987
383.845	9.03706
384.056	8.16746
384.267	8.49971
384.478	8.56669
384.69	7.77556
384.901	8.87525
385.112	8.74251
385.323	9.88248
385.534	8.91195
385.745	8.95478
385.956	8.81764
386.167	8.2233
386.378	9.02249
386.588	8.33873
386.799	8.22507
387.01	7.85419
387.221	9.38384
387.432	8.86183
387.643	9.9114
387.854	8.67467
388.065	8.58631
388.275	8.80707
388.486	8.60134
388.697	8.8206
388.908	8.62023
389.119	9.7908
389.329	10.01627
389.54	9.16201
389.751	9.30932
389.962	10.04748
390.172	9.18497
390.383	9.015
390.594	8.81589
390.804	8.8011
391.015	8.98742
391.226	9.52523
391.436	9.7667
391.647	9.62804
391.858	9.81752
392.068	8.51409
392.279	8.90195
392.489	9.65903
392.7	10.10756
392.91	9.21536
393.121	9.0625
393.331	10.04545
393.542	10.32493
393.752	10.11677
393.963	9.95961
394.173	9.99024
394.384	10.01918
394.594	9.89589
394.804	9.03336
395.015	9.93989
395.225	10.14987
395.436	9.20535
395.646	10.01101
395.856	9.60829
396.067	8.97401
396.277	10.39309
396.487	10.13124
396.697	10.25522
396.908	10.17335
397.118	10.162
397.328	9.98574
397.538	10.52563
397.749	9.41996
397.959	10.58001
398.169	10.2643
398.379	9.17784
398.589	10.4177
398.8	10.32998
399.01	10.28641
399.22	9.92194
399.43	11.59881
399.64	10.20164
399.85	10.44588
400.06	10.36754
400.27	9.59764
400.48	10.09045
400.69	10.99295
400.9	9.83372
401.11	9.57305
401.32	10.60036
401.53	9.90559
401.74	11.37046
401.95	10.54378
402.16	9.94278
402.37	10.60911
402.58	10.10939
402.79	10.58521
403	11.14862
403.209	9.99178
403.419	11.24022
403.629	9.94644
403.839	11.11727
404.049	11.23329
404.258	10.45045
404.468	10.21782
404.678	11.13488
404.888	11.40574
405.097	10.48559
405.307	10.67006
405.517	11.21297
405.727	11.0529
405.936	10.52
406.146	11.01057
406.356	11.73767
406.565	10.65676
406.775	10.62988
406.984	10.56221
407.194	11.93903
407.404	10.7972
407.613	11.22662
407.823	11.27229
408.032	11.48811
408.242	11.45226
408.451	10.58097
408.661	10.72838
408.87	12.08606
409.08	10.35148
409.289	11.13534
409.499	11.20929
409.708	10.9077
409.918	9.80534
410.127	11.25592
410.336	12.00994
410.546	11.56725
410.755	10.98703
410.964	11.02909
411.174	10.50738
411.383	11.55679
411.592	11.52103
411.802	10.73903
412.011	11.67007
412.22	10.95024
412.429	12.25424
412.639	12.10765
412.848	11.83143
413.057	12.14757
413.266	11.96407
413.475	11.30359
413.685	11.6041
413.894	12.06501
414.103	12.03539
414.312	11.9427
414.521	11.22214
414.73	11.45951
414.939	12.7994
415.148	11.79663
415.357	11.69921
415.566	11.40005
415.776	11.39011
415.985	11.59528
416.194	12.21969
416.403	13.02255
416.611	11.05982
416.82	11.59594
417.029	11.97003
417.238	11.65199
417.447	11.49674
417.656	11.96204
417.865	11.60875
418.074	12.00481
418.283	12.09903
418.492	12.72636
418.7	12.5868
418.909	13.62956
419.118	12.84219
419.327	13.27132
419.536	13.1506
419.744	13.35167
419.953	14.57791
420.162	15.01351
420.371	14.55762
420.579	15.3734
420.788	16.15322
420.997	16.2198
421.205	16.88053
421.414	16.6031
421.623	16.86796
421.831	16.46697
422.04	16.90155
422.249	15.98609
422.457	16.23803
422.666	15.35742
422.874	16.18264
423.083	16.23787
423.291	16.18456
423.5	16.27898
423.708	16.67347
423.917	17.20928
424.125	16.68628
424.334	16.74133
424.542	18.3348
424.751	17.89755
424.959	17.47301
425.167	17.48603
425.376	17.28809
425.584	15.86982
425.793	15.71458
426.001	14.71466
426.209	14.49195
426.418	13.33099
426.626	12.90702
426.834	12.73842
427.042	13.14686
427.251	12.79078
427.459	13.63072
427.667	13.13266
427.875	12.3769
428.084	12.71942
428.292	13.6962
428.5	13.34853
428.708	12.5035
428.916	12.51065
429.124	13.02835
429.333	12.83974
429.541	12.92116
429.749	13.11689
429.957	13.09393
430.165	14.59305
430.373	12.13732
430.581	13.25422
430.789	13.95787
430.997	12.83717
431.205	12.60158
431.413	13.3834
431.621	13.04665
431.829	13.56558
432.037	13.05477
432.245	13.44261
432.453	13.52754
432.661	13.22275
432.869	14.32034
433.076	12.90653
433.284	13.33362
433.492	13.87609
433.7	13.99258
433.908	13.27944
434.116	13.52731
434.323	13.69622
434.531	13.47377
434.739	13.95299
434.947	14.04493
435.154	14.0388
435.362	13.51398
435.57	13.40299
435.778	13.13889
435.985	13.64591
436.193	13.29322
436.401	14.21404
436.608	13.44473
436.816	13.30892
437.023	14.29149
437.231	14.44455
437.439	13.76158
437.646	13.90157
437.854	13.70443
438.061	14.09575
438.269	13.52989
438.476	14.01118
438.684	13.80466
438.891	13.56305
439.099	13.42825
439.306	13.28703
439.514	13.37109
439.721	14.49283
439.929	14.28165
440.136	15.22033
440.343	15.34197
440.551	15.43662
440.758	16.8972
440.965	15.73859
441.173	15.4562
441.38	15.37149
441.587	14.96043
441.795	14.72891
442.002	14.36551
442.209	14.19695
442.416	14.35219
442.624	14.4554
442.831	14.25151
443.038	13.80889
443.245	13.4604
443.452	13.86341
443.66	14.24366
443.867	13.65536
444.074	13.6495
444.281	13.70302
444.488	13.86118
444.695	14.00517
444.902	13.90042
445.109	15.11252
445.316	15.15106
445.523	15.79071
445.73	16.17729
445.937	17.19204
446.144	17.77006
446.351	18.41378
446.558	17.31008
446.765	19.47678
446.972	18.50587
447.179	18.22063
447.386	18.67758
447.593	16.84789
447.8	17.6891
448.007	16.07274
448.214	15.32889
448.42	14.6232
448.627	14.85306
448.834	14.31432
449.041	14.12505
449.248	14.19445
449.454	14.62499
449.661	15.22742
449.868	14.00204
450.075	13.97022
450.281	13.23678
450.488	13.79041
450.695	13.71072
450.901	13.87306
451.108	13.86176
451.315	14.79732
451.521	14.17494
451.728	14.75196
451.935	13.84624
452.141	14.19703
452.348	14.20186
452.554	14.29986
452.761	14.07061
452.967	15.18878
453.174	14.4365
453.38	14.58841
453.587	13.77924
453.793	14.5672
454	14.8593
454.206	15.48153
454.413	14.84836
454.619	14.58135
454.825	14.04699
455.032	14.72958
455.238	14.6968
455.445	13.87639
455.651	14.51334
455.857	13.46395
456.064	14.24224
456.27	14.24919
456.476	14.13177
456.682	13.83611
456.889	14.53266
457.095	14.6339
457.301	15.61416
457.507	14.5314
457.714	14.42654
457.92	14.46933
458.126	14.08648
458.332	14.40342
458.538	14.21129
458.744	14.38347
458.951	14.40622
459.157	16.68868
459.363	16.28597
459.569	16.86402
459.775	17.72883
459.981	17.62396
460.187	18.30032
460.393	18.3499
460.599	18.41927
460.805	17.45681
461.011	16.32079
461.217	15.96399
461.423	15.43677
461.629	14.91832
461.835	15.24372
462.041	14.77826
462.247	15.66898
462.453	14.67405
462.658	14.61634
462.864	15.21959
463.07	14.80752
463.276	14.84302
463.482	14.76551
463.688	15.57876
463.893	14.41442
464.099	14.62
464.305	15.65315
464.511	14.58742
464.716	14.67006
464.922	15.33091
465.128	14.32267
465.333	15.74866
465.539	15.14721
465.745	14.89507
465.95	15.05419
466.156	16.48103
466.362	15.5002
466.567	14.9144
466.773	14.66711
466.978	15.72629
467.184	14.46016
467.389	13.96794
467.595	15.21869
467.8	14.68147
468.006	15.73372
468.211	15.72
468.417	14.4289
468.622	15.36288
468.828	15.38712
469.033	15.26149
469.239	16.42946
469.444	14.84922
469.649	15.5105
469.855	15.0553
470.06	15.06329
470.266	14.58183
470.471	15.43039
470.676	15.31483
470.881	14.18887
471.087	15.88245
471.292	16.52968
471.497	14.49962
471.703	15.00891
471.908	14.91856
472.113	15.15642
472.318	15.53535
472.523	14.58168
472.729	15.3463
472.934	15.43997
473.139	15.00658
473.344	15.3312
473.549	15.88569
473.754	14.85065
473.959	16.79168
474.164	14.81484
474.369	15.1445
474.575	15.70106
474.78	15.25455
474.985	14.91814
475.19	14.32558
475.395	14.97311
475.6	15.22399
475.804	15.96364
476.009	15.20407
476.214	15.21449
476.419	15.13039
476.624	14.46162
476.829	14.82305
477.034	15.66045
477.239	14.99002
477.444	15.60534
477.648	15.68467
477.853	15.57942
478.058	15.25865
478.263	15.00353
478.468	14.84924
478.672	14.95591
478.877	16.06912
479.082	16.12958
479.287	15.69757
479.491	15.43794
479.696	14.91915
479.901	15.77303
480.105	15.81225
480.31	15.131
480.515	15.47004
480.719	16.58659
480.924	15.19985
481.128	14.92721
481.333	15.66607
481.538	15.61662
481.742	16.14438
481.947	17.56161
482.151	18.96686
482.356	20.30688
482.56	23.41954
482.765	26.13549
482.969	30.7143
483.174	34.75202
483.378	39.90411
483.582	42.07945
483.787	45.3426
483.991	46.96723
484.196	47.97677
484.4	47.70309
484.604	47.88228
484.809	44.82659
485.013	42.18191
485.217	38.60582
485.422	34.80151
485.626	31.46581
485.83	29.25686
486.034	27.9615
486.239	28.08416
486.443	28.5279
486.647	29.16623
486.851	30.6398
487.055	32.81488
487.26	33.27685
487.464	34.75803
487.668	34.87609
487.872	36.00915
488.076	36.06807
488.28	35.10498
488.484	33.16093
488.688	32.29026
488.892	30.78963
489.096	28.5729
489.3	26.43257
489.504	24.62971
489.708	23.2217
489.912	22.42948
490.116	21.77239
490.32	21.32862
490.524	22.74782
490.728	24.02219
490.932	25.35626
491.136	27.0483
491.34	28.71924
491.544	29.51232
491.748	29.92678
491.951	30.13078
492.155	29.67479
492.359	28.95391
492.563	27.0443
492.767	25.56078
492.97	23.2401
493.174	20.89555
493.378	19.04151
493.582	17.00738
493.785	16.19359
493.989	16.1541
494.193	16.14334
494.396	15.90259
494.6	16.36052
494.804	15.96044
495.007	15.60605
495.211	15.6851
495.414	15.76039
495.618	16.146
495.822	16.57412
496.025	15.95054
496.229	16.16769
496.432	15.60391
496.636	16.05298
496.839	15.90924
497.043	16.7099
497.246	16.26161
497.45	15.9274
497.653	16.25867
497.856	16.16714
498.06	15.81477
498.263	16.06279
498.467	16.00948
498.67	16.5404
498.873	16.26469
499.077	16.09006
499.28	16.09229
499.483	16.24591
499.686	16.53048
499.89	16.33883
500.093	16.56414
500.296	15.89028
500.499	16.93594
500.703	16.19434
500.906	16.42244
501.109	16.99121
501.312	16.26344
501.515	16.01654
501.719	16.25921
501.922	16.75283
502.125	16.19715
502.328	16.19172
502.531	15.61953
502.734	16.15871
502.937	15.42791
503.14	16.29689
503.343	15.86566
503.546	16.02639
503.749	15.78729
503.952	16.59944
504.155	15.93545
504.358	16.44234
504.561	16.28762
504.764	15.6626
504.967	16.37785
505.17	16.20115
505.373	16.92767
505.576	16.35822
505.778	16.66342
505.981	15.84309
506.184	16.82217
506.387	15.5163
506.59	17.34377
506.793	16.76142
506.995	16.51239
507.198	15.5025
507.401	16.55985
507.604	16.49345
507.806	15.83908
508.009	15.89759
508.212	16.79
508.414	16.12012
508.617	16.11049
508.82	16.246
509.022	17.11789
509.225	16.53574
509.427	15.78973
509.63	17.0466
509.833	16.45716
510.035	16.19467
510.238	15.78374
510.44	17.1142
510.643	15.5531
510.845	17.3882
511.048	16.7182
511.25	16.24499
511.453	16.43175
511.655	16.56542
511.858	16.25788
512.06	16.81916
512.262	16.47007
512.465	16.81315
512.667	16.28716
512.869	15.91762
513.072	16.73189
513.274	16.92914
513.476	16.79416
513.679	16.9349
513.881	15.91634
514.083	17.28261
514.286	16.12338
514.488	16.12148
514.69	16.04569
514.892	15.86138
515.094	16.81412
515.297	16.26077
515.499	16.58196
515.701	16.02097
515.903	17.41885
516.105	17.37667
516.307	16.86591
516.509	15.54077
516.711	15.96592
516.913	16.55429
517.116	16.49254
517.318	16.19386
517.52	16.98075
517.722	16.74115
517.924	15.99857
518.126	16.72344
518.328	16.52582
518.529	17.3824
518.731	18.24369
518.933	16.94535
519.135	17.26005
519.337	17.71241
519.539	16.97475
519.741	16.0837
519.943	16.62755
520.145	16.63042
520.346	17.0868
520.548	16.53924
520.75	16.89526
520.952	16.59012
521.153	16.81748
521.355	16.79212
521.557	16.22141
521.759	16.79185
521.96	16.64951
522.162	16.15788
522.364	17.20275
522.565	16.40661
522.767	16.83711
522.969	17.16718
523.17	17.06198
523.372	16.78661
523.573	16.52214
523.775	16.53895
523.977	16.24655
524.178	17.66286
524.38	16.32687
524.581	16.98189
524.783	16.553
524.984	16.93514
525.186	16.73578
525.387	17.72341
525.589	17.88472
525.79	18.19178
525.991	18.39719
526.193	19.16921
526.394	18.76944
526.596	19.66661
526.797	20.22361
526.998	20.02337
527.2	21.05599
527.401	23.62841
527.602	25.52099
527.803	29.09665
528.005	31.45405
528.206	33.97508
528.407	36.06346
528.608	37.00369
528.81	37.89731
529.011	37.66985
529.212	38.6672
529.413	36.80062
529.614	34.77663
529.815	32.61836
530.017	30.11331
530.218	26.9185
530.419	24.18591
530.62	22.88125
530.821	21.49779
531.022	19.72997
531.223	20.01541
531.424	19.47863
531.625	19.4693
531.826	19.1735
532.027	20.03373
532.228	21.53397
532.429	22.30299
532.63	23.13601
532.831	24.67817
533.032	25.29943
533.233	26.37538
533.433	26.20638
533.634	26.58446
533.835	25.79613
534.036	24.94175
534.237	24.03095
534.438	22.6317
534.638	20.60431
534.839	19.53239
535.04	18.74944
535.241	17.76043
535.441	18.32213
535.642	17.85265
535.843	17.53343
536.043	17.90337
536.244	18.20335
536.445	18.67114
536.645	19.60374
536.846	19.26188
537.047	19.62618
537.247	18.59722
537.448	17.98807
537.648	17.57647
537.849	17.13964
538.049	17.08331
538.25	17.45067
538.451	17.31047
538.651	16.65431
538.851	17.38512
539.052	17.78896
539.252	17.41563
539.453	16.98658
539.653	17.14506
539.854	16.97016
540.054	17.16005
540.254	19.46109
540.455	21.42582
540.655	22.47047
540.855	25.06747
541.056	26.90453
541.256	27.41911
541.456	28.75316
541.657	28.95554
541.857	29.65465
542.057	28.16107
542.257	27.27134
542.458	26.98074
542.658	25.7705
542.858	23.37264
543.058	22.47047
543.258	21.42214
543.458	19.45046
543.659	18.77048
543.859	18.81461
544.059	18.13191
544.259	17.36467
544.459	17.85928
544.659	17.07424
544.859	17.50175
545.059	17.10039
545.259	17.5843
545.459	17.3687
545.659	17.66049
545.859	17.30369
546.059	17.42804
546.259	16.92713
546.459	16.56481
546.659	16.77461
546.859	17.65576
547.059	17.35182
547.258	17.48873
547.458	17.63483
547.658	16.86691
547.858	16.73488
548.058	17.45652
548.258	17.12474
548.457	16.85202
548.657	18.21741
548.857	17.17133
549.057	17.79203
549.256	17.45549
549.456	16.79632
549.656	16.12308
549.855	18.18607
550.055	16.8596
550.255	18.18265
550.454	17.32612
550.654	17.61573
550.853	18.15037
551.053	17.58182
551.253	17.25539
551.452	17.53831
551.652	16.41509
551.851	16.32851
552.051	16.96237
552.25	16.76189
552.45	16.72139
552.649	17.07643
552.849	16.59815
553.048	17.2174
553.248	17.5871
553.447	16.59416
553.646	17.75133
553.846	18.7215
554.045	18.02846
554.244	16.50994
554.444	18.08485
554.643	16.72248
554.842	18.21901
555.042	18.39564
555.241	16.82292
555.44	16.47634
555.64	17.51999
555.839	18.08758
556.038	17.43377
556.237	16.78227
556.436	17.32688
556.636	17.29138
556.835	16.72186
557.034	18.04349
557.233	17.13529
557.432	15.91797
557.631	17.72774
557.83	16.90178
558.029	16.708
558.228	16.82277
558.427	16.58203
558.626	17.4206
558.825	16.56052
559.024	17.05357
559.223	18.23273
559.422	17.03471
559.621	17.48256
559.82	15.58508
560.019	17.17237
560.218	16.73899
560.417	15.5824
560.616	16.61606
560.815	19.15893
561.014	16.1526
561.212	18.20913
561.411	17.227
561.61	16.37508
561.809	17.06503
562.008	18.31149
562.206	16.86442
562.405	17.48985
562.604	17.11208
562.803	17.32966
563.001	17.03498
563.2	16.29357
563.399	17.3895
563.597	16.50673
563.796	17.05414
563.995	16.28577
564.193	17.82385
564.392	17.04193
564.59	18.47657
564.789	15.96855
564.988	16.89907
565.186	17.38313
565.385	17.07266
565.583	16.96705
565.782	17.2345
565.98	17.01569
566.179	17.15022
566.377	16.77394
566.575	16.76365
566.774	18.20341
566.972	17.79568
567.171	18.74076
567.369	18.27523
567.567	17.59571
567.766	17.63719
567.964	16.19022
568.162	17.86111
568.361	18.23127
568.559	17.1854
568.757	17.47123
568.956	17.27726
569.154	17.35405
569.352	17.74224
569.55	17.35811
569.748	17.28318
569.947	16.82219
570.145	16.55806
570.343	16.78936
570.541	18.29312
570.739	16.51784
570.937	17.2976
571.135	17.67816
571.333	18.88552
571.532	18.69407
571.73	17.61003
571.928	18.10423
572.126	17.78802
572.324	17.1167
572.522	18.1804
572.72	19.29757
572.918	17.51904
573.116	17.78597
573.313	17.29237
573.511	17.53617
573.709	17.11694
573.907	18.15077
574.105	17.32818
574.303	16.49597
574.501	16.28878
574.699	17.87634
574.896	17.70063
575.094	18.0161
575.292	16.64198
575.49	18.09615
575.688	17.34238
575.885	18.3444
576.083	19.28842
576.281	18.02542
576.478	17.02715
576.676	18.05014
576.874	16.67545
577.071	17.46725
577.269	19.16597
577.467	17.52312
577.664	17.29826
577.862	18.1896
578.059	16.94244
578.257	18.16879
578.455	17.27559
578.652	17.30895
578.85	16.0443
579.047	17.47964
579.245	17.11718
579.442	17.31197
579.64	17.16837
579.837	16.06355
580.034	19.23778
580.232	17.10681
580.429	16.50245
580.627	17.82191
580.824	18.17827
581.021	17.86237
581.219	17.03228
581.416	16.88046
581.613	18.47092
581.811	18.40733
582.008	16.74245
582.205	18.09866
582.402	17.59181
582.6	19.14884
582.797	17.42166
582.994	17.67875
583.191	18.05435
583.388	17.15374
583.586	18.11286
583.783	18.24359
583.98	16.62514
584.177	17.50056
584.374	15.24036
584.571	17.18788
584.768	17.26548
584.965	16.92721
585.162	18.01635
585.359	18.75811
585.556	17.27709
585.753	17.6272
585.95	16.36011
586.147	16.59202
586.344	17.76044
586.541	17.03932
586.738	16.51067
586.935	17.28652
587.132	16.98414
587.329	18.36357
587.526	17.42388
587.722	21.68402
587.919	16.37251
588.116	17.94967
588.313	18.57922
588.51	19.2379
588.706	17.17325
588.903	17.91278
589.1	18.37587
589.297	19.80807
589.493	17.48379
589.69	18.15108
589.887	17.16295
590.083	16.60044
590.28	17.11429
590.477	18.47775
590.673	18.0352
590.87	18.64465
591.067	17.1257
591.263	17.83712
591.46	17.89187
591.656	17.16133
591.853	18.80958
592.049	16.9687
592.246	17.10197
592.442	18.26483
592.639	18.89326
592.835	16.84721
593.032	17.89459
593.228	16.37059
593.425	16.43788
593.621	16.44663
593.817	17.83887
594.014	16.88668
594.21	17.89457
594.406	18.43879
594.603	17.95037
594.799	17.07722
594.995	15.88452
595.192	18.67064
595.388	17.25016
595.584	17.30143
595.78	16.63136
595.977	20.01462
596.173	19.21646
596.369	17.45827
596.565	17.02524
596.761	16.6386
596.957	18.76048
597.154	17.27196
597.35	17.4813
597.546	17.41476
597.742	18.33259
597.938	17.99181
598.134	17.26659
598.33	18.05341
598.526	18.92108
598.722	18.02447
598.918	19.34335
599.114	18.35744
599.31	16.56664
599.506	17.57948
599.702	16.88276
599.898	17.58711
600.094	18.21963
600.29	18.37142
600.485	18.53567
600.681	16.95467
600.877	19.09338
601.073	17.61342
601.269	19.54248
601.465	19.03352
601.66	16.97044
601.856	16.0904
602.052	19.65309
602.248	17.59055
602.443	16.20937
602.639	16.79438
602.835	17.15892
603.03	17.05121
603.226	18.65847
603.422	17.28971
603.617	17.69373
603.813	17.78111
604.009	17.51498
604.204	18.86728
604.4	16.77474
604.595	18.80512
604.791	17.24404
604.986	18.40787
605.182	17.43555
605.377	17.80902
605.573	17.74242
605.768	17.9874
605.964	18.72206
606.159	18.58849
606.355	18.84739
606.55	17.56997
606.746	19.03086
606.941	17.88659
607.136	19.58389
607.332	20.37263
607.527	16.88435
607.722	17.94826
607.918	17.67739
608.113	17.30051
608.308	18.74973
608.503	18.30757
608.699	18.37397
608.894	18.57637
609.089	17.5245
609.284	18.56647
609.479	17.79823
609.675	18.70262
609.87	18.1675
610.065	18.90788
610.26	19.1358
610.455	18.98122
610.65	18.12433
610.845	18.45682
611.04	19.09355
611.235	18.10303
611.43	17.99335
611.625	17.20161
611.82	19.52952
612.015	17.48862
612.21	19.8367
612.405	16.63439
612.6	19.76696
612.795	19.59409
612.99	18.73401
613.185	16.83553
613.38	17.35737
613.575	17.97665
613.77	21.28052
613.965	16.48441
614.159	17.31989
614.354	19.42159
614.549	19.08866
614.744	18.81017
614.938	16.8657
615.133	16.36213
615.328	19.46358
615.523	19.07678
615.717	21.18958
615.912	17.34904
616.107	18.11666
616.301	17.69726
616.496	17.68719
616.691	19.59573
616.885	18.97032
617.08	21.31518
617.274	18.91559
617.469	20.26857
617.664	18.90353
617.858	17.57205
618.053	18.37486
618.247	17.98739
618.442	15.67458
618.636	19.90259
618.831	17.17011
619.025	17.19606
619.219	21.48792
619.414	14.99196
619.608	17.81912
619.803	17.22941
619.997	20.66878
620.191	19.12851
620.386	18.52866
620.58	18.09055
620.774	16.35999
620.969	16.59775
621.163	18.48021
621.357	17.05987
621.551	17.91623
621.746	18.43607
621.94	17.58294
622.134	21.84706
622.328	20.50448
622.522	16.46779
622.716	19.25095
622.911	19.61051
623.105	19.20928
623.299	18.69378
623.493	21.8781
623.687	17.5276
623.881	17.37082
624.075	18.91929
624.269	19.71255
624.463	16.01752
624.657	16.54236
624.851	18.93374
625.045	19.49062
625.239	19.35716
625.433	18.11818
625.627	20.23905
625.821	18.00031
626.015	17.69131
626.209	18.75802
626.403	17.09132
626.596	19.14003
626.79	19.52028
626.984	17.31558
627.178	19.28763
627.372	19.39152
627.565	19.58105
627.759	17.30298
627.953	17.44932
628.147	18.85446
628.34	19.48829
628.534	21.09525
628.728	18.65267
628.921	19.81351
629.115	19.22574
629.309	19.67185
629.502	19.82245
629.696	18.39929
629.89	18.36553
630.083	18.68166
630.277	18.81471
630.47	20.32713
630.664	18.23553
630.857	16.65143
631.051	19.38053
631.244	19.85092
631.438	19.69182
631.631	17.70702
631.825	20.37881
632.018	19.13414
632.212	20.82224
632.405	20.05566
632.598	17.60302
632.792	18.82508
632.985	15.51323
633.178	18.3183
633.372	18.46096
633.565	18.24354
633.758	20.16394
633.952	17.7031
634.145	17.3166
634.338	18.23005
634.531	18.02471
634.724	17.41095
634.918	18.84022
635.111	18.39952
635.304	18.21904
635.497	21.78577
635.69	18.98274
635.883	20.48522
636.077	17.78497
636.27	19.06916
636.463	18.93828
636.656	18.82195
636.849	18.65191
637.042	19.66858
637.235	21.32516
637.428	19.55846
637.621	19.26414
637.814	20.82733
638.007	20.90604
638.2	20.56248
638.393	21.24106
638.586	17.06984
638.778	18.33091
638.971	18.57702
639.164	20.99267
639.357	19.33213
639.55	21.04319
639.743	19.85375
639.935	19.32621
640.128	22.44572
640.321	19.89446
640.514	19.22648
640.707	22.15994
640.899	19.82212
641.092	16.67693
641.285	34.47485
641.477	15.85887
641.67	23.04129
641.863	21.12514
642.055	19.6012
642.248	18.98248
642.441	18.66669
642.633	19.97802
642.826	21.40922
643.018	21.11769
643.211	22.22001
643.403	22.37234
643.596	22.71014
643.788	22.56345
643.981	18.62858
644.173	20.60804
644.366	18.47591
644.558	16.64818
644.751	20.74603
644.943	17.45326
645.135	21.94172
645.328	21.68078
645.52	20.04591
645.712	20.97202
645.905	24.32814
646.097	17.26293
646.289	19.94289
646.482	23.03119
646.674	18.19659
646.866	21.22889
647.058	20.16219
647.251	17.99085
647.443	18.30079
647.635	19.19776
647.827	17.72039
648.019	18.26174
648.211	19.06155
648.404	19.57338
648.596	22.39421
648.788	20.08078
648.98	19.69594
649.172	20.31329
649.364	20.07991
649.556	17.18303
649.748	24.27046
649.94	17.99733
650.132	20.87451
650.324	18.62624
650.516	18.60309
650.708	21.69597
650.9	17.2177
651.092	17.25036
651.284	17.41333
651.476	18.25402
651.667	20.73532
651.859	22.1979
652.051	19.32224
652.243	19.92353
652.435	19.44222
652.627	20.82976
652.818	20.66194
653.01	17.26576
653.202	18.66318
653.394	19.09608
653.585	20.39666
653.777	27.46564
653.969	22.57291
654.16	21.96247
654.352	18.80805
654.544	19.63376
654.735	21.76512
654.927	20.19071
655.118	22.60299
655.31	20.98287
655.502	22.33313
655.693	19.52882
655.885	20.95828
656.076	22.62996
656.268	20.50396
656.459	22.41882
656.651	22.37489
656.842	19.40881
657.034	19.03911
657.225	22.21805
657.416	22.79021
657.608	22.724
657.799	20.54441
657.99	22.88338
658.182	19.46805
658.373	19.46777
658.564	22.16438
658.756	21.15906
658.947	20.17831
659.138	19.2051
659.33	19.98495
659.521	19.78833
659.712	20.85899
659.903	20.63372
660.094	19.9069
660.286	18.52837
660.477	23.667
660.668	21.94404
660.859	20.48354
661.05	18.41541
661.241	21.45562
661.432	21.14617
661.623	20.06736
661.814	20.33433
662.006	18.10815
662.197	21.02818
662.388	22.55977
662.579	20.82447
662.77	25.34506
662.96	25.69536
663.151	22.26669
663.342	17.23484
663.533	21.89408
663.724	20.76993
663.915	24.67425
664.106	20.63985
664.297	24.47284
664.488	21.62777
664.678	19.55757
664.869	22.61103
665.06	22.75442
665.251	21.383
665.442	21.9261
665.632	19.13225
665.823	24.57118
666.014	15.44364
666.204	22.62969
666.395	23.48365
666.586	25.70655
666.776	22.50904
666.967	25.09744
667.158	21.29804
667.348	23.88635
667.539	19.42284
667.729	22.91706
667.92	19.66196
668.111	23.31661
668.301	22.60598
668.492	20.99827
668.682	21.98862
668.873	21.00719
669.063	19.22191
669.253	22.08046
669.444	24.64754
669.634	21.35112
669.825	25.28037
670.015	24.31521
670.206	20.23573
670.396	25.17708
670.586	20.92429
670.777	22.54588
670.967	17.86699
671.157	21.17595
671.347	20.12881
671.538	24.70481
671.728	23.03315
671.918	25.7745
672.108	23.60325
672.299	21.34538
672.489	22.28703
672.679	19.83315
672.869	23.0399
673.059	26.47105
673.249	22.17254
673.44	19.62683
673.63	21.31622
673.82	24.0795
674.01	19.78817
674.2	22.7094
674.39	27.30111
674.58	23.29099
674.77	21.9471
674.96	21.44997
675.15	30.83535
675.34	24.36693
675.53	21.938
675.72	21.56777
675.91	18.60256
676.099	26.46292
676.289	26.71702
676.479	24.74363
676.669	21.30269
676.859	23.21449
677.049	20.70488
677.238	22.33659
677.428	26.40877
677.618	23.35196
677.808	26.75769
677.997	23.7209
678.187	20.70186
678.377	22.42024
678.567	21.31081
678.756	21.76364
678.946	22.73315
679.136	19.94142
679.325	21.51368
679.515	20.734
679.704	20.35173
679.894	24.64751
680.084	23.49984
680.273	25.32398
680.463	21.24516
680.652	21.3678
680.842	22.91844
681.031	25.18144
681.221	21.07574
681.41	24.08378
681.6	22.47128
681.789	24.23597
681.978	25.54827
682.168	23.87587
682.357	23.23559
682.547	24.13627
682.736	23.33081
682.925	26.11564
683.115	25.41142
683.304	24.6814
683.493	23.46297
683.682	23.77814
683.872	24.69016
684.061	25.95509
684.25	23.99465
684.439	28.62022
684.629	25.15969
684.818	31.31076
685.007	23.79132
685.196	22.53113
685.385	28.22317
685.574	24.28597
685.763	24.81531
685.952	24.11062
686.142	21.36138
686.331	27.48053
686.52	19.91222
686.709	28.92757
686.898	28.43688
687.087	25.88486
687.276	28.16441
687.465	27.29316
687.654	23.47476
687.842	27.93977
688.031	21.82031
688.22	28.15282
688.409	24.98046
688.598	24.84892
688.787	31.39972
688.976	24.41369
689.165	29.4753
689.353	23.44355
689.542	25.95498
689.731	27.51279
689.92	30.53258
690.108	26.661
690.297	23.47298
690.486	25.08075
690.675	26.81572
690.863	28.50231
691.052	28.76663
691.241	25.69165
691.429	25.62015
691.618	28.69789
691.806	21.64531
691.995	23.89321
692.184	24.83669
692.372	24.29783
692.561	25.22433
692.749	25.72984
692.938	34.21804
693.126	26.66491
693.315	24.51138
693.503	26.97449
693.692	28.014
693.88	27.85317
694.068	31.25456
694.257	25.78968
694.445	27.2565
694.634	20.23415
694.822	27.73965
695.01	29.29807
695.199	31.3406
695.387	29.79087
695.575	29.26382
695.763	25.04904
695.952	24.5977
696.14	21.25595
696.328	24.23276
696.516	25.8677
696.705	26.54525
696.893	26.07705
697.081	20.98562
697.269	28.03594
697.457	23.06077
697.645	22.52942
697.833	28.1108
698.021	23.82867
698.21	24.6918
698.398	24.95753
698.586	23.06979
698.774	22.52514
698.962	25.59568
699.15	23.17661
699.338	22.20261
699.526	26.74264
699.714	23.94396
699.901	24.13129
700.089	27.775
700.277	23.58558
700.465	25.41329
700.653	27.60911
700.841	26.63034
701.029	23.86319
701.217	30.00063
701.404	26.20255
701.592	30.53515
701.78	33.15211
701.968	25.54179
702.155	25.62678
702.343	22.61141
702.531	29.99315
702.718	27.36195
702.906	24.72304
703.094	24.96036
703.281	29.87967
703.469	26.47001
703.657	30.00725
703.844	37.02145
704.032	33.0466
704.219	25.6161
704.407	28.49392
704.595	31.5718
704.782	28.39347
704.97	27.40378
705.157	26.89971
705.345	33.7682
705.532	39.7288
705.719	31.06169
705.907	34.26791
706.094	30.20111
706.282	37.16407
706.469	30.69947
706.656	31.88478
706.844	30.45857
707.031	35.43579
707.218	33.24812
707.406	37.86245
707.593	35.11673
707.78	34.90466
707.968	32.8419
708.155	30.97842
708.342	35.47244
708.529	35.46045
708.716	34.48976
708.904	38.87766
709.091	35.87777
709.278	30.43904
709.465	40.338
709.652	38.7466
709.839	37.62832
710.026	33.36743
710.213	27.45544
710.4	33.14644
710.587	34.54583
710.774	36.6118
710.961	36.51496
711.148	33.11075
711.335	35.53697
711.522	32.33506
711.709	34.87238
711.896	40.37224
712.083	36.68368
712.27	30.556
712.457	34.38001
712.644	28.52492
712.831	40.90344
713.017	33.45952
713.204	35.88171
713.391	30.564
713.578	36.07969
713.765	37.67575
713.951	33.80883
714.138	43.09289
714.325	32.7484
714.512	30.96862
714.698	28.24418
714.885	35.88685
715.072	31.11859
715.258	30.74434
715.445	28.16936
715.631	34.79814
715.818	21.21076
716.005	27.89571
716.191	32.45085
716.378	28.4344
716.564	32.6803
716.751	26.39624
716.937	28.68282
717.124	33.16501
717.31	26.68714
717.497	37.97446
717.683	27.43409
717.869	38.11637
718.056	28.07693
718.242	31.53788
718.429	28.98774
718.615	25.77061
718.801	29.89164
718.988	34.28368
719.174	32.21956
719.36	27.93888
719.547	35.21837
719.733	30.30837
719.919	31.32594
720.105	32.85139
720.291	29.91624
720.478	30.79371
720.664	30.05501
720.85	27.56113
721.036	42.1825
721.222	37.22442
721.408	30.29889
721.595	37.89695
721.781	36.33028
721.967	34.97591
722.153	38.46898
722.339	33.77828
722.525	32.06938
722.711	26.56801
722.897	25.21083
723.083	29.58788
723.269	35.49597
723.455	43.64189
723.641	49.10125
723.827	32.40806
724.012	32.44511
724.198	31.21105
724.384	37.68035
724.57	33.32131
724.756	24.69581
724.942	22.59218
725.127	35.80127
725.313	36.76871
725.499	36.65545
725.685	40.03847
725.87	33.07331
726.056	27.71643
726.242	37.30849
726.428	24.37186
726.613	35.99457
726.799	29.97924
726.985	26.77215
727.17	24.55898
727.356	41.06993
727.541	27.2835
727.727	30.67451
727.913	34.61156
728.098	29.274
728.284	34.38923
728.469	26.99708
728.655	28.61639
728.84	36.18933
729.026	35.54483
729.211	35.13718
729.397	33.99955
729.582	35.54171
729.767	31.37392
729.953	33.42713
730.138	38.0905
730.323	22.49968
730.509	27.12666
730.694	39.70345
730.879	34.63526
731.065	33.26374
731.25	43.24183
731.435	35.66298
731.621	26.29033
731.806	30.20609
731.991	32.85376
732.176	26.79251
732.361	40.19557
732.547	33.51521
732.732	25.96321
732.917	43.09738
733.102	27.3284
733.287	29.38768
733.472	31.6965
733.657	31.33792
733.842	26.29013
734.027	29.8152
734.212	31.88919
734.397	29.06547
734.582	32.8924
734.767	37.65991
734.952	39.32408
735.137	21.53565
735.322	39.45012
735.507	34.6878
735.692	33.18567
735.877	43.31351
736.062	41.97285
736.247	34.94518
736.431	31.89771
736.616	38.87785
736.801	34.51136
736.986	32.25769
737.171	28.93891
737.355	27.58654
737.54	39.31423
737.725	33.26805
737.909	48.07331
738.094	30.75795
738.279	37.53902
738.463	30.55925
738.648	36.08257
738.833	35.65133
739.017	43.8719
739.202	32.0751
739.386	32.45683
739.571	28.4831
739.756	37.76402
739.94	33.28946
740.125	36.43439
740.309	29.90848
740.494	37.64752
740.678	34.46299
740.863	36.22016
741.047	33.45237
741.231	41.68795
741.416	30.63772
741.6	41.70093
741.785	29.73192
741.969	37.7582
742.153	41.8532
742.338	23.62215
742.522	32.79317
742.706	39.32426
742.89	27.85186
743.075	33.50221
743.259	41.45725
743.443	40.27725
743.627	41.50613
743.812	46.92846
743.996	25.35224
744.18	32.51669
744.364	30.59647
744.548	48.22399
744.732	32.58298
744.916	39.54392
745.1	37.4719
745.285	33.00877
745.469	38.00562
745.653	44.40095
745.837	28.52645
746.021	47.4626
746.205	41.01315
746.389	34.58073
746.573	33.11429
746.757	42.99407
746.94	31.39163
747.124	42.14339
747.308	28.83398
747.492	41.10222
747.676	28.67368
747.86	50.44769
748.044	31.34422
748.227	26.11162
748.411	58.18916
748.595	35.48895
748.779	30.58945
748.963	37.34752
749.146	35.30628
749.33	32.94147
749.514	29.74219
749.697	42.08815
749.881	31.64209
750.065	29.44693
750.248	36.44349
750.432	49.40946
750.616	34.68986
750.799	28.97448
750.983	51.10525
751.166	51.20671
751.35	26.28718
751.533	41.26085
751.717	46.07954
751.9	44.41311
752.084	34.14335
752.267	30.90445
752.451	29.73385
752.634	36.42889
752.818	39.93
753.001	40.76148
753.184	42.58166
753.368	37.98504
753.551	16.62824
753.734	30.59912
753.918	50.6372
754.101	31.492
754.284	39.97611
754.467	33.14348
754.651	31.28067
754.834	30.41344
755.017	41.62144
755.2	43.44881
755.384	29.81508
755.567	40.57777
755.75	40.94949
755.933	34.22721
756.116	40.97056
756.299	31.61714
756.482	30.28351
756.665	40.64494
756.848	35.82558
757.032	38.07974
757.215	27.38201
757.398	30.14312
757.581	30.56556
757.764	55.06328
757.947	34.85782
758.129	41.81067
758.312	20.34382
758.495	34.83574
758.678	35.10836
758.861	33.15098
759.044	48.07235
759.227	29.59538
759.41	30.16393
759.592	40.70581
759.775	33.53476
759.958	41.68902
760.141	28.26403
760.324	53.45594
760.506	46.32645
760.689	43.00972
760.872	51.22992
761.054	38.42701
761.237	35.17785
761.42	37.21812
761.602	41.12399
761.785	38.89833
761.968	44.71328
762.15	48.46736
762.333	34.84133
762.515	38.60141
762.698	33.58863
762.88	42.37616
763.063	38.69751
763.245	43.01011
763.428	30.33301
763.61	33.41816
763.793	28.99087
763.975	38.14102
764.158	34.67634
764.34	32.3892
764.522	30.87399
764.705	35.7211
764.887	45.29602
765.069	26.72765
765.252	40.55239
765.434	41.07867
765.616	36.81589
765.799	32.09617
765.981	41.63234
766.163	33.27962
766.345	44.77165
766.528	31.9072
766.71	25.33848
766.892	38.04125
767.074	45.39114
767.256	36.13397
767.438	47.99757
767.62	38.40872
767.802	53.43047
767.985	41.50218
768.167	50.31087
768.349	33.1534
768.531	41.73328
768.713	38.71768
768.895	42.64188
769.077	39.35936
769.259	57.18401
769.441	74.96718
769.623	42.45904
769.804	50.03537
769.986	47.2427
770.168	55.29171
770.35	64.28488
770.532	51.17491
770.714	54.17624
770.896	53.9245
771.077	31.11077
771.259	59.26698
771.441	49.25955
771.623	62.14651
771.804	71.16089
771.986	32.22961
772.168	40.59225
772.35	55.95142
772.531	71.26249
772.713	50.73664
772.894	63.74073
773.076	47.79145
773.258	43.80987
773.439	63.43887
773.621	70.01982
773.802	37.07716
773.984	42.68485
774.166	51.77606
774.347	65.93005
774.529	62.73185
774.71	29.30908
774.891	48.13157
775.073	41.98805
775.254	63.76255
775.436	42.87624
775.617	76.61354
775.799	43.42881
775.98	63.15501
776.161	71.13677
776.343	70.50884
776.524	47.31516
776.705	45.9508
776.886	32.89815
777.068	52.15785
777.249	99.25428
777.43	73.02762
777.611	37.29877
777.793	45.23707
777.974	69.92564
778.155	42.26658
778.336	37.48998
778.517	79.51774
778.698	40.65721
778.879	30.08129
779.061	21.5414
779.242	54.76737
779.423	54.13236
779.604	43.69139
779.785	45.80784
779.966	52.44426
780.147	62.60201
780.328	61.92247
780.509	82.54194
780.69	62.41567
780.871	43.28632
781.051	34.37769
781.232	52.37195
781.413	51.22961
781.594	45.97474
781.775	45.13234
781.956	40.84882
782.137	28.02184
782.317	44.66384
782.498	50.81773
782.679	51.50161
782.86	51.9878
783.04	41.71217
783.221	52.67406
783.402	74.1309
783.583	49.58132
783.763	59.69667
783.944	43.89938
784.124	33.60933
784.305	70.68406
784.486	58.08848
784.666	49.47727
784.847	33.73738
785.027	93.32997
785.208	43.84692
785.388	42.57405
785.569	41.9565
785.749	46.9356
785.93	45.34018
786.11	33.54279
786.291	57.65782
786.471	52.38544
786.652	59.88685
786.832	47.73163
787.012	51.82528
787.193	37.60654
787.373	50.22079
787.553	44.62082
787.734	51.88221
787.914	46.11556
788.094	62.24816
788.275	53.27989
788.455	46.09617
788.635	36.66167
788.815	52.6188
788.995	39.1455
789.176	33.85203
789.356	40.92183
789.536	47.00728
789.716	55.63492
789.896	40.26758
790.076	43.17781
790.256	54.50907
790.436	27.43739
790.616	39.60736
790.796	53.81731
790.976	46.10789
791.156	40.52106
791.336	57.39896
791.516	53.13989
791.696	46.5526
791.876	33.55877
792.056	51.26565
792.236	61.25674
792.416	60.39468
792.596	55.09034
792.776	55.7495
792.956	59.19943
793.135	72.42872
793.315	38.20125
793.495	62.81092
793.675	57.96618
793.854	58.85502
794.034	62.16009
794.214	37.73007
794.394	59.51924
794.573	64.66746
794.753	52.41579
794.933	40.41175
795.112	51.94294
795.292	62.69194
795.472	72.42922
795.651	34.32489
795.831	49.0677
796.01	47.20241
796.19	46.40632
796.369	50.22042
796.549	56.02033
796.728	48.5495
796.908	35.24726
797.087	35.82823
797.267	47.87908
797.446	36.30514
797.626	57.18885
797.805	55.90608
797.984	41.99969
798.164	58.79476
798.343	40.79692
798.522	52.47498
798.702	51.23218
798.881	37.14963
799.06	47.122
799.239	30.20867
799.419	39.25569
799.598	71.8094
799.777	55.29992
799.956	64.99564
800.136	45.73858
800.315	40.56351
800.494	54.15045
800.673	61.97845
800.852	58.63845
801.031	64.64401
801.21	57.76685
801.389	46.60069
801.568	52.58769
801.747	75.69796
801.926	49.56693
802.105	69.13111
802.284	43.35526
802.463	71.10799
802.642	51.44893
802.821	53.03249
803	68.23311
803.179	62.66442
803.358	63.48893
803.537	42.10267
803.716	51.91431
803.895	43.3163
804.073	49.75827
804.252	41.37185
804.431	55.93207
804.61	48.51712
804.789	60.74832
804.967	44.45489
805.146	44.6299
805.325	80.46952
805.503	56.17361
805.682	35.95609
805.861	95.2996
806.039	68.63976
806.218	47.46512
806.397	52.04493
806.575	50.13546
806.754	57.27614
806.932	39.7715
807.111	65.37887
807.289	61.53434
807.468	52.77708
807.646	63.96375
807.825	57.94342
808.003	53.41974
808.182	64.78169
808.36	52.16982
808.539	41.52739
808.717	70.42924
808.895	42.8355
809.074	55.04794
809.252	51.3733
809.43	59.9001
809.609	68.28583
809.787	74.09558
809.965	48.40304
810.144	51.5465
810.322	49.5238
810.5	58.27399
810.678	47.92055
810.856	82.37747
811.035	64.797
811.213	58.98559
811.391	72.77364
811.569	55.73218
811.747	104.17412
811.925	67.63688
812.103	43.66919
812.281	52.08791
812.459	77.88136
812.637	78.12699
812.816	65.12061
812.994	84.60399
813.171	74.13603
813.349	57.73275
813.527	67.85779
813.705	73.01685
813.883	93.24399
814.061	65.6743
814.239	77.72041
814.417	85.19273
814.595	62.19983
814.773	61.25166
814.95	55.48021
815.128	60.81091
815.306	50.31168
815.484	51.81629
815.662	43.38209
815.839	38.1791
816.017	48.08482
816.195	72.18405
816.372	49.93333
816.55	64.32476
816.728	78.29049
816.905	51.69776
817.083	77.44212
817.261	50.78277
817.438	101.13432
817.616	81.83713
817.793	49.69956
817.971	64.73637
818.148	65.67416
818.326	72.54652
818.503	59.67258
818.681	80.35051
818.858	51.5982
819.036	53.94898
819.213	58.57241
819.391	47.34164
819.568	46.54886
819.745	42.32495
819.923	66.60558
820.1	50.54402
820.277	43.4482
820.455	50.49173
820.632	53.02493
820.809	54.28627
820.986	40.47648
821.164	36.39165
821.341	33.97262
821.518	44.89974
821.695	36.70845
821.872	34.41938
822.05	32.09621
822.227	28.81711
822.404	29.89333
822.581	32.58379
822.758	29.89582
822.935	30.31018
823.112	32.47867
823.289	29.74083
823.466	32.73973
823.643	32.41433
823.82	35.36593
823.997	33.9164
824.174	36.73839
824.351	43.70984
824.528	42.19192
824.705	40.29617
824.882	42.2928
825.059	48.83446
825.236	40.57629
825.412	41.61475
825.589	46.519
825.766	58.6652
825.943	41.88545
826.12	46.2372
826.296	38.4669
826.473	43.00141
826.65	43.25895
826.827	48.19515
827.003	36.98647
827.18	39.86051
827.357	43.25376
827.533	38.88302
827.71	28.97488
827.887	35.98549
828.063	39.38681
828.24	35.77595
828.416	42.18088
828.593	37.8996
828.769	47.16576
828.946	47.9437
829.122	49.86586
829.299	47.85127
829.475	35.87305
829.652	48.72319
829.828	67.81426
830.005	49.42042
830.181	63.22138
830.357	50.4469
830.534	66.0989
830.71	54.10274
830.886	62.92693
831.063	62.84163
831.239	73.13962
831.415	42.52518
831.592	75.95751
831.768	52.6725
831.944	48.66544
832.12	78.71404
832.296	74.53983
832.473	65.12471
832.649	47.36698
832.825	64.87712
833.001	44.44776
833.177	58.15442
833.353	53.40416
833.529	36.72566
833.705	50.2234
833.881	37.77982
834.058	36.98054
834.234	40.36084
834.41	40.16313
834.586	34.09054
834.761	37.92036
834.937	41.55373
835.113	41.18889
835.289	38.45293
835.465	42.24909
835.641	39.80452
835.817	42.55786
835.993	63.44545
836.169	40.30998
836.344	53.79421
836.52	58.47043
836.696	54.38863
836.872	48.25563
837.048	104.1188
837.223	50.63655
837.399	83.87898
837.575	67.83679
837.75	68.4008
837.926	85.8244
838.102	119.90825
838.277	99.50337
838.453	130.99021
838.628	128.29107
838.804	58.40233
838.98	112.69914
839.155	66.92855
839.331	87.75852
839.506	64.55519
839.682	63.69627
839.857	85.0912
840.033	96.16336
840.208	53.57573
840.384	34.23397
840.559	53.7125
840.734	74.41443
840.91	93.21542
841.085	63.30875
841.26	60.88633
841.436	57.28775
841.611	58.90685
841.786	80.53977
841.962	99.80504
842.137	67.12882
842.312	53.05411
842.487	61.37391
842.663	54.78135
842.838	62.55322
843.013	170.98283
843.188	90.30931
843.363	81.63201
843.538	146.96976
843.714	145.22986
843.889	162.36119
844.064	161.14829
844.239	132.59619
844.414	146.73112
844.589	106.20816
844.764	179.45635
844.939	180.95882
845.114	192.04875
845.289	185.5264
845.464	243.65724
845.639	168.27597
845.814	97.85041
845.989	105.24924
846.163	128.5228
846.338	132.88983
846.513	185.59024
846.688	125.87381
846.863	119.06011
847.038	115.02759
847.212	127.3381
847.387	129.55587
847.562	135.0257
847.737	166.57054
847.911	76.9953
848.086	83.8401
848.261	273.56635
848.435	119.57835
848.61	165.73957
848.785	92.50186
848.959	181.18781
849.134	237.86313
849.308	240.83757
849.483	139.09341
849.658	206.12776
849.832	118.6955
850.007	105.6205
850.181	269.78541
850.356	109.56467
850.53	252.19178
850.705	91.31942
850.879	58.39004
851.053	130.92449
851.228	122.15603
851.402	146.93589
851.577	185.6264
851.751	198.82661
851.925	142.13099
852.099	74.13687
852.274	105.73905
852.448	125.82365
852.622	160.74941
852.797	135.14652
852.971	125.69556
853.145	136.44271
853.319	367.58765
853.493	195.15689
853.668	116.89759
853.842	237.23493
854.016	198.96557
854.19	222.83088
854.364	146.15236
854.538	153.29722
854.712	194.1457
854.886	129.5133
855.06	125.31994
855.234	60.37124
855.408	220.90989
855.582	185.66298
855.756	179.7111
855.93	238.04944
856.104	168.5432
856.278	186.18952
856.452	141.42307
856.626	181.95049
856.8	282.70409
856.973	174.05864
857.147	161.56343
857.321	160.24327
857.495	188.43173
857.669	130.98194
857.842	117.65523
858.016	201.09374
858.19	110.32647
858.364	304.12593
858.537	126.97642
858.711	141.3363
858.885	136.73165
859.058	115.70169
859.232	69.57035
859.405	82.2852
859.579	188.36496
859.753	153.48777
859.926	110.37746
860.1	89.6295
860.273	136.91281
860.447	227.98775
860.62	126.35045
860.794	265.49234
860.967	159.14967
861.141	195.28378
861.314	271.04656
861.487	170.83545
861.661	219.8035
861.834	215.34884
862.008	192.19884
862.181	144.15858
862.354	150.94494
862.528	161.93235
862.701	121.50736
862.874	89.18286
863.047	130.33125
863.221	124.96548
863.394	73.10982
863.567	225.78504
863.74	60.40292
863.913	186.28717
864.087	158.95878
864.26	189.59164
864.433	139.5498
864.606	245.65045
864.779	144.74608
864.952	76.62765
865.125	118.78361
865.298	135.62401
865.471	149.75268
865.644	276.09385
865.817	228.99271
865.99	183.2567
866.163	210.78196
866.336	131.95978
866.509	147.18769
866.682	129.45071
866.855	204.46065
867.028	96.31366
867.2	179.88107
867.373	68.47319
867.546	157.55962
867.719	277.16538
867.892	181.13023
868.064	110.324
868.237	171.3648
868.41	146.21335
868.583	94.5237
868.755	102.80491
868.928	148.8028
869.101	291.77753
869.273	208.23316
869.446	178.96341
869.619	206.39642
869.791	141.88014
869.964	204.84036
870.136	189.13342
870.309	157.68173
870.481	157.99586
870.654	78.46736
870.826	157.36066
870.999	125.83414
871.171	197.63423
871.344	126.16063
871.516	136.0885
871.689	116.04549
871.861	143.29292
872.033	109.12516
872.206	133.11876
872.378	196.43497
872.55	131.56773
872.723	89.04645
872.895	132.56206
873.067	203.76174
873.24	220.40464
873.412	125.36105
873.584	134.88808
873.756	125.29503
873.928	168.83029
874.101	172.33153
874.273	179.61203
874.445	72.91371
874.617	94.28421
874.789	160.14008
874.961	136.77423
875.133	179.67402
875.305	148.79011
875.477	109.00519
875.649	91.9369
875.821	104.19595
875.993	245.12724
876.165	99.78632
876.337	166.788
876.509	137.96331
876.681	165.63706
876.853	157.63313
877.025	163.91811
877.197	108.75818
877.369	105.9132
877.541	195.37148
877.712	62.19027
877.884	103.6491
878.056	179.37827
878.228	103.44533
878.4	172.68635
878.571	102.82082
878.743	79.42797
878.915	162.93875
879.086	100.5006
879.258	119.75226
879.43	109.48413
879.601	99.3841
879.773	102.58097
879.945	36.32409
880.116	52.07642
880.288	37.94811
880.459	40.37435
880.631	34.68168
880.802	38.92684
880.974	37.65175
881.145	31.40943
881.317	37.02984
881.488	31.7235
881.66	33.86298
881.831	32.50632
882.002	39.69703
882.174	33.49371
882.345	38.41354
882.517	28.87267
882.688	42.84042
882.859	39.60634
883.03	53.25809
883.202	51.3675
883.373	48.68452
883.544	48.96099
883.715	71.74798
883.887	60.76059
884.058	59.13562
884.229	74.7619
884.4	75.94941
884.571	80.93151
884.742	78.12546
884.914	80.39056
885.085	104.4351
885.256	124.40022
885.427	104.92938
885.598	119.53581
885.769	127.81141
885.94	123.66369
886.111	91.3658
886.282	142.09986
886.453	116.63948
886.624	88.16573
886.795	135.75415
886.966	117.59385
887.136	145.09581
887.307	111.40362
887.478	177.70757
887.649	159.37934
887.82	165.96018
887.991	139.08375
888.161	176.86274
888.332	170.48234
888.503	99.58796
888.674	222.06612
888.844	235.11683
889.015	188.78587
889.186	98.83611
889.356	223.78726
889.527	98.5613
889.698	366.72248
889.868	137.1401
890.039	165.28465
890.209	143.24917
890.38	194.54156
890.551	158.6711
890.721	230.17223
890.892	193.00269
891.062	138.41396
891.233	166.27568
891.403	133.90625
891.574	118.74666
891.744	140.10884
891.914	183.49045
892.085	153.09048
892.255	62.52206
892.425	231.14199
892.596	187.04772
892.766	177.00387
892.936	225.61767
893.107	190.15918
893.277	113.37918
893.447	87.89688
893.618	69.18485
893.788	132.03537
893.958	81.24766
894.128	83.9975
894.298	83.19626
894.468	112.42413
894.639	57.14529
894.809	49.2923
894.979	66.71403
895.149	72.43949
895.319	61.70905
895.489	82.91139
895.659	98.11336
895.829	70.87048
895.999	73.81445
896.169	61.07986
896.339	73.16536
896.509	130.10344
896.679	147.07464
896.849	143.41893
897.019	189.68572
897.189	161.01042
897.358	138.32263
897.528	211.28324
897.698	79.39992
897.868	184.87914
898.038	295.43429
898.208	274.71688
898.377	105.31195
898.547	284.52944
898.717	430.13987
898.886	186.20945
899.056	281.721
899.226	407.56187
899.395	252.86167
899.565	313.44258
899.735	213.97728
899.904	353.64042
900.074	299.18099
900.244	160.3723
900.413	526.12868
900.583	144.98338
900.752	215.94444
900.922	321.04305
901.091	54.96645
901.261	299.24359
901.43	274.05366
901.599	278.5825
901.769	559.67487
901.938	309.0255
902.108	281.72049
902.277	376.17712
902.446	125.64852
902.616	132.57222
902.785	192.67304
902.954	305.35627
903.124	201.8035
903.293	165.27775
903.462	101.48934
903.631	129.26745
903.801	101.799
903.97	59.57843
904.139	92.31644
904.308	73.5908
904.477	63.51136
904.646	44.077
904.816	61.50558
904.985	79.39964
905.154	116.08508
