Data from WindowProjectSample_Transmission__6__00006__02016932855209398.txt Node

Date: Mon May 05 16:41:28 EDT 2025
User: jessi
Spectrometer: SR400872
Trigger mode: 0
Integration Time (sec): 5.000010E-1
Scans to average: 20
Electric dark correction enabled: true
Nonlinearity correction enabled: true
Boxcar width: 0
XAxis mode: Wavelengths
Number of Pixels in Spectrum: 3648
>>>>>Begin Spectral Data<<<<<
184.909	19081.11773
185.132	-4731.94614
185.355	-2763.41469
185.578	-16277.40586
185.801	1148.08094
186.024	9493.01055
186.247	-1708.78603
186.47	1074.82362
186.693	377.73734
186.916	268.07785
187.139	-3507.72273
187.362	3101.75398
187.585	3757.27619
187.808	3191.91418
188.031	18.77937
188.254	-46659.51509
188.476	-1566.97873
188.699	5995.31235
188.922	574.42488
189.145	-14347.27956
189.368	-590.12224
189.591	-1169.59997
189.813	2923.6293
190.036	-43878.32892
190.259	-824.48525
190.482	-4279.49784
190.705	6673.84106
190.927	-2443.2709
191.15	12565.25412
191.373	3021.2231
191.595	-8457.2878
191.818	-3932.12435
192.041	-6596.86842
192.263	-3043.45552
192.486	-843.3808
192.709	-3688.4782
192.931	7619.24769
193.154	-26700.0833
193.377	-2612.04203
193.599	-2445.95773
193.822	-8844.68301
194.044	-1877.30338
194.267	1168.35371
194.489	201.66006
194.712	-41639.9592
194.934	-30280.23688
195.157	1164.69145
195.379	1375.56782
195.602	-6935.88654
195.824	-1245.74125
196.047	-8246.2195
196.269	2548.24733
196.492	-5596.3314
196.714	26940.80856
196.936	-7601.78268
197.159	-1138.77505
197.381	1194.33105
197.604	448.28918
197.826	11360.71557
198.048	-10366.76142
198.271	-2608.58719
198.493	7116.85204
198.715	2141.40272
198.938	-440.76285
199.16	7070.2186
199.382	-97575.33115
199.604	2602.18466
199.827	-1000.81396
200.049	-2807.25074
200.271	13180.01631
200.493	1130.34493
200.715	-35578.03179
200.938	-5827.46152
201.16	-4016.99364
201.382	18921.31845
201.604	2162.03375
201.826	2131.80279
202.048	-1799.45288
202.27	-1700.58332
202.492	-35127.94541
202.715	2761.74924
202.937	-4163.78711
203.159	-5622.18771
203.381	1393.68275
203.603	6462.77868
203.825	5939.39603
204.047	1978.39685
204.269	-2721.56018
204.491	2126.8828
204.713	5496.76096
204.935	-462789.01045
205.156	1155.60827
205.378	-2593.06175
205.6	1592.5568
205.822	141356.01262
206.044	-943.16693
206.266	1441.13458
206.488	4425.64831
206.71	-5053.93951
206.932	1106.36357
207.153	11405.45067
207.375	-6353.95918
207.597	-35795.92032
207.819	-2682.0025
208.041	2264.28094
208.262	490.93234
208.484	685.90097
208.706	-741.61424
208.927	-838.13629
209.149	480.725
209.371	-2741.45597
209.593	-305.72904
209.814	-788.45527
210.036	444.25159
210.258	-592.01078
210.479	1767.40625
210.701	1541.44761
210.922	3210.56532
211.144	-3691.25989
211.366	1940.93462
211.587	5702.30232
211.809	-7677.98035
212.03	2316.31503
212.252	424.46312
212.473	1973.18659
212.695	-6416.28168
212.916	2688.30198
213.138	-657.54437
213.359	3484.33907
213.581	4982.08181
213.802	-691.6641
214.024	1085.86811
214.245	2015.98817
214.466	2428.15277
214.688	-3000.62137
214.909	-1132.3057
215.131	-1620.44078
215.352	-3133.94744
215.573	13736.80891
215.795	4937.34854
216.016	5357.11762
216.237	793.98136
216.459	3394.64341
216.68	1762.76854
216.901	4646.28831
217.122	-2975.10296
217.344	-11208.47771
217.565	3307.05944
217.786	8393.06416
218.007	17266.67128
218.228	-716.50702
218.45	5491.99676
218.671	778.06891
218.892	35683.71656
219.113	1435.81985
219.334	-272.90907
219.555	9547.52077
219.776	2857.35932
219.997	20462.71604
220.219	2721.91887
220.44	-10069.69788
220.661	456.82398
220.882	1388.81076
221.103	-1080.5442
221.324	2175.49939
221.545	2136.64601
221.766	-8175.04754
221.987	899.13499
222.208	1565.92066
222.429	4064.5894
222.65	228.5538
222.87	17344.3877
223.091	689.59654
223.312	573.80074
223.533	1350.08457
223.754	1398.72859
223.975	1249.35116
224.196	1876.24696
224.417	1266.36578
224.637	586.85969
224.858	68.67242
225.079	1043.38068
225.3	621.69443
225.521	3599.61004
225.741	469.75841
225.962	505.76444
226.183	121.63146
226.404	630.83625
226.624	436.1179
226.845	613.0137
227.066	373.68028
227.286	240.15435
227.507	113.94268
227.728	109.71247
227.948	230.26269
228.169	72.86255
228.389	83.07309
228.61	45.6732
228.831	61.55954
229.051	0.03715
229.272	38.03341
229.492	53.41764
229.713	14.21576
229.933	35.20455
230.154	30.2227
230.374	50.91417
230.595	36.13629
230.815	21.57159
231.036	37.42975
231.256	-8.50312
231.477	65.91384
231.697	35.88454
231.917	37.23332
232.138	51.00734
232.358	101.2822
232.579	101.24974
232.799	19.70142
233.019	95.53154
233.24	109.08118
233.46	36.15012
233.68	61.43039
233.901	45.00001
234.121	22.27931
234.341	10.6757
234.561	-0.16682
234.782	21.90319
235.002	63.58189
235.222	-4.19341
235.442	60.13421
235.662	31.58318
235.883	58.78253
236.103	47.68774
236.323	37.67883
236.543	27.08072
236.763	36.69839
236.983	40.17516
237.203	38.80078
237.423	52.07094
237.643	82.24647
237.864	68.61813
238.084	18.49193
238.304	24.33807
238.524	43.43817
238.744	35.78525
238.964	73.33454
239.184	58.10537
239.404	60.12573
239.624	33.29829
239.843	56.32639
240.063	33.94212
240.283	20.90638
240.503	25.19322
240.723	23.44856
240.943	13.31271
241.163	18.96996
241.383	14.08071
241.603	6.59101
241.822	9.37875
242.042	5.61132
242.262	7.72849
242.482	9.03714
242.702	9.93092
242.921	2.21503
243.141	6.45627
243.361	5.41346
243.581	8.56331
243.8	6.97871
244.02	5.14577
244.24	8.21996
244.459	8.42326
244.679	17.09102
244.899	10.92471
245.118	11.54837
245.338	11.57687
245.558	13.64178
245.777	7.22107
245.997	10.05813
246.216	9.91232
246.436	6.12696
246.655	4.50495
246.875	3.01592
247.094	5.95984
247.314	2.02205
247.533	3.42636
247.753	4.04195
247.972	2.95957
248.192	0.97891
248.411	1.77654
248.631	3.3296
248.85	4.42743
249.07	3.65669
249.289	5.44187
249.508	4.79274
249.728	6.15161
249.947	6.60742
250.166	8.08249
250.386	3.81968
250.605	6.69194
250.824	10.0393
251.044	7.27912
251.263	27.11641
251.482	14.04836
251.701	11.0733
251.921	-0.38863
252.14	2.98701
252.359	3.6489
252.578	9.3455
252.798	3.32821
253.017	8.52431
253.236	4.05323
253.455	5.16921
253.674	9.4716
253.893	4.62139
254.112	7.83872
254.331	10.15052
254.551	8.33774
254.77	3.0737
254.989	12.48555
255.208	9.10573
255.427	14.04481
255.646	11.23135
255.865	20.49438
256.084	7.89512
256.303	9.41882
256.522	12.63147
256.741	2.7406
256.96	2.54512
257.179	7.89742
257.397	10.48192
257.616	5.87723
257.835	5.53726
258.054	14.01967
258.273	9.8286
258.492	10.58502
258.711	5.99616
258.93	2.94737
259.148	4.44584
259.367	4.37645
259.586	5.33709
259.805	2.22822
260.023	4.89222
260.242	3.61935
260.461	2.68646
260.68	1.41798
260.898	4.25315
261.117	1.36505
261.336	0.83938
261.554	3.28198
261.773	3.47797
261.992	0.74523
262.21	3.20559
262.429	3.28451
262.648	6.86322
262.866	7.71291
263.085	4.90957
263.303	4.66742
263.522	8.11784
263.74	8.29775
263.959	14.35213
264.178	6.10733
264.396	6.16301
264.615	4.45894
264.833	9.75894
265.051	8.48579
265.27	10.2225
265.488	10.32352
265.707	5.91217
265.925	10.04774
266.144	4.41827
266.362	5.73642
266.58	5.17381
266.799	4.61273
267.017	5.80419
267.235	5.28211
267.454	3.03326
267.672	1.57245
267.89	3.81611
268.109	4.27965
268.327	4.16441
268.545	1.18801
268.763	3.56223
268.982	1.3559
269.2	3.83196
269.418	2.9616
269.636	1.50427
269.854	4.46975
270.073	2.94977
270.291	1.81256
270.509	1.47593
270.727	4.14404
270.945	6.79772
271.163	6.59426
271.381	1.48414
271.599	3.11555
271.817	5.16933
272.036	1.73339
272.254	2.94711
272.472	2.29179
272.69	2.31326
272.908	2.21962
273.126	4.32473
273.344	5.01733
273.562	1.77305
273.779	2.45972
273.997	3.63204
274.215	3.98182
274.433	2.73203
274.651	4.07897
274.869	4.36463
275.087	2.57626
275.305	3.7439
275.523	2.50379
275.74	2.76871
275.958	5.06589
276.176	7.67847
276.394	2.31297
276.612	2.99535
276.829	3.03498
277.047	2.4382
277.265	3.01785
277.483	3.47152
277.7	4.13133
277.918	3.25804
278.136	5.89477
278.353	2.68222
278.571	1.92274
278.789	4.00123
279.006	0.88344
279.224	3.11682
279.442	4.92269
279.659	3.53958
279.877	2.24218
280.094	5.55593
280.312	1.1454
280.529	3.29683
280.747	0.84528
280.964	2.4152
281.182	5.66405
281.399	2.60485
281.617	3.5562
281.834	2.44276
282.052	1.7416
282.269	2.93141
282.487	2.26805
282.704	1.9973
282.921	2.28598
283.139	3.109
283.356	3.83646
283.574	3.59413
283.791	1.72074
284.008	5.32511
284.226	2.70795
284.443	3.10327
284.66	4.24911
284.877	3.3729
285.095	1.91473
285.312	1.56911
285.529	0.90883
285.746	0.67821
285.964	1.87918
286.181	1.29584
286.398	1.79277
286.615	2.53445
286.832	2.43925
287.05	0.61754
287.267	1.75396
287.484	1.79575
287.701	2.3948
287.918	2.52061
288.135	2.4919
288.352	1.18586
288.569	1.41341
288.786	2.33602
289.003	1.99156
289.22	2.78426
289.437	1.54722
289.654	2.74961
289.871	2.85249
290.088	2.71023
290.305	2.06702
290.522	1.65258
290.739	1.96198
290.956	3.01018
291.173	3.23053
291.39	3.12568
291.607	2.16307
291.824	1.41517
292.04	1.14209
292.257	2.67574
292.474	3.06418
292.691	1.94394
292.908	0.87126
293.125	1.64059
293.341	1.04538
293.558	4.61707
293.775	1.81727
293.992	1.96296
294.208	0.80543
294.425	1.41632
294.642	1.9067
294.858	2.82248
295.075	0.79305
295.292	2.0398
295.508	2.36175
295.725	4.01993
295.942	1.89939
296.158	1.63617
296.375	2.34998
296.591	2.01987
296.808	2.19303
297.024	2.48287
297.241	2.78341
297.458	3.02258
297.674	1.00931
297.891	2.48039
298.107	2.43791
298.323	1.95227
298.54	3.96754
298.756	2.27315
298.973	1.67491
299.189	4.09709
299.406	2.39118
299.622	3.78531
299.838	3.87962
300.055	3.77388
300.271	2.04542
300.487	2.4266
300.704	2.788
300.92	2.23142
301.136	5.56537
301.353	3.95797
301.569	3.34459
301.785	3.6391
302.001	4.20974
302.218	3.74236
302.434	3.91922
302.65	2.50112
302.866	3.27269
303.083	5.59368
303.299	5.58817
303.515	3.96047
303.731	4.09859
303.947	2.70106
304.163	3.356
304.379	3.97514
304.595	4.27275
304.812	3.24743
305.028	3.36669
305.244	3.77492
305.46	4.59912
305.676	4.70675
305.892	5.02794
306.108	4.56419
306.324	3.59836
306.54	5.77423
306.756	4.15273
306.972	4.39601
307.187	4.01059
307.403	5.16081
307.619	3.70454
307.835	5.02154
308.051	5.38778
308.267	3.24973
308.483	5.214
308.699	4.64227
308.914	4.21334
309.13	4.00003
309.346	3.23886
309.562	3.37884
309.778	3.23917
309.993	4.80717
310.209	4.53123
310.425	3.54235
310.641	4.38728
310.856	3.6373
311.072	3.63073
311.288	4.43157
311.503	4.66766
311.719	3.08447
311.935	3.17164
312.15	4.98585
312.366	4.60526
312.581	4.80008
312.797	4.62884
313.013	5.22519
313.228	3.87537
313.444	4.27638
313.659	3.7852
313.875	4.79568
314.09	4.30501
314.306	5.69527
314.521	4.99573
314.737	5.07297
314.952	4.35926
315.168	4.4442
315.383	4.6201
315.599	4.0689
315.814	4.187
316.029	4.90489
316.245	3.48828
316.46	2.98688
316.675	5.29787
316.891	5.74181
317.106	6.56599
317.321	4.59615
317.537	5.04733
317.752	5.28473
317.967	5.05831
318.183	3.5763
318.398	4.0448
318.613	5.18974
318.828	5.74881
319.043	4.99961
319.259	4.35522
319.474	4.61762
319.689	5.55128
319.904	3.06259
320.119	5.26866
320.334	4.66031
320.549	4.25615
320.765	5.19852
320.98	4.78133
321.195	4.73935
321.41	4.48182
321.625	5.09031
321.84	5.98556
322.055	5.91849
322.27	3.92003
322.485	3.4474
322.7	4.90991
322.915	4.9809
323.13	3.99072
323.345	5.974
323.56	5.71203
323.775	5.15223
323.989	5.069
324.204	4.76925
324.419	5.55144
324.634	3.70792
324.849	4.5684
325.064	7.7412
325.279	5.5913
325.493	4.97423
325.708	5.29557
325.923	4.09659
326.138	4.47121
326.352	6.0725
326.567	5.47487
326.782	4.31965
326.997	4.42197
327.211	5.27329
327.426	4.88774
327.641	4.43539
327.855	3.5179
328.07	5.27522
328.285	6.2868
328.499	4.20525
328.714	4.92071
328.928	5.17126
329.143	4.71529
329.358	5.73686
329.572	5.61963
329.787	5.89772
330.001	6.88834
330.216	3.75512
330.43	6.52752
330.645	5.91981
330.859	5.56803
331.074	3.99439
331.288	5.04544
331.503	6.17047
331.717	3.91833
331.931	4.9666
332.146	5.25958
332.36	6.43688
332.575	5.1289
332.789	5.04606
333.003	5.2302
333.218	5.34919
333.432	4.28218
333.646	5.76651
333.86	6.4077
334.075	6.22108
334.289	4.47984
334.503	3.8902
334.717	5.42961
334.932	5.24651
335.146	5.78528
335.36	4.32096
335.574	5.42842
335.788	5.18513
336.003	5.89169
336.217	5.67068
336.431	5.5249
336.645	4.51969
336.859	4.0416
337.073	4.97272
337.287	5.42863
337.501	4.07594
337.715	5.53376
337.929	5.75769
338.143	4.24053
338.357	4.94531
338.571	4.72036
338.785	5.84683
338.999	4.83659
339.213	4.65951
339.427	4.1923
339.641	6.21323
339.855	4.73728
340.069	4.50474
340.283	5.8815
340.497	6.626
340.711	5.50851
340.924	5.19419
341.138	4.30872
341.352	4.19151
341.566	5.47542
341.78	4.01555
341.993	4.89549
342.207	4.55248
342.421	5.37271
342.635	5.1047
342.848	4.9761
343.062	3.42517
343.276	4.60932
343.49	6.73644
343.703	4.67272
343.917	6.14311
344.131	6.20835
344.344	4.5177
344.558	5.07206
344.771	4.2705
344.985	6.42459
345.199	6.64482
345.412	5.54301
345.626	5.63975
345.839	4.19226
346.053	4.36684
346.266	4.61524
346.48	5.82748
346.693	5.62288
346.907	5.50069
347.12	4.42325
347.334	5.40298
347.547	5.53315
347.76	5.19991
347.974	6.11668
348.187	5.45976
348.401	4.96876
348.614	4.54481
348.827	4.928
349.041	5.55052
349.254	3.89964
349.467	4.96837
349.681	4.65014
349.894	4.65469
350.107	6.27997
350.32	6.7789
350.534	4.24346
350.747	4.95079
350.96	4.69362
351.173	4.85012
351.386	5.15295
351.6	4.7767
351.813	4.9119
352.026	5.0659
352.239	4.48924
352.452	5.04822
352.665	6.25571
352.878	5.32834
353.092	6.94073
353.305	5.96861
353.518	5.56367
353.731	4.69675
353.944	6.26705
354.157	5.09828
354.37	4.96258
354.583	4.6775
354.796	4.5126
355.009	6.0919
355.222	5.77808
355.435	5.55128
355.647	6.28838
355.86	4.9403
356.073	5.6786
356.286	5.10696
356.499	6.22426
356.712	6.00361
356.925	6.15505
357.138	6.19967
357.35	5.05065
357.563	5.45888
357.776	5.88033
357.989	5.69772
358.201	6.148
358.414	5.91151
358.627	6.79938
358.84	5.61264
359.052	4.91744
359.265	5.16086
359.478	6.52333
359.69	4.14181
359.903	6.39432
360.116	6.58303
360.328	4.82664
360.541	6.49644
360.753	5.46588
360.966	5.8287
361.179	5.91683
361.391	5.77558
361.604	5.73001
361.816	5.86799
362.029	5.8682
362.241	5.66299
362.454	5.99263
362.666	5.59266
362.879	6.63358
363.091	5.90565
363.304	5.82239
363.516	5.87976
363.728	5.47039
363.941	6.39487
364.153	6.18843
364.366	4.74159
364.578	5.36847
364.79	6.15491
365.003	6.15804
365.215	5.66168
365.427	6.54977
365.639	6.72103
365.852	6.09035
366.064	7.48777
366.276	5.95999
366.488	6.30879
366.701	6.00601
366.913	6.00128
367.125	5.98397
367.337	5.50964
367.549	5.84893
367.762	6.1813
367.974	6.15864
368.186	6.03961
368.398	6.67387
368.61	6.51609
368.822	6.62623
369.034	6.05764
369.246	6.70829
369.458	8.34647
369.67	5.72502
369.882	7.38256
370.094	5.12181
370.306	7.38985
370.518	6.25504
370.73	5.86301
370.942	6.08176
371.154	6.47568
371.366	6.24844
371.578	6.84659
371.79	6.32325
372.002	7.25041
372.214	7.98564
372.425	6.56839
372.637	7.55516
372.849	6.80041
373.061	5.28285
373.273	6.88662
373.484	6.71995
373.696	7.26386
373.908	5.2852
374.12	7.33662
374.331	6.98947
374.543	6.12884
374.755	6.1254
374.967	6.86289
375.178	7.38581
375.39	6.48952
375.602	6.93512
375.813	5.85808
376.025	6.39404
376.236	7.11147
376.448	7.36429
376.66	6.9285
376.871	7.10185
377.083	7.76122
377.294	8.4049
377.506	6.84668
377.717	7.99167
377.929	7.40752
378.14	7.10721
378.352	7.46815
378.563	7.68351
378.775	8.1936
378.986	6.76293
379.197	7.45723
379.409	6.75425
379.62	7.73476
379.832	7.54737
380.043	7.2324
380.254	7.58535
380.466	6.74146
380.677	9.35091
380.888	8.66794
381.1	9.23397
381.311	9.33014
381.522	7.68027
381.733	9.35467
381.945	7.49174
382.156	7.53227
382.367	7.33813
382.578	9.4233
382.789	9.61259
383.001	7.31348
383.212	8.97609
383.423	9.00749
383.634	8.69984
383.845	8.49486
384.056	7.85467
384.267	8.10278
384.478	8.06279
384.69	7.36302
384.901	8.45273
385.112	8.23117
385.323	9.31615
385.534	8.41926
385.745	8.38485
385.956	8.40615
386.167	7.80299
386.378	8.57826
386.588	7.96102
386.799	7.84328
387.01	7.63158
387.221	8.99718
387.432	8.50796
387.643	9.4083
387.854	8.30804
388.065	8.31793
388.275	8.49881
388.486	8.11879
388.697	8.53783
388.908	8.3268
389.119	9.27106
389.329	9.43816
389.54	8.79553
389.751	8.81895
389.962	9.63331
390.172	8.81322
390.383	8.66308
390.594	8.48359
390.804	8.62696
391.015	8.50331
391.226	9.11695
391.436	9.27096
391.647	9.29147
391.858	9.48925
392.068	8.27178
392.279	8.55882
392.489	9.4561
392.7	9.79084
392.91	8.83937
393.121	8.78839
393.331	9.5024
393.542	10.0886
393.752	9.52709
393.963	9.63968
394.173	9.54612
394.384	9.64016
394.594	9.43959
394.804	8.85882
395.015	9.49712
395.225	9.7742
395.436	8.94908
395.646	9.78475
395.856	9.27992
396.067	8.63001
396.277	9.97891
396.487	9.75277
396.697	9.91265
396.908	9.78247
397.118	9.87507
397.328	9.62256
397.538	10.17471
397.749	9.20113
397.959	10.2805
398.169	9.94315
398.379	8.9172
398.589	10.03664
398.8	9.88347
399.01	9.82289
399.22	9.62866
399.43	11.05918
399.64	9.89693
399.85	10.22719
400.06	10.01526
400.27	9.41954
400.48	9.8441
400.69	10.76309
400.9	9.72158
401.11	9.16585
401.32	10.39709
401.53	9.6205
401.74	10.92852
401.95	10.29418
402.16	9.73173
402.37	10.10647
402.58	9.80722
402.79	10.49915
403	10.76843
403.209	9.85696
403.419	10.92805
403.629	9.73631
403.839	10.99619
404.049	10.93774
404.258	10.3441
404.468	10.05143
404.678	10.89023
404.888	11.20885
405.097	10.3908
405.307	10.47071
405.517	11.02166
405.727	10.89338
405.936	10.5074
406.146	10.67924
406.356	11.35001
406.565	10.57812
406.775	10.49451
406.984	10.42977
407.194	11.65508
407.404	10.57142
407.613	11.00314
407.823	11.06582
408.032	11.27438
408.242	11.38042
408.451	10.47769
408.661	10.64533
408.87	11.84778
409.08	10.194
409.289	11.04692
409.499	11.03012
409.708	11.03415
409.918	9.84185
410.127	11.19685
410.336	11.94767
410.546	11.50287
410.755	10.88783
410.964	10.97612
411.174	10.62727
411.383	11.31783
411.592	11.25665
411.802	10.68414
412.011	11.59544
412.22	11.05269
412.429	12.15716
412.639	11.97058
412.848	11.59351
413.057	12.0104
413.266	11.87967
413.475	11.31314
413.685	11.61444
413.894	11.87444
414.103	11.90118
414.312	11.85048
414.521	11.22165
414.73	11.59474
414.939	12.6939
415.148	11.96002
415.357	11.78566
415.566	11.47486
415.776	11.51735
415.985	11.60987
416.194	12.27141
416.403	12.95838
416.611	11.16111
416.82	11.71456
417.029	12.15346
417.238	11.82391
417.447	11.57992
417.656	11.98455
417.865	11.76187
418.074	12.02841
418.283	12.24612
418.492	12.74209
418.7	12.59507
418.909	13.6128
419.118	12.91212
419.327	13.32002
419.536	13.31799
419.744	13.58924
419.953	14.83162
420.162	15.08135
420.371	14.77647
420.579	15.56815
420.788	16.42725
420.997	16.40724
421.205	16.99926
421.414	16.75923
421.623	17.0158
421.831	16.55818
422.04	17.06188
422.249	16.10438
422.457	16.42176
422.666	15.48052
422.874	16.23303
423.083	16.36189
423.291	16.39181
423.5	16.38158
423.708	16.8374
423.917	17.30904
424.125	16.96288
424.334	16.96395
424.542	18.35578
424.751	18.07882
424.959	17.62978
425.167	17.63904
425.376	17.38532
425.584	15.97827
425.793	15.79031
426.001	14.86394
426.209	14.57572
426.418	13.47776
426.626	13.02151
426.834	12.91268
427.042	13.24174
427.251	12.92676
427.459	13.58343
427.667	13.32389
427.875	12.60578
428.084	12.87245
428.292	13.7431
428.5	13.5548
428.708	12.59872
428.916	12.707
429.124	13.16771
429.333	13.00963
429.541	13.12982
429.749	13.31633
429.957	13.17805
430.165	14.75992
430.373	12.46632
430.581	13.43949
430.789	14.23746
430.997	13.23989
431.205	12.86684
431.413	13.60565
431.621	13.28556
431.829	13.75327
432.037	13.34723
432.245	13.6498
432.453	13.72833
432.661	13.52635
432.869	14.50723
433.076	13.20903
433.284	13.59747
433.492	14.07771
433.7	14.25813
433.908	13.59038
434.116	13.78028
434.323	13.84354
434.531	13.64577
434.739	14.03552
434.947	14.17622
435.154	14.22419
435.362	13.81482
435.57	13.68955
435.778	13.40844
435.985	13.90282
436.193	13.56353
436.401	14.39669
436.608	13.70709
436.816	13.65156
437.023	14.54531
437.231	14.73944
437.439	13.977
437.646	14.17372
437.854	14.02243
438.061	14.23589
438.269	13.80558
438.476	14.27274
438.684	14.01589
438.891	14.00013
439.099	13.73641
439.306	13.6544
439.514	13.67211
439.721	14.84151
439.929	14.62548
440.136	15.64376
440.343	15.68413
440.551	15.70402
440.758	17.25068
440.965	16.00798
441.173	15.79093
441.38	15.69247
441.587	15.1956
441.795	15.07505
442.002	14.47439
442.209	14.35217
442.416	14.49291
442.624	14.51461
442.831	14.41177
443.038	13.9934
443.245	13.76129
443.452	14.20129
443.66	14.49027
443.867	14.02467
444.074	14.04145
444.281	14.01014
444.488	14.21712
444.695	14.3793
444.902	14.31006
445.109	15.48153
445.316	15.52715
445.523	16.19919
445.73	16.58708
445.937	17.58571
446.144	18.19119
446.351	18.7088
446.558	17.66864
446.765	19.78925
446.972	18.85456
447.179	18.55672
447.386	18.87273
447.593	17.18099
447.8	17.98217
448.007	16.4693
448.214	15.5829
448.42	14.93967
448.627	15.08386
448.834	14.55893
449.041	14.42803
449.248	14.44378
449.454	14.80624
449.661	15.47822
449.868	14.26175
450.075	14.25867
450.281	13.56135
450.488	14.03842
450.695	14.07153
450.901	14.21126
451.108	14.36433
451.315	14.96396
451.521	14.47188
451.728	15.10065
451.935	14.21458
452.141	14.48955
452.348	14.60009
452.554	14.55784
452.761	14.34383
452.967	15.48382
453.174	14.74668
453.38	14.8873
453.587	14.12249
453.793	14.68968
454	15.09765
454.206	15.80403
454.413	15.2336
454.619	15.04757
454.825	14.36242
455.032	15.06454
455.238	15.09206
455.445	14.19057
455.651	14.84125
455.857	13.93592
456.064	14.64096
456.27	14.63225
456.476	14.6094
456.682	14.11329
456.889	15.00606
457.095	15.0112
457.301	15.88418
457.507	14.8634
457.714	14.74416
457.92	14.83058
458.126	14.42317
458.332	14.85427
458.538	14.61824
458.744	14.97175
458.951	14.85197
459.157	17.04589
459.363	16.83478
459.569	17.42012
459.775	18.0705
459.981	18.25185
460.187	18.73649
460.393	18.73167
460.599	18.86828
460.805	17.78516
461.011	16.52838
461.217	16.17075
461.423	15.83139
461.629	15.19822
461.835	15.41909
462.041	15.16065
462.247	15.8964
462.453	15.10069
462.658	15.10144
462.864	15.49979
463.07	15.27115
463.276	15.28209
463.482	15.29921
463.688	15.84333
463.893	14.79149
464.099	15.00625
464.305	15.96975
464.511	14.96313
464.716	15.2238
464.922	15.71634
465.128	14.93489
465.333	16.15535
465.539	15.64418
465.745	15.43203
465.95	15.46172
466.156	16.79205
466.362	15.87462
466.567	15.36927
466.773	15.1019
466.978	16.11576
467.184	15.03058
467.389	14.53079
467.595	15.50274
467.8	15.06864
468.006	16.14248
468.211	16.02854
468.417	14.86965
468.622	15.64872
468.828	15.82254
469.033	15.70887
469.239	16.78639
469.444	15.32565
469.649	15.85682
469.855	15.4804
470.06	15.46591
470.266	15.20284
470.471	15.92568
470.676	15.76169
470.881	14.71783
471.087	16.35346
471.292	17.00394
471.497	15.07165
471.703	15.54934
471.908	15.45532
472.113	15.72742
472.318	16.03132
472.523	15.14329
472.729	15.84565
472.934	15.92217
473.139	15.5277
473.344	15.82147
473.549	16.32408
473.754	15.38516
473.959	17.14423
474.164	15.2752
474.369	15.6327
474.575	16.01853
474.78	15.79754
474.985	15.37454
475.19	14.91646
475.395	15.29584
475.6	15.7919
475.804	16.56056
476.009	15.77311
476.214	15.73798
476.419	15.64897
476.624	15.00683
476.829	15.38116
477.034	16.17751
477.239	15.40893
477.444	16.1479
477.648	16.10165
477.853	16.08055
478.058	15.76195
478.263	15.48079
478.468	15.46534
478.672	15.45408
478.877	16.69595
479.082	16.62806
479.287	16.16501
479.491	15.90572
479.696	15.63493
479.901	16.24556
480.105	16.31355
480.31	15.53387
480.515	16.03888
480.719	17.07244
480.924	15.75851
481.128	15.57068
481.333	16.14151
481.538	16.11196
481.742	16.85618
481.947	18.17031
482.151	19.67408
482.356	21.29622
482.56	24.47472
482.765	27.3314
482.969	32.07211
483.174	36.31741
483.378	41.62633
483.582	43.97094
483.787	46.97415
483.991	48.58018
484.196	49.37453
484.4	49.15528
484.604	49.24277
484.809	45.78911
485.013	43.16674
485.217	39.35537
485.422	35.55636
485.626	32.18105
485.83	30.10475
486.034	28.7612
486.239	29.05394
486.443	29.57678
486.647	30.21513
486.851	31.68107
487.055	33.79199
487.26	34.38611
487.464	35.94264
487.668	36.05677
487.872	37.17301
488.076	37.16329
488.28	35.99783
488.484	34.03248
488.688	32.89959
488.892	31.24181
489.096	29.08534
489.3	27.01802
489.504	25.15789
489.708	23.69333
489.912	22.90695
490.116	22.3617
490.32	22.07685
490.524	23.42904
490.728	24.81562
490.932	26.183
491.136	27.97511
491.34	29.7174
491.544	30.32592
491.748	30.84701
491.951	30.90232
492.155	30.39753
492.359	29.54816
492.563	27.63688
492.767	25.91656
492.97	23.58022
493.174	21.22653
493.378	19.33314
493.582	17.38374
493.785	16.50936
493.989	16.46736
494.193	16.34822
494.396	16.20429
494.6	16.74899
494.804	16.32664
495.007	15.93696
495.211	16.22243
495.414	16.27454
495.618	16.37713
495.822	16.84037
496.025	16.32408
496.229	16.55915
496.432	16.10678
496.636	16.3233
496.839	16.37253
497.043	17.04796
497.246	16.613
497.45	16.27173
497.653	16.58836
497.856	16.60682
498.06	16.1244
498.263	16.46456
498.467	16.353
498.67	16.85961
498.873	16.69353
499.077	16.35021
499.28	16.5409
499.483	16.5767
499.686	16.84922
499.89	16.60812
500.093	16.90321
500.296	16.09364
500.499	17.24273
500.703	16.48474
500.906	16.69462
501.109	17.13775
501.312	16.53967
501.515	16.43931
501.719	16.65655
501.922	16.93871
502.125	16.506
502.328	16.33459
502.531	15.97079
502.734	16.4491
502.937	15.99816
503.14	16.61796
503.343	16.08319
503.546	16.42905
503.749	16.1671
503.952	16.89081
504.155	16.21754
504.358	16.6876
504.561	16.58259
504.764	15.91697
504.967	16.61818
505.17	16.54877
505.373	17.19487
505.576	16.63065
505.778	16.85528
505.981	16.15589
506.184	17.11826
506.387	15.83049
506.59	17.61957
506.793	16.94972
506.995	16.82165
507.198	15.83507
507.401	16.82648
507.604	16.87181
507.806	16.26671
508.009	16.2793
508.212	17.08624
508.414	16.36506
508.617	16.46573
508.82	16.59982
509.022	17.37985
509.225	16.79403
509.427	16.03664
509.63	17.32588
509.833	16.70699
510.035	16.41011
510.238	16.15167
510.44	17.40943
510.643	15.95877
510.845	17.56774
511.048	16.999
511.25	16.51763
511.453	16.63156
511.655	16.88953
511.858	16.59511
512.06	17.13233
512.262	16.82619
512.465	17.24939
512.667	16.57822
512.869	16.26542
513.072	16.97146
513.274	17.12118
513.476	16.99378
513.679	17.19394
513.881	16.41863
514.083	17.46905
514.286	16.48434
514.488	16.43174
514.69	16.43296
514.892	16.12853
515.094	17.07791
515.297	16.38914
515.499	16.87773
515.701	16.3737
515.903	17.43724
516.105	17.61708
516.307	17.12575
516.509	15.94365
516.711	16.34183
516.913	16.82148
517.116	16.88792
517.318	16.64076
517.52	17.33903
517.722	17.02133
517.924	16.34757
518.126	17.14647
518.328	16.91407
518.529	17.63939
518.731	18.4999
518.933	17.23025
519.135	17.46336
519.337	17.92977
519.539	17.18832
519.741	16.27158
519.943	16.83855
520.145	16.83971
520.346	17.26335
520.548	16.75515
520.75	17.09236
520.952	16.81289
521.153	17.09042
521.355	17.09605
521.557	16.5518
521.759	16.95604
521.96	16.87325
522.162	16.44754
522.364	17.42083
522.565	16.64969
522.767	17.19582
522.969	17.35051
523.17	17.27549
523.372	17.12427
523.573	16.67953
523.775	16.78928
523.977	16.55121
524.178	17.80255
524.38	16.69479
524.581	17.26423
524.783	16.75273
524.984	17.27272
525.186	17.23741
525.387	17.97748
525.589	18.22226
525.79	18.54958
525.991	18.77082
526.193	19.50223
526.394	19.10503
526.596	20.0224
526.797	20.48749
526.998	20.34505
527.2	21.52016
527.401	24.00136
527.602	26.11605
527.803	29.58523
528.005	32.20547
528.206	34.75835
528.407	36.92745
528.608	37.68502
528.81	38.44711
529.011	38.12888
529.212	38.98085
529.413	37.03385
529.614	35.11274
529.815	32.87412
530.017	30.29289
530.218	26.99119
530.419	24.42181
530.62	23.10215
530.821	21.72308
531.022	20.00885
531.223	20.21804
531.424	19.5232
531.625	19.75329
531.826	19.51342
532.027	20.28136
532.228	21.87992
532.429	22.66049
532.63	23.66675
532.831	25.16187
533.032	25.73644
533.233	26.83806
533.433	26.62403
533.634	26.94313
533.835	26.07792
534.036	25.16975
534.237	24.17516
534.438	22.7546
534.638	20.67291
534.839	19.61864
535.04	18.77939
535.241	17.72323
535.441	18.42816
535.642	18.09856
535.843	17.79061
536.043	18.14805
536.244	18.61208
536.445	18.96464
536.645	19.81706
536.846	19.46688
537.047	19.74348
537.247	18.74476
537.448	18.18542
537.648	17.61926
537.849	17.20572
538.049	17.12046
538.25	17.4756
538.451	17.43539
538.651	16.85758
538.851	17.59141
539.052	17.81334
539.252	17.59291
539.453	17.14412
539.653	17.36442
539.854	17.16825
540.054	17.39883
540.254	19.69823
540.455	21.83196
540.655	22.90442
540.855	25.47273
541.056	27.20355
541.256	27.8695
541.456	29.05432
541.657	29.08565
541.857	29.62607
542.057	28.32444
542.257	27.42759
542.458	27.10979
542.658	25.85027
542.858	23.4382
543.058	22.57932
543.258	21.48567
543.458	19.62024
543.659	18.79253
543.859	18.87349
544.059	18.21754
544.259	17.40886
544.459	17.85615
544.659	17.22104
544.859	17.5571
545.059	17.19013
545.259	17.69569
545.459	17.47534
545.659	17.82828
545.859	17.33969
546.059	17.50307
546.259	17.06477
546.459	16.78385
546.659	16.93485
546.859	17.71024
547.059	17.46805
547.258	17.61153
547.458	17.58826
547.658	16.93996
547.858	16.72926
548.058	17.39041
548.258	17.17931
548.457	17.04576
548.657	18.49561
548.857	17.15557
549.057	17.78073
549.256	17.59657
549.456	16.89824
549.656	16.27785
549.855	18.29857
550.055	16.9457
550.255	18.19691
550.454	17.53631
550.654	17.64734
550.853	18.00352
551.053	17.6093
551.253	17.3495
551.452	17.54524
551.652	16.46597
551.851	16.33619
552.051	16.94035
552.25	16.85249
552.45	16.81004
552.649	17.04711
552.849	16.77873
553.048	17.22472
553.248	17.64151
553.447	16.63976
553.646	17.69273
553.846	18.6601
554.045	18.01804
554.244	16.49443
554.444	17.9294
554.643	16.73392
554.842	18.13715
555.042	18.22832
555.241	16.81048
555.44	16.46469
555.64	17.5227
555.839	18.03826
556.038	17.47806
556.237	16.68689
556.436	17.30059
556.636	17.38856
556.835	16.67323
557.034	17.91901
557.233	16.86883
557.432	16.13924
557.631	17.76882
557.83	16.93951
558.029	16.82679
558.228	16.76523
558.427	16.49897
558.626	17.26203
558.825	16.44435
559.024	16.95794
559.223	18.24175
559.422	16.92782
559.621	17.34985
559.82	15.58501
560.019	16.94625
560.218	16.84982
560.417	15.72971
560.616	16.67049
560.815	19.19211
561.014	16.25189
561.212	18.19496
561.411	17.08002
561.61	16.32194
561.809	16.92208
562.008	18.13956
562.206	16.94588
562.405	17.45815
562.604	17.12448
562.803	17.2683
563.001	17.156
563.2	16.27024
563.399	17.45993
563.597	16.43909
563.796	17.07824
563.995	16.5113
564.193	17.46237
564.392	16.97155
564.59	18.31926
564.789	16.03455
564.988	16.89119
565.186	17.24308
565.385	17.10952
565.583	16.98469
565.782	17.14939
565.98	17.21585
566.179	17.09867
566.377	16.83342
566.575	16.72599
566.774	18.14916
566.972	17.76848
567.171	18.47972
567.369	18.08737
567.567	17.39115
567.766	17.51454
567.964	16.13498
568.162	17.40488
568.361	17.95131
568.559	16.87331
568.757	17.3389
568.956	17.25858
569.154	17.29212
569.352	17.5394
569.55	17.09895
569.748	17.27925
569.947	16.70165
570.145	16.5656
570.343	16.59936
570.541	18.30067
570.739	16.42319
570.937	17.20179
571.135	17.406
571.333	18.61188
571.532	18.55825
571.73	17.53951
571.928	17.92793
572.126	17.82203
572.324	17.20471
572.522	18.06658
572.72	18.99009
572.918	17.36625
573.116	17.74536
573.313	17.03293
573.511	17.28808
573.709	16.98883
573.907	18.10999
574.105	17.0343
574.303	16.40587
574.501	16.35771
574.699	17.71085
574.896	17.46578
575.094	17.78994
575.292	16.5984
575.49	17.8395
575.688	17.25901
575.885	18.10165
576.083	18.94373
576.281	17.59889
576.478	16.81304
576.676	17.72546
576.874	16.37957
577.071	17.27769
577.269	18.81402
577.467	17.03628
577.664	17.10417
577.862	17.91093
578.059	16.62016
578.257	17.77997
578.455	17.01291
578.652	17.19285
578.85	15.78217
579.047	17.2763
579.245	16.9089
579.442	17.12103
579.64	16.69063
579.837	15.89427
580.034	18.94903
580.232	16.83766
580.429	16.22589
580.627	17.5653
580.824	17.98056
581.021	17.49547
581.219	16.76102
581.416	16.56998
581.613	17.94009
581.811	18.0165
582.008	16.34858
582.205	17.7252
582.402	17.32064
582.6	18.65972
582.797	17.13984
582.994	17.45797
583.191	17.65396
583.388	16.97075
583.586	17.61925
583.783	18.00908
583.98	16.37122
584.177	17.00858
584.374	15.30784
584.571	16.85418
584.768	16.93339
584.965	16.63671
585.162	17.641
585.359	18.29053
585.556	17.00112
585.753	17.30001
585.95	16.06105
586.147	16.42243
586.344	17.40774
586.541	16.96598
586.738	16.0403
586.935	16.95392
587.132	16.60168
587.329	17.74177
587.526	17.00432
587.722	20.935
587.919	16.02134
588.116	17.41775
588.313	18.07746
588.51	18.49521
588.706	16.95024
588.903	17.57619
589.1	17.98262
589.297	19.25589
589.493	17.21367
589.69	17.54172
589.887	16.6723
590.083	16.38943
590.28	16.68399
590.477	17.97836
590.673	17.58682
590.87	18.21386
591.067	16.73676
591.263	17.29102
591.46	17.32144
591.656	16.84458
591.853	18.37001
592.049	16.45736
592.246	16.72646
592.442	18.0745
592.639	17.9858
592.835	16.41757
593.032	17.53003
593.228	16.1127
593.425	16.13183
593.621	15.88163
593.817	17.58616
594.014	16.62969
594.21	17.52677
594.406	18.25774
594.603	17.57431
594.799	16.63626
594.995	15.51713
595.192	18.22786
595.388	17.11777
595.584	16.94905
595.78	16.26794
595.977	19.43036
596.173	18.56758
596.369	17.29739
596.565	16.61463
596.761	16.39115
596.957	18.33047
597.154	16.84792
597.35	16.81931
597.546	16.97305
597.742	17.68801
597.938	17.67781
598.134	16.77354
598.33	17.4534
598.526	18.25919
598.722	17.29511
598.918	18.78508
599.114	17.71975
599.31	16.19795
599.506	17.02532
599.702	16.57037
599.898	17.06038
600.094	17.67545
600.29	17.57707
600.485	17.79268
600.681	16.65754
600.877	18.57218
601.073	17.26437
601.269	18.89022
601.465	18.27194
601.66	16.38783
601.856	15.74123
602.052	19.16865
602.248	16.89574
602.443	15.85538
602.639	16.39919
602.835	16.55692
603.03	16.69192
603.226	18.12588
603.422	16.68472
603.617	17.30053
603.813	17.25256
604.009	17.10436
604.204	18.38544
604.4	16.62921
604.595	18.5009
604.791	16.76604
604.986	17.84022
605.182	16.9499
605.377	17.23704
605.573	17.2184
605.768	17.50704
605.964	17.93801
606.159	17.9434
606.355	18.26523
606.55	17.05415
606.746	18.28376
606.941	17.39121
607.136	18.93236
607.332	19.92656
607.527	16.47204
607.722	17.45836
607.918	17.124
608.113	16.68127
608.308	18.05924
608.503	17.90875
608.699	17.89841
608.894	17.98622
609.089	16.9498
609.284	17.91846
609.479	17.33983
609.675	18.23227
609.87	17.41212
610.065	18.26794
610.26	18.43914
610.455	18.2521
610.65	17.63773
610.845	17.95802
611.04	18.40777
611.235	17.40979
611.43	17.29095
611.625	16.72695
611.82	18.78259
612.015	16.93403
612.21	19.18325
612.405	16.10847
612.6	18.8169
612.795	18.81048
612.99	17.87111
613.185	16.46116
613.38	16.91574
613.575	17.36706
613.77	20.43842
613.965	16.12257
614.159	16.73405
614.354	18.60464
614.549	18.37786
614.744	17.83333
614.938	16.42071
615.133	15.92777
615.328	18.75686
615.523	18.69499
615.717	20.03816
615.912	16.72376
616.107	17.28976
616.301	17.07538
616.496	16.68732
616.691	18.78029
616.885	18.16996
617.08	20.48527
617.274	18.43946
617.469	19.4224
617.664	18.15012
617.858	17.0056
618.053	18.0018
618.247	17.19452
618.442	15.38022
618.636	18.7981
618.831	16.5776
619.025	17.0522
619.219	20.4843
619.414	14.51961
619.608	17.05454
619.803	16.9252
619.997	19.74833
620.191	18.6083
620.386	17.65655
620.58	17.40584
620.774	15.73693
620.969	15.9124
621.163	17.7092
621.357	16.14251
621.551	17.30444
621.746	17.78558
621.94	16.83516
622.134	21.02485
622.328	19.66866
622.522	15.91839
622.716	18.47456
622.911	18.49658
623.105	18.51131
623.299	17.93927
623.493	20.74837
623.687	16.57366
623.881	16.68211
624.075	18.10043
624.269	18.75644
624.463	15.42427
624.657	15.8834
624.851	18.34613
625.045	18.47749
625.239	18.64287
625.433	17.26772
625.627	19.34707
625.821	17.14338
626.015	17.05406
626.209	18.01218
626.403	16.2273
626.596	18.36988
626.79	18.66988
626.984	16.55146
627.178	18.57975
627.372	18.33074
627.565	18.492
627.759	16.70508
627.953	16.68304
628.147	18.15544
628.34	18.6333
628.534	20.30236
628.728	17.36846
628.921	18.83966
629.115	18.60392
629.309	18.99062
629.502	18.80466
629.696	17.8113
629.89	17.86286
630.083	18.03208
630.277	18.01571
630.47	19.45943
630.664	17.24223
630.857	15.86774
631.051	18.61717
631.244	18.97442
631.438	18.73748
631.631	16.71217
631.825	19.30208
632.018	18.22325
632.212	19.82259
632.405	19.11368
632.598	16.78667
632.792	17.80196
632.985	15.06375
633.178	17.65
633.372	17.79901
633.565	17.41124
633.758	19.4348
633.952	16.7288
634.145	16.762
634.338	17.21734
634.531	17.319
634.724	17.14512
634.918	17.9323
635.111	17.61863
635.304	17.66761
635.497	20.7874
635.69	18.1804
635.883	19.25911
636.077	16.79489
636.27	18.23938
636.463	18.17046
636.656	18.27341
636.849	17.63504
637.042	18.65717
637.235	20.09244
637.428	18.8509
637.621	18.33162
637.814	19.60094
638.007	19.82233
638.2	19.55746
638.393	20.33425
638.586	16.22221
638.778	17.12289
638.971	17.76743
639.164	19.71603
639.357	18.09038
639.55	19.94552
639.743	18.84575
639.935	18.58879
640.128	21.12516
640.321	18.95714
640.514	18.43739
640.707	21.05044
640.899	19.00671
641.092	15.7251
641.285	33.13011
641.477	15.49532
641.67	21.7378
641.863	19.64109
642.055	18.23999
642.248	18.0059
642.441	17.5751
642.633	19.00698
642.826	19.52245
643.018	19.93711
643.211	20.88865
643.403	21.05801
643.596	21.49897
643.788	21.14378
643.981	17.57936
644.173	19.16206
644.366	17.75491
644.558	15.44901
644.751	19.65019
644.943	16.60657
645.135	20.64531
645.328	20.86037
645.52	18.98047
645.712	19.94159
645.905	22.78142
646.097	16.84145
646.289	18.84698
646.482	21.96688
646.674	17.25987
646.866	20.57076
647.058	19.45225
647.251	16.89686
647.443	17.65582
647.635	18.27816
647.827	16.8544
648.019	17.17038
648.211	17.91486
648.404	18.50515
648.596	21.31601
648.788	18.61222
648.98	18.68174
649.172	19.50106
649.364	19.19576
649.556	16.28656
649.748	22.97274
649.94	17.93583
650.132	19.66072
650.324	17.36535
650.516	17.59126
650.708	20.39893
650.9	16.83832
651.092	18.27301
651.284	16.61718
651.476	17.39637
651.667	19.99325
651.859	21.01134
652.051	18.62384
652.243	19.2638
652.435	18.25408
652.627	19.44674
652.818	19.5449
653.01	16.68391
653.202	17.6245
653.394	18.0583
653.585	19.54907
653.777	25.63277
653.969	21.22252
654.16	20.78331
654.352	17.00951
654.544	18.48109
654.735	20.55229
654.927	18.86727
655.118	21.47435
655.31	19.98603
655.502	21.11546
655.693	18.64189
655.885	19.68925
656.076	21.54823
656.268	19.48771
656.459	21.37844
656.651	21.18784
656.842	18.24393
657.034	18.04916
657.225	20.50066
657.416	21.33249
657.608	21.18724
657.799	19.24639
657.99	21.6333
658.182	18.54618
658.373	18.28109
658.564	21.33767
658.756	20.30394
658.947	19.34121
659.138	17.97504
659.33	18.79566
659.521	18.62689
659.712	19.50634
659.903	19.2704
660.094	18.74287
660.286	17.41361
660.477	22.30914
660.668	20.64966
660.859	19.24943
661.05	17.40977
661.241	19.95868
661.432	19.7271
661.623	18.84523
661.814	18.95336
662.006	17.03264
662.197	19.80882
662.388	21.38457
662.579	19.71904
662.77	21.26163
662.96	23.79965
663.151	20.76325
663.342	16.25508
663.533	20.87892
663.724	19.65916
663.915	22.62905
664.106	19.35149
664.297	22.41129
664.488	20.57002
664.678	18.14075
664.869	21.23932
665.06	20.94324
665.251	19.83519
665.442	20.72214
665.632	17.99658
665.823	22.91788
666.014	14.77444
666.204	20.84333
666.395	22.31444
666.586	23.50042
666.776	21.04109
666.967	23.37125
667.158	20.07475
667.348	22.25072
667.539	18.00669
667.729	21.73819
667.92	18.80567
668.111	21.53903
668.301	21.1899
668.492	19.67748
668.682	20.26661
668.873	20.23704
669.063	17.91372
669.253	21.0272
669.444	22.7192
669.634	20.02593
669.825	23.27669
670.015	22.77915
670.206	18.53397
670.396	24.03173
670.586	19.54426
670.777	20.93673
670.967	16.78984
671.157	19.60389
671.347	19.13548
671.538	23.48403
671.728	21.55607
671.918	24.11928
672.108	22.01249
672.299	19.87388
672.489	20.80742
672.679	18.99444
672.869	21.22367
673.059	24.89958
673.249	20.96001
673.44	18.51702
673.63	20.05887
673.82	22.39906
674.01	18.40363
674.2	21.23729
674.39	26.00663
674.58	22.03654
674.77	20.90042
674.96	20.04673
675.15	28.885
675.34	23.10755
675.53	20.41667
675.72	19.6132
675.91	17.55214
676.099	24.92858
676.289	25.55653
676.479	23.17993
676.669	19.65647
676.859	21.85314
677.049	19.72766
677.238	20.97435
677.428	25.2268
677.618	22.03952
677.808	25.50317
677.997	22.13491
678.187	19.09686
678.377	21.1499
678.567	20.16651
678.756	20.33375
678.946	21.3405
679.136	18.44717
679.325	20.28165
679.515	19.48948
679.704	18.88209
679.894	23.11393
680.084	22.13114
680.273	23.84531
680.463	20.14338
680.652	19.68636
680.842	21.39504
681.031	23.54323
681.221	19.82325
681.41	22.78845
681.6	21.37706
681.789	22.634
681.978	24.01283
682.168	22.34294
682.357	21.81116
682.547	22.51519
682.736	22.24817
682.925	24.60884
683.115	24.4471
683.304	23.14178
683.493	22.13119
683.682	22.76182
683.872	22.54137
684.061	24.23574
684.25	23.03221
684.439	27.07216
684.629	23.78375
684.818	29.37097
685.007	21.91031
685.196	21.70195
685.385	26.77511
685.574	23.024
685.763	23.0502
685.952	22.5589
686.142	19.60165
686.331	25.5087
686.52	18.55787
686.709	26.91497
686.898	26.74329
687.087	24.49898
687.276	26.34137
687.465	25.38483
687.654	21.85068
687.842	25.98401
688.031	20.03966
688.22	26.26297
688.409	23.24103
688.598	23.32222
688.787	28.66392
688.976	22.90973
689.165	27.94248
689.353	21.96757
689.542	24.33292
689.731	25.40787
689.92	28.3107
690.108	24.69443
690.297	22.16056
690.486	23.21047
690.675	24.56927
690.863	27.00038
691.052	27.25533
691.241	23.41875
691.429	24.09873
691.618	26.78488
691.806	20.74684
691.995	22.76399
692.184	22.92815
692.372	22.81903
692.561	24.08984
692.749	24.37002
692.938	32.293
693.126	24.73993
693.315	22.87094
693.503	24.9978
693.692	26.32203
693.88	25.962
694.068	28.98896
694.257	24.28484
694.445	25.55723
694.634	18.95723
694.822	25.76811
695.01	27.58524
695.199	29.71536
695.387	27.48808
695.575	27.14102
695.763	23.50137
695.952	22.92028
696.14	20.61861
696.328	22.34058
696.516	24.06834
696.705	24.9722
696.893	24.24407
697.081	19.81251
697.269	26.24298
697.457	21.5618
697.645	21.23038
697.833	25.96934
698.021	22.40292
698.21	22.8601
698.398	23.63645
698.586	21.6421
698.774	21.43519
698.962	24.00045
699.15	21.56978
699.338	20.61284
699.526	25.17931
699.714	22.48144
699.901	22.5321
700.089	26.05648
700.277	22.16298
700.465	23.41832
700.653	25.88266
700.841	24.34821
701.029	22.17462
701.217	27.87164
701.404	24.2264
701.592	28.68943
701.78	30.5627
701.968	23.63223
702.155	23.81705
702.343	21.39391
702.531	28.23234
702.718	25.68358
702.906	23.13077
703.094	22.96012
703.281	28.43327
703.469	24.1679
703.657	27.55804
703.844	34.08522
704.032	30.17859
704.219	23.38563
704.407	27.32205
704.595	29.3829
704.782	26.49729
704.97	25.25701
705.157	24.26802
705.345	32.19513
705.532	36.86545
705.719	28.44675
705.907	32.03243
706.094	28.67274
706.282	34.77425
706.469	29.17586
706.656	29.67946
706.844	28.77561
707.031	34.06513
707.218	31.76542
707.406	36.12713
707.593	32.95287
707.78	32.94628
707.968	31.05996
708.155	29.29198
708.342	33.38815
708.529	33.23546
708.716	33.07007
708.904	36.19983
709.091	33.29523
709.278	28.14676
709.465	37.99183
709.652	35.63611
709.839	35.40112
710.026	31.02886
710.213	25.84504
710.4	30.69457
710.587	32.28375
710.774	34.58994
710.961	33.97293
711.148	31.49523
711.335	33.53408
711.522	30.32716
711.709	32.25915
711.896	37.26176
712.083	34.29733
712.27	28.5022
712.457	31.84535
712.644	26.86501
712.831	38.08356
713.017	31.8581
713.204	33.2055
713.391	28.59794
713.578	33.71629
713.765	35.81908
713.951	31.29684
714.138	40.34488
714.325	30.94056
714.512	29.00076
714.698	26.25815
714.885	33.75294
715.072	29.14217
715.258	28.55082
715.445	26.1856
715.631	32.48914
715.818	20.12319
716.005	25.88127
716.191	30.06321
716.378	26.86684
716.564	30.27607
716.751	24.68075
716.937	26.48854
717.124	30.51976
717.31	24.72684
717.497	35.35659
717.683	25.39729
717.869	35.45392
718.056	25.79643
718.242	29.17937
718.429	27.02578
718.615	24.40854
718.801	28.14984
718.988	32.0856
719.174	29.84016
719.36	26.64283
719.547	32.50475
719.733	28.85942
719.919	28.97315
720.105	29.64408
720.291	27.5903
720.478	28.58257
720.664	27.63712
720.85	26.18828
721.036	39.29401
721.222	34.35546
721.408	27.86222
721.595	34.94959
721.781	34.72158
721.967	32.37819
722.153	34.46525
722.339	31.08057
722.525	30.12303
722.711	24.45956
722.897	23.81082
723.083	27.50823
723.269	32.95753
723.455	40.57738
723.641	45.85952
723.827	29.07473
724.012	31.05858
724.198	28.53737
724.384	34.64764
724.57	30.9386
724.756	24.32725
724.942	22.26412
725.127	33.4162
725.313	33.98315
725.499	34.53748
725.685	37.80417
725.87	30.67819
726.056	26.3182
726.242	34.90014
726.428	23.03601
726.613	32.42789
726.799	27.2599
726.985	24.55312
727.17	22.78012
727.356	37.36882
727.541	25.77102
727.727	29.18059
727.913	32.71931
728.098	27.59537
728.284	32.0338
728.469	25.26446
728.655	26.99795
728.84	33.61393
729.026	33.1726
729.211	32.82502
729.397	31.52454
729.582	32.71271
729.767	28.42699
729.953	31.10765
730.138	35.02686
730.323	20.85772
730.509	25.58018
730.694	36.56838
730.879	32.24434
731.065	31.10834
731.25	39.88412
731.435	33.19141
731.621	24.4539
731.806	27.94014
731.991	30.74107
732.176	24.10143
732.361	36.81104
732.547	30.95974
732.732	23.24198
732.917	40.50617
733.102	24.70918
733.287	27.83853
733.472	29.9572
733.657	28.58815
733.842	24.10595
734.027	26.7736
734.212	29.26511
734.397	27.3666
734.582	30.81713
734.767	34.32937
734.952	36.82864
735.137	20.86271
735.322	36.8419
735.507	32.20242
735.692	30.80717
735.877	39.97786
736.062	39.40418
736.247	32.39466
736.431	29.20339
736.616	35.74054
736.801	32.40554
736.986	30.8354
737.171	26.15891
737.355	25.28051
737.54	37.05059
737.725	30.68126
737.909	44.75377
738.094	28.29397
738.279	33.87724
738.463	29.14759
738.648	33.84729
738.833	32.69971
739.017	40.94999
739.202	29.8902
739.386	28.54509
739.571	26.26959
739.756	35.42306
739.94	30.82687
740.125	33.34495
740.309	27.74295
740.494	34.14345
740.678	31.41255
740.863	33.00532
741.047	31.54039
741.231	38.84132
741.416	27.38847
741.6	39.30405
741.785	27.53071
741.969	35.38917
742.153	38.48075
742.338	22.28818
742.522	31.0769
742.706	35.62692
742.89	25.39272
743.075	31.29216
743.259	38.12189
743.443	36.69891
743.627	38.53342
743.812	42.04703
743.996	23.47223
744.18	29.67465
744.364	29.41642
744.548	44.11098
744.732	29.77086
744.916	36.66241
745.1	35.12657
745.285	29.86939
745.469	34.94513
745.653	40.57206
745.837	26.34537
746.021	44.24047
746.205	37.85009
746.389	33.00662
746.573	31.1644
746.757	39.46183
746.94	29.73503
747.124	38.55911
747.308	26.32483
747.492	37.73003
747.676	27.22901
747.86	46.43912
748.044	29.82612
748.227	23.89272
748.411	53.37675
748.595	31.60176
748.779	28.50041
748.963	34.29938
749.146	32.35037
749.33	28.27852
749.514	28.54332
749.697	38.49199
749.881	28.00999
750.065	26.42706
750.248	33.29065
750.432	46.85336
750.616	31.96379
750.799	26.13162
750.983	47.54119
751.166	45.75703
751.35	24.75862
751.533	36.42397
751.717	42.69975
751.9	41.24467
752.084	31.34687
752.267	27.83483
752.451	28.39208
752.634	32.87576
752.818	36.53128
753.001	37.30727
753.184	39.81073
753.368	36.04992
753.551	15.99735
753.734	28.32785
753.918	47.31228
754.101	29.09125
754.284	37.44835
754.467	30.45762
754.651	29.25107
754.834	27.48705
755.017	39.86871
755.2	40.42556
755.384	26.92779
755.567	37.36182
755.75	37.97749
755.933	30.83177
756.116	37.84732
756.299	29.73628
756.482	27.37117
756.665	37.09618
756.848	31.95535
757.032	34.43196
757.215	25.37927
757.398	27.77171
757.581	28.34406
757.764	50.05822
757.947	32.47978
758.129	38.93715
758.312	18.12299
758.495	30.67305
758.678	33.07276
758.861	30.43187
759.044	44.04273
759.227	26.84579
759.41	28.15013
759.592	38.12238
759.775	32.20449
759.958	37.92946
760.141	26.67003
760.324	49.44741
760.506	42.77499
760.689	37.56133
760.872	47.38586
761.054	36.52637
761.237	32.65738
761.42	34.72537
761.602	38.57567
761.785	36.40871
761.968	41.66658
762.15	43.87783
762.333	32.3755
762.515	36.03838
762.698	31.32625
762.88	39.10851
763.063	36.1272
763.245	40.52571
763.428	28.76028
763.61	30.90526
763.793	26.78285
763.975	35.39374
764.158	31.8492
764.34	30.05234
764.522	28.51744
764.705	32.61097
764.887	42.30603
765.069	24.33007
765.252	36.66897
765.434	37.05709
765.616	34.83615
765.799	28.87397
765.981	37.56842
766.163	30.26628
766.345	42.22936
766.528	29.05923
766.71	21.60565
766.892	35.46013
767.074	42.02008
767.256	31.66525
767.438	45.39549
767.62	34.85421
767.802	49.42577
767.985	37.26489
768.167	46.63184
768.349	30.8892
768.531	37.64067
768.713	36.88298
768.895	39.5294
769.077	36.73792
769.259	51.62907
769.441	70.13705
769.623	37.81438
769.804	45.01419
769.986	41.78334
770.168	49.24835
770.35	58.6636
770.532	46.30225
770.714	50.8234
770.896	50.00086
771.077	28.25006
771.259	54.67163
771.441	46.03693
771.623	55.3826
771.804	65.86528
771.986	28.06589
772.168	38.00352
772.35	53.32533
772.531	68.18123
772.713	46.72012
772.894	57.74055
773.076	44.54609
773.258	40.54116
773.439	58.84021
773.621	63.53697
773.802	34.20024
773.984	39.80987
774.166	47.9387
774.347	60.93567
774.529	54.60978
774.71	26.43426
774.891	44.29871
775.073	40.65162
775.254	56.84801
775.436	39.66635
775.617	70.63747
775.799	40.31873
775.98	58.14552
776.161	62.68392
776.343	65.65284
776.524	43.89583
776.705	42.62028
776.886	27.76005
777.068	46.8902
777.249	94.01535
777.43	67.94686
777.611	34.85836
777.793	40.82338
777.974	65.0652
778.155	39.38946
778.336	37.21518
778.517	73.36352
778.698	37.27861
778.879	28.33881
779.061	19.11659
779.242	50.22314
779.423	50.49533
779.604	38.67323
779.785	42.8288
779.966	48.01335
780.147	58.27169
780.328	57.25764
780.509	76.78719
780.69	56.22532
780.871	39.78923
781.051	31.83519
781.232	46.41777
781.413	46.00979
781.594	43.1645
781.775	42.46741
781.956	36.77735
782.137	25.07325
782.317	40.80447
782.498	46.99032
782.679	47.31126
782.86	48.86032
783.04	40.16671
783.221	48.56638
783.402	66.83921
783.583	46.14675
783.763	56.96286
783.944	40.5159
784.124	33.21703
784.305	66.22548
784.486	55.07899
784.666	45.81894
784.847	31.26482
785.027	86.96256
785.208	38.88163
785.388	40.17616
785.569	39.5354
785.749	43.91972
785.93	41.73685
786.11	30.46022
786.291	53.22448
786.471	48.95883
786.652	56.29084
786.832	45.7818
787.012	49.29615
787.193	34.1066
787.373	46.88312
787.553	40.6902
787.734	49.38298
787.914	42.00425
788.094	57.29763
788.275	49.13337
788.455	41.98057
788.635	34.73171
788.815	48.36746
788.995	34.79145
789.176	30.91805
789.356	38.18053
789.536	44.84798
789.716	51.47073
789.896	37.20336
790.076	40.03467
790.256	50.49094
790.436	25.12776
790.616	34.97355
790.796	47.64174
790.976	43.85561
791.156	38.04006
791.336	52.60936
791.516	51.16917
791.696	43.13904
791.876	32.97578
792.056	48.2359
792.236	57.69922
792.416	54.81019
792.596	50.87841
792.776	49.63759
792.956	54.63828
793.135	67.91229
793.315	34.85749
793.495	59.48991
793.675	55.26174
793.854	54.39346
794.034	58.16127
794.214	35.47111
794.394	56.6273
794.573	61.01342
794.753	47.72023
794.933	37.41473
795.112	48.14652
795.292	57.14167
795.472	66.64569
795.651	32.67933
795.831	44.65113
796.01	42.47913
796.19	42.76334
796.369	47.04799
796.549	51.3248
796.728	44.82549
796.908	31.59638
797.087	35.56052
797.267	41.32033
797.446	34.11247
797.626	51.41735
797.805	51.8497
797.984	38.84445
798.164	54.26577
798.343	37.18401
798.522	50.25197
798.702	47.79398
798.881	33.58251
799.06	42.91986
799.239	27.80695
799.419	36.42609
799.598	67.28777
799.777	51.48032
799.956	59.47081
800.136	42.99858
800.315	35.3673
800.494	48.92188
800.673	58.24199
800.852	54.80838
801.031	61.83904
801.21	54.92844
801.389	42.04915
801.568	47.58187
801.747	70.96783
801.926	47.81534
802.105	63.17219
802.284	41.68683
802.463	66.00057
802.642	50.33005
802.821	49.96192
803	62.46984
803.179	57.85577
803.358	59.61393
803.537	39.27799
803.716	46.81443
803.895	38.79197
804.073	44.01289
804.252	36.98187
804.431	50.56729
804.61	44.61312
804.789	54.75673
804.967	41.17945
805.146	41.10093
805.325	74.32496
805.503	51.44993
805.682	33.02337
805.861	89.82481
806.039	64.2358
806.218	42.92888
806.397	49.52911
806.575	46.47514
806.754	50.76111
806.932	36.41718
807.111	60.39887
807.289	58.49007
807.468	47.29523
807.646	59.00915
807.825	52.87649
808.003	49.15514
808.182	58.34545
808.36	47.82974
808.539	35.22911
808.717	67.85782
808.895	40.0465
809.074	51.23946
809.252	47.24256
809.43	55.13157
809.609	63.08337
809.787	65.31043
809.965	44.65559
810.144	47.39408
810.322	45.31352
810.5	51.98279
810.678	44.99551
810.856	75.85244
811.035	62.64935
811.213	55.6057
811.391	67.14876
811.569	51.30229
811.747	97.48728
811.925	65.94293
812.103	40.99182
812.281	48.16762
812.459	71.53209
812.637	72.84479
812.816	60.62564
812.994	74.56367
813.171	65.6469
813.349	55.21298
813.527	62.45041
813.705	72.22432
813.883	85.36891
814.061	58.36899
814.239	71.74192
814.417	78.60802
814.595	58.75163
814.773	56.08817
814.95	51.8589
815.128	58.51827
815.306	53.71179
815.484	47.76188
815.662	41.02228
815.839	37.75794
816.017	43.54666
816.195	65.8356
816.372	46.02137
816.55	60.81679
816.728	71.49179
816.905	48.91749
817.083	70.99021
817.261	49.44483
817.438	94.55339
817.616	73.13019
817.793	45.46377
817.971	63.91271
818.148	61.25553
818.326	67.82261
818.503	53.9978
818.681	72.45813
818.858	45.91398
819.036	51.42992
819.213	53.61885
819.391	41.98425
819.568	43.11353
819.745	39.85018
819.923	61.18833
820.1	46.39615
820.277	39.9757
820.455	45.73888
820.632	47.74482
820.809	51.92731
820.986	38.14659
821.164	33.9718
821.341	31.18328
821.518	42.00391
821.695	33.62294
821.872	32.15052
822.05	29.33865
822.227	27.18623
822.404	27.93246
822.581	30.26686
822.758	27.92309
822.935	28.15789
823.112	30.07435
823.289	27.57833
823.466	30.30402
823.643	29.45253
823.82	32.41402
823.997	30.82583
824.174	33.97635
824.351	40.07729
824.528	38.30328
824.705	36.26496
824.882	38.26044
825.059	44.75914
825.236	37.10144
825.412	38.14355
825.589	41.92006
825.766	53.28041
825.943	38.24365
826.12	42.40059
826.296	35.10717
826.473	39.82052
826.65	39.57264
826.827	44.34471
827.003	34.5004
827.18	36.97753
827.357	39.90508
827.533	35.30988
827.71	26.65126
827.887	32.94433
828.063	35.66368
828.24	32.10516
828.416	38.44578
828.593	34.2298
828.769	43.62694
828.946	43.77674
829.122	46.27383
829.299	43.32515
829.475	33.22154
829.652	43.84016
829.828	63.24667
830.005	45.27095
830.181	56.89928
830.357	46.33498
830.534	58.82244
830.71	49.15726
830.886	58.14829
831.063	58.02621
831.239	67.98009
831.415	38.99163
831.592	68.48416
831.768	47.66839
831.944	45.04792
832.12	74.22702
832.296	69.86083
832.473	59.94966
832.649	44.56363
832.825	60.82729
833.001	40.46286
833.177	53.44727
833.353	49.49292
833.529	34.14774
833.705	46.63924
833.881	34.55188
834.058	35.1923
834.234	36.40259
834.41	36.26555
834.586	31.19397
834.761	35.44553
834.937	37.14658
835.113	38.51693
835.289	34.50133
835.465	38.09578
835.641	36.77154
835.817	39.16547
835.993	57.94558
836.169	37.11089
836.344	49.47655
836.52	53.57329
836.696	50.93828
836.872	44.93885
837.048	96.30878
837.223	48.57951
837.399	74.34411
837.575	63.69275
837.75	60.76698
837.926	81.44659
838.102	108.8369
838.277	91.18757
838.453	119.80819
838.628	120.28716
838.804	55.524
838.98	103.99367
839.155	62.68838
839.331	80.83257
839.506	58.5998
839.682	60.78506
839.857	78.50766
840.033	89.79311
840.208	49.49827
840.384	32.47241
840.559	51.35667
840.734	68.80223
840.91	85.38082
841.085	57.0352
841.26	56.73999
841.436	52.97697
841.611	53.17336
841.786	73.82825
841.962	91.58652
842.137	63.82464
842.312	48.42421
842.487	58.18075
842.663	49.77192
842.838	61.91009
843.013	158.37509
843.188	80.24821
843.363	90.63405
843.538	133.00253
843.714	132.82765
843.889	133.6319
844.064	148.17937
844.239	123.90446
844.414	133.93263
844.589	97.19062
844.764	170.8328
844.939	168.72433
845.114	176.89441
845.289	166.56241
845.464	227.60506
845.639	156.14475
845.814	78.37453
845.989	93.48647
846.163	116.67769
846.338	128.97397
846.513	164.54929
846.688	113.54583
846.863	112.83549
847.038	108.31435
847.212	115.40736
847.387	124.69786
847.562	123.77533
847.737	154.01557
847.911	70.31999
848.086	76.54751
848.261	217.33004
848.435	112.97184
848.61	154.47574
848.785	87.22144
848.959	169.1117
849.134	212.46203
849.308	219.97836
849.483	126.72812
849.658	188.03988
849.832	106.6363
850.007	100.78943
850.181	248.8206
850.356	100.82077
850.53	238.77024
850.705	83.6738
850.879	52.86806
851.053	112.14129
851.228	106.32566
851.402	135.98206
851.577	178.53365
851.751	188.72626
851.925	130.90737
852.099	68.8978
852.274	94.5397
852.448	119.12828
852.622	151.85547
852.797	114.90579
852.971	121.97556
853.145	131.25151
853.319	354.20724
853.493	181.25707
853.668	103.16564
853.842	219.75811
854.016	182.82907
854.19	204.91266
854.364	134.7823
854.538	138.21516
854.712	179.03836
854.886	123.76098
855.06	112.68855
855.234	58.6537
855.408	195.00191
855.582	171.00856
855.756	159.97518
855.93	217.95707
856.104	146.49006
856.278	170.65775
856.452	126.35165
856.626	169.08561
856.8	256.98019
856.973	158.81874
857.147	148.63004
857.321	146.56412
857.495	179.31351
857.669	123.97947
857.842	118.59579
858.016	181.52193
858.19	97.0794
858.364	282.83228
858.537	113.56742
858.711	131.87604
858.885	120.05946
859.058	106.53961
859.232	66.69919
859.405	73.30698
859.579	178.30383
859.753	143.03404
859.926	100.71952
860.1	77.38338
860.273	133.48688
860.447	205.30441
860.62	117.08858
860.794	241.55889
860.967	144.0378
861.141	179.00912
861.314	261.83896
861.487	164.04805
861.661	207.30978
861.834	196.15232
862.008	186.72699
862.181	137.10118
862.354	140.06039
862.528	167.64903
862.701	117.40161
862.874	76.15811
863.047	124.25287
863.221	113.11508
863.394	65.35262
863.567	201.69013
863.74	51.18502
863.913	170.83169
864.087	151.37517
864.26	180.70131
864.433	127.00262
864.606	222.84632
864.779	138.00994
864.952	72.01485
865.125	107.5
865.298	129.58343
865.471	138.76058
865.644	256.50525
865.817	210.78276
865.99	171.38581
866.163	195.28098
866.336	113.52995
866.509	130.95174
866.682	111.22346
866.855	192.13727
867.028	96.69808
867.2	167.55422
867.373	65.43961
867.546	145.34645
867.719	276.46081
867.892	167.09413
868.064	103.07139
868.237	155.01179
868.41	133.07659
868.583	86.77846
868.755	94.50528
868.928	129.52551
869.101	262.60208
869.273	197.4201
869.446	167.0962
869.619	187.52627
869.791	136.7166
869.964	188.37009
870.136	167.81495
870.309	144.58837
870.481	144.52687
870.654	76.63139
870.826	147.07211
870.999	118.28624
871.171	180.33502
871.344	118.67919
871.516	127.61308
871.689	100.3095
871.861	143.60159
872.033	105.38638
872.206	123.24013
872.378	186.61264
872.55	120.66414
872.723	84.37415
872.895	127.20689
873.067	192.00261
873.24	213.62398
873.412	115.74582
873.584	120.41004
873.756	118.32191
873.928	154.45318
874.101	158.66935
874.273	164.38911
874.445	68.10403
874.617	86.61804
874.789	153.47948
874.961	120.48896
875.133	161.85766
875.305	140.42438
875.477	93.30227
875.649	78.30327
875.821	102.3975
875.993	224.87452
876.165	96.75196
876.337	154.08938
876.509	120.18641
876.681	151.58586
876.853	150.33
877.025	147.1927
877.197	104.17703
877.369	105.17859
877.541	180.93656
877.712	61.37335
877.884	91.26781
878.056	169.71792
878.228	95.364
878.4	156.73166
878.571	96.43343
878.743	73.79422
878.915	151.05314
879.086	92.32687
879.258	112.7573
879.43	102.38155
879.601	90.61456
879.773	94.3985
879.945	34.71705
880.116	48.13302
880.288	35.82521
880.459	38.13475
880.631	31.52074
880.802	36.55271
880.974	35.44201
881.145	28.89664
881.317	34.15025
881.488	29.38886
881.66	31.23839
881.831	29.95086
882.002	36.48759
882.174	30.76375
882.345	35.55266
882.517	26.42348
882.688	39.06698
882.859	35.98508
883.03	48.38833
883.202	46.05618
883.373	42.46408
883.544	43.43462
883.715	64.81428
883.887	55.15417
884.058	49.77265
884.229	68.14192
884.4	64.98252
884.571	73.29307
884.742	66.46935
884.914	71.68007
885.085	91.63377
885.256	113.18371
885.427	93.91472
885.598	107.21678
885.769	115.85181
885.94	107.5534
886.111	78.84969
886.282	125.66013
886.453	105.21765
886.624	82.9079
886.795	123.3013
886.966	105.62337
887.136	135.18245
887.307	90.97009
887.478	166.90655
887.649	149.98173
887.82	149.34805
887.991	121.29491
888.161	158.85894
888.332	156.58845
888.503	90.32005
888.674	199.53244
888.844	211.33511
889.015	175.03798
889.186	85.53813
889.356	201.21363
889.527	96.57498
889.698	343.29117
889.868	120.77111
890.039	149.00638
890.209	135.1017
890.38	177.8743
890.551	151.75414
890.721	211.93729
890.892	177.22451
891.062	127.4028
891.233	153.61734
891.403	123.44644
891.574	107.79972
891.744	129.63389
891.914	163.65497
892.085	140.68773
892.255	53.56439
892.425	209.04285
892.596	172.71877
892.766	160.27134
892.936	208.31706
893.107	182.28441
893.277	108.0291
893.447	87.35599
893.618	64.47731
893.788	115.49027
893.958	73.34702
894.128	73.14345
894.298	77.04749
894.468	103.86782
894.639	51.66879
894.809	43.79346
894.979	60.70861
895.149	67.5517
895.319	57.75098
895.489	76.62593
895.659	90.06365
895.829	66.59541
895.999	67.9157
896.169	52.54132
896.339	66.71064
896.509	119.20884
896.679	137.52167
896.849	131.45221
897.019	181.06187
897.189	141.17664
897.358	123.79052
897.528	182.95658
897.698	72.45436
897.868	169.18688
898.038	273.9637
898.208	250.62301
898.377	88.13058
898.547	270.11932
898.717	397.86569
898.886	167.56526
899.056	259.14861
899.226	373.71794
899.395	230.34395
899.565	284.66672
899.735	194.6706
899.904	321.77051
900.074	267.50437
900.244	136.49953
900.413	477.1862
900.583	120.5907
900.752	190.13846
900.922	298.8333
901.091	48.97713
901.261	258.23237
901.43	249.70395
901.599	259.15648
901.769	532.79394
901.938	292.30112
902.108	272.0944
902.277	358.2779
902.446	115.0962
902.616	113.07829
902.785	175.63897
902.954	267.88177
903.124	184.15148
903.293	154.195
903.462	98.57666
903.631	122.91738
903.801	92.37477
903.97	60.75303
904.139	87.97277
904.308	64.90672
904.477	56.1252
904.646	40.90983
904.816	57.23245
904.985	74.06283
905.154	105.51394
