Data from WindowProjectSample_Transmission__10__00010__0184169109101882.txt Node

Date: Mon May 05 16:52:58 EDT 2025
User: jessi
Spectrometer: SR400872
Trigger mode: 0
Integration Time (sec): 5.000010E-1
Scans to average: 20
Electric dark correction enabled: true
Nonlinearity correction enabled: true
Boxcar width: 0
XAxis mode: Wavelengths
Number of Pixels in Spectrum: 3648
>>>>>Begin Spectral Data<<<<<
184.909	20759.27212
185.132	-4939.61175
185.355	-2935.3906
185.578	-17247.80163
185.801	2113.2532
186.024	9659.08637
186.247	-2092.45287
186.47	1125.24727
186.693	268.81738
186.916	231.30559
187.139	-3543.33842
187.362	3204.84384
187.585	3912.47173
187.808	3249.78976
188.031	-35.89312
188.254	-52739.38462
188.476	-1683.10242
188.699	6221.95633
188.922	532.53443
189.145	-15044.82232
189.368	-696.55685
189.591	-1328.98838
189.813	2934.30022
190.036	-46595.2659
190.259	-818.94594
190.482	-4152.20084
190.705	6809.49026
190.927	-2404.65791
191.15	12617.63787
191.373	3479.03725
191.595	-9059.57098
191.818	-4021.7673
192.041	-6589.50665
192.263	-3265.13585
192.486	-800.9565
192.709	-3876.53319
192.931	7858.3378
193.154	-27820.33699
193.377	-2782.79728
193.599	-2243.39299
193.822	-8882.0477
194.044	-1952.27179
194.267	1142.5422
194.489	220.27317
194.712	-42610.52126
194.934	-31645.36994
195.157	1180.19208
195.379	1430.8758
195.602	-6931.11446
195.824	-1304.97968
196.047	-9834.17487
196.269	2633.96063
196.492	-6318.49423
196.714	28523.20787
196.936	-8204.39122
197.159	-1151.14047
197.381	1220.71968
197.604	432.79001
197.826	11965.10037
198.048	-10253.65227
198.271	-2774.05661
198.493	7682.7907
198.715	2263.57116
198.938	-429.75315
199.16	6896.90107
199.382	-100613.14847
199.604	2586.06487
199.827	-1103.41823
200.049	-3024.21886
200.271	13904.29745
200.493	1205.47339
200.715	-36756.79239
200.938	-5908.596
201.16	-4164.39018
201.382	21765.76112
201.604	2277.83854
201.826	2298.79467
202.048	-1844.41033
202.27	-1908.83312
202.492	-35887.13471
202.715	3051.06869
202.937	-4423.57915
203.159	-6352.83823
203.381	1461.95611
203.603	6643.79677
203.825	6208.8412
204.047	2200.06008
204.269	-2918.45173
204.491	2057.48967
204.713	5692.3667
204.935	-465042.00399
205.156	1109.82335
205.378	-2836.06335
205.6	1580.51712
205.822	152898.88882
206.044	-1010.92517
206.266	1508.5082
206.488	4711.90343
206.71	-4977.94884
206.932	1061.19957
207.153	11917.13277
207.375	-6971.07372
207.597	-37485.1748
207.819	-2673.67825
208.041	2467.03258
208.262	421.65528
208.484	739.32689
208.706	-810.90999
208.927	-768.49364
209.149	517.13472
209.371	-2882.29414
209.593	-312.19764
209.814	-837.51459
210.036	545.10483
210.258	-616.7505
210.479	1662.50057
210.701	1720.01885
210.922	3115.14004
211.144	-3748.20013
211.366	2075.99072
211.587	8068.33744
211.809	-7919.75695
212.03	2396.18493
212.252	388.71767
212.473	2074.46683
212.695	-6152.14391
212.916	2733.0928
213.138	-572.01213
213.359	3639.61624
213.581	5059.19319
213.802	-763.98329
214.024	1135.18636
214.245	2025.5476
214.466	2435.50969
214.688	-2960.88112
214.909	-1141.66585
215.131	-1779.97539
215.352	-3422.14545
215.573	14586.82962
215.795	4945.01283
216.016	5273.63896
216.237	883.56878
216.459	3497.04288
216.68	1760.31206
216.901	4856.68358
217.122	-2983.57055
217.344	-10741.11853
217.565	3314.95665
217.786	8723.71764
218.007	16954.9391
218.228	-719.70643
218.45	5537.67752
218.671	705.25507
218.892	34243.10184
219.113	1518.15641
219.334	-431.79001
219.555	9015.98061
219.776	3071.52312
219.997	21633.45106
220.219	3037.69437
220.44	-10795.49959
220.661	487.88801
220.882	1431.74283
221.103	-966.24785
221.324	2133.7055
221.545	2185.71823
221.766	-8848.04129
221.987	910.88552
222.208	1699.37533
222.429	4224.98233
222.65	262.28207
222.87	17809.1076
223.091	700.05263
223.312	659.43569
223.533	1379.12028
223.754	1469.52325
223.975	1324.71655
224.196	2018.56833
224.417	1287.2359
224.637	558.15888
224.858	82.53288
225.079	1100.94965
225.3	676.25225
225.521	3741.92535
225.741	488.62014
225.962	483.80395
226.183	119.18847
226.404	654.18032
226.624	412.40896
226.845	650.26424
227.066	419.54233
227.286	256.9624
227.507	120.74803
227.728	115.35649
227.948	229.3061
228.169	74.3632
228.389	83.57251
228.61	45.82936
228.831	60.99024
229.051	1.13278
229.272	36.97218
229.492	55.10087
229.713	13.51243
229.933	34.11435
230.154	30.25383
230.374	52.35972
230.595	39.71958
230.815	21.67789
231.036	35.26328
231.256	-10.97541
231.477	67.97446
231.697	36.97235
231.917	38.24292
232.138	48.47587
232.358	100.38017
232.579	98.99162
232.799	16.11961
233.019	97.56383
233.24	116.26121
233.46	35.3322
233.68	61.20812
233.901	43.90839
234.121	26.52893
234.341	10.23011
234.561	-1.25987
234.782	21.45281
235.002	65.11413
235.222	-4.02822
235.442	62.83366
235.662	29.61857
235.883	60.93743
236.103	49.60487
236.323	36.8564
236.543	26.52373
236.763	37.36292
236.983	40.98146
237.203	39.91188
237.423	54.97101
237.643	84.48494
237.864	70.45973
238.084	15.30896
238.304	26.1922
238.524	47.00794
238.744	41.61366
238.964	73.98904
239.184	59.1792
239.404	60.24087
239.624	31.7238
239.843	58.60465
240.063	36.22912
240.283	22.97311
240.503	24.92043
240.723	24.58161
240.943	13.48354
241.163	18.56538
241.383	14.86074
241.603	7.26857
241.822	9.67355
242.042	6.15008
242.262	8.0627
242.482	9.10205
242.702	10.54872
242.921	2.97037
243.141	6.35357
243.361	6.27939
243.581	9.47362
243.8	7.27262
244.02	4.88739
244.24	9.06682
244.459	8.90042
244.679	17.54254
244.899	11.03753
245.118	12.03623
245.338	11.76671
245.558	12.53118
245.777	8.66969
245.997	10.0986
246.216	10.42176
246.436	6.22904
246.655	4.2791
246.875	2.9464
247.094	5.63992
247.314	1.86797
247.533	3.5557
247.753	4.36238
247.972	3.47192
248.192	1.23724
248.411	1.80484
248.631	3.54436
248.85	4.56331
249.07	3.74769
249.289	5.73228
249.508	5.05565
249.728	7.27921
249.947	6.6689
250.166	8.58926
250.386	3.74507
250.605	6.73608
250.824	10.37774
251.044	8.03122
251.263	28.03066
251.482	13.97976
251.701	11.4908
251.921	0.17314
252.14	3.1886
252.359	3.95312
252.578	9.6163
252.798	3.36261
253.017	8.74131
253.236	3.82725
253.455	5.48041
253.674	10.22833
253.893	4.91995
254.112	7.94817
254.331	10.97612
254.551	8.51871
254.77	3.66122
254.989	13.20218
255.208	10.29736
255.427	14.56915
255.646	11.60951
255.865	20.85887
256.084	7.86112
256.303	10.16165
256.522	13.59512
256.741	2.19242
256.96	2.54627
257.179	8.13586
257.397	11.18534
257.616	5.4815
257.835	6.18142
258.054	14.51215
258.273	10.01399
258.492	10.97884
258.711	6.40714
258.93	2.75482
259.148	4.57544
259.367	4.657
259.586	5.27441
259.805	2.40944
260.023	5.21235
260.242	3.85746
260.461	2.66299
260.68	1.28923
260.898	4.35892
261.117	1.23599
261.336	0.88141
261.554	3.37877
261.773	3.45053
261.992	0.81749
262.21	3.18827
262.429	3.46761
262.648	7.42931
262.866	7.97153
263.085	5.56082
263.303	4.67671
263.522	8.32142
263.74	9.06023
263.959	14.94145
264.178	7.08289
264.396	6.12882
264.615	4.46371
264.833	10.71756
265.051	8.49915
265.27	10.3914
265.488	10.79741
265.707	5.88395
265.925	10.65482
266.144	4.74196
266.362	5.55842
266.58	5.32714
266.799	4.64821
267.017	5.95091
267.235	5.03937
267.454	3.19453
267.672	1.87876
267.89	3.99219
268.109	4.24536
268.327	4.23748
268.545	0.98019
268.763	4.00148
268.982	1.35993
269.2	4.00673
269.418	2.89927
269.636	1.76164
269.854	4.87068
270.073	3.01918
270.291	1.72032
270.509	1.96485
270.727	4.29117
270.945	6.90615
271.163	7.10923
271.381	1.17489
271.599	3.19303
271.817	5.08448
272.036	1.82123
272.254	3.2485
272.472	2.22458
272.69	2.51916
272.908	2.25902
273.126	4.49569
273.344	5.12619
273.562	1.85141
273.779	2.67718
273.997	3.63978
274.215	3.94585
274.433	2.94674
274.651	4.21536
274.869	4.60622
275.087	2.70631
275.305	3.86189
275.523	2.4751
275.74	2.87772
275.958	5.06361
276.176	8.11255
276.394	2.39941
276.612	3.04208
276.829	3.22821
277.047	2.74404
277.265	2.86142
277.483	3.5042
277.7	4.15569
277.918	3.41524
278.136	6.08379
278.353	3.04254
278.571	1.94833
278.789	4.28591
279.006	0.74648
279.224	2.73683
279.442	5.02231
279.659	3.33217
279.877	2.51797
280.094	5.59512
280.312	1.23553
280.529	3.28308
280.747	0.96834
280.964	2.49981
281.182	5.74701
281.399	2.75564
281.617	3.76153
281.834	2.38416
282.052	1.83693
282.269	2.97301
282.487	2.43097
282.704	2.03137
282.921	2.10507
283.139	3.1598
283.356	3.91866
283.574	3.74469
283.791	1.86853
284.008	5.47648
284.226	2.87912
284.443	3.21459
284.66	4.32057
284.877	3.33658
285.095	1.91546
285.312	1.47167
285.529	0.77604
285.746	0.76437
285.964	1.96503
286.181	1.3224
286.398	1.85765
286.615	2.67876
286.832	2.62598
287.05	0.51122
287.267	1.84159
287.484	1.7071
287.701	2.59706
287.918	2.42219
288.135	2.65731
288.352	1.30478
288.569	1.3817
288.786	2.23484
289.003	1.90327
289.22	2.971
289.437	1.59129
289.654	2.74339
289.871	2.96788
290.088	2.83432
290.305	2.13631
290.522	1.71058
290.739	1.99122
290.956	3.04159
291.173	3.46484
291.39	3.30497
291.607	2.34277
291.824	1.6911
292.04	1.20214
292.257	2.79244
292.474	3.15181
292.691	1.89821
292.908	0.91559
293.125	1.67956
293.341	1.03562
293.558	4.99602
293.775	1.88601
293.992	2.28718
294.208	0.85842
294.425	1.32848
294.642	1.7874
294.858	2.6983
295.075	0.61933
295.292	2.09339
295.508	2.31923
295.725	3.93513
295.942	1.79137
296.158	1.21574
296.375	2.10066
296.591	1.5506
296.808	1.73728
297.024	2.0597
297.241	2.29586
297.458	2.45757
297.674	0.3768
297.891	1.96904
298.107	1.74043
298.323	1.23313
298.54	3.27379
298.756	1.51063
298.973	0.82067
299.189	3.33497
299.406	1.50356
299.622	2.94858
299.838	2.90611
300.055	2.85126
300.271	1.02055
300.487	1.31386
300.704	1.65519
300.92	1.01393
301.136	4.51719
301.353	2.85347
301.569	2.29484
301.785	2.40481
302.001	2.95282
302.218	2.57568
302.434	2.76491
302.65	1.10701
302.866	1.98431
303.083	4.39454
303.299	4.17138
303.515	2.49789
303.731	2.66393
303.947	1.23244
304.163	1.74429
304.379	2.50171
304.595	2.91697
304.812	1.78433
305.028	1.82934
305.244	2.1053
305.46	3.09208
305.676	3.09033
305.892	3.72465
306.108	2.82476
306.324	2.10119
306.54	4.22487
306.756	2.95586
306.972	2.82716
307.187	2.28189
307.403	3.56153
307.619	1.96094
307.835	3.49363
308.051	3.83751
308.267	1.59494
308.483	3.53095
308.699	2.90665
308.914	2.48595
309.13	2.31521
309.346	1.20559
309.562	1.5349
309.778	1.24976
309.993	2.90559
310.209	2.49342
310.425	1.44961
310.641	2.3239
310.856	1.63529
311.072	1.55672
311.288	2.45115
311.503	2.63149
311.719	0.97563
311.935	0.86819
312.15	2.91337
312.366	2.51515
312.581	2.87958
312.797	2.37801
313.013	3.24036
313.228	1.91153
313.444	2.27394
313.659	1.9964
313.875	2.94716
314.09	2.28244
314.306	3.73933
314.521	3.22652
314.737	3.24672
314.952	2.40393
315.168	2.47708
315.383	2.75775
315.599	2.19518
315.814	1.99709
316.029	3.2033
316.245	1.53089
316.46	1.15268
316.675	3.6126
316.891	4.09918
317.106	4.86932
317.321	2.68145
317.537	3.23085
317.752	3.38014
317.967	3.34584
318.183	1.59351
318.398	2.21913
318.613	3.22537
318.828	3.86781
319.043	3.27436
319.259	2.27727
319.474	2.71714
319.689	3.58789
319.904	1.11275
320.119	3.31483
320.334	2.94014
320.549	2.26896
320.765	3.49338
320.98	2.92606
321.195	3.02447
321.41	2.39592
321.625	3.2523
321.84	4.18307
322.055	4.01495
322.27	2.00084
322.485	1.58304
322.7	2.92085
322.915	3.11923
323.13	1.83581
323.345	3.98651
323.56	3.61869
323.775	3.16252
323.989	2.95267
324.204	2.69781
324.419	3.54791
324.634	1.63623
324.849	2.47953
325.064	5.54811
325.279	3.46763
325.493	3.04711
325.708	3.4056
325.923	2.01145
326.138	2.15386
326.352	4.05074
326.567	3.49089
326.782	2.2577
326.997	2.10696
327.211	3.14817
327.426	2.83187
327.641	2.34304
327.855	1.26073
328.07	2.95287
328.285	4.12521
328.499	2.19708
328.714	2.75294
328.928	3.14256
329.143	2.35576
329.358	3.47538
329.572	3.43881
329.787	3.82054
330.001	4.76207
330.216	1.49953
330.43	4.38255
330.645	4.08695
330.859	3.32768
331.074	2.01753
331.288	2.77076
331.503	3.88593
331.717	1.791
331.931	2.79531
332.146	2.76637
332.36	4.25521
332.575	2.9458
332.789	2.99088
333.003	2.81869
333.218	3.06984
333.432	2.18631
333.646	3.61461
333.86	4.15549
334.075	4.13106
334.289	2.23661
334.503	1.82348
334.717	3.19439
334.932	3.07385
335.146	3.58206
335.36	2.24496
335.574	3.18099
335.788	2.99989
336.003	3.54817
336.217	3.28475
336.431	3.20927
336.645	2.30274
336.859	1.72183
337.073	2.55553
337.287	2.86198
337.501	1.75978
337.715	3.01018
337.929	3.46364
338.143	1.7221
338.357	2.6615
338.571	2.19906
338.785	3.31164
338.999	2.35971
339.213	2.26481
339.427	1.60874
339.641	3.88731
339.855	2.4809
340.069	2.24171
340.283	3.45032
340.497	4.1722
340.711	3.13136
340.924	2.62498
341.138	1.80146
341.352	1.67865
341.566	2.94028
341.78	1.39468
341.993	2.40223
342.207	2.10257
342.421	2.86295
342.635	2.47543
342.848	2.38442
343.062	0.94559
343.276	2.08618
343.49	4.28717
343.703	2.14017
343.917	3.49765
344.131	3.59922
344.344	2.13463
344.558	2.41194
344.771	1.84117
344.985	4.03322
345.199	3.99996
345.412	3.01051
345.626	2.95855
345.839	1.37308
346.053	1.83109
346.266	1.82043
346.48	3.2598
346.693	3.04685
346.907	2.879
347.12	1.84371
347.334	2.8794
347.547	2.94095
347.76	2.70185
347.974	3.73685
348.187	2.95579
348.401	2.48672
348.614	2.12757
348.827	2.41874
349.041	3.19069
349.254	1.27379
349.467	2.35492
349.681	1.73893
349.894	2.03956
350.107	3.63362
350.32	4.16446
350.534	1.52358
350.747	2.38746
350.96	1.97382
351.173	2.2473
351.386	2.33264
351.6	2.24275
351.813	2.23917
352.026	2.50186
352.239	1.72266
352.452	2.46776
352.665	3.40857
352.878	2.56844
353.092	4.16478
353.305	3.22673
353.518	2.76171
353.731	1.99895
353.944	3.56285
354.157	2.35828
354.37	2.10738
354.583	1.83467
354.796	1.54363
355.009	3.43577
355.222	2.88418
355.435	2.75492
355.647	3.39357
355.86	1.95437
356.073	2.65046
356.286	2.20398
356.499	3.16761
356.712	3.09294
356.925	3.0709
357.138	3.18576
357.35	1.9998
357.563	2.33513
357.776	2.77649
357.989	2.4811
358.201	2.928
358.414	2.84342
358.627	3.62037
358.84	2.55195
359.052	1.73577
359.265	2.07228
359.478	3.29213
359.69	0.90822
359.903	3.13617
360.116	3.41188
360.328	1.49674
360.541	3.28573
360.753	1.93221
360.966	2.31193
361.179	2.42903
361.391	2.34752
361.604	2.08107
361.816	2.43214
362.029	2.23087
362.241	2.06753
362.454	2.327
362.666	2.0244
362.879	2.97263
363.091	2.37235
363.304	2.14273
363.516	2.52016
363.728	1.89191
363.941	2.97206
364.153	2.54499
364.366	1.18863
364.578	1.87972
364.79	2.82023
365.003	2.63369
365.215	2.25498
365.427	3.00897
365.639	3.41061
365.852	2.73539
366.064	4.23696
366.276	2.44498
366.488	2.95614
366.701	2.44264
366.913	2.63448
367.125	2.48795
367.337	2.13383
367.549	2.28141
367.762	2.74392
367.974	2.66941
368.186	2.37795
368.398	3.28747
368.61	3.13214
368.822	3.19601
369.034	2.63774
369.246	3.299
369.458	4.83719
369.67	2.22958
369.882	4.04444
370.094	1.48914
370.306	3.96709
370.518	2.50473
370.73	2.36278
370.942	2.39286
371.154	2.78273
371.366	2.40309
371.578	3.06548
371.79	2.42872
372.002	3.63896
372.214	4.23571
372.425	2.79835
372.637	3.85932
372.849	3.16256
373.061	1.55341
373.273	3.12671
373.484	3.15134
373.696	3.51418
373.908	1.56555
374.12	3.75823
374.331	3.23196
374.543	2.56735
374.755	2.28048
374.967	3.14463
375.178	3.609
375.39	2.75703
375.602	3.08795
375.813	2.04092
376.025	2.35971
376.236	3.237
376.448	3.25938
376.66	2.81687
376.871	2.82184
377.083	3.9517
377.294	4.19965
377.506	2.86467
377.717	4.05247
377.929	3.3237
378.14	2.87957
378.352	3.36116
378.563	3.43094
378.775	4.14805
378.986	2.4771
379.197	3.18723
379.409	2.76375
379.62	3.6978
379.832	3.46473
380.043	3.06102
380.254	3.39206
380.466	2.57772
380.677	5.23409
380.888	4.6358
381.1	4.98793
381.311	5.07028
381.522	3.4972
381.733	5.33936
381.945	3.36465
382.156	3.40078
382.367	3.09775
382.578	5.35868
382.789	5.35471
383.001	3.09587
383.212	4.50133
383.423	4.65096
383.634	4.37767
383.845	4.08796
384.056	3.37389
384.267	3.76792
384.478	3.68018
384.69	2.88756
384.901	3.92331
385.112	3.84964
385.323	4.84964
385.534	3.977
385.745	3.95511
385.956	4.01198
386.167	3.19284
386.378	4.1253
386.588	3.27736
386.799	3.30224
387.01	2.86683
387.221	4.38214
387.432	3.85653
387.643	5.02061
387.854	3.70623
388.065	3.75454
388.275	3.79739
388.486	3.59649
388.697	3.84693
388.908	3.69178
389.119	4.78583
389.329	5.00204
389.54	4.14618
389.751	4.34553
389.962	4.95725
390.172	4.19915
390.383	3.83439
390.594	3.65632
390.804	3.76549
391.015	3.84881
391.226	4.3784
391.436	4.61835
391.647	4.54465
391.858	4.65948
392.068	3.26245
392.279	3.70487
392.489	4.50466
392.7	5.05484
392.91	3.91889
393.121	3.84406
393.331	4.64457
393.542	5.00776
393.752	4.93824
393.963	4.72899
394.173	4.71109
394.384	4.7988
394.594	4.54872
394.804	3.82906
395.015	4.62038
395.225	4.83985
395.436	4.04541
395.646	4.81754
395.856	4.28151
396.067	3.67593
396.277	5.19514
396.487	4.7998
396.697	4.84121
396.908	4.97593
397.118	4.90552
397.328	4.77215
397.538	5.29291
397.749	4.14669
397.959	5.22044
398.169	5.08732
398.379	3.90768
398.589	5.11618
398.8	4.94276
399.01	4.85469
399.22	4.60079
399.43	6.17815
399.64	4.8267
399.85	5.31415
400.06	4.91737
400.27	4.44569
400.48	4.85786
400.69	5.78139
400.9	4.63771
401.11	4.39672
401.32	5.44982
401.53	4.68104
401.74	5.92082
401.95	5.30954
402.16	4.5978
402.37	5.23577
402.58	4.91685
402.79	5.45854
403	5.76812
403.209	4.75258
403.419	5.84045
403.629	4.73461
403.839	5.89074
404.049	5.76817
404.258	5.04779
404.468	4.95104
404.678	5.69601
404.888	6.08762
405.097	5.12472
405.307	5.34249
405.517	5.76496
405.727	5.68545
405.936	5.26331
406.146	5.65903
406.356	6.24042
406.565	5.43052
406.775	5.19684
406.984	5.2862
407.194	6.5656
407.404	5.4587
407.613	5.91256
407.823	5.99544
408.032	6.17376
408.242	6.21435
408.451	5.27926
408.661	5.58764
408.87	6.74395
409.08	5.20819
409.289	5.85296
409.499	5.83853
409.708	5.88418
409.918	4.66049
410.127	5.96999
410.336	6.81807
410.546	6.2965
410.755	5.5621
410.964	5.79525
411.174	5.36468
411.383	6.10058
411.592	6.19847
411.802	5.47891
412.011	6.37969
412.22	5.85433
412.429	7.14895
412.639	6.92506
412.848	6.66176
413.057	6.93716
413.266	6.75309
413.475	6.17614
413.685	6.51348
413.894	6.72335
414.103	6.83233
414.312	6.66954
414.521	6.12272
414.73	6.44994
414.939	7.61678
415.148	6.70199
415.357	6.55547
415.566	6.35415
415.776	6.38781
415.985	6.45667
416.194	7.03707
416.403	7.78928
416.611	6.00189
416.82	6.54478
417.029	6.92257
417.238	6.51259
417.447	6.4986
417.656	6.82942
417.865	6.5567
418.074	6.90798
418.283	7.05354
418.492	7.65157
418.7	7.48937
418.909	8.39489
419.118	7.52449
419.327	7.92167
419.536	7.75457
419.744	7.8437
419.953	8.98787
420.162	9.17771
420.371	8.60634
420.579	9.10327
420.788	9.87339
420.997	9.97129
421.205	10.27518
421.414	10.14746
421.623	10.19146
421.831	9.86312
422.04	10.35741
422.249	9.56254
422.457	9.91715
422.666	9.2194
422.874	10.04759
423.083	10.07401
423.291	10.05125
423.5	9.97099
423.708	10.27315
423.917	10.81727
424.125	10.46881
424.334	10.24056
424.542	11.82573
424.751	11.33558
424.959	10.92131
425.167	11.20159
425.376	10.91458
425.584	9.86706
425.793	9.89338
426.001	9.02858
426.209	9.12465
426.418	8.22474
426.626	7.95313
426.834	7.8133
427.042	8.1575
427.251	7.84716
427.459	8.59891
427.667	8.21315
427.875	7.4959
428.084	7.87355
428.292	8.73072
428.5	8.40439
428.708	7.54334
428.916	7.58244
429.124	8.24396
429.333	7.92862
429.541	8.04898
429.749	8.22621
429.957	8.08068
430.165	9.82268
430.373	7.5
430.581	8.2754
430.789	9.10003
430.997	8.07572
431.205	7.87729
431.413	8.50932
431.621	8.11016
431.829	8.78226
432.037	8.28217
432.245	8.69936
432.453	8.68185
432.661	8.52266
432.869	9.66265
433.076	8.29869
433.284	8.63188
433.492	9.07815
433.7	9.37016
433.908	8.62998
434.116	8.82503
434.323	8.9357
434.531	8.71375
434.739	9.06466
434.947	9.31903
435.154	9.21965
435.362	8.83198
435.57	8.68201
435.778	8.47221
435.985	8.97762
436.193	8.60298
436.401	9.47651
436.608	8.87508
436.816	8.67263
437.023	9.68068
437.231	9.74771
437.439	9.0443
437.646	9.26029
437.854	9.17433
438.061	9.40311
438.269	9.03305
438.476	9.40637
438.684	9.07385
438.891	9.09446
439.099	8.82775
439.306	8.70329
439.514	8.72406
439.721	9.69694
439.929	9.43187
440.136	10.30627
440.343	10.37304
440.551	10.27328
440.758	11.79239
440.965	10.57696
441.173	10.42114
441.38	10.25445
441.587	10.06456
441.795	9.84936
442.002	9.62553
442.209	9.53573
442.416	9.72057
442.624	9.76267
442.831	9.50598
443.038	9.14055
443.245	8.93181
443.452	9.21649
443.66	9.71273
443.867	9.11783
444.074	9.177
444.281	9.20948
444.488	9.40189
444.695	9.54596
444.902	9.3273
445.109	10.42129
445.316	10.32889
445.523	10.68425
445.73	10.93255
445.937	11.75619
446.144	12.22711
446.351	12.6832
446.558	11.84933
446.765	13.47968
446.972	12.89914
447.179	12.58766
447.386	12.98429
447.593	11.55309
447.8	12.35345
448.007	11.02638
448.214	10.47866
448.42	9.93766
448.627	10.34379
448.834	9.84545
449.041	9.68252
449.248	9.64541
449.454	10.09995
449.661	10.75577
449.868	9.53824
450.075	9.4841
450.281	8.73897
450.488	9.21682
450.695	9.31845
450.901	9.42869
451.108	9.55546
451.315	10.31652
451.521	9.65834
451.728	10.40336
451.935	9.48408
452.141	9.78246
452.348	9.80398
452.554	9.92758
452.761	9.62595
452.967	10.80015
453.174	10.01969
453.38	10.1622
453.587	9.36832
453.793	10.08989
454	10.43079
454.206	11.06836
454.413	10.45089
454.619	10.34337
454.825	9.72579
455.032	10.46392
455.238	10.44934
455.445	9.49764
455.651	10.24067
455.857	9.26168
456.064	9.92016
456.27	9.86279
456.476	9.82241
456.682	9.48832
456.889	10.34724
457.095	10.35684
457.301	11.43666
457.507	10.27889
457.714	10.28601
457.92	10.26753
458.126	9.88655
458.332	10.25387
458.538	10.06114
458.744	10.30521
458.951	10.27683
459.157	12.27812
459.363	11.74314
459.569	12.2107
459.775	12.90375
459.981	12.64054
460.187	13.17418
460.393	13.36334
460.599	13.42689
460.805	12.54236
461.011	11.66347
461.217	11.52245
461.423	11.18585
461.629	10.58754
461.835	10.96489
462.041	10.48261
462.247	11.32167
462.453	10.48314
462.658	10.48417
462.864	11.01609
463.07	10.58258
463.276	10.70277
463.482	10.55185
463.688	11.31062
463.893	10.33461
464.099	10.59021
464.305	11.37702
464.511	10.49389
464.716	10.6902
464.922	11.22022
465.128	10.39349
465.333	11.69142
465.539	11.15008
465.745	10.86354
465.95	10.8849
466.156	12.25774
466.362	11.53184
466.567	10.95394
466.773	10.54614
466.978	11.69187
467.184	10.51013
467.389	9.98886
467.595	11.00357
467.8	10.61191
468.006	11.81408
468.211	11.61392
468.417	10.4577
468.622	11.25846
468.828	11.43732
469.033	11.2288
469.239	12.44804
469.444	10.77793
469.649	11.54633
469.855	11.0664
470.06	11.10217
470.266	10.73737
470.471	11.40311
470.676	11.31697
470.881	10.30569
471.087	11.87035
471.292	12.56004
471.497	10.57909
471.703	11.11018
471.908	10.95387
472.113	11.28994
472.318	11.64061
472.523	10.72092
472.729	11.45187
472.934	11.56814
473.139	11.03871
473.344	11.36323
473.549	11.92298
473.754	10.98535
473.959	12.84618
474.164	10.98762
474.369	11.17968
474.575	11.70659
474.78	11.39852
474.985	11.01729
475.19	10.46861
475.395	10.92808
475.6	11.42928
475.804	12.21816
476.009	11.45918
476.214	11.42169
476.419	11.38076
476.624	10.79628
476.829	11.0592
477.034	11.9712
477.239	11.23044
477.444	11.90842
477.648	11.88788
477.853	11.88375
478.058	11.49704
478.263	11.23051
478.468	11.19558
478.672	11.19178
478.877	12.38879
479.082	12.43215
479.287	11.95185
479.491	11.60939
479.696	11.36312
479.901	12.1117
480.105	12.21047
480.31	11.42425
480.515	11.80391
480.719	12.82034
480.924	11.59223
481.128	11.3411
481.333	12.01853
481.538	12.02431
481.742	12.47157
481.947	13.56674
482.151	14.78592
482.356	15.81087
482.56	18.28408
482.765	20.4478
482.969	24.22258
483.174	27.37266
483.378	31.58264
483.582	33.28961
483.787	35.89901
483.991	37.04732
484.196	37.81337
484.4	37.27362
484.604	37.74201
484.809	34.8393
485.013	32.9146
485.217	29.88269
485.422	26.71622
485.626	24.22233
485.83	22.58982
486.034	21.68689
486.239	21.8361
486.443	22.30846
486.647	22.77385
486.851	24.10845
487.055	25.91773
487.26	26.25333
487.464	27.51751
487.668	27.44675
487.872	28.32467
488.076	28.29336
488.28	27.52941
488.484	25.91241
488.688	25.15973
488.892	23.95321
489.096	22.15401
489.3	20.59994
489.504	19.24632
489.708	17.99539
489.912	17.40466
490.116	17.05302
490.32	16.70885
490.524	18.01196
490.728	18.98232
490.932	20.16107
491.136	21.49515
491.34	23.01577
491.544	23.56402
491.748	23.90175
491.951	23.9037
492.155	23.44827
492.359	22.8788
492.563	21.31066
492.767	19.99043
492.97	18.03603
493.174	16.22585
493.378	14.7588
493.582	13.1857
493.785	12.54155
493.989	12.57437
494.193	12.56631
494.396	12.37149
494.6	12.83915
494.804	12.48342
495.007	12.15978
495.211	12.29855
495.414	12.33726
495.618	12.70559
495.822	13.18466
496.025	12.55456
496.229	12.91634
496.432	12.25876
496.636	12.7089
496.839	12.6688
497.043	13.42541
497.246	12.94328
497.45	12.55015
497.653	12.9494
497.856	12.75371
498.06	12.35363
498.263	12.7207
498.467	12.60625
498.67	13.12125
498.873	12.90982
499.077	12.64716
499.28	12.69217
499.483	12.83693
499.686	13.02373
499.89	12.82702
500.093	13.12559
500.296	12.42238
500.499	13.46713
500.703	12.79591
500.906	12.95014
501.109	13.54458
501.312	12.8296
501.515	12.75883
501.719	12.93029
501.922	13.34656
502.125	12.77208
502.328	12.68855
502.531	12.31494
502.734	12.73222
502.937	11.99525
503.14	12.9198
503.343	12.42173
503.546	12.7545
503.749	12.51185
503.952	13.2644
504.155	12.59599
504.358	13.17552
504.561	12.91441
504.764	12.36373
504.967	12.90944
505.17	12.87997
505.373	13.65026
505.576	12.9499
505.778	13.1806
505.981	12.54094
506.184	13.54368
506.387	12.10341
506.59	13.95872
506.793	13.39597
506.995	13.22383
507.198	12.20489
507.401	13.27678
507.604	13.2104
507.806	12.574
508.009	12.69105
508.212	13.61373
508.414	12.81456
508.617	12.93784
508.82	13.08906
509.022	13.88929
509.225	13.37292
509.427	12.56511
509.63	13.72889
509.833	13.16838
510.035	12.99925
510.238	12.4761
510.44	13.8112
510.643	12.4236
510.845	14.15254
511.048	13.29645
511.25	12.91136
511.453	13.12864
511.655	13.38256
511.858	13.13146
512.06	13.6537
512.262	13.33111
512.465	13.66825
512.667	13.07678
512.869	12.75332
513.072	13.42166
513.274	13.61483
513.476	13.52348
513.679	13.6149
513.881	12.75794
514.083	14.00418
514.286	12.92359
514.488	12.89091
514.69	12.83314
514.892	12.52489
515.094	13.62744
515.297	12.8967
515.499	13.28769
515.701	12.90359
515.903	14.0716
516.105	14.04323
516.307	13.6944
516.509	12.50126
516.711	12.80851
516.913	13.346
517.116	13.47233
517.318	13.20454
517.52	13.99648
517.722	13.69763
517.924	12.91889
518.126	13.73144
518.328	13.45877
518.529	14.17515
518.731	15.03574
518.933	13.62182
519.135	13.937
519.337	14.56039
519.539	13.83311
519.741	12.83631
519.943	13.41732
520.145	13.32414
520.346	13.86035
520.548	13.24518
520.75	13.61654
520.952	13.26631
521.153	13.67522
521.355	13.78211
521.557	13.04633
521.759	13.58714
521.96	13.45152
522.162	13.03686
522.364	14.07675
522.565	13.13337
522.767	13.88583
522.969	13.93713
523.17	13.86888
523.372	13.74733
523.573	13.30482
523.775	13.45325
523.977	13.25708
524.178	14.59844
524.38	13.33023
524.581	14.01258
524.783	13.58849
524.984	14.03689
525.186	13.93593
525.387	14.69233
525.589	14.7695
525.79	15.08685
525.991	15.1953
526.193	15.86892
526.394	15.39257
526.596	16.27165
526.797	16.69054
526.998	16.44736
527.2	17.33407
527.401	19.63967
527.602	21.33475
527.803	24.38977
528.005	26.3503
528.206	28.56042
528.407	30.2254
528.608	31.08917
528.81	31.69881
529.011	31.40179
529.212	32.29215
529.413	30.58373
529.614	28.69998
529.815	26.97493
530.017	24.77068
530.218	21.98649
530.419	19.73323
530.62	18.69947
530.821	17.58037
531.022	16.02756
531.223	16.45785
531.424	16.10139
531.625	16.19402
531.826	15.85079
532.027	16.69754
532.228	18.0753
532.429	18.59819
532.63	19.39638
532.831	20.74137
533.032	21.2547
533.233	22.28961
533.433	22.05231
533.634	22.33766
533.835	21.55979
534.036	20.76248
534.237	19.93409
534.438	18.69113
534.638	17.01536
534.839	16.05042
535.04	15.3518
535.241	14.50636
535.441	15.17915
535.642	14.80279
535.843	14.5972
536.043	14.90384
536.244	15.39661
536.445	15.65469
536.645	16.48135
536.846	16.20457
537.047	16.56685
537.247	15.57184
537.448	15.04041
537.648	14.71001
537.849	14.24002
538.049	14.13959
538.25	14.51431
538.451	14.32434
538.651	13.81548
538.851	14.46638
539.052	14.80446
539.252	14.58443
539.453	14.23728
539.653	14.37455
539.854	14.3008
540.054	14.51277
540.254	16.62412
540.455	18.36056
540.655	19.1758
540.855	21.48396
541.056	22.98105
541.256	23.45729
541.456	24.6081
541.657	24.62165
541.857	25.19278
542.057	23.84253
542.257	23.16199
542.458	22.86744
542.658	21.84274
542.858	19.67987
543.058	19.03599
543.258	18.04884
543.458	16.35566
543.659	15.6609
543.859	15.91115
544.059	15.35806
544.259	14.62411
544.459	15.11775
544.659	14.42996
544.859	14.72885
545.059	14.4796
545.259	15.03834
545.459	14.76809
545.659	15.09641
545.859	14.67344
546.059	14.91793
546.259	14.40858
546.459	14.1347
546.659	14.31821
546.859	15.10662
547.059	14.82181
547.258	14.89608
547.458	14.87941
547.658	14.24929
547.858	14.03975
548.058	14.60282
548.258	14.35591
548.457	14.15605
548.657	15.7125
548.857	14.35149
549.057	14.92487
549.256	14.65071
549.456	14.17968
549.656	13.46508
549.855	15.49873
550.055	14.16347
550.255	15.32209
550.454	14.63186
550.654	14.90077
550.853	15.36661
551.053	14.84508
551.253	14.67237
551.452	14.9491
551.652	13.96586
551.851	13.58754
552.051	14.35213
552.25	14.18087
552.45	14.18313
552.649	14.39207
552.849	14.19794
553.048	14.72378
553.248	15.07053
553.447	13.9404
553.646	14.94383
553.846	16.04401
554.045	15.33855
554.244	13.8348
554.444	15.28659
554.643	13.91973
554.842	15.32916
555.042	15.65057
555.241	13.97115
555.44	13.7483
555.64	14.80405
555.839	15.42316
556.038	14.84399
556.237	14.05882
556.436	14.6989
556.636	14.54479
556.835	14.03849
557.034	15.37908
557.233	14.40172
557.432	13.3774
557.631	14.95295
557.83	14.31294
558.029	14.1219
558.228	14.08905
558.427	13.97571
558.626	14.7003
558.825	13.79962
559.024	14.2815
559.223	15.57318
559.422	14.2045
559.621	14.73111
559.82	12.95224
560.019	14.49635
560.218	14.03826
560.417	12.90799
560.616	14.02177
560.815	16.53753
561.014	13.55141
561.212	15.54505
561.411	14.57718
561.61	13.80838
561.809	14.39411
562.008	15.64991
562.206	14.35232
562.405	14.79978
562.604	14.47724
562.803	14.5169
563.001	14.43748
563.2	13.65912
563.399	14.75182
563.597	13.67371
563.796	14.4961
563.995	13.66728
564.193	14.9627
564.392	14.31552
564.59	15.86682
564.789	13.50052
564.988	14.44039
565.186	14.75031
565.385	14.52232
565.583	14.35694
565.782	14.64771
565.98	14.50529
566.179	14.57016
566.377	14.14128
566.575	14.2038
566.774	15.66507
566.972	15.31048
567.171	15.98392
567.369	15.44884
567.567	14.85854
567.766	14.72781
567.964	13.55143
568.162	14.96443
568.361	15.592
568.559	14.41086
568.757	14.82923
568.956	14.68572
569.154	14.67995
569.352	14.87735
569.55	14.64938
569.748	14.64667
569.947	14.28347
570.145	14.11298
570.343	14.08881
570.541	15.69903
570.739	13.97154
570.937	14.74649
571.135	15.0575
571.333	16.25793
571.532	16.16364
571.73	14.98783
571.928	15.54856
572.126	15.32245
572.324	14.60413
572.522	15.65114
572.72	16.66656
572.918	14.88155
573.116	15.31244
573.313	14.69547
573.511	14.7544
573.709	14.479
573.907	15.45415
574.105	14.58959
574.303	13.96972
574.501	13.91978
574.699	15.15461
574.896	15.04512
575.094	15.24099
575.292	14.02967
575.49	15.43693
575.688	14.74798
575.885	15.67503
576.083	16.36448
576.281	15.28269
576.478	14.39991
576.676	15.15195
576.874	13.65889
577.071	14.60752
577.269	16.296
577.467	14.6687
577.664	14.55589
577.862	15.38755
578.059	14.10618
578.257	15.39494
578.455	14.47709
578.652	14.81968
578.85	13.3359
579.047	14.90001
579.245	14.45082
579.442	14.83862
579.64	14.50203
579.837	13.37256
580.034	16.53269
580.232	14.66006
580.429	13.79086
580.627	15.06079
580.824	15.60354
581.021	15.00048
581.219	14.41851
581.416	14.17612
581.613	15.84823
581.811	15.69027
582.008	13.88929
582.205	15.431
582.402	14.95719
582.6	16.48986
582.797	14.70483
582.994	15.08157
583.191	15.36893
583.388	14.46341
583.586	15.28222
583.783	15.41906
583.98	14.01968
584.177	14.79328
584.374	12.76388
584.571	14.57041
584.768	14.69454
584.965	14.2715
585.162	15.17827
585.359	16.16017
585.556	14.61975
585.753	15.01381
585.95	13.72832
586.147	14.0991
586.344	15.18941
586.541	14.39196
586.738	13.69116
586.935	14.57581
587.132	14.07874
587.329	15.70426
587.526	14.80198
587.722	18.81289
587.919	13.70766
588.116	15.19767
588.313	15.73531
588.51	16.50813
588.706	14.57725
588.903	15.48172
589.1	15.58452
589.297	17.15539
589.493	14.94521
589.69	15.43448
589.887	14.41538
590.083	14.06089
590.28	14.37248
590.477	15.68186
590.673	15.51559
590.87	16.17352
591.067	14.4301
591.263	15.0802
591.46	15.13538
591.656	14.72238
591.853	16.00687
592.049	14.18024
592.246	14.40004
592.442	15.65716
592.639	15.91946
592.835	14.0101
593.032	15.12016
593.228	13.71891
593.425	13.88209
593.621	13.76895
593.817	15.13375
594.014	14.28714
594.21	15.08689
594.406	15.8732
594.603	15.19592
594.799	14.40605
594.995	13.33316
595.192	15.9729
595.388	14.64511
595.584	14.55957
595.78	13.95614
595.977	17.17887
596.173	16.50579
596.369	15.09162
596.565	14.48644
596.761	14.11707
596.957	16.15617
597.154	14.68516
597.35	14.90668
597.546	14.6683
597.742	15.62264
597.938	15.48813
598.134	14.62518
598.33	15.24877
598.526	15.91633
598.722	15.11446
598.918	16.47254
599.114	15.37104
599.31	13.82104
599.506	14.82004
599.702	14.11376
599.898	14.80318
600.094	15.3412
600.29	15.48121
600.485	15.63248
600.681	14.03207
600.877	16.55194
601.073	15.00358
601.269	16.76853
601.465	16.11786
601.66	13.9104
601.856	13.3925
602.052	16.96487
602.248	14.91365
602.443	13.53572
602.639	14.22998
602.835	14.5017
603.03	14.38893
603.226	15.99419
603.422	14.5073
603.617	15.09361
603.813	15.01277
604.009	14.87202
604.204	16.2751
604.4	14.31375
604.595	16.15509
604.791	14.49397
604.986	15.62854
605.182	14.71703
605.377	14.94136
605.573	14.96732
605.768	15.14105
605.964	15.80898
606.159	15.60381
606.355	15.88926
606.55	14.66966
606.746	16.00807
606.941	14.8918
607.136	16.63817
607.332	17.28991
607.527	14.00585
607.722	15.0844
607.918	14.79285
608.113	14.44453
608.308	15.96193
608.503	15.75957
608.699	15.61695
608.894	15.9864
609.089	14.81118
609.284	15.69765
609.479	15.3267
609.675	16.0531
609.87	15.29598
610.065	16.21167
610.26	16.46174
610.455	16.23044
610.65	15.55164
610.845	15.89911
611.04	16.42389
611.235	15.51967
611.43	15.34428
611.625	14.67941
611.82	16.90964
612.015	14.90076
612.21	17.21339
612.405	14.08562
612.6	17.08453
612.795	16.86511
612.99	16.04135
613.185	14.39168
613.38	14.75038
613.575	15.6143
613.77	18.55221
613.965	13.95871
614.159	14.6778
614.354	16.5802
614.549	16.22362
614.744	15.8811
614.938	14.08405
615.133	13.70013
615.328	16.70404
615.523	16.2778
615.717	18.18199
615.912	14.62064
616.107	15.21332
616.301	14.87538
616.496	14.53231
616.691	16.79238
616.885	16.02916
617.08	18.50471
617.274	16.31225
617.469	17.29265
617.664	15.89902
617.858	14.72625
618.053	15.59125
618.247	15.08783
618.442	13.07805
618.636	16.94355
618.831	14.35041
619.025	14.61624
619.219	18.29453
619.414	12.19011
619.608	15.19887
619.803	14.73414
619.997	17.67958
620.191	16.39103
620.386	15.55606
620.58	15.27669
620.774	13.41417
620.969	13.60506
621.163	15.52489
621.357	14.00362
621.551	14.94696
621.746	15.40985
621.94	14.80711
622.134	18.95873
622.328	17.85816
622.522	13.61522
622.716	16.23405
622.911	16.42794
623.105	16.27432
623.299	15.65346
623.493	18.71449
623.687	14.42536
623.881	14.51556
624.075	16.04127
624.269	16.65922
624.463	13.17844
624.657	13.6504
624.851	16.03445
625.045	16.42563
625.239	16.55398
625.433	15.1285
625.627	17.37374
625.821	14.92134
626.015	14.78923
626.209	15.86067
626.403	14.20578
626.596	16.11869
626.79	16.46004
626.984	14.4899
627.178	16.26211
627.372	16.1749
627.565	16.49533
627.759	14.31391
627.953	14.29545
628.147	16.07003
628.34	16.45027
628.534	18.04423
628.728	15.08025
628.921	16.41875
629.115	16.07745
629.309	16.71769
629.502	16.64518
629.696	15.51225
629.89	15.46518
630.083	15.89714
630.277	15.88641
630.47	17.3442
630.664	14.97376
630.857	13.74614
631.051	16.72258
631.244	16.73552
631.438	16.40958
631.631	14.72151
631.825	17.0913
632.018	16.2701
632.212	17.72171
632.405	16.94284
632.598	14.50465
632.792	15.7082
632.985	12.80602
633.178	15.30243
633.372	15.56323
633.565	15.34809
633.758	17.00477
633.952	14.70183
634.145	14.4721
634.338	15.53491
634.531	15.14676
634.724	14.61411
634.918	15.62198
635.111	15.13165
635.304	15.27142
635.497	18.35223
635.69	15.77082
635.883	16.9121
636.077	14.18891
636.27	16.26978
636.463	16.01157
636.656	15.88737
636.849	15.33685
637.042	16.21234
637.235	18.06702
637.428	16.78451
637.621	16.23122
637.814	17.61653
638.007	17.61907
638.2	17.7033
638.393	18.33233
638.586	13.67704
638.778	15.01028
638.971	15.30734
639.164	17.55654
639.357	15.89226
639.55	17.91808
639.743	16.73184
639.935	16.27845
640.128	19.15063
640.321	17.02103
640.514	16.04006
640.707	18.6708
640.899	16.92641
641.092	13.50503
641.285	31.0311
641.477	12.76772
641.67	19.43266
641.863	17.88793
642.055	16.17742
642.248	15.84216
642.441	15.76522
642.633	16.53119
642.826	17.7735
643.018	18.00203
643.211	18.84786
643.403	18.63962
643.596	19.4513
643.788	18.31602
643.981	15.59031
644.173	17.06932
644.366	15.32623
644.558	13.68702
644.751	17.46189
644.943	14.18162
645.135	18.18552
645.328	18.75694
645.52	17.04155
645.712	17.98261
645.905	20.89675
646.097	14.43362
646.289	16.54012
646.482	19.70364
646.674	15.18289
646.866	18.17575
647.058	16.9034
647.251	14.5214
647.443	15.57089
647.635	15.94983
647.827	14.36377
648.019	14.85037
648.211	15.90225
648.404	16.44477
648.596	18.79899
648.788	16.69157
648.98	16.47169
649.172	17.34797
649.364	17.02596
649.556	14.11434
649.748	20.6876
649.94	15.70059
650.132	17.62564
650.324	15.10836
650.516	15.35012
650.708	18.23266
650.9	14.35925
651.092	15.75354
651.284	14.33028
651.476	15.00785
651.667	17.77929
651.859	18.64316
652.051	16.50073
652.243	16.71363
652.435	15.97814
652.627	17.53614
652.818	17.31934
653.01	14.38984
653.202	15.00626
653.394	15.57463
653.585	17.34854
653.777	23.76491
653.969	19.18364
654.16	18.59036
654.352	14.93833
654.544	16.5305
654.735	18.43748
654.927	16.60431
655.118	18.98606
655.31	18.03084
655.502	19.16045
655.693	16.48199
655.885	17.8699
656.076	19.04737
656.268	17.28462
656.459	19.40046
656.651	19.04265
656.842	16.12251
657.034	15.63901
657.225	18.52133
657.416	19.38857
657.608	19.09146
657.799	17.1508
657.99	19.46775
658.182	16.34055
658.373	16.3258
658.564	19.22658
658.756	17.97134
658.947	17.06627
659.138	16.07938
659.33	16.5025
659.521	16.32875
659.712	17.12312
659.903	16.85646
660.094	16.33524
660.286	14.79048
660.477	20.27204
660.668	18.33112
660.859	16.58149
661.05	14.79186
661.241	17.70843
661.432	17.60086
661.623	16.5406
661.814	16.92179
662.006	14.45451
662.197	17.68087
662.388	19.36089
662.579	17.6216
662.77	19.17161
662.96	22.14052
663.151	18.88482
663.342	14.02379
663.533	18.40875
663.724	16.99047
663.915	20.58798
664.106	17.35836
664.297	21.01427
664.488	18.36276
664.678	15.93803
664.869	19.0525
665.06	18.92394
665.251	17.65194
665.442	18.32026
665.632	15.47881
665.823	20.76508
666.014	12.21901
666.204	18.78032
666.395	19.74803
666.586	22.10111
666.776	18.85979
666.967	21.46016
667.158	17.61741
667.348	20.26129
667.539	15.67163
667.729	19.21098
667.92	16.39436
668.111	19.59653
668.301	19.11442
668.492	17.33179
668.682	17.92455
668.873	17.89953
669.063	15.52499
669.253	18.40016
669.444	20.73318
669.634	17.40463
669.825	21.61936
670.015	20.30134
670.206	16.3323
670.396	21.39954
670.586	17.17605
670.777	18.84755
670.967	13.73519
671.157	17.39601
671.347	16.42353
671.538	20.60294
671.728	19.3757
671.918	21.72999
672.108	19.76763
672.299	17.76387
672.489	18.66941
672.679	16.52475
672.869	19.04615
673.059	23.05941
673.249	18.81311
673.44	15.79564
673.63	17.70518
673.82	20.08433
674.01	16.37472
674.2	19.10584
674.39	23.87744
674.58	19.40417
674.77	18.49002
674.96	17.81153
675.15	26.79531
675.34	20.71297
675.53	18.05551
675.72	17.29646
675.91	14.7337
676.099	22.57273
676.289	23.46696
676.479	21.11284
676.669	17.36947
676.859	19.20963
677.049	16.94036
677.238	18.58817
677.428	23.06214
677.618	19.48901
677.808	22.8637
677.997	19.77869
678.187	17.06095
678.377	18.76617
678.567	17.70214
678.756	18.10001
678.946	18.99931
679.136	16.06564
679.325	17.67978
679.515	17.02551
679.704	16.67875
679.894	20.93434
680.084	19.79119
680.273	21.32585
680.463	17.35267
680.652	17.19756
680.842	18.89683
681.031	21.03635
681.221	17.50787
681.41	20.29479
681.6	18.75413
681.789	20.06125
681.978	21.55031
682.168	19.85033
682.357	19.23211
682.547	20.03347
682.736	19.5679
682.925	21.91606
683.115	21.87591
683.304	20.7594
683.493	19.32315
683.682	20.63022
683.872	20.13098
684.061	21.85634
684.25	20.21301
684.439	24.36258
684.629	21.13285
684.818	27.31169
685.007	19.22762
685.196	18.80204
685.385	24.24288
685.574	20.21408
685.763	20.55798
685.952	20.35631
686.142	17.38744
686.331	23.03753
686.52	16.12549
686.709	24.95077
686.898	23.75827
687.087	21.84689
687.276	24.13252
687.465	22.98507
687.654	19.46438
687.842	23.7517
688.031	17.67231
688.22	23.25474
688.409	21.00843
688.598	20.55214
688.787	26.10741
688.976	20.30539
689.165	25.33574
689.353	19.26632
689.542	21.5874
689.731	22.72924
689.92	25.9013
690.108	22.17548
690.297	19.45723
690.486	20.94148
690.675	22.32409
690.863	24.88143
691.052	24.78813
691.241	21.15945
691.429	21.58514
691.618	24.05697
691.806	17.94656
691.995	20.00782
692.184	20.75027
692.372	20.0922
692.561	20.97992
692.749	21.69733
692.938	29.75483
693.126	22.43962
693.315	20.24873
693.503	23.10994
693.692	23.89577
693.88	23.52783
694.068	26.66006
694.257	21.48486
694.445	23.18967
694.634	15.91766
694.822	23.51014
695.01	25.07699
695.199	27.4096
695.387	25.90816
695.575	24.63988
695.763	20.70364
695.952	20.1847
696.14	17.08166
696.328	19.64264
696.516	21.36926
696.705	22.48453
696.893	22.23599
697.081	17.02768
697.269	23.88571
697.457	18.80689
697.645	18.50004
697.833	23.60194
698.021	19.17759
698.21	20.3055
698.398	21.07243
698.586	18.78358
698.774	18.45863
698.962	21.06558
699.15	18.89002
699.338	17.75117
699.526	22.65764
699.714	19.59565
699.901	19.37626
700.089	22.99873
700.277	19.15181
700.465	20.88166
700.653	22.88896
700.841	21.88394
701.029	18.66102
701.217	25.29242
701.404	21.19773
701.592	25.80534
701.78	27.86088
701.968	20.7162
702.155	21.30142
702.343	18.40173
702.531	25.57147
702.718	22.99455
702.906	20.05108
703.094	20.49873
703.281	25.42273
703.469	21.53276
703.657	25.59752
703.844	32.48377
704.032	28.29168
704.219	21.09974
704.407	24.5027
704.595	26.98217
704.782	23.79066
704.97	22.28562
705.157	22.01787
705.345	29.75981
705.532	34.6663
705.719	26.17776
705.907	28.98214
706.094	25.77513
706.282	32.48724
706.469	26.06947
706.656	27.61351
706.844	26.41039
707.031	30.93021
707.218	29.3806
707.406	33.36972
707.593	30.86169
707.78	30.56452
707.968	28.77882
708.155	26.43016
708.342	31.05697
708.529	30.72076
708.716	29.69299
708.904	34.11084
709.091	30.83769
709.278	25.54015
709.465	35.76323
709.652	32.82001
709.839	32.4206
710.026	28.71022
710.213	22.72383
710.4	28.57884
710.587	29.92544
710.774	31.95808
710.961	31.49583
711.148	28.49217
711.335	31.40854
711.522	27.96083
711.709	29.63542
711.896	35.05332
712.083	31.61098
712.27	25.6717
712.457	29.47902
712.644	23.61035
712.831	35.78362
713.017	29.44109
713.204	31.20111
713.391	25.82478
713.578	31.53068
713.765	32.82088
713.951	28.73418
714.138	38.45175
714.325	27.93425
714.512	26.54821
714.698	23.48998
714.885	32.01684
715.072	26.23715
715.258	25.91706
715.445	23.49448
715.631	30.57379
715.818	16.89723
716.005	23.15363
716.191	27.65676
716.378	24.02779
716.564	27.99332
716.751	21.85158
716.937	24.20351
717.124	28.32826
717.31	21.64399
717.497	33.07051
717.683	22.30575
717.869	33.34133
718.056	22.98163
718.242	27.41543
718.429	24.36506
718.615	20.89355
718.801	25.25526
718.988	29.5056
719.174	26.91559
719.36	24.68002
719.547	30.28627
719.733	26.36923
719.919	27.12331
720.105	27.92194
720.291	25.17203
720.478	26.20705
720.664	25.31864
720.85	23.29191
721.036	36.82459
721.222	33.04214
721.408	26.10014
721.595	33.01979
721.781	32.3574
721.967	30.76809
722.153	32.8065
722.339	28.6535
722.525	27.55728
722.711	22.72326
722.897	20.91512
723.083	24.33313
723.269	30.19955
723.455	38.09504
723.641	44.45621
723.827	26.94174
724.012	28.28556
724.198	26.38745
724.384	32.51507
724.57	28.61015
724.756	20.62507
724.942	18.74259
725.127	31.73125
725.313	32.67059
725.499	32.06747
725.685	35.02658
725.87	28.61216
726.056	23.45236
726.242	32.68782
726.428	20.47038
726.613	30.85993
726.799	25.27694
726.985	22.65156
727.17	19.8811
727.356	36.20948
727.541	23.08575
727.727	25.57348
727.913	30.84702
728.098	25.45349
728.284	30.80484
728.469	22.38045
728.655	23.44341
728.84	32.05085
729.026	30.19152
729.211	30.30693
729.397	28.60148
729.582	30.30842
729.767	26.24503
729.953	29.3131
730.138	33.02183
730.323	17.35267
730.509	22.66319
730.694	34.69266
730.879	30.46561
731.065	28.23934
731.25	37.82815
731.435	30.14701
731.621	21.41123
731.806	24.70944
731.991	28.3272
732.176	20.74713
732.361	34.6496
732.547	28.49461
732.732	20.47324
732.917	37.889
733.102	22.33546
733.287	24.69127
733.472	26.52957
733.657	26.69796
733.842	21.45296
734.027	24.36114
734.212	27.02463
734.397	23.80419
734.582	27.74627
734.767	31.59326
734.952	34.10262
735.137	16.60637
735.322	34.92926
735.507	29.54098
735.692	27.9237
735.877	38.15959
736.062	37.05382
736.247	29.59117
736.431	27.72635
736.616	33.56451
736.801	28.9762
736.986	27.25388
737.171	23.46089
737.355	22.00511
737.54	34.23242
737.725	28.4552
737.909	41.57139
738.094	25.95802
738.279	32.09959
738.463	27.00237
738.648	31.4076
738.833	29.90263
739.017	38.28426
739.202	25.93174
739.386	26.64226
739.571	23.9631
739.756	32.22523
739.94	27.81448
740.125	30.88243
740.309	24.39956
740.494	31.86721
740.678	28.88142
740.863	30.34188
741.047	28.95887
741.231	36.98764
741.416	25.01884
741.6	36.43031
741.785	24.56382
741.969	32.80112
742.153	36.086
742.338	18.31732
742.522	28.14541
742.706	32.08282
742.89	23.10378
743.075	28.95707
743.259	35.83347
743.443	35.34532
743.627	35.20553
743.812	41.0745
743.996	20.27219
744.18	27.62465
744.364	26.62816
744.548	42.83692
744.732	27.51108
744.916	33.20822
745.1	32.17396
745.285	27.35146
745.469	32.45122
745.653	37.50557
745.837	23.19451
746.021	43.02106
746.205	36.04748
746.389	30.58001
746.573	27.71964
746.757	38.22818
746.94	27.20124
747.124	37.11142
747.308	23.9533
747.492	36.42738
747.676	23.9416
747.86	43.46314
748.044	26.78826
748.227	20.7451
748.411	51.60392
748.595	29.75074
748.779	25.54835
748.963	31.90145
749.146	30.11164
749.33	24.18046
749.514	24.12945
749.697	36.43152
749.881	26.58353
750.065	24.18551
750.248	30.82027
750.432	44.31213
750.616	29.43614
750.799	24.38449
750.983	44.79321
751.166	43.62661
751.35	22.05855
751.533	37.11342
751.717	39.60407
751.9	38.69934
752.084	28.5792
752.267	25.96511
752.451	25.88386
752.634	30.44017
752.818	33.17514
753.001	35.11242
753.184	36.99974
753.368	32.40643
753.551	11.89049
753.734	25.93137
753.918	45.80498
754.101	27.17691
754.284	34.40421
754.467	28.25524
754.651	26.41797
754.834	26.53215
755.017	36.17288
755.2	38.5115
755.384	24.39635
755.567	35.16116
755.75	35.08342
755.933	28.2536
756.116	35.5244
756.299	27.98904
756.482	25.27812
756.665	34.03382
756.848	28.82895
757.032	31.74508
757.215	21.65205
757.398	25.1161
757.581	25.29224
757.764	48.28486
757.947	30.04969
758.129	36.48953
758.312	14.21889
758.495	28.69841
758.678	29.73665
758.861	28.01389
759.044	42.46536
759.227	23.72793
759.41	25.09683
759.592	35.87509
759.775	29.02008
759.958	36.87981
760.141	22.73808
760.324	45.95103
760.506	40.4665
760.689	36.03447
760.872	44.15017
761.054	33.03955
761.237	28.9758
761.42	32.09145
761.602	36.27701
761.785	32.24165
761.968	37.49805
762.15	41.30272
762.333	29.64648
762.515	33.68515
762.698	28.38501
762.88	37.30841
763.063	33.73167
763.245	38.20737
763.428	25.8057
763.61	28.19967
763.793	23.46572
763.975	33.03385
764.158	29.05232
764.34	26.80511
764.522	25.25165
764.705	29.29833
764.887	39.83124
765.069	21.44845
765.252	34.02474
765.434	34.82756
765.616	31.76453
765.799	26.02108
765.981	35.50924
766.163	26.95613
766.345	38.54271
766.528	27.01938
766.71	18.60648
766.892	32.60352
767.074	40.45441
767.256	28.66529
767.438	42.50477
767.62	32.89224
767.802	47.19518
767.985	35.84322
768.167	44.24404
768.349	28.53408
768.531	35.66733
768.713	33.51294
768.895	37.99161
769.077	34.85291
769.259	50.28796
769.441	68.07602
769.623	36.53902
769.804	42.65296
769.986	40.71122
770.168	49.34396
770.35	59.55906
770.532	44.88064
770.714	49.22308
770.896	49.34493
771.077	23.62033
771.259	51.30182
771.441	44.55015
771.623	52.8921
771.804	63.13419
771.986	25.48792
772.168	35.85048
772.35	49.75287
772.531	66.1748
772.713	43.98722
772.894	56.02464
773.076	42.96662
773.258	37.75182
773.439	58.98928
773.621	62.37417
773.802	32.74236
773.984	37.13878
774.166	45.76257
774.347	59.78125
774.529	54.14224
774.71	24.4387
774.891	40.99093
775.073	38.03344
775.254	56.85731
775.436	35.85863
775.617	68.49585
775.799	37.27201
775.98	55.69264
776.161	62.19836
776.343	64.87668
776.524	42.30492
776.705	40.8357
776.886	25.83632
777.068	46.31709
777.249	93.82865
777.43	66.56493
777.611	31.34088
777.793	39.5933
777.974	64.28578
778.155	36.30005
778.336	32.95646
778.517	72.05081
778.698	35.75374
778.879	23.92473
779.061	16.75012
779.242	49.43795
779.423	48.18497
779.604	38.27167
779.785	41.81983
779.966	46.32165
780.147	56.68627
780.328	56.28404
780.509	75.72222
780.69	54.17095
780.871	35.46076
781.051	27.9263
781.232	44.84469
781.413	44.50594
781.594	38.50649
781.775	39.40161
781.956	34.22063
782.137	23.24025
782.317	38.46915
782.498	45.88793
782.679	44.69196
782.86	47.2294
783.04	36.59228
783.221	46.64872
783.402	65.83106
783.583	44.62733
783.763	55.44259
783.944	38.76853
784.124	29.44751
784.305	66.46938
784.486	51.61821
784.666	43.71019
784.847	28.79745
785.027	86.31743
785.208	35.99597
785.388	36.30087
785.569	36.74227
785.749	41.01633
785.93	37.15151
786.11	28.4436
786.291	51.11958
786.471	46.11693
786.652	54.14365
786.832	41.227
787.012	45.76978
787.193	30.14337
787.373	44.51056
787.553	37.0352
787.734	47.82597
787.914	39.30684
788.094	56.8568
788.275	48.06598
788.455	39.20002
788.635	30.39038
788.815	47.45416
788.995	32.92475
789.176	27.26459
789.356	35.15739
789.536	40.79087
789.716	48.64147
789.896	35.68923
790.076	38.33115
790.256	47.29846
790.436	20.0736
790.616	30.99189
790.796	45.61907
790.976	38.53579
791.156	34.81088
791.336	50.31679
791.516	47.74087
791.696	41.02148
791.876	27.52134
792.056	45.83091
792.236	55.38701
792.416	52.84158
792.596	48.89398
792.776	48.26732
792.956	51.29516
793.135	66.54487
793.315	33.00272
793.495	55.91707
793.675	52.61189
793.854	52.66712
794.034	54.80564
794.214	32.47496
794.394	52.9222
794.573	58.70388
794.753	46.39105
794.933	34.88934
795.112	47.43986
795.292	55.83852
795.472	66.30493
795.651	29.55463
795.831	43.5361
796.01	40.65003
796.19	40.71548
796.369	43.41212
796.549	48.70639
796.728	42.41587
796.908	28.69866
797.087	31.60435
797.267	39.75598
797.446	32.03094
797.626	48.24378
797.805	48.3445
797.984	35.08301
798.164	53.64498
798.343	34.31653
798.522	45.39584
798.702	45.44085
798.881	30.55002
799.06	40.85853
799.239	23.11947
799.419	33.19297
799.598	66.02974
799.777	49.07471
799.956	57.61538
800.136	40.13772
800.315	33.63943
800.494	48.65605
800.673	56.59667
800.852	51.38722
801.031	58.46106
801.21	50.36605
801.389	38.26978
801.568	44.43212
801.747	66.9244
801.926	43.96878
802.105	61.38746
802.284	37.22811
802.463	64.6128
802.642	46.2759
802.821	46.81373
803	61.20813
803.179	56.30026
803.358	56.37541
803.537	36.19825
803.716	45.70356
803.895	36.56031
804.073	42.12225
804.252	34.75774
804.431	49.91533
804.61	42.09876
804.789	54.77288
804.967	38.53607
805.146	37.87742
805.325	71.3948
805.503	50.65295
805.682	29.41521
805.861	87.1943
806.039	62.50706
806.218	39.55755
806.397	46.43723
806.575	43.5228
806.754	49.27241
806.932	32.20976
807.111	57.04857
807.289	56.44571
807.468	45.75148
807.646	57.6613
807.825	51.39958
808.003	47.12826
808.182	57.02604
808.36	46.00942
808.539	34.85332
808.717	63.24078
808.895	36.21633
809.074	47.40412
809.252	45.71767
809.43	51.77067
809.609	61.71276
809.787	64.20329
809.965	42.03882
810.144	45.83933
810.322	43.3539
810.5	51.74124
810.678	41.39247
810.856	75.46863
811.035	58.92203
811.213	53.78935
811.391	63.92083
811.569	51.88332
811.747	95.2384
811.925	60.51955
812.103	39.80473
812.281	47.4781
812.459	69.4032
812.637	68.75512
812.816	56.71209
812.994	77.14685
813.171	64.06304
813.349	53.38474
813.527	60.20475
813.705	66.70895
813.883	82.13299
814.061	58.13201
814.239	69.55955
814.417	75.85579
814.595	54.84795
814.773	52.8929
814.95	45.8022
815.128	55.64958
815.306	49.53104
815.484	43.5405
815.662	36.44399
815.839	34.46133
816.017	40.50624
816.195	66.30849
816.372	41.23549
816.55	57.39033
816.728	70.79376
816.905	43.76066
817.083	69.51855
817.261	47.25603
817.438	90.64995
817.616	74.57218
817.793	41.26328
817.971	58.67329
818.148	57.40057
818.326	65.49704
818.503	50.70224
818.681	72.65579
818.858	43.13826
819.036	48.03293
819.213	50.45416
819.391	39.85977
819.568	41.42315
819.745	33.93004
819.923	57.04727
820.1	43.77136
820.277	38.35088
820.455	43.63365
820.632	45.53065
820.809	48.79009
820.986	33.53933
821.164	30.19851
821.341	27.83561
821.518	37.91976
821.695	29.65256
821.872	27.92783
822.05	25.11628
822.227	23.16921
822.404	23.91234
822.581	26.12605
822.758	23.6902
822.935	23.72006
823.112	25.83504
823.289	22.98944
823.466	25.76316
823.643	24.73032
823.82	27.83178
823.997	25.50989
824.174	28.2222
824.351	34.73089
824.528	32.73746
824.705	30.65883
824.882	32.8466
825.059	39.48501
825.236	29.89841
825.412	32.09004
825.589	36.0244
825.766	49.07346
825.943	34.21255
826.12	37.84449
826.296	29.38858
826.473	35.1169
826.65	35.19608
826.827	39.67252
827.003	29.83187
827.18	32.91678
827.357	35.7182
827.533	31.59149
827.71	21.80237
827.887	29.1715
828.063	31.5334
828.24	27.61591
828.416	34.42667
828.593	29.94211
828.769	39.23904
828.946	39.30918
829.122	41.28658
829.299	38.91362
829.475	27.32351
829.652	39.61777
829.828	59.39945
830.005	40.90895
830.181	53.01401
830.357	41.51419
830.534	54.93246
830.71	43.28422
830.886	53.05568
831.063	52.09436
831.239	64.23042
831.415	34.81085
831.592	67.55784
831.768	45.01817
831.944	39.3107
832.12	71.13779
832.296	67.74541
832.473	55.75682
832.649	40.09431
832.825	57.32558
833.001	37.95523
833.177	50.10216
833.353	46.77155
833.529	30.34313
833.705	44.03416
833.881	31.31749
834.058	30.90634
834.234	33.14813
834.41	32.87575
834.586	27.28866
834.761	31.44838
834.937	33.60496
835.113	34.4983
835.289	30.53564
835.465	34.85217
835.641	32.05613
835.817	34.69988
835.993	53.76402
836.169	31.66293
836.344	44.2951
836.52	49.79238
836.696	46.94314
836.872	39.05143
837.048	92.43602
837.223	43.25484
837.399	73.15239
837.575	58.76485
837.75	53.86905
837.926	77.45835
838.102	109.05751
838.277	89.17023
838.453	117.52009
838.628	117.36215
838.804	54.28045
838.98	102.19011
839.155	58.68208
839.331	77.8724
839.506	55.37412
839.682	58.10215
839.857	78.15673
840.033	88.5473
840.208	45.31078
840.384	28.61045
840.559	46.48662
840.734	66.64395
840.91	84.32307
841.085	54.30043
841.26	52.7489
841.436	48.77326
841.611	48.30673
841.786	70.27496
841.962	88.09006
842.137	63.18939
842.312	38.80174
842.487	55.82578
842.663	47.08499
842.838	55.483
843.013	155.45129
843.188	80.30878
843.363	68.75994
843.538	130.19517
843.714	128.33115
843.889	135.14706
844.064	147.02191
844.239	118.32344
844.414	136.83452
844.589	94.65764
844.764	165.04586
844.939	162.19167
845.114	175.11124
845.289	168.24702
845.464	228.99248
845.639	152.83505
845.814	83.9816
845.989	92.89265
846.163	116.83985
846.338	117.0898
846.513	166.16874
846.688	111.0952
846.863	114.23441
847.038	102.41127
847.212	118.15485
847.387	120.07377
847.562	125.54805
847.737	152.2887
847.911	62.98193
848.086	77.70977
848.261	254.48816
848.435	107.44613
848.61	164.56767
848.785	87.30793
848.959	170.90429
849.134	217.67248
849.308	219.31673
849.483	126.59329
849.658	190.04723
849.832	107.7967
850.007	96.05962
850.181	248.2279
850.356	98.30045
850.53	238.79294
850.705	79.28143
850.879	50.90483
851.053	117.79694
851.228	104.13911
851.402	139.42518
851.577	172.37394
851.751	190.93581
851.925	132.16952
852.099	65.8695
852.274	95.09547
852.448	116.59918
852.622	147.27703
852.797	120.08888
852.971	116.62438
853.145	130.47121
853.319	353.90825
853.493	181.44224
853.668	108.31762
853.842	225.08406
854.016	185.8436
854.19	208.76353
854.364	130.96197
854.538	139.58806
854.712	188.71118
854.886	114.57975
855.06	107.1487
855.234	52.80556
855.408	196.53723
855.582	165.99376
855.756	173.21593
855.93	220.31042
856.104	150.56736
856.278	169.46307
856.452	128.91068
856.626	164.4794
856.8	262.61159
856.973	152.15525
857.147	148.6413
857.321	149.40191
857.495	183.94697
857.669	123.13515
857.842	110.08405
858.016	179.35543
858.19	100.47211
858.364	285.36628
858.537	115.4633
858.711	134.2777
858.885	124.2293
859.058	104.34397
859.232	62.27303
859.405	72.21448
859.579	173.97665
859.753	143.53431
859.926	101.63852
860.1	73.15713
860.273	127.74417
860.447	209.80254
860.62	114.71218
860.794	247.48349
860.967	140.86681
861.141	184.37384
861.314	257.66346
861.487	163.97713
861.661	206.64279
861.834	199.66904
862.008	184.56621
862.181	133.37345
862.354	136.08181
862.528	155.22714
862.701	107.60554
862.874	77.06374
863.047	123.40947
863.221	112.45301
863.394	62.50591
863.567	210.22717
863.74	54.71941
863.913	167.96894
864.087	148.43337
864.26	177.51844
864.433	132.06888
864.606	227.63534
864.779	129.39509
864.952	69.45409
865.125	105.80921
865.298	126.8103
865.471	131.2423
865.644	265.38359
865.817	214.71412
865.99	177.72945
866.163	195.09478
866.336	113.21215
866.509	132.76814
866.682	111.17622
866.855	190.05367
867.028	88.49104
867.2	162.83742
867.373	57.71947
867.546	141.65044
867.719	262.89733
867.892	170.00689
868.064	95.27036
868.237	156.68743
868.41	133.39899
868.583	87.16957
868.755	84.15168
868.928	138.69876
869.101	269.50538
869.273	193.63565
869.446	172.11174
869.619	189.58589
869.791	133.78471
869.964	187.02686
870.136	181.46187
870.309	141.15832
870.481	145.80863
870.654	73.61848
870.826	154.697
870.999	123.95456
871.171	179.80944
871.344	113.67537
871.516	125.24676
871.689	94.51567
871.861	135.46758
872.033	103.59382
872.206	118.47962
872.378	181.11391
872.55	111.86956
872.723	86.7183
872.895	125.35237
873.067	190.62459
873.24	213.81132
873.412	112.82672
873.584	127.97662
873.756	116.11244
873.928	148.85099
874.101	153.65733
874.273	164.86554
874.445	59.96082
874.617	76.94545
874.789	145.48454
874.961	124.42992
875.133	161.09486
875.305	140.1218
875.477	89.68478
875.649	77.89575
875.821	99.78006
875.993	228.36168
876.165	94.7741
876.337	149.35384
876.509	119.11747
876.681	151.83805
876.853	150.15307
877.025	145.69699
877.197	105.82856
877.369	93.50728
877.541	179.36619
877.712	58.22877
877.884	83.69406
878.056	169.62033
878.228	94.50426
878.4	157.6872
878.571	94.43652
878.743	70.90779
878.915	151.9208
879.086	91.05283
879.258	109.67977
879.43	98.71232
879.601	90.04667
879.773	91.94364
879.945	30.07232
880.116	45.65603
880.288	31.65094
880.459	34.02033
880.631	29.08362
880.802	32.84834
880.974	31.13979
881.145	24.29949
881.317	30.46851
881.488	25.09724
881.66	27.55138
881.831	25.77095
882.002	32.37651
882.174	26.08531
882.345	31.12931
882.517	21.25858
882.688	33.50348
882.859	30.26324
883.03	43.37767
883.202	41.38366
883.373	37.49228
883.544	36.49599
883.715	58.2403
883.887	48.96663
884.058	42.23463
884.229	59.20463
884.4	58.63532
884.571	64.21562
884.742	59.45026
884.914	62.26155
885.085	86.95104
885.256	105.28842
885.427	87.30425
885.598	103.75132
885.769	107.03384
885.94	104.05107
886.111	73.41415
886.282	121.95861
886.453	103.10993
886.624	69.59359
886.795	117.28468
886.966	102.01328
887.136	127.40296
887.307	87.19652
887.478	160.35741
887.649	143.2189
887.82	142.68491
887.991	117.58044
888.161	162.64011
888.332	152.67363
888.503	79.29219
888.674	202.92479
888.844	214.62878
889.015	168.90562
889.186	89.45755
889.356	198.19664
889.527	85.25391
889.698	346.42623
889.868	110.77219
890.039	148.12379
890.209	130.26615
890.38	174.72938
890.551	149.00205
890.721	216.30214
890.892	173.25472
891.062	122.35435
891.233	156.92726
891.403	121.06716
891.574	100.11527
891.744	120.03682
891.914	165.15599
892.085	136.9546
892.255	52.1011
892.425	206.36581
892.596	169.52011
892.766	156.88471
892.936	214.99161
893.107	180.41927
893.277	101.32329
893.447	79.96839
893.618	59.13426
893.788	119.12068
893.958	70.32271
894.128	69.59182
894.298	75.84858
894.468	104.13097
894.639	49.31456
894.809	38.82139
894.979	58.16178
895.149	65.66888
895.319	53.20719
895.489	72.5382
895.659	84.92525
895.829	62.48332
895.999	64.99586
896.169	51.67229
896.339	60.86949
896.509	115.60709
896.679	131.27176
896.849	127.35841
897.019	172.95055
897.189	144.41255
897.358	122.39204
897.528	186.64037
897.698	70.16171
897.868	165.55407
898.038	275.56341
898.208	258.64901
898.377	95.30128
898.547	254.23985
898.717	404.70657
898.886	169.6898
899.056	256.84253
899.226	384.53052
899.395	232.24647
899.565	283.87739
899.735	197.69636
899.904	320.9901
900.074	273.02959
900.244	132.21571
900.413	497.9614
900.583	122.46935
900.752	181.46689
900.922	307.75985
901.091	42.97098
901.261	259.43869
901.43	245.26935
901.599	243.88873
901.769	544.99603
901.938	284.43218
902.108	287.08136
902.277	348.90165
902.446	103.60847
902.616	114.14285
902.785	181.88052
902.954	282.66671
903.124	191.72884
903.293	153.89317
903.462	90.27549
903.631	119.67179
903.801	88.51559
903.97	52.67886
904.139	85.40327
904.308	62.93187
904.477	53.17633
904.646	35.04207
904.816	50.44314
904.985	72.96652
905.154	104.90097
