Data from WindowProjectSample_Transmission__0__00000.txt Node

Date: Sat May 03 14:45:11 EDT 2025
User: jessi
Spectrometer: SR400872
Trigger mode: 0
Integration Time (sec): 5.000000E-1
Scans to average: 6
Electric dark correction enabled: true
Nonlinearity correction enabled: true
Boxcar width: 0
XAxis mode: Wavelengths
Number of Pixels in Spectrum: 3648
>>>>>Begin Spectral Data<<<<<
184.909	-14780.23313
185.132	2542.13936
185.355	-1993.57436
185.578	12990.08465
185.801	-131.01331
186.024	11152.40577
186.247	628.48547
186.47	-1104.10767
186.693	131.55372
186.916	-1018.59809
187.139	5901.89569
187.362	1684.53947
187.585	13808.43375
187.808	2783.05527
188.031	82.15646
188.254	4734.42975
188.476	-24348.76724
188.699	1833.2098
188.922	2998.42251
189.145	3407.21379
189.368	-485.74242
189.591	1814.56355
189.813	-6267.79394
190.036	2590.23343
190.259	1118.55446
190.482	-9997.27431
190.705	-3445.37837
190.927	1347.62356
191.15	-13537.09666
191.373	22803.89811
191.595	-2752.08367
191.818	2068.44387
192.041	-156.70928
192.263	1017.84866
192.486	-268.43183
192.709	-6844.91851
192.931	11932.86176
193.154	6250.54129
193.377	-11353.20412
193.599	-1790.41391
193.822	-1020.47003
194.044	1990.62534
194.267	1060.30964
194.489	87.60692
194.712	1587.1841
194.934	96376.05571
195.157	1425.01454
195.379	880.64204
195.602	-4648.07475
195.824	1763.76533
196.047	-888.90859
196.269	196100.97857
196.492	-2225.11679
196.714	4446.76148
196.936	3937.66044
197.159	2641.73853
197.381	4417.30592
197.604	425.44013
197.826	2407.83361
198.048	9781.54096
198.271	-19021.12874
198.493	2060.93806
198.715	2256.58187
198.938	-741.4487
199.16	2664.27632
199.382	1633.43921
199.604	-3926.39707
199.827	-5275.23374
200.049	-2430.11307
200.271	4127.12357
200.493	10031.24129
200.715	6453.94506
200.938	-11101.75984
201.16	-13138.60077
201.382	902.19121
201.604	-1194.29691
201.826	2433.51446
202.048	2598.47441
202.27	5806.38898
202.492	-2990.33241
202.715	-1442.6718
202.937	-2519.54494
203.159	1387.55724
203.381	1851.95951
203.603	25548.81014
203.825	2567.54706
204.047	-11710.70749
204.269	5835.72375
204.491	-807.56312
204.713	2044.28796
204.935	-20383.38877
205.156	-2440.57056
205.378	6797.62526
205.6	-1686.49632
205.822	2675.54833
206.044	-1264.82136
206.266	1020.534
206.488	1141.4692
206.71	2302.22783
206.932	-4026.02878
207.153	-1515.55704
207.375	-9775.72882
207.597	18223.57408
207.819	2042.19113
208.041	2430.18617
208.262	1947.70098
208.484	-885.60571
208.706	-1122.81027
208.927	4728.45688
209.149	878.75879
209.371	-2629.11233
209.593	-627.67404
209.814	-2092.2578
210.036	-650.13343
210.258	-4647.78776
210.479	-3535.47255
210.701	-5353.58735
210.922	5622.29918
211.144	-2356.85461
211.366	1165.45816
211.587	-23769.27745
211.809	-2222.34219
212.03	-1201.53524
212.252	698.08767
212.473	-4337.89157
212.695	1302.19655
212.916	-1526.7453
213.138	756.27259
213.359	-1082.09649
213.581	13803.9454
213.802	-339.55284
214.024	-1936.40934
214.245	-9268.93481
214.466	-107.09718
214.688	-2160.40169
214.909	-1531.74191
215.131	10744.49289
215.352	2815.64081
215.573	51905.6496
215.795	4890.61453
216.016	6171.0764
216.237	-702.06366
216.459	2142.36359
216.68	6841.59
216.901	-4221.91483
217.122	5757.8752
217.344	1463.3825
217.565	-4766.5681
217.786	2273.46014
218.007	587.94017
218.228	769.7915
218.45	-2010.62061
218.671	2337.67304
218.892	2366.47969
219.113	1258.89373
219.334	-404.84878
219.555	7150.48152
219.776	4650.89785
219.997	1533.62372
220.219	867.85283
220.44	1012.19073
220.661	1220.68288
220.882	5355.4769
221.103	3526.34659
221.324	1669.61393
221.545	73041.5304
221.766	-5800.22519
221.987	-683.58445
222.208	-2701.24424
222.429	5486.78178
222.65	-1555.51331
222.87	-2182.46829
223.091	3051.21729
223.312	-1806.81981
223.533	-4441.17577
223.754	2066.0133
223.975	1395.67197
224.196	-3976.45983
224.417	68495.01567
224.637	3076.77808
224.858	61.14311
225.079	3320.19613
225.3	2418.40166
225.521	4143.20532
225.741	2299.33555
225.962	806.36702
226.183	13968.52871
226.404	1297.44496
226.624	724.11607
226.845	798.27112
227.066	786.73604
227.286	496.77664
227.507	275.29107
227.728	186.86273
227.948	311.81347
228.169	99.19419
228.389	84.47551
228.61	55.09767
228.831	66.81875
229.051	7.29605
229.272	37.81662
229.492	57.66099
229.713	15.82059
229.933	42.87393
230.154	34.16503
230.374	62.02129
230.595	46.70062
230.815	34.74836
231.036	46.69309
231.256	-9.66742
231.477	93.41585
231.697	46.0057
231.917	60.38413
232.138	69.58075
232.358	171.62485
232.579	155.91395
232.799	21.76246
233.019	146.20793
233.24	171.9734
233.46	65.87616
233.68	97.51296
233.901	74.8485
234.121	37.58077
234.341	13.81977
234.561	-9.78607
234.782	26.67516
235.002	97.01829
235.222	1.35187
235.442	81.09829
235.662	42.06188
235.883	95.56384
236.103	71.12579
236.323	62.65292
236.543	39.73871
236.763	62.43091
236.983	56.39843
237.203	67.67887
237.423	92.71005
237.643	135.39243
237.864	125.15003
238.084	25.89749
238.304	40.51385
238.524	76.78248
238.744	60.35131
238.964	99.94339
239.184	81.05482
239.404	90.70996
239.624	48.65759
239.843	84.97685
240.063	45.04589
240.283	33.70555
240.503	33.16349
240.723	28.70461
240.943	18.66472
241.163	24.01608
241.383	18.99343
241.603	8.04188
241.822	11.37456
242.042	8.08114
242.262	9.29588
242.482	11.15988
242.702	13.50573
242.921	4.28556
243.141	9.22199
243.361	7.60201
243.581	12.69181
243.8	10.58743
244.02	6.11757
244.24	12.99791
244.459	12.58585
244.679	25.50079
244.899	16.19911
245.118	20.00016
245.338	15.8694
245.558	19.12344
245.777	11.06034
245.997	12.85024
246.216	12.31016
246.436	6.76118
246.655	5.13723
246.875	3.7788
247.094	7.6178
247.314	2.59541
247.533	4.37558
247.753	5.43563
247.972	4.29892
248.192	1.79949
248.411	2.7067
248.631	5.26332
248.85	6.55601
249.07	4.85386
249.289	8.27788
249.508	6.03856
249.728	10.6266
249.947	10.9511
250.166	11.28622
250.386	7.47593
250.605	9.37475
250.824	13.90936
251.044	11.4962
251.263	36.81958
251.482	18.56231
251.701	16.69012
251.921	0.48977
252.14	5.45888
252.359	6.49699
252.578	14.41992
252.798	4.95166
253.017	13.04986
253.236	6.56066
253.455	7.97759
253.674	17.05123
253.893	7.55967
254.112	11.92598
254.331	17.93806
254.551	15.05146
254.77	7.46343
254.989	21.70819
255.208	16.99221
255.427	22.01664
255.646	21.11299
255.865	33.56243
256.084	11.11709
256.303	15.18363
256.522	20.49367
256.741	4.29143
256.96	5.47222
257.179	11.44422
257.397	14.77111
257.616	7.86493
257.835	8.40873
258.054	19.40127
258.273	12.25003
258.492	14.60781
258.711	8.19455
258.93	3.73074
259.148	5.28647
259.367	5.4632
259.586	6.97421
259.805	3.32516
260.023	6.64941
260.242	5.22706
260.461	3.65922
260.68	2.02597
260.898	6.08786
261.117	1.98856
261.336	1.45474
261.554	4.9981
261.773	4.9866
261.992	0.73216
262.21	5.12481
262.429	6.62124
262.648	10.69345
262.866	11.23371
263.085	7.65467
263.303	6.78655
263.522	12.91376
263.74	13.6957
263.959	22.41725
264.178	11.25609
264.396	9.18133
264.615	6.90429
264.833	17.78589
265.051	13.9114
265.27	14.4548
265.488	15.67994
265.707	9.56876
265.925	15.78558
266.144	6.64104
266.362	8.75467
266.58	9.10808
266.799	6.97528
267.017	8.84318
267.235	7.66054
267.454	4.15052
267.672	2.6849
267.89	6.37305
268.109	5.93067
268.327	6.05817
268.545	1.18666
268.763	6.19325
268.982	2.8203
269.2	7.7261
269.418	4.34588
269.636	3.74972
269.854	6.30901
270.073	5.07213
270.291	2.30031
270.509	3.06474
270.727	6.14804
270.945	10.53077
271.163	9.78493
271.381	2.15563
271.599	4.48674
271.817	7.66697
272.036	2.80864
272.254	4.2681
272.472	3.05351
272.69	3.68082
272.908	3.37656
273.126	6.19159
273.344	7.63898
273.562	2.55201
273.779	3.87717
273.997	5.74141
274.215	6.27705
274.433	4.59158
274.651	6.77268
274.869	7.21865
275.087	4.05501
275.305	6.2379
275.523	3.72399
275.74	4.78606
275.958	8.05883
276.176	11.60907
276.394	3.74309
276.612	4.90017
276.829	4.57466
277.047	3.62748
277.265	4.9902
277.483	5.19431
277.7	6.4581
277.918	5.4888
278.136	9.30701
278.353	4.86899
278.571	2.21339
278.789	7.17594
279.006	1.62294
279.224	4.51274
279.442	7.85988
279.659	4.60597
279.877	3.47913
280.094	8.26025
280.312	1.50999
280.529	4.84896
280.747	1.17596
280.964	3.91904
281.182	9.15075
281.399	3.92764
281.617	5.57239
281.834	4.29342
282.052	2.85486
282.269	4.71399
282.487	3.74631
282.704	2.91671
282.921	3.73405
283.139	4.84175
283.356	6.40202
283.574	5.03488
283.791	2.76484
284.008	7.80086
284.226	4.29287
284.443	4.76309
284.66	5.7934
284.877	4.86012
285.095	3.27128
285.312	2.35764
285.529	1.35811
285.746	1.14874
285.964	3.10659
286.181	1.8598
286.398	2.89401
286.615	3.89215
286.832	3.74965
287.05	1.1761
287.267	2.73225
287.484	2.9998
287.701	4.02466
287.918	4.06378
288.135	4.46203
288.352	1.83089
288.569	2.31057
288.786	3.26523
289.003	2.83689
289.22	4.10953
289.437	2.8389
289.654	4.3258
289.871	4.89526
290.088	4.41205
290.305	3.35217
290.522	2.63352
290.739	3.27372
290.956	4.92466
291.173	5.50557
291.39	5.45959
291.607	3.8178
291.824	2.63254
292.04	1.61255
292.257	4.39865
292.474	4.99198
292.691	3.18675
292.908	1.58937
293.125	2.83085
293.341	1.7117
293.558	7.5005
293.775	2.82127
293.992	3.42517
294.208	1.33993
294.425	1.83043
294.642	2.2121
294.858	3.91872
295.075	1.13006
295.292	2.87747
295.508	3.65517
295.725	5.70616
295.942	2.70642
296.158	1.84726
296.375	2.92798
296.591	2.37258
296.808	2.55823
297.024	2.62981
297.241	3.25622
297.458	3.52994
297.674	0.36104
297.891	2.70056
298.107	2.05444
298.323	1.66141
298.54	4.2359
298.756	1.93663
298.973	0.89724
299.189	4.51545
299.406	1.5897
299.622	4.41875
299.838	4.52729
300.055	4.23932
300.271	1.20314
300.487	1.36013
300.704	1.68153
300.92	1.09001
301.136	6.2646
301.353	4.17468
301.569	3.07542
301.785	3.55228
302.001	4.21228
302.218	3.50024
302.434	3.33533
302.65	1.1607
302.866	2.59007
303.083	5.81728
303.299	5.66762
303.515	2.77855
303.731	3.33169
303.947	1.26268
304.163	1.87349
304.379	3.42174
304.595	3.91232
304.812	2.29447
305.028	1.63355
305.244	2.71153
305.46	4.27502
305.676	4.28345
305.892	5.10113
306.108	3.1856
306.324	2.21951
306.54	5.82523
306.756	3.97021
306.972	3.78104
307.187	2.421
307.403	5.18813
307.619	2.1909
307.835	4.15727
308.051	5.428
308.267	1.21361
308.483	4.35005
308.699	3.74079
308.914	3.07291
309.13	2.69961
309.346	0.73835
309.562	1.48464
309.778	0.89044
309.993	3.85163
310.209	2.80733
310.425	1.06829
310.641	2.47955
310.856	1.33091
311.072	1.31903
311.288	2.79764
311.503	3.08775
311.719	0.60864
311.935	0.39936
312.15	3.28528
312.366	2.92357
312.581	3.84604
312.797	2.90424
313.013	3.98588
313.228	2.50051
313.444	3.13913
313.659	1.90211
313.875	3.80476
314.09	2.47413
314.306	4.49654
314.521	4.33701
314.737	3.91021
314.952	3.28902
315.168	2.77038
315.383	3.80703
315.599	2.51652
315.814	2.43466
316.029	4.04976
316.245	0.83187
316.46	1.09034
316.675	5.28916
316.891	5.75652
317.106	7.15523
317.321	4.29935
317.537	3.73207
317.752	4.02308
317.967	4.15575
318.183	2.05852
318.398	2.49834
318.613	4.60565
318.828	5.04069
319.043	3.96382
319.259	2.53729
319.474	3.66106
319.689	4.47895
319.904	0.8906
320.119	4.18312
320.334	3.61769
320.549	2.86527
320.765	4.75687
320.98	3.79034
321.195	4.5644
321.41	2.94922
321.625	4.2923
321.84	5.87285
322.055	5.91435
322.27	2.01609
322.485	1.75272
322.7	3.23637
322.915	5.10527
323.13	1.89943
323.345	5.46637
323.56	4.3771
323.775	4.13598
323.989	3.95981
324.204	3.29648
324.419	4.52336
324.634	1.56036
324.849	2.96401
325.064	7.26775
325.279	4.82507
325.493	4.17091
325.708	4.86738
325.923	1.94657
326.138	1.9518
326.352	5.48038
326.567	4.07745
326.782	2.66295
326.997	2.17985
327.211	3.89539
327.426	3.78073
327.641	2.44681
327.855	1.25397
328.07	4.00821
328.285	5.89204
328.499	2.76502
328.714	3.85792
328.928	4.20546
329.143	3.25469
329.358	4.58764
329.572	4.90002
329.787	5.06842
330.001	6.96836
330.216	1.02786
330.43	5.76229
330.645	5.80536
330.859	4.48719
331.074	2.53699
331.288	3.23428
331.503	4.83502
331.717	1.68813
331.931	2.95963
332.146	3.07105
332.36	5.82617
332.575	3.76963
332.789	3.44227
333.003	3.16255
333.218	4.16122
333.432	2.98271
333.646	4.27861
333.86	5.35149
334.075	6.16388
334.289	2.8665
334.503	1.91489
334.717	3.99013
334.932	4.19785
335.146	5.54248
335.36	2.72278
335.574	4.08399
335.788	4.3572
336.003	5.22452
336.217	4.44586
336.431	4.3829
336.645	2.24462
336.859	1.70293
337.073	3.15075
337.287	3.72945
337.501	1.80336
337.715	3.44861
337.929	4.39476
338.143	1.95323
338.357	3.16298
338.571	2.00344
338.785	3.87069
338.999	2.59808
339.213	2.74919
339.427	1.23357
339.641	4.72369
339.855	2.96504
340.069	2.47867
340.283	4.93109
340.497	5.94084
340.711	4.03565
340.924	2.63226
341.138	1.78666
341.352	1.3435
341.566	3.60366
341.78	0.82246
341.993	2.46033
342.207	1.53099
342.421	3.48671
342.635	3.3477
342.848	2.50917
343.062	0.24665
343.276	2.44833
343.49	6.21154
343.703	2.40991
343.917	4.18963
344.131	4.49047
344.344	2.32934
344.558	2.45174
344.771	2.13645
344.985	5.32589
345.199	5.32577
345.412	3.44542
345.626	3.64441
345.839	1.16838
346.053	1.72567
346.266	1.5578
346.48	4.34934
346.693	3.55778
346.907	3.91808
347.12	2.02846
347.334	3.3995
347.547	3.59727
347.76	2.87315
347.974	4.64507
348.187	3.75
348.401	2.62203
348.614	2.36964
348.827	2.74641
349.041	4.04961
349.254	1.01182
349.467	2.88992
349.681	1.42138
349.894	2.31153
350.107	5.37149
350.32	5.07966
350.534	0.85365
350.747	2.61931
350.96	1.74317
351.173	2.29777
351.386	2.92741
351.6	2.64472
351.813	2.20032
352.026	3.34693
352.239	1.30051
352.452	2.45868
352.665	3.82211
352.878	2.49595
353.092	6.09864
353.305	3.6772
353.518	3.58832
353.731	1.71261
353.944	4.7204
354.157	2.08036
354.37	1.63513
354.583	1.59339
354.796	0.90797
355.009	4.64509
355.222	3.02032
355.435	2.81072
355.647	4.2698
355.86	1.5123
356.073	2.69932
356.286	2.3103
356.499	3.83379
356.712	3.51561
356.925	3.26819
357.138	4.23462
357.35	1.47454
357.563	2.37751
357.776	2.80702
357.989	2.06605
358.201	3.38096
358.414	2.55764
358.627	4.33015
358.84	2.43152
359.052	1.72443
359.265	1.31766
359.478	4.15522
359.69	-0.57188
359.903	3.22439
360.116	3.66926
360.328	0.60278
360.541	3.73275
360.753	1.4194
360.966	1.63438
361.179	1.98868
361.391	1.94598
361.604	1.17788
361.816	1.85676
362.029	1.6317
362.241	1.36998
362.454	1.56136
362.666	1.2522
362.879	2.27446
363.091	2.11277
363.304	1.38327
363.516	2.40248
363.728	0.94934
363.941	3.16377
364.153	1.48372
364.366	-0.08503
364.578	1.19096
364.79	3.08808
365.003	2.27168
365.215	2.08668
365.427	3.00456
365.639	3.6876
365.852	2.85575
366.064	5.38091
366.276	1.64495
366.488	2.85115
366.701	1.76998
366.913	1.96726
367.125	2.22685
367.337	1.78432
367.549	2.04564
367.762	2.57705
367.974	2.58021
368.186	1.33192
368.398	3.69641
368.61	3.28237
368.822	3.19934
369.034	2.41483
369.246	3.36739
369.458	5.56807
369.67	1.37502
369.882	4.67797
370.094	-0.04047
370.306	4.59087
370.518	2.08342
370.73	1.23646
370.942	1.43612
371.154	2.04892
371.366	1.6618
371.578	2.72512
371.79	1.18547
372.002	4.01233
372.214	4.5835
372.425	2.57656
372.637	3.98236
372.849	2.35078
373.061	-0.19686
373.273	2.90625
373.484	3.03534
373.696	3.39191
373.908	-0.15726
374.12	3.70218
374.331	3.32369
374.543	1.43671
374.755	1.00124
374.967	2.48345
375.178	3.18987
375.39	2.36592
375.602	2.49622
375.813	1.18004
376.025	0.54
376.236	2.13301
376.448	2.54123
376.66	1.48415
376.871	1.74727
377.083	3.73498
377.294	3.66327
377.506	1.67616
377.717	3.70039
377.929	2.43138
378.14	1.3852
378.352	2.93604
378.563	2.98869
378.775	3.92621
378.986	1.54934
379.197	2.42193
379.409	1.94756
379.62	3.33092
379.832	2.74861
380.043	1.80541
380.254	2.61938
380.466	0.76491
380.677	5.93129
380.888	5.06804
381.1	5.5889
381.311	5.32106
381.522	2.47072
381.733	5.81092
381.945	2.05569
382.156	2.3394
382.367	2.05374
382.578	5.87964
382.789	5.83135
383.001	1.96128
383.212	4.07764
383.423	4.46953
383.634	3.732
383.845	3.17089
384.056	2.14631
384.267	2.37117
384.478	2.4753
384.69	1.18568
384.901	3.27794
385.112	3.0613
385.323	4.62982
385.534	3.45349
385.745	3.42542
385.956	3.32423
386.167	1.55587
386.378	3.49472
386.588	1.7723
386.799	1.77563
387.01	0.82617
387.221	3.97992
387.432	2.96698
387.643	5.28227
387.854	2.68023
388.065	2.45138
388.275	2.62742
388.486	2.4336
388.697	3.18399
388.908	2.7379
389.119	4.33611
389.329	4.99787
389.54	3.17214
389.751	4.02506
389.962	4.87203
390.172	3.44678
390.383	3.09963
390.594	2.67867
390.804	2.55237
391.015	2.80347
391.226	3.5306
391.436	4.39161
391.647	4.0265
391.858	4.14029
392.068	1.88485
392.279	2.58118
392.489	4.17518
392.7	4.90358
392.91	3.15053
393.121	3.14488
393.331	4.6653
393.542	5.5349
393.752	5.19393
393.963	4.60461
394.173	4.66318
394.384	5.02986
394.594	4.17446
394.804	3.20273
395.015	4.32444
395.225	5.16684
395.436	3.78509
395.646	5.40018
395.856	4.42038
396.067	3.27908
396.277	5.7659
396.487	5.38754
396.697	5.36494
396.908	5.97094
397.118	5.53218
397.328	5.03879
397.538	6.28912
397.749	4.52511
397.959	6.19657
398.169	5.88945
398.379	3.92715
398.589	5.8426
398.8	5.66086
399.01	5.71766
399.22	5.27024
399.43	8.11882
399.64	5.57087
399.85	6.44296
400.06	5.91061
400.27	5.38927
400.48	6.03497
400.69	7.33298
400.9	5.62053
401.11	5.0245
401.32	7.11763
401.53	5.59729
401.74	7.77228
401.95	6.67852
402.16	5.96749
402.37	6.88203
402.58	5.85724
402.79	7.05505
403	7.27421
403.209	6.00647
403.419	8.08424
403.629	6.19759
403.839	7.94871
404.049	8.19122
404.258	6.81362
404.468	6.51822
404.678	8.26283
404.888	8.83912
405.097	7.55251
405.307	7.27216
405.517	8.35231
405.727	8.54272
405.936	7.08774
406.146	8.2028
406.356	9.45987
406.565	7.85968
406.775	7.33235
406.984	7.21706
407.194	10.59669
407.404	8.31354
407.613	8.63132
407.823	9.25435
408.032	9.65199
408.242	9.25453
408.451	7.88308
408.661	8.47223
408.87	10.35502
409.08	7.66659
409.289	8.93112
409.499	8.84874
409.708	8.46367
409.918	6.48489
410.127	8.99181
410.336	10.65605
410.546	9.98962
410.755	8.50852
410.964	8.47554
411.174	7.90618
411.383	9.61355
411.592	9.30428
411.802	8.45955
412.011	9.9155
412.22	8.80873
412.429	11.30474
412.639	11.25022
412.848	10.52881
413.057	11.42848
413.266	10.57349
413.475	9.68111
413.685	10.23819
413.894	10.90425
414.103	10.82424
414.312	10.44444
414.521	9.34315
414.73	10.37986
414.939	12.13718
415.148	10.47684
415.357	10.47613
415.566	10.05389
415.776	9.90691
415.985	9.83467
416.194	11.40757
416.403	12.61833
416.611	9.17452
416.82	10.15759
417.029	10.93863
417.238	10.27339
417.447	10.14108
417.656	10.95068
417.865	10.27457
418.074	11.09377
418.283	11.55394
418.492	12.48897
418.7	12.14757
418.909	13.42621
419.118	11.5185
419.327	12.13379
419.536	11.81333
419.744	11.51139
419.953	12.77006
420.162	12.68457
420.371	11.42297
420.579	11.54032
420.788	12.53659
420.997	13.00232
421.205	12.58547
421.414	12.5524
421.623	12.94336
421.831	12.22918
422.04	13.05661
422.249	12.20196
422.457	12.93939
422.666	12.49858
422.874	13.71497
423.083	13.42147
423.291	13.40099
423.5	12.84467
423.708	13.10072
423.917	13.53818
424.125	12.78013
424.334	12.54358
424.542	14.78522
424.751	14.01308
424.959	13.90995
425.167	14.66032
425.376	14.5129
425.584	13.82944
425.793	14.4401
426.001	13.03947
426.209	14.71924
426.418	13.18296
426.626	13.11063
426.834	12.86175
427.042	13.76228
427.251	12.56551
427.459	14.22345
427.667	13.5015
427.875	11.97705
428.084	13.16385
428.292	14.649
428.5	14.18804
428.708	12.20671
428.916	12.26071
429.124	13.27379
429.333	12.96655
429.541	13.08666
429.749	13.60785
429.957	13.25583
430.165	16.07059
430.373	11.71302
430.581	13.15225
430.789	14.93601
430.997	13.0563
431.205	12.41917
431.413	13.68091
431.621	13.04609
431.829	14.28641
432.037	12.95571
432.245	13.6751
432.453	13.87219
432.661	13.2264
432.869	15.56672
433.076	12.99894
433.284	13.55426
433.492	14.53732
433.7	15.06576
433.908	13.69903
434.116	14.12432
434.323	14.43888
434.531	14.2726
434.739	14.71322
434.947	15.15769
435.154	15.29577
435.362	14.64918
435.57	13.97073
435.778	13.80036
435.985	14.6797
436.193	13.4794
436.401	15.17752
436.608	14.07949
436.816	13.75434
437.023	15.4324
437.231	15.72119
437.439	14.50062
437.646	15.03527
437.854	14.5753
438.061	14.9751
438.269	14.21343
438.476	15.04739
438.684	14.1787
438.891	14.07673
439.099	13.96463
439.306	13.36924
439.514	13.52263
439.721	15.0799
439.929	13.78752
440.136	14.93106
440.343	14.94135
440.551	14.56688
440.758	16.9406
440.965	15.50724
441.173	15.14803
441.38	14.62298
441.587	15.46248
441.795	15.11344
442.002	15.26456
442.209	15.67007
442.416	15.72729
442.624	15.94788
442.831	15.45937
443.038	14.69587
443.245	14.0294
443.452	14.53865
443.66	15.63666
443.867	14.44583
444.074	14.10703
444.281	13.98858
444.488	14.32456
444.695	14.79449
444.902	14.20347
445.109	15.27438
445.316	14.36157
445.523	14.3771
445.73	13.99644
445.937	15.0975
446.144	15.2396
446.351	15.59823
446.558	14.72792
446.765	16.06953
446.972	16.08707
447.179	15.39967
447.386	16.55506
447.593	15.52177
447.8	16.53532
448.007	15.83904
448.214	15.69846
448.42	15.2037
448.627	16.65093
448.834	15.23335
449.041	15.2668
449.248	15.48129
449.454	16.12093
449.661	17.5432
449.868	15.08006
450.075	14.49603
450.281	13.63209
450.488	14.09357
450.695	14.33515
450.901	14.38283
451.108	14.54925
451.315	16.05783
451.521	14.45415
451.728	16.08151
451.935	14.60505
452.141	14.74742
452.348	15.17342
452.554	15.03702
452.761	14.90955
452.967	16.85887
453.174	15.25774
453.38	15.49784
453.587	14.16616
453.793	15.64677
454	16.00179
454.206	17.87636
454.413	16.4284
454.619	15.77993
454.825	14.52423
455.032	15.74331
455.238	16.02419
455.445	14.14068
455.651	15.53221
455.857	13.49364
456.064	15.28863
456.27	14.99907
456.476	14.76816
456.682	13.89217
456.889	15.51404
457.095	15.85018
457.301	17.5526
457.507	15.25503
457.714	15.26774
457.92	15.23601
458.126	14.55164
458.332	14.96839
458.538	14.68666
458.744	14.87132
458.951	14.68321
459.157	16.83908
459.363	15.26682
459.569	15.42016
459.775	16.53834
459.981	15.52297
460.187	16.26472
460.393	17.08482
460.599	17.73115
460.805	16.60103
461.011	16.75937
461.217	18.04906
461.423	17.9635
461.629	16.66906
461.835	17.24776
462.041	16.07385
462.247	17.90943
462.453	15.87254
462.658	16.0375
462.864	16.66301
463.07	16.11297
463.276	15.72702
463.482	15.89863
463.688	17.61949
463.893	14.90187
464.099	15.36136
464.305	17.44697
464.511	14.90132
464.716	15.09866
464.922	16.45704
465.128	14.85512
465.333	17.35337
465.539	16.44585
465.745	16.24474
465.95	15.8854
466.156	19.16444
466.362	17.22021
466.567	15.90294
466.773	15.59073
466.978	17.75402
467.184	15.25356
467.389	14.53728
467.595	16.36715
467.8	15.71649
468.006	17.39544
468.211	17.39718
468.417	15.0287
468.622	16.40755
468.828	17.18489
469.033	16.61093
469.239	18.98284
469.444	15.38139
469.649	17.08302
469.855	16.01654
470.06	16.64338
470.266	14.87724
470.471	16.57823
470.676	16.80892
470.881	14.33914
471.087	18.04812
471.292	18.54687
471.497	14.55321
471.703	16.03363
471.908	15.49961
472.113	16.41612
472.318	17.37335
472.523	15.43005
472.729	16.7584
472.934	16.80663
473.139	16.36157
473.344	16.83971
473.549	17.80261
473.754	15.71321
473.959	18.93131
474.164	15.90602
474.369	16.10175
474.575	17.04231
474.78	16.41941
474.985	15.5184
475.19	14.60805
475.395	15.58256
475.6	16.05814
475.804	17.98462
476.009	16.36243
476.214	16.2461
476.419	16.06137
476.624	14.87952
476.829	15.74687
477.034	16.91668
477.239	15.78819
477.444	16.64603
477.648	17.29668
477.853	17.32264
478.058	16.09027
478.263	16.06281
478.468	15.44019
478.672	16.07871
478.877	18.37172
479.082	18.53338
479.287	17.07621
479.491	16.88632
479.696	15.90775
479.901	17.38323
480.105	17.51975
480.31	15.99313
480.515	16.70456
480.719	18.86034
480.924	16.1347
481.128	15.46028
481.333	16.76751
481.538	16.71841
481.742	15.99443
481.947	16.93812
482.151	16.72802
482.356	16.05232
482.56	17.61308
482.765	19.29484
482.969	23.21665
483.174	26.03416
483.378	30.49758
483.582	31.64602
483.787	33.89587
483.991	34.56128
484.196	34.90638
484.4	34.20913
484.604	34.27028
484.809	31.18955
485.013	29.37015
485.217	26.66524
485.422	23.5237
485.626	21.31983
485.83	20.15497
486.034	19.45099
486.239	19.6354
486.443	20.1993
486.647	20.7432
486.851	22.34267
487.055	24.08317
487.26	24.07714
487.464	25.43242
487.668	24.88307
487.872	25.46831
488.076	25.78899
488.28	24.57845
488.484	23.00825
488.688	22.25604
488.892	21.09632
489.096	19.61921
489.3	18.89926
489.504	18.91569
489.708	19.12452
489.912	18.82149
490.116	18.36738
490.32	17.03204
490.524	17.24776
490.728	17.53182
490.932	18.2342
491.136	19.5807
491.34	20.9798
491.544	21.65142
491.748	21.44072
491.951	21.50114
492.155	21.06908
492.359	20.206
492.563	18.48581
492.767	18.89255
492.97	19.14483
493.174	18.95448
493.378	19.31995
493.582	18.31327
493.785	18.54529
493.989	18.58233
494.193	18.28158
494.396	17.56436
494.6	18.30631
494.804	17.23133
495.007	17.0323
495.211	16.90584
495.414	16.87756
495.618	17.65828
495.822	18.3391
496.025	17.10746
496.229	17.87484
496.432	16.98957
496.636	17.32821
496.839	17.41059
497.043	18.67209
497.246	17.67228
497.45	17.25453
497.653	17.69597
497.856	17.88129
498.06	17.43712
498.263	17.67522
498.467	17.72631
498.67	18.7176
498.873	18.36402
499.077	17.81636
499.28	17.90819
499.483	18.03214
499.686	18.71029
499.89	17.89681
500.093	18.5186
500.296	16.78578
500.499	19.22418
500.703	17.55389
500.906	17.89139
501.109	19.40845
501.312	17.66347
501.515	17.06564
501.719	18.05895
501.922	18.59955
502.125	17.87101
502.328	17.50021
502.531	16.3307
502.734	17.54973
502.937	15.85563
503.14	17.62265
503.343	16.7611
503.546	17.19448
503.749	16.63374
503.952	18.01044
504.155	16.43711
504.358	18.01599
504.561	18.13629
504.764	16.35836
504.967	17.74093
505.17	17.48204
505.373	19.10791
505.576	17.39823
505.778	18.10569
505.981	16.76436
506.184	18.78396
506.387	16.1875
506.59	19.43804
506.793	18.72932
506.995	18.04474
507.198	15.48018
507.401	17.83768
507.604	17.83965
507.806	16.45933
508.009	16.7261
508.212	17.79101
508.414	16.94734
508.617	17.29531
508.82	17.52162
509.022	18.9908
509.225	18.04062
509.427	16.21253
509.63	18.81071
509.833	17.64187
510.035	17.37881
510.238	16.28422
510.44	19.35799
510.643	16.23776
510.845	19.8324
511.048	18.31514
511.25	17.01912
511.453	17.72778
511.655	18.14557
511.858	17.45999
512.06	18.52309
512.262	17.9035
512.465	19.14813
512.667	17.60361
512.869	17.09905
513.072	18.39814
513.274	18.66013
513.476	18.66012
513.679	18.87053
513.881	17.31527
514.083	19.49598
514.286	17.27044
514.488	16.93403
514.69	17.03178
514.892	16.56789
515.094	19.01464
515.297	17.17188
515.499	17.70005
515.701	16.68216
515.903	19.79753
516.105	19.73394
516.307	18.33289
516.509	15.6811
516.711	16.15339
516.913	17.50964
517.116	17.43301
517.318	17.07007
517.52	18.12516
517.722	18.16688
517.924	16.28648
518.126	18.2011
518.328	17.19474
518.529	18.41096
518.731	20.024
518.933	17.84991
519.135	18.15442
519.337	19.536
519.539	19.14531
519.741	16.87856
519.943	18.53417
520.145	18.30875
520.346	19.40368
520.548	18.27123
520.75	18.61831
520.952	17.99858
521.153	18.4442
521.355	18.80396
521.557	17.15607
521.759	18.13101
521.96	17.72987
522.162	16.72119
522.364	18.74533
522.565	17.21451
522.767	18.22353
522.969	18.50706
523.17	18.17417
523.372	17.98404
523.573	17.4299
523.775	17.70547
523.977	16.39186
524.178	19.7025
524.38	17.00269
524.581	17.89474
524.783	17.17399
524.984	18.11054
525.186	17.64645
525.387	17.89303
525.589	17.9647
525.79	17.61316
525.991	17.43408
526.193	18.44888
526.394	17.19677
526.596	18.634
526.797	18.49472
526.998	17.6017
527.2	16.90184
527.401	17.817
527.602	18.22959
527.803	20.96966
528.005	22.81907
528.206	24.51533
528.407	26.11631
528.608	26.18384
528.81	26.68308
529.011	25.82013
529.212	26.63903
529.413	24.71473
529.614	23.13372
529.815	21.7799
530.017	20.76369
530.218	20.65832
530.419	19.67072
530.62	20.20907
530.821	19.87939
531.022	18.21618
531.223	19.59435
531.424	19.24262
531.625	19.04565
531.826	18.41463
532.027	18.24317
532.228	19.15589
532.429	18.15232
532.63	17.62002
532.831	18.23382
533.032	18.13286
533.233	19.0607
533.433	18.80278
533.634	19.27615
533.835	19.02653
534.036	18.75772
534.237	19.40889
534.438	19.53782
534.638	18.99747
534.839	19.34219
535.04	19.78271
535.241	18.66109
535.441	20.25727
535.642	18.86643
535.843	17.07184
536.043	17.54885
536.244	17.52908
536.445	18.01941
536.645	19.13073
536.846	18.9926
537.047	20.3211
537.247	18.02488
537.448	18.82132
537.648	19.37349
537.849	19.22631
538.049	19.08429
538.25	19.96861
538.451	19.55661
538.651	17.80008
538.851	18.84367
539.052	19.82475
539.252	19.34573
539.453	17.76899
539.653	18.57732
539.854	17.81154
540.054	17.73572
540.254	18.31585
540.455	18.41369
540.655	17.38199
540.855	17.8723
541.056	19.29436
541.256	19.2656
541.456	20.28834
541.657	19.59842
541.857	20.31063
542.057	18.86658
542.257	18.983
542.458	20.21627
542.658	20.76192
542.858	19.21307
543.058	21.07697
543.258	20.06473
543.458	18.39225
543.659	18.31966
543.859	19.96969
544.059	20.22845
544.259	19.18164
544.459	20.23605
544.659	18.65148
544.859	19.33765
545.059	18.07808
545.259	19.46084
545.459	18.94689
545.659	19.77271
545.859	18.39288
546.059	18.701
546.259	17.50076
546.459	17.4351
546.659	17.49232
546.859	19.86148
547.059	19.11751
547.258	19.59414
547.458	19.59014
547.658	18.37306
547.858	17.83065
548.058	19.35294
548.258	19.04342
548.457	17.83612
548.657	21.896
548.857	18.53535
549.057	20.01264
549.256	19.81332
549.456	18.22239
549.656	15.70131
549.855	21.07519
550.055	17.65937
550.255	20.62411
550.454	19.15006
550.654	19.43101
550.853	20.76376
551.053	19.13524
551.253	18.36986
551.452	18.8798
551.652	16.7283
551.851	16.75615
552.051	17.5872
552.25	17.52621
552.45	17.3884
552.649	18.27648
552.849	17.73765
553.048	18.4227
553.248	19.59343
553.447	17.42837
553.646	19.79754
553.846	21.79379
554.045	20.25861
554.244	17.14964
554.444	21.1128
554.643	17.30831
554.842	20.5849
555.042	21.45795
555.241	17.68666
555.44	16.88016
555.64	19.3479
555.839	21.05384
556.038	18.64701
556.237	17.30198
556.436	18.51251
556.636	19.05553
556.835	17.3266
557.034	20.74376
557.233	18.07277
557.432	16.70027
557.631	20.09827
557.83	18.15763
558.029	18.03289
558.228	17.13663
558.427	17.35525
558.626	18.91638
558.825	16.95285
559.024	18.29469
559.223	20.59239
559.422	18.10604
559.621	19.21956
559.82	14.8828
560.019	18.1239
560.218	17.83931
560.417	14.46091
560.616	17.48525
560.815	22.91325
561.014	16.58251
561.212	20.96948
561.411	18.38449
561.61	16.14022
561.809	18.20758
562.008	20.83109
562.206	18.09704
562.405	19.55031
562.604	18.1109
562.803	18.8277
563.001	17.85335
563.2	16.26842
563.399	18.82473
563.597	16.61555
563.796	18.27432
563.995	16.69727
564.193	18.95289
564.392	18.05966
564.59	21.45283
564.789	15.48545
564.988	17.122
565.186	18.57305
565.385	18.39447
565.583	17.72775
565.782	18.37357
565.98	18.49534
566.179	18.29959
566.377	17.21335
566.575	17.66958
566.774	20.60478
566.972	19.99908
567.171	22.00457
567.369	21.02693
567.567	19.30554
567.766	19.33852
567.964	16.13987
568.162	19.29582
568.361	20.10162
568.559	18.07321
568.757	18.52881
568.956	18.66317
569.154	18.67849
569.352	18.8871
569.55	18.12779
569.748	18.82385
569.947	17.36951
570.145	17.25848
570.343	16.95236
570.541	20.14806
570.739	16.68926
570.937	18.02414
571.135	18.95881
571.333	21.07846
571.532	20.64739
571.73	18.95013
571.928	20.33054
572.126	19.65433
572.324	17.90765
572.522	20.75567
572.72	22.82919
572.918	19.40046
573.116	19.8653
573.313	19.022
573.511	19.39285
573.709	17.71551
573.907	20.20999
574.105	18.34591
574.303	16.24254
574.501	16.62396
574.699	19.66297
574.896	19.1991
575.094	19.55261
575.292	16.92746
575.49	20.64122
575.688	17.97128
575.885	20.50141
576.083	22.36535
576.281	19.93831
576.478	17.89944
576.676	19.22141
576.874	16.47965
577.071	18.72143
577.269	22.37008
577.467	18.89114
577.664	18.08488
577.862	20.36001
578.059	17.23317
578.257	20.28594
578.455	18.06766
578.652	19.3815
578.85	15.29108
579.047	18.58242
579.245	18.73857
579.442	17.76533
579.64	18.66128
579.837	15.70737
580.034	23.36765
580.232	17.82555
580.429	16.32682
580.627	19.0875
580.824	20.75112
581.021	19.16117
581.219	17.7352
581.416	16.86232
581.613	21.46124
581.811	20.94719
582.008	17.2118
582.205	20.14042
582.402	19.10757
582.6	22.22542
582.797	18.56088
582.994	18.70685
583.191	19.79324
583.388	17.95004
583.586	19.84663
583.783	19.97833
583.98	17.8623
584.177	19.22299
584.374	13.45288
584.571	18.17575
584.768	17.98803
584.965	17.87882
585.162	19.30222
585.359	21.50338
585.556	18.81146
585.753	18.82836
585.95	16.26231
586.147	17.13941
586.344	19.44198
586.541	17.69798
586.738	16.38271
586.935	18.45672
587.132	17.21807
587.329	20.24495
587.526	17.82556
587.722	27.43683
587.919	16.04048
588.116	19.25404
588.313	20.53143
588.51	22.70739
588.706	17.92019
588.903	19.053
589.1	19.77451
589.297	22.88051
589.493	19.41644
589.69	20.08927
589.887	17.53669
590.083	16.68229
590.28	17.51417
590.477	20.34625
590.673	20.59691
590.87	21.47419
591.067	19.15416
591.263	19.70341
591.46	19.41829
591.656	17.99179
591.853	21.24316
592.049	16.91037
592.246	17.81594
592.442	21.22973
592.639	20.61769
592.835	16.89023
593.032	20.0897
593.228	16.01433
593.425	15.32105
593.621	15.35698
593.817	19.52669
594.014	16.49764
594.21	18.94014
594.406	20.4699
594.603	19.8754
594.799	18.07334
594.995	14.83376
595.192	20.8934
595.388	18.21557
595.584	18.05086
595.78	15.89634
595.977	22.96084
596.173	21.63312
596.369	18.29772
596.565	17.45594
596.761	16.42773
596.957	21.4373
597.154	17.66506
597.35	17.94787
597.546	18.52128
597.742	21.31076
597.938	19.63685
598.134	18.83919
598.33	20.08308
598.526	22.4471
598.722	19.58249
598.918	22.67719
599.114	20.55574
599.31	16.9527
599.506	18.77384
599.702	17.75965
599.898	18.06496
600.094	19.31102
600.29	20.62613
600.485	20.44325
600.681	16.91136
600.877	22.28096
601.073	18.98467
601.269	23.08238
601.465	21.79957
601.66	17.58539
601.856	15.12188
602.052	22.19279
602.248	17.94385
602.443	15.01689
602.639	16.3246
602.835	17.46044
603.03	17.37352
603.226	20.7283
603.422	17.03108
603.617	18.23317
603.813	18.30074
604.009	18.54544
604.204	21.26098
604.4	17.28909
604.595	21.21185
604.791	17.46596
604.986	20.29893
605.182	18.23727
605.377	19.34202
605.573	18.75366
605.768	20.3201
605.964	21.70706
606.159	21.28138
606.355	22.30879
606.55	18.18232
606.746	21.92282
606.941	19.0117
607.136	23.6124
607.332	25.65425
607.527	16.42719
607.722	19.3851
607.918	18.23954
608.113	17.067
608.308	20.88105
608.503	20.084
608.699	19.41321
608.894	20.70044
609.089	17.69088
609.284	19.79238
609.479	18.93752
609.675	21.22726
609.87	19.32568
610.065	21.61126
610.26	21.54986
610.455	21.54051
610.65	19.63588
610.845	19.69559
611.04	21.68036
611.235	19.91677
611.43	18.61334
611.625	17.33496
611.82	22.69955
612.015	17.86575
612.21	23.34341
612.405	16.7263
612.6	23.70072
612.795	22.22546
612.99	21.22634
613.185	17.12794
613.38	18.19116
613.575	19.12683
613.77	26.61124
613.965	16.17412
614.159	17.66046
614.354	22.95405
614.549	22.55214
614.744	21.56316
614.938	17.13722
615.133	16.38318
615.328	23.38404
615.523	22.23611
615.717	26.82744
615.912	17.40609
616.107	20.69376
616.301	18.7067
616.496	18.13062
616.691	23.03968
616.885	22.02246
617.08	26.9611
617.274	21.98531
617.469	25.12696
617.664	21.82572
617.858	19.07223
618.053	21.37508
618.247	19.07053
618.442	13.84409
618.636	24.22974
618.831	18.31399
619.025	17.75802
619.219	26.83197
619.414	12.77628
619.608	19.4246
619.803	19.23253
619.997	25.0295
620.191	23.22726
620.386	20.64608
620.58	20.35778
620.774	15.86731
620.969	16.28901
621.163	19.92206
621.357	17.62666
621.551	19.27211
621.746	19.95372
621.94	18.93758
622.134	29.4132
622.328	25.68441
622.522	15.8301
622.716	22.88431
622.911	23.01057
623.105	22.46109
623.299	21.57468
623.493	29.29757
623.687	17.84969
623.881	18.98197
624.075	21.43567
624.269	22.94659
624.463	14.67833
624.657	15.57303
624.851	21.71608
625.045	21.59716
625.239	23.11229
625.433	19.21994
625.627	23.57906
625.821	18.52399
626.015	18.49934
626.209	21.1558
626.403	16.36747
626.596	21.23073
626.79	22.54117
626.984	17.02141
627.178	21.91182
627.372	21.92436
627.565	22.82892
627.759	16.58797
627.953	17.67853
628.147	21.84095
628.34	22.05702
628.534	27.04499
628.728	20.04733
628.921	23.09611
629.115	22.464
629.309	22.9895
629.502	23.38236
629.696	20.19502
629.89	19.96316
630.083	21.4611
630.277	22.13902
630.47	25.35152
630.664	18.7979
630.857	16.56501
631.051	22.5534
631.244	23.81808
631.438	23.30363
631.631	17.93001
631.825	25.56144
632.018	22.88741
632.212	26.28858
632.405	25.04467
632.598	18.96708
632.792	20.8497
632.985	14.30007
633.178	20.15244
633.372	20.76025
633.565	20.0109
633.758	25.76203
633.952	17.97004
634.145	18.12545
634.338	21.17541
634.531	18.59207
634.724	19.42024
634.918	20.86857
635.111	20.27926
635.304	19.70503
635.497	28.75595
635.69	21.8172
635.883	25.06198
636.077	18.36558
636.27	22.77423
636.463	21.92509
636.656	22.32078
636.849	20.74753
637.042	23.68541
637.235	26.14352
637.428	24.41271
637.621	23.83472
637.814	26.96007
638.007	26.64559
638.2	25.67952
638.393	26.85952
638.586	18.18638
638.778	19.82767
638.971	21.35269
639.164	27.15534
639.357	21.60053
639.55	26.92276
639.743	24.61143
639.935	22.68261
640.128	28.6489
640.321	24.04968
640.514	21.92037
640.707	29.60965
640.899	24.12629
641.092	16.16307
641.285	52.81676
641.477	14.86043
641.67	31.3528
641.863	26.80443
642.055	22.81219
642.248	21.71467
642.441	20.47953
642.633	25.82211
642.826	27.87083
643.018	28.40466
643.211	29.99747
643.403	29.64952
643.596	30.88048
643.788	28.56106
643.981	21.35864
644.173	25.6954
644.366	22.97422
644.558	16.7951
644.751	27.63962
644.943	17.34536
645.135	29.02725
645.328	29.18195
645.52	24.20806
645.712	27.44341
645.905	34.88152
646.097	18.3356
646.289	23.63182
646.482	31.36555
646.674	20.11944
646.866	28.18884
647.058	25.24819
647.251	18.1855
647.443	21.19792
647.635	23.56112
647.827	18.15244
648.019	19.80488
648.211	23.04607
648.404	22.56627
648.596	30.87414
648.788	23.8563
648.98	22.86881
649.172	25.43933
649.364	25.42231
649.556	16.28439
649.748	33.38286
649.94	19.5314
650.132	25.63844
650.324	19.67345
650.516	21.1084
650.708	27.76946
650.9	17.57412
651.092	21.7764
651.284	18.02124
651.476	19.0943
651.667	26.60527
651.859	29.08122
652.051	23.53805
652.243	22.3049
652.435	21.15445
652.627	27.393
652.818	25.88938
653.01	17.62955
653.202	19.65381
653.394	22.68963
653.585	26.56875
653.777	43.34499
653.969	29.86625
654.16	29.12216
654.352	19.72573
654.544	23.09284
654.735	28.51351
654.927	24.68932
655.118	32.27491
655.31	26.59849
655.502	29.20677
655.693	21.25671
655.885	26.22983
656.076	29.74753
656.268	25.08181
656.459	31.70883
656.651	30.11616
656.842	21.54424
657.034	19.78198
657.225	26.99837
657.416	29.67614
657.608	29.93493
657.799	24.05687
657.99	28.53404
658.182	21.54695
658.373	21.28722
658.564	26.93736
658.756	24.61976
658.947	23.00726
659.138	20.36726
659.33	22.51402
659.521	21.6796
659.712	24.63324
659.903	23.88142
660.094	22.9405
660.286	19.21023
660.477	32.84164
660.668	28.4185
660.859	25.57282
661.05	18.37189
661.241	27.5429
661.432	27.72979
661.623	23.66579
661.814	22.97494
662.006	17.90661
662.197	26.06003
662.388	31.55173
662.579	26.04986
662.77	30.57566
662.96	39.43385
663.151	30.01099
663.342	17.04837
663.533	29.99424
663.724	25.76982
663.915	34.71524
664.106	24.82426
664.297	34.80168
664.488	28.30149
664.678	22.46928
664.869	30.05639
665.06	29.51262
665.251	26.41369
665.442	27.33212
665.632	21.06754
665.823	34.77234
666.014	12.17006
666.204	30.5791
666.395	33.49581
666.586	40.32215
666.776	29.91155
666.967	35.26659
667.158	27.44493
667.348	32.57721
667.539	20.66906
667.729	30.80816
667.92	22.58609
668.111	29.59593
668.301	30.37593
668.492	24.82476
668.682	28.32489
668.873	26.69463
669.063	20.48343
669.253	28.55585
669.444	32.38867
669.634	27.16329
669.825	37.47794
670.015	32.61682
670.206	23.6294
670.396	37.23374
670.586	27.11449
670.777	31.40594
670.967	16.04442
671.157	26.79717
671.347	23.61202
671.538	37.27071
671.728	31.56669
671.918	37.54977
672.108	32.59881
672.299	27.25154
672.489	31.40381
672.679	24.7675
672.869	32.88776
673.059	39.45756
673.249	32.24333
673.44	21.94405
673.63	28.55074
673.82	33.93376
674.01	23.17716
674.2	31.94876
674.39	47.03817
674.58	33.1285
674.77	27.18715
674.96	29.10214
675.15	50.91406
675.34	37.11143
675.53	28.51457
675.72	27.88025
675.91	20.43275
676.099	40.65645
676.289	42.06214
676.479	35.03103
676.669	26.15452
676.859	30.77957
677.049	23.53405
677.238	28.03581
677.428	40.91762
677.618	32.71787
677.808	37.29875
677.997	31.83085
678.187	22.88754
678.377	28.77927
678.567	25.29976
678.756	25.58996
678.946	26.91455
679.136	21.17548
679.325	24.81823
679.515	22.37527
679.704	22.34642
679.894	31.87946
680.084	29.20705
680.273	34.02775
680.463	25.29616
680.652	24.77591
680.842	29.00528
681.031	34.71117
681.221	24.19653
681.41	33.22215
681.6	28.93029
681.789	34.0462
681.978	37.53529
682.168	33.19877
682.357	31.56186
682.547	34.16697
682.736	33.48751
682.925	38.90004
683.115	38.59253
683.304	35.31322
683.493	32.81919
683.682	34.75448
683.872	34.19859
684.061	38.93055
684.25	34.87108
684.439	44.65836
684.629	36.56956
684.818	52.92204
685.007	30.6918
685.196	32.27863
685.385	44.66927
685.574	34.32043
685.763	36.05974
685.952	32.92484
686.142	26.15664
686.331	41.86059
686.52	21.13529
686.709	44.73556
686.898	42.83874
687.087	36.25852
687.276	44.14228
687.465	40.71165
687.654	31.35157
687.842	43.7124
688.031	25.40268
688.22	44.45913
688.409	35.84219
688.598	35.07712
688.787	50.15955
688.976	33.76789
689.165	47.21533
689.353	34.19861
689.542	39.26153
689.731	40.72507
689.92	51.35614
690.108	39.45943
690.297	32.96755
690.486	35.72655
690.675	41.59179
690.863	48.34903
691.052	46.57169
691.241	37.4041
691.429	36.41077
691.618	45.80952
691.806	25.58824
691.995	32.24599
692.184	37.11937
692.372	33.98558
692.561	39.99785
692.749	38.28299
692.938	58.7561
693.126	42.129
693.315	37.89447
693.503	41.19543
693.692	43.6447
693.88	44.17846
694.068	52.75609
694.257	37.55418
694.445	41.1059
694.634	23.87647
694.822	44.07268
695.01	48.58385
695.199	49.7096
695.387	48.67501
695.575	47.30226
695.763	36.81288
695.952	33.13509
696.14	27.58984
696.328	34.79325
696.516	39.35208
696.705	39.61503
696.893	39.87808
697.081	22.48202
697.269	41.95704
697.457	28.3731
697.645	26.58468
697.833	39.47388
698.021	29.23244
698.21	32.25824
698.398	32.93797
698.586	28.18851
698.774	26.70064
698.962	33.35672
699.15	29.75018
699.338	27.24067
699.526	38.81099
699.714	33.21299
699.901	33.09767
700.089	43.42565
700.277	33.3405
700.465	37.20943
700.653	43.74688
700.841	40.76597
701.029	31.71299
701.217	50.40078
701.404	39.52385
701.592	52.18463
701.78	56.49208
701.968	38.14252
702.155	39.23022
702.343	27.39164
702.531	52.93783
702.718	44.31747
702.906	39.1376
703.094	35.024
703.281	53.17907
703.469	43.08495
703.657	50.35062
703.844	68.92326
704.032	57.44831
704.219	35.29152
704.407	44.51418
704.595	54.70255
704.782	43.65081
704.97	37.97148
705.157	36.7911
705.345	57.53603
705.532	71.76349
705.719	45.59487
705.907	56.11328
706.094	45.31887
706.282	61.34249
706.469	40.43058
706.656	41.44249
706.844	43.17331
707.031	50.83547
707.218	47.03636
707.406	57.47028
707.593	49.49185
707.78	49.59634
707.968	41.7434
708.155	35.3577
708.342	49.52353
708.529	49.99079
708.716	49.1271
708.904	59.32529
709.091	50.9278
709.278	31.80269
709.465	64.20314
709.652	59.35432
709.839	57.91677
710.026	48.12707
710.213	32.41762
710.4	49.09736
710.587	53.34141
710.774	61.83459
710.961	57.40673
711.148	49.14536
711.335	57.19118
711.522	45.24471
711.709	50.3604
711.896	66.60851
712.083	55.52911
712.27	38.63122
712.457	47.96697
712.644	32.43358
712.831	69.1125
713.017	46.42555
713.204	55.5864
713.391	40.46523
713.578	58.61
713.765	63.73855
713.951	54.45091
714.138	82.06638
714.325	52.50581
714.512	48.98692
714.698	39.94025
714.885	63.51196
715.072	53.99843
715.258	50.00575
715.445	41.63846
715.631	62.54251
715.818	23.96002
716.005	43.85064
716.191	57.49613
716.378	47.00497
716.564	57.7206
716.751	42.14423
716.937	46.8395
717.124	63.99994
717.31	42.84533
717.497	75.3223
717.683	45.18511
717.869	81.83856
718.056	46.06031
718.242	61.57314
718.429	54.23937
718.615	41.07346
718.801	55.37486
718.988	66.38158
719.174	59.03795
719.36	52.22214
719.547	67.3708
719.733	57.37735
719.919	59.69134
720.105	65.4016
720.291	52.38543
720.478	56.85504
720.664	54.64334
720.85	49.63838
721.036	90.85259
721.222	74.84836
721.408	54.48955
721.595	81.48922
721.781	75.88737
721.967	77.71223
722.153	78.68051
722.339	61.89715
722.525	61.26613
722.711	43.10522
722.897	44.53537
723.083	56.5533
723.269	69.87407
723.455	92.43285
723.641	103.20867
723.827	65.3016
724.012	66.07725
724.198	55.94813
724.384	75.8608
724.57	64.76904
724.756	37.41519
724.942	34.66258
725.127	74.02795
725.313	80.82441
725.499	77.3306
725.685	85.60225
725.87	64.6363
726.056	50.1033
726.242	75.7712
726.428	38.49646
726.613	71.51934
726.799	54.22801
726.985	43.93743
727.17	38.64576
727.356	87.04893
727.541	47.74889
727.727	58.57029
727.913	69.07523
728.098	52.33171
728.284	69.48292
728.469	42.11752
728.655	47.89446
728.84	69.69903
729.026	71.54899
729.211	71.7802
729.397	64.35945
729.582	69.77198
729.767	56.46199
729.953	61.26761
730.138	79.46148
730.323	33.45717
730.509	45.49274
730.694	85.40756
730.879	68.83667
731.065	61.73338
731.25	94.51496
731.435	70.2997
731.621	39.99987
731.806	50.97412
731.991	63.10905
732.176	41.65025
732.361	78.92942
732.547	69.17662
732.732	38.04463
732.917	93.38592
733.102	44.03061
733.287	50.66936
733.472	57.92257
733.657	62.47629
733.842	43.05142
734.027	56.02389
734.212	60.72744
734.397	50.89147
734.582	65.76698
734.767	78.76444
734.952	85.11648
735.137	28.13836
735.322	91.31767
735.507	64.97754
735.692	65.76782
735.877	97.63043
736.062	97.82726
736.247	74.26771
736.431	65.12339
736.616	82.52865
736.801	67.15444
736.986	67.2059
737.171	56.44655
737.355	43.47795
737.54	90.43242
737.725	58.35393
737.909	112.35763
738.094	59.19561
738.279	85.4248
738.463	59.21408
738.648	78.21447
738.833	68.59653
739.017	102.17366
739.202	66.31419
739.386	67.58897
739.571	49.81728
739.756	77.95107
739.94	68.05418
740.125	83.10921
740.309	50.71671
740.494	85.7364
740.678	67.99406
740.863	76.85917
741.047	73.55359
741.231	89.02936
741.416	58.51789
741.6	98.69122
741.785	56.57058
741.969	88.05811
742.153	96.49383
742.338	33.07983
742.522	70.49281
742.706	88.55114
742.89	43.99354
743.075	77.91982
743.259	100.58378
743.443	92.55352
743.627	98.21109
743.812	116.3267
743.996	42.86707
744.18	76.50233
744.364	66.31291
744.548	120.35228
744.732	65.17772
744.916	94.39371
745.1	84.84593
745.285	61.96422
745.469	86.25876
745.653	110.62141
745.837	47.23635
746.021	113.32828
746.205	90.45043
746.389	76.31069
746.573	70.38264
746.757	107.50689
746.94	63.76637
747.124	101.588
747.308	55.16529
747.492	93.52535
747.676	59.36239
747.86	118.84663
748.044	68.06609
748.227	37.12692
748.411	155.46336
748.595	84.91262
748.779	55.88724
748.963	83.75048
749.146	72.57744
749.33	57.94025
749.514	51.77394
749.697	94.65235
749.881	61.93722
750.065	55.6502
750.248	74.64056
750.432	121.89052
750.616	72.07618
750.799	49.63907
750.983	120.87803
751.166	137.15197
751.35	40.69643
751.533	90.24895
751.717	105.0058
751.9	118.28104
752.084	65.08822
752.267	53.46583
752.451	64.4677
752.634	79.19168
752.818	83.61935
753.001	97.50227
753.184	100.73535
753.368	87.82527
753.551	14.98069
753.734	64.39652
753.918	125.22391
754.101	67.33506
754.284	90.59319
754.467	74.44338
754.651	68.47766
754.834	67.82258
755.017	106.34093
755.2	98.32217
755.384	52.92008
755.567	95.46124
755.75	107.15917
755.933	72.71024
756.116	86.67935
756.299	64.08241
756.482	64.95725
756.665	99.1501
756.848	83.37339
757.032	88.0292
757.215	46.93339
757.398	65.91516
757.581	54.69126
757.764	145.2947
757.947	75.31687
758.129	102.30017
758.312	15.65563
758.495	71.98248
758.678	72.63865
758.861	69.86261
759.044	135.16339
759.227	52.36994
759.41	63.08927
759.592	95.48117
759.775	86.99293
759.958	102.4299
760.141	48.02899
760.324	136.40894
760.506	111.33968
760.689	105.36175
760.872	146.75638
761.054	96.20803
761.237	79.00893
761.42	90.27562
761.602	97.10084
761.785	93.86163
761.968	106.24515
762.15	116.84818
762.333	76.86192
762.515	85.27908
762.698	62.62153
762.88	86.02717
763.063	72.15186
763.245	90.32673
763.428	53.69277
763.61	60.39608
763.793	45.07586
763.975	77.18754
764.158	63.43328
764.34	58.16352
764.522	51.98341
764.705	67.53187
764.887	110.32437
765.069	47.83244
765.252	94.80987
765.434	95.05828
765.616	77.3574
765.799	64.30522
765.981	91.55655
766.163	60.71784
766.345	105.50977
766.528	68.19813
766.71	28.26349
766.892	83.64114
767.074	108.83667
767.256	73.56461
767.438	132.46025
767.62	106.0231
767.802	152.81056
767.985	100.10243
768.167	155.54075
768.349	80.30805
768.531	118.74311
768.713	92.55194
768.895	105.85192
769.077	102.30133
769.259	179.62793
769.441	234.24687
769.623	126.89881
769.804	166.16958
769.986	155.92136
770.168	173.95979
770.35	208.49172
770.532	151.16587
770.714	157.69935
770.896	193.76433
771.077	72.87278
771.259	191.70743
771.441	181.0644
771.623	187.1489
771.804	284.7319
771.986	69.55281
772.168	119.99404
772.35	174.5174
772.531	259.44207
772.713	151.87398
772.894	210.48126
773.076	124.47358
773.258	125.22197
773.439	223.85804
773.621	196.61316
773.802	83.6056
773.984	128.21564
774.166	163.65134
774.347	249.70722
774.529	173.06894
774.71	61.79836
774.891	133.38818
775.073	136.22238
775.254	258.07146
775.436	131.98691
775.617	248.24023
775.799	135.14269
775.98	249.89332
776.161	242.04211
776.343	214.80292
776.524	129.41108
776.705	147.386
776.886	70.06058
777.068	147.38888
777.249	304.4476
777.43	228.81412
777.611	83.7241
777.793	155.20109
777.974	227.50917
778.155	129.61983
778.336	112.19528
778.517	230.89345
778.698	116.89894
778.879	62.11432
779.061	17.64201
779.242	190.27431
779.423	190.6583
779.604	101.95549
779.785	131.21283
779.966	184.84918
780.147	195.62671
780.328	210.38709
780.509	270.76617
780.69	198.97743
780.871	123.46624
781.051	73.83057
781.232	154.82996
781.413	162.4967
781.594	134.71912
781.775	122.81599
781.956	113.7944
782.137	60.09959
782.317	116.6662
782.498	167.17984
782.679	153.297
782.86	162.29479
783.04	114.80348
783.221	165.51593
783.402	248.80451
783.583	146.75394
783.763	193.19622
783.944	132.38459
784.124	65.71484
784.305	251.44525
784.486	205.01685
784.666	143.51384
784.847	77.7084
785.027	379.32742
785.208	119.77045
785.388	109.27774
785.569	111.96672
785.749	136.48986
785.93	117.72685
786.11	74.54066
786.291	183.31801
786.471	184.46262
786.652	179.30873
786.832	140.33917
787.012	179.00898
787.193	100.93154
787.373	136.9726
787.553	115.02956
787.734	145.95121
787.914	110.83255
788.094	182.4698
788.275	139.65124
788.455	113.73236
788.635	78.32326
788.815	150.99822
788.995	84.97884
789.176	79.03407
789.356	99.95517
789.536	146.71789
789.716	152.91152
789.896	99.399
790.076	123.10038
790.256	163.45659
790.436	34.06195
790.616	97.71285
790.796	155.06947
790.976	115.06953
791.156	114.02893
791.336	184.91133
791.516	156.25859
791.696	133.66321
791.876	73.2578
792.056	141.36042
792.236	210.4203
792.416	179.51811
792.596	176.1474
792.776	168.71017
792.956	193.51058
793.135	229.61752
793.315	81.88772
793.495	222.54867
793.675	182.9427
793.854	176.04799
794.034	193.81821
794.214	84.42887
794.394	211.18121
794.573	183.79747
794.753	138.33097
794.933	112.32537
795.112	169.06656
795.292	194.41183
795.472	267.223
795.651	88.64269
795.831	140.57234
796.01	119.82936
796.19	121.97055
796.369	132.19951
796.549	170.28111
796.728	119.91762
796.908	90.61504
797.087	96.96814
797.267	156.24732
797.446	97.76131
797.626	155.32861
797.805	163.60402
797.984	99.63749
798.164	174.78225
798.343	95.38995
798.522	162.35879
798.702	143.01076
798.881	94.56715
799.06	134.32147
799.239	53.00977
799.419	112.89237
799.598	215.96699
799.777	186.52889
799.956	208.99401
800.136	123.02516
800.315	106.68171
800.494	168.69083
800.673	179.90288
800.852	192.25849
801.031	203.96201
801.21	190.49831
801.389	125.8215
801.568	178.98311
801.747	276.34614
801.926	178.32835
802.105	255.03958
802.284	138.83793
802.463	250.01671
802.642	155.14031
802.821	157.35882
803	258.62691
803.179	186.79837
803.358	228.0392
803.537	120.57322
803.716	189.58598
803.895	124.71195
804.073	143.0256
804.252	134.2711
804.431	189.68454
804.61	190.71086
804.789	200.86603
804.967	131.8553
805.146	121.26234
805.325	312.53067
805.503	221.09864
805.682	95.97238
805.861	372.25338
806.039	223.58015
806.218	115.9093
806.397	169.88128
806.575	160.59338
806.754	166.70696
806.932	96.76828
807.111	245.86438
807.289	216.93179
807.468	168.65022
807.646	232.98669
807.825	161.54192
808.003	188.1747
808.182	241.454
808.36	179.72705
808.539	119.91164
808.717	310.41549
808.895	120.27632
809.074	168.80368
809.252	133.76946
809.43	267.76315
809.609	256.01843
809.787	267.25977
809.965	182.71084
810.144	185.27851
810.322	144.55218
810.5	280.20268
810.678	179.89654
810.856	318.15629
811.035	293.86802
811.213	217.02078
811.391	210.4421
811.569	191.16851
811.747	339.20643
811.925	244.8087
812.103	143.7583
812.281	166.36205
812.459	354.04594
812.637	307.0561
812.816	267.45025
812.994	297.87695
813.171	297.57289
813.349	251.96412
813.527	280.55734
813.705	330.43789
813.883	274.84331
814.061	339.5464
814.239	298.13036
814.417	366.73959
814.595	252.16048
814.773	272.18785
814.95	248.60984
815.128	250.30114
815.306	225.32085
815.484	172.27369
815.662	159.62421
815.839	143.36285
816.017	163.13386
816.195	225.77274
816.372	175.11086
816.55	265.64744
816.728	349.69269
816.905	182.2861
817.083	289.96583
817.261	168.45336
817.438	435.98849
817.616	348.63184
817.793	181.39075
817.971	261.76918
818.148	224.94715
818.326	261.92763
818.503	211.43893
818.681	355.19537
818.858	166.92975
819.036	193.02637
819.213	211.92996
819.391	122.54081
819.568	113.18223
819.745	113.44409
819.923	188.16749
820.1	117.82568
820.277	105.70021
820.455	117.74386
820.632	117.20872
820.809	133.98408
820.986	78.97291
821.164	61.35389
821.341	48.93597
821.518	69.93532
821.695	49.49749
821.872	45.5315
822.05	40.55145
822.227	32.89157
822.404	35.59044
822.581	43.20962
822.758	35.91182
822.935	38.33713
823.112	43.83331
823.289	38.52595
823.466	48.20385
823.643	46.30983
823.82	55.4029
823.997	52.54153
824.174	60.55042
824.351	82.45905
824.528	74.78583
824.705	69.31574
824.882	76.94418
825.059	102.08004
825.236	69.78095
825.412	78.51658
825.589	86.04317
825.766	131.21616
825.943	74.65722
826.12	91.47043
826.296	56.33758
826.473	75.2632
826.65	73.71262
826.827	87.52278
827.003	60.39937
827.18	64.37828
827.357	72.97429
827.533	64.44581
827.71	38.62046
827.887	58.81181
828.063	68.18663
828.24	60.11402
828.416	86.57245
828.593	80.5747
828.769	106.71033
828.946	123.21926
829.122	138.01813
829.299	140.28499
829.475	65.88953
829.652	132.7625
829.828	213.28493
830.005	170.20128
830.181	227.97959
830.357	138.50525
830.534	231.40649
830.71	174.81003
830.886	220.4828
831.063	171.57504
831.239	264.31063
831.415	97.47488
831.592	276.52698
831.768	186.46014
831.944	123.38293
832.12	253.2807
832.296	245.58796
832.473	179.18891
832.649	127.10731
832.825	166.27017
833.001	92.10631
833.177	133.49133
833.353	119.05217
833.529	60.39575
833.705	93.81385
833.881	66.52838
834.058	67.14623
834.234	75.7758
834.41	73.00059
834.586	60.29262
834.761	72.82688
834.937	85.35719
835.113	94.70953
835.289	89.40215
835.465	104.05434
835.641	93.82601
835.817	113.41658
835.993	228.55953
836.169	96.03891
836.344	184.38642
836.52	215.65362
836.696	224.15274
836.872	128.73739
837.048	579.04024
837.223	192.9822
837.399	362.35169
837.575	243.9232
837.75	298.38585
837.926	349.68854
838.102	536.88476
838.277	464.84597
838.453	907.68845
838.628	714.3858
838.804	307.10826
838.98	696.71382
839.155	435.67197
839.331	534.61773
839.506	283.56986
839.682	250.67918
839.857	326.1492
840.033	323.41891
840.208	140.32724
840.384	58.40838
840.559	192.46302
840.734	291.48111
840.91	336.10571
841.085	284.45975
841.26	316.97117
841.436	253.61077
841.611	279.26066
841.786	343.20596
841.962	678.47954
842.137	541.47707
842.312	188.68365
842.487	383.58465
842.663	375.32184
842.838	406.27001
843.013	1825.7256
843.188	710.62481
843.363	414.41081
843.538	1083.56779
843.714	1430.35563
843.889	753.44534
844.064	834.01537
844.239	555.50734
844.414	3018.71806
844.589	854.54781
844.764	2089.83013
844.939	1101.86811
845.114	1243.42101
845.289	1265.11849
845.464	2380.82524
845.639	1000.4849
845.814	1782.64381
845.989	1513.02652
846.163	724.5126
846.338	945.15677
846.513	1246.02671
846.688	625.95269
846.863	1051.89083
847.038	1493.58849
847.212	559.9903
847.387	816.05821
847.562	3308.15862
847.737	4059.13134
847.911	513.80337
848.086	563.6616
848.261	1106.86323
848.435	515.30511
848.61	975.5023
848.785	690.41429
848.959	1110.86574
849.134	1748.81465
849.308	5935.2536
849.483	2195.67561
849.658	-31791.96211
849.832	862.42851
850.007	502.98981
850.181	5241.83922
850.356	-2381.41632
850.53	2083.19257
850.705	728.18352
850.879	642.39585
851.053	861.19393
851.228	1692.21334
851.402	1233.80833
851.577	706.10356
851.751	1349.66252
851.925	980.85979
852.099	865.30095
852.274	1153.50873
852.448	3465.32676
852.622	2352.67554
852.797	937.94731
852.971	1032.10353
853.145	1215.16491
853.319	2149.66393
853.493	6776.35798
853.668	1068.40373
853.842	6445.83635
854.016	1375.941
854.19	1638.98365
854.364	1061.93705
854.538	1127.42749
854.712	84018.57045
854.886	569.10419
855.06	1103.98766
855.234	318.19231
855.408	958.01488
855.582	1615.96808
855.756	-43570.94767
855.93	1587.49172
856.104	7092.72608
856.278	1887.20381
856.452	863.44784
856.626	1281.09702
856.8	1414.59581
856.973	1240.22233
857.147	3755.06524
857.321	2134.33848
857.495	1684.55655
857.669	1023.30608
857.842	1511.45782
858.016	1723.55048
858.19	-2222.29332
858.364	2794.85654
858.537	2513.01283
858.711	987.15034
858.885	2597.93832
859.058	1779.16961
859.232	4955.26606
859.405	931.86028
859.579	799.49787
859.753	1947.95063
859.926	894.44067
860.1	3690.54048
860.273	11318.59082
860.447	999.54762
860.62	1157.98347
860.794	1674.51431
860.967	3610.93729
861.141	1060.46002
861.314	4587.75275
861.487	1407.17855
861.661	1985.35482
861.834	5626.2829
862.008	4507.19681
862.181	-15339.47199
862.354	-14026.16659
862.528	1120.62588
862.701	2569.2618
862.874	539.33351
863.047	1669.42974
863.221	883.28214
863.394	552.6307
863.567	811.75865
863.74	598.88293
863.913	1375.0824
864.087	4087.29241
864.26	2387.70297
864.433	1435.28751
864.606	1345.80245
864.779	-3439.73264
864.952	681.53353
865.125	-45748.76012
865.298	1406.19097
865.471	-2109.54357
865.644	4571.14448
865.817	1060.19848
865.99	1544.3563
866.163	1608.13287
866.336	1347.24988
866.509	3676.28853
866.682	-1980.91345
866.855	9199.71724
867.028	359.07755
867.2	1518.8272
867.373	197.30452
867.546	1446.32707
867.719	3123.06209
867.892	3122.98979
868.064	664.86031
868.237	920.25289
868.41	2502.51788
868.583	794.20442
868.755	664.39789
868.928	1568.4312
869.101	1521.18533
869.273	1950.39898
869.446	1246.24117
869.619	1430.31456
869.791	1239.78192
869.964	6617.88705
870.136	-3244.58573
870.309	-13316.90662
870.481	721.93559
870.654	450.79338
870.826	1021.48128
870.999	522.94354
871.171	1124.88099
871.344	536.52878
871.516	718.33229
871.689	827.68636
871.861	842.22493
872.033	2977.67119
872.206	830.50165
872.378	1511.28541
872.55	3032.36188
872.723	-996.81214
872.895	1260.21228
873.067	1399.5056
873.24	1082.37269
873.412	3365.11682
873.584	2780.81116
873.756	1127.25091
873.928	1440.54545
874.101	1734.95339
874.273	1818.15851
874.445	349.43008
874.617	1243.2381
874.789	659.04326
874.961	1208.75502
875.133	1301.57545
875.305	1105.64697
875.477	995.86451
875.649	430.83531
875.821	901.16634
875.993	1258.21918
876.165	2137.1063
876.337	837.12453
876.509	1059.24711
876.681	879.84797
876.853	702.95709
877.025	1140.59568
877.197	822.33067
877.369	768.07503
877.541	888.64903
877.712	465.76296
877.884	454.66697
878.056	2231.84443
878.228	608.96848
878.4	872.9016
878.571	509.32591
878.743	319.33024
878.915	657.53612
879.086	279.54447
879.258	463.8779
879.43	363.36918
879.601	299.50183
879.773	295.99208
879.945	50.09028
880.116	93.46511
880.288	59.40332
880.459	59.71569
880.631	45.90155
880.802	53.69948
880.974	51.73959
881.145	36.28267
881.317	49.32458
881.488	38.18084
881.66	42.02985
881.831	38.80008
882.002	54.65088
882.174	42.29288
882.345	56.58362
882.517	32.64642
882.688	70.3998
882.859	58.3913
883.03	97.5307
883.202	95.29936
883.373	87.6836
883.544	96.7083
883.715	154.57569
883.887	136.73117
884.058	118.78036
884.229	195.10406
884.4	183.90099
884.571	215.68328
884.742	168.5003
884.914	206.16069
885.085	340.05006
885.256	437.03486
885.427	268.15112
885.598	381.20835
885.769	364.62172
885.94	435.22595
886.111	265.12665
886.282	491.49886
886.453	633.06942
886.624	382.88715
886.795	717.68985
886.966	781.13246
887.136	1160.52031
887.307	623.71626
887.478	820.28002
887.649	757.19988
887.82	1578.80175
887.991	519.52157
888.161	1244.35169
888.332	1075.28081
888.503	386.61265
888.674	1305.42097
888.844	1299.17411
889.015	-87272.86396
889.186	1058.12081
889.356	1200.25471
889.527	-17441.46858
889.698	2906.14069
889.868	1382.90455
890.039	1074.72672
890.209	1273.49481
890.38	872.63911
890.551	1398.1951
890.721	1364.69692
890.892	959.49775
891.062	2606.57322
891.233	1056.30078
891.403	1144.40175
891.574	1816.75672
891.744	2438.01078
891.914	726.41498
892.085	2122.14121
892.255	271.37494
892.425	1314.57269
892.596	1113.61128
892.766	793.49965
892.936	1085.33112
893.107	776.05118
893.277	502.09474
893.447	1087.55701
893.618	439.19205
893.788	506.23576
893.958	282.9004
894.128	217.35537
894.298	288.05047
894.468	330.10751
894.639	142.34198
894.809	82.91215
894.979	158.06996
895.149	189.92639
895.319	151.89713
895.489	231.41893
895.659	334.57099
895.829	200.55008
895.999	222.44288
896.169	228.63324
896.339	338.36257
896.509	646.22424
896.679	670.51946
896.849	896.48988
897.019	799.50983
897.189	3928.47938
897.358	560.12088
897.528	2309.34035
897.698	-6375.05567
897.868	679.13644
898.038	2142.78851
898.208	1945.49447
898.377	612.03506
898.547	5210.34041
898.717	4179.69362
898.886	886.65695
899.056	2141.36704
899.226	4426.90195
899.395	-5973.02017
899.565	-7008.35201
899.735	-5548.05078
899.904	9526.86712
900.074	18413.42178
900.244	2614.34493
900.413	8255.62343
900.583	-835.83271
900.752	-1013.96636
900.922	1365.77273
901.091	95.85128
901.261	1647.69667
901.43	3116.64042
901.599	1369.75566
901.769	2004.23367
901.938	7305.46199
902.108	962.68759
902.277	3040.30288
902.446	1822.25189
902.616	844.48098
902.785	2794.09498
902.954	1959.96529
903.124	1072.58008
903.293	816.18937
903.462	310.19861
903.631	529.84463
903.801	298.46833
903.97	157.35857
904.139	234.17837
904.308	182.91471
904.477	160.29349
904.646	88.6437
904.816	143.25532
904.985	271.72498
905.154	363.76406
