Data from WindowProjectSample_Transmission__49__00049.txt Node

Date: Mon May 05 18:07:35 EDT 2025
User: jessi
Spectrometer: SR400872
Trigger mode: 0
Integration Time (sec): 5.000010E-1
Scans to average: 20
Electric dark correction enabled: true
Nonlinearity correction enabled: true
Boxcar width: 0
XAxis mode: Wavelengths
Number of Pixels in Spectrum: 3648
>>>>>Begin Spectral Data<<<<<
184.909	20847.35669
185.132	-5004.27515
185.355	-3071.24915
185.578	-18682.2937
185.801	1494.46098
186.024	10503.5437
186.247	-1713.01947
186.47	1119.92163
186.693	320.36316
186.916	331.49852
187.139	-3777.32722
187.362	3488.70214
187.585	4204.0088
187.808	3564.64594
188.031	-21.54315
188.254	-47080.10438
188.476	-702.17874
188.699	6465.44613
188.922	683.05495
189.145	-15522.71395
189.368	-678.0831
189.591	-1422.11593
189.813	3423.17443
190.036	-51004.96902
190.259	-967.5428
190.482	-4832.88547
190.705	7213.18543
190.927	-2474.96493
191.15	13266.47793
191.373	3199.66467
191.595	-8822.92174
191.818	-4175.0079
192.041	-5763.29758
192.263	-3332.86531
192.486	-992.71017
192.709	-3955.63448
192.931	7941.35656
193.154	-28187.75377
193.377	-2874.81685
193.599	-2751.42817
193.822	-9431.98318
194.044	-2020.49307
194.267	1164.75758
194.489	248.95123
194.712	-43855.05931
194.934	-32133.06926
195.157	1262.87979
195.379	1596.13813
195.602	-6718.76876
195.824	-1282.29724
196.047	-9174.12881
196.269	2759.54783
196.492	-6626.82095
196.714	28741.29721
196.936	-8490.5119
197.159	-1103.74852
197.381	1106.91135
197.604	441.07263
197.826	12131.84711
198.048	-10169.7568
198.271	-2880.08575
198.493	7730.25889
198.715	2315.69839
198.938	-521.70388
199.16	6790.63352
199.382	-102126.16472
199.604	2671.04923
199.827	-1082.02796
200.049	-2974.51666
200.271	15091.01817
200.493	1237.5811
200.715	-37026.18738
200.938	-6118.53202
201.16	-4359.62781
201.382	20573.46336
201.604	2355.81254
201.826	2331.77477
202.048	-1885.37583
202.27	-1892.83229
202.492	-36039.68295
202.715	2988.93117
202.937	-4507.82247
203.159	-6471.54405
203.381	1549.03459
203.603	6855.72985
203.825	6992.5995
204.047	2241.23494
204.269	-2796.23873
204.491	2215.46134
204.713	5811.62347
204.935	-484740.53028
205.156	1172.71613
205.378	-2947.4834
205.6	1647.94079
205.822	154211.16602
206.044	-1163.11769
206.266	1591.43032
206.488	4625.12661
206.71	-5234.53044
206.932	1119.1902
207.153	12090.03562
207.375	-7263.07684
207.597	-39019.58066
207.819	-2765.71058
208.041	2443.95006
208.262	449.88155
208.484	659.88569
208.706	-769.49543
208.927	-824.11784
209.149	561.63107
209.371	-2854.73559
209.593	-278.82439
209.814	-816.85284
210.036	598.85018
210.258	-634.25711
210.479	1921.48208
210.701	1881.89433
210.922	3314.08486
211.144	-3824.43584
211.366	2069.64038
211.587	7422.40732
211.809	-8253.2116
212.03	2413.31618
212.252	476.77957
212.473	2093.43477
212.695	-6567.62175
212.916	2943.06012
213.138	-672.09527
213.359	3686.30622
213.581	5287.9541
213.802	-824.29036
214.024	1087.27877
214.245	2081.90092
214.466	2770.47126
214.688	-3083.50963
214.909	-1201.22114
215.131	-1762.73673
215.352	-3095.35649
215.573	14803.08982
215.795	5142.56218
216.016	5293.73385
216.237	854.49687
216.459	3513.03932
216.68	1952.16342
216.901	4776.0718
217.122	-3315.15203
217.344	-11986.99584
217.565	3478.19813
217.786	9189.32829
218.007	16482.12108
218.228	-658.63795
218.45	5659.84964
218.671	830.39625
218.892	37756.80137
219.113	1625.6304
219.334	-377.02886
219.555	10691.41115
219.776	3103.02518
219.997	23167.75664
220.219	2911.28509
220.44	-11061.65631
220.661	480.05938
220.882	1532.97279
221.103	-1166.20635
221.324	2347.11387
221.545	2222.25055
221.766	-9089.72275
221.987	874.73491
222.208	1744.70596
222.429	4383.00581
222.65	228.36809
222.87	18778.48306
223.091	720.57586
223.312	614.55221
223.533	1399.77853
223.754	1500.964
223.975	1357.44255
224.196	1943.48456
224.417	1274.83891
224.637	582.19102
224.858	89.80064
225.079	1068.39346
225.3	674.01718
225.521	3777.27369
225.741	500.32
225.962	510.0226
226.183	139.67006
226.404	677.50393
226.624	415.67958
226.845	604.35176
227.066	407.25515
227.286	259.51515
227.507	130.85324
227.728	117.2836
227.948	236.70823
228.169	67.90527
228.389	85.22536
228.61	45.84637
228.831	65.02773
229.051	2.01867
229.272	37.04919
229.492	57.98142
229.713	14.59313
229.933	36.7753
230.154	32.26729
230.374	54.1332
230.595	39.01848
230.815	22.94133
231.036	37.25681
231.256	-8.65282
231.477	71.10577
231.697	38.42114
231.917	36.40183
232.138	56.09026
232.358	102.80587
232.579	101.7497
232.799	18.40509
233.019	100.59232
233.24	114.40805
233.46	38.80032
233.68	61.70453
233.901	45.13794
234.121	24.36564
234.341	9.71291
234.561	-3.36921
234.782	21.08522
235.002	66.33363
235.222	-6.09644
235.442	66.00995
235.662	32.83222
235.883	62.61091
236.103	49.85156
236.323	38.3246
236.543	29.84727
236.763	40.45336
236.983	42.26795
237.203	40.70851
237.423	60.44622
237.643	89.64069
237.864	73.5194
238.084	17.24801
238.304	28.9178
238.524	43.72452
238.744	38.12722
238.964	74.88568
239.184	62.11953
239.404	63.69236
239.624	34.48251
239.843	59.3155
240.063	36.23118
240.283	22.5336
240.503	24.94409
240.723	24.97273
240.943	14.4192
241.163	20.28598
241.383	14.15818
241.603	7.87998
241.822	9.42745
242.042	6.79217
242.262	8.30861
242.482	9.95666
242.702	11.19915
242.921	3.3277
243.141	6.4911
243.361	6.05384
243.581	9.36856
243.8	7.54298
244.02	5.53902
244.24	9.57353
244.459	9.59179
244.679	17.9033
244.899	11.37451
245.118	12.5048
245.338	12.397
245.558	13.73892
245.777	8.06674
245.997	10.72417
246.216	10.62461
246.436	6.05106
246.655	4.83312
246.875	3.4876
247.094	6.25862
247.314	2.00422
247.533	3.69352
247.753	4.36603
247.972	3.38474
248.192	1.00336
248.411	1.9177
248.631	3.55578
248.85	4.37626
249.07	4.01913
249.289	5.77059
249.508	4.93085
249.728	7.46365
249.947	7.37122
250.166	8.77357
250.386	3.95381
250.605	7.14629
250.824	10.76206
251.044	8.02946
251.263	28.69097
251.482	15.04969
251.701	12.04634
251.921	0.24558
252.14	3.44246
252.359	4.02747
252.578	9.98799
252.798	3.51607
253.017	8.9528
253.236	4.19416
253.455	5.96066
253.674	10.14065
253.893	4.8024
254.112	7.44436
254.331	11.48153
254.551	9.32889
254.77	3.66819
254.989	13.60791
255.208	9.35857
255.427	15.18405
255.646	10.9483
255.865	21.90465
256.084	8.69599
256.303	10.62605
256.522	14.04456
256.741	3.33785
256.96	2.82737
257.179	7.97511
257.397	10.67703
257.616	5.9769
257.835	5.94769
258.054	15.55667
258.273	10.58449
258.492	11.37462
258.711	6.96718
258.93	3.18117
259.148	4.87271
259.367	4.55622
259.586	5.68923
259.805	2.23123
260.023	5.29092
260.242	4.0095
260.461	2.8175
260.68	1.21816
260.898	4.45987
261.117	1.3799
261.336	1.01557
261.554	3.39371
261.773	3.43816
261.992	0.69322
262.21	3.24674
262.429	3.45636
262.648	7.4243
262.866	8.20265
263.085	5.76725
263.303	4.75679
263.522	8.66072
263.74	9.06486
263.959	15.78282
264.178	7.2442
264.396	6.39958
264.615	4.70732
264.833	10.75668
265.051	8.98939
265.27	10.84275
265.488	11.21187
265.707	6.42556
265.925	10.63952
266.144	4.86844
266.362	5.91334
266.58	5.27617
266.799	5.32328
267.017	6.03366
267.235	5.31818
267.454	3.21342
267.672	1.82199
267.89	4.04858
268.109	4.4177
268.327	4.45184
268.545	1.00708
268.763	4.07872
268.982	1.16944
269.2	4.44758
269.418	3.10295
269.636	2.1157
269.854	4.51895
270.073	3.1807
270.291	2.09689
270.509	1.72147
270.727	4.33186
270.945	7.35944
271.163	7.2523
271.381	1.43539
271.599	3.21205
271.817	5.40541
272.036	1.78703
272.254	3.13828
272.472	2.36728
272.69	2.61515
272.908	2.55522
273.126	4.51754
273.344	5.35785
273.562	1.94422
273.779	2.75298
273.997	3.81286
274.215	4.01864
274.433	2.90644
274.651	4.4038
274.869	4.72062
275.087	2.80082
275.305	3.8094
275.523	2.54606
275.74	3.13136
275.958	5.65487
276.176	8.17207
276.394	2.63813
276.612	3.26076
276.829	3.15578
277.047	2.62542
277.265	2.80514
277.483	3.666
277.7	4.2219
277.918	3.2903
278.136	6.37757
278.353	2.8455
278.571	1.7757
278.789	4.43652
279.006	1.15461
279.224	3.00218
279.442	5.36581
279.659	3.66538
279.877	2.53432
280.094	5.8637
280.312	1.20227
280.529	3.46817
280.747	0.88186
280.964	2.70296
281.182	6.13157
281.399	2.69632
281.617	3.89306
281.834	2.61921
282.052	1.98537
282.269	3.29285
282.487	2.46677
282.704	2.15231
282.921	2.09821
283.139	3.31095
283.356	4.07201
283.574	3.83224
283.791	1.8897
284.008	5.68424
284.226	2.99679
284.443	3.26075
284.66	4.14059
284.877	3.49092
285.095	2.12169
285.312	1.64515
285.529	0.95685
285.746	0.75946
285.964	2.05768
286.181	1.47244
286.398	1.89201
286.615	2.65271
286.832	2.54496
287.05	0.52801
287.267	1.84084
287.484	1.87489
287.701	2.56678
287.918	2.76872
288.135	2.64726
288.352	1.26971
288.569	1.4079
288.786	2.31194
289.003	1.97494
289.22	3.00163
289.437	1.55855
289.654	2.92765
289.871	3.03833
290.088	2.94767
290.305	2.33083
290.522	1.82651
290.739	2.09903
290.956	3.07338
291.173	3.5587
291.39	3.48678
291.607	2.42532
291.824	1.75938
292.04	1.25287
292.257	2.95359
292.474	3.17901
292.691	2.11127
292.908	0.90097
293.125	1.59092
293.341	1.21123
293.558	5.07613
293.775	1.89971
293.992	2.08721
294.208	0.86464
294.425	1.36038
294.642	1.97172
294.858	2.91761
295.075	0.6909
295.292	2.08321
295.508	2.3693
295.725	4.04531
295.942	1.84968
296.158	1.42882
296.375	2.16593
296.591	1.68012
296.808	1.89367
297.024	2.15439
297.241	2.49091
297.458	2.69272
297.674	0.47092
297.891	2.11261
298.107	1.82829
298.323	1.3607
298.54	3.48156
298.756	1.71416
298.973	1.01081
299.189	3.67046
299.406	1.77332
299.622	3.26836
299.838	3.25996
300.055	3.16598
300.271	1.1569
300.487	1.62663
300.704	2.05189
300.92	1.39724
301.136	5.03057
301.353	3.24183
301.569	2.52871
301.785	2.91047
302.001	3.46297
302.218	2.98109
302.434	3.17378
302.65	1.58415
302.866	2.40126
303.083	4.85097
303.299	4.92005
303.515	3.01456
303.731	3.1601
303.947	1.67181
304.163	2.27129
304.379	3.07234
304.595	3.29611
304.812	2.25602
305.028	2.23019
305.244	2.77744
305.46	3.67091
305.676	3.72899
305.892	4.23755
306.108	3.52095
306.324	2.64746
306.54	4.86639
306.756	3.58542
306.972	3.46788
307.187	3.04696
307.403	4.45255
307.619	2.61313
307.835	4.18772
308.051	4.57459
308.267	2.19114
308.483	4.25053
308.699	3.61315
308.914	3.22641
309.13	3.14112
309.346	1.9848
309.562	2.34051
309.778	2.04423
309.993	3.73755
310.209	3.42644
310.425	2.21144
310.641	3.16094
310.856	2.49453
311.072	2.38879
311.288	3.21351
311.503	3.52675
311.719	1.82832
311.935	1.77267
312.15	3.81892
312.366	3.43899
312.581	3.83786
312.797	3.47592
313.013	4.18577
313.228	2.74589
313.444	3.15194
313.659	2.78531
313.875	3.81661
314.09	3.16773
314.306	4.59779
314.521	4.07012
314.737	4.11632
314.952	3.29267
315.168	3.38089
315.383	3.81168
315.599	3.11509
315.814	3.24753
316.029	4.13
316.245	2.40691
316.46	1.91245
316.675	4.53199
316.891	5.11343
317.106	6.15742
317.321	3.71833
317.537	4.11076
317.752	4.22388
317.967	4.37149
318.183	2.65469
318.398	3.04435
318.613	4.26617
318.828	4.85633
319.043	4.16451
319.259	3.39817
319.474	3.85779
319.689	4.84378
319.904	2.16435
320.119	4.58823
320.334	3.9282
320.549	3.45415
320.765	4.62285
320.98	3.82835
321.195	4.1908
321.41	3.59317
321.625	4.24452
321.84	5.33946
322.055	5.22402
322.27	3.17991
322.485	2.67099
322.7	4.08457
322.915	4.59229
323.13	3.31397
323.345	5.24709
323.56	4.84621
323.775	4.47368
323.989	4.22531
324.204	4.05195
324.419	4.93448
324.634	2.84706
324.849	3.8386
325.064	7.00929
325.279	4.76295
325.493	4.42439
325.708	4.70424
325.923	3.24895
326.138	3.67659
326.352	5.47873
326.567	4.93967
326.782	3.5736
326.997	3.65881
327.211	4.62512
327.426	4.25334
327.641	3.75813
327.855	2.65756
328.07	4.45358
328.285	5.75814
328.499	3.61449
328.714	4.3095
328.928	4.60868
329.143	4.09035
329.358	5.06853
329.572	5.0263
329.787	5.40554
330.001	6.50009
330.216	2.98128
330.43	6.03449
330.645	5.52498
330.859	5.10427
331.074	3.49046
331.288	4.31687
331.503	5.70733
331.717	3.32949
331.931	4.5818
332.146	4.60121
332.36	6.01656
332.575	4.70462
332.789	4.5923
333.003	4.65157
333.218	4.94758
333.432	3.95978
333.646	5.28259
333.86	6.10733
334.075	5.95353
334.289	4.06595
334.503	3.4222
334.717	4.92974
334.932	4.91039
335.146	5.40163
335.36	4.0528
335.574	5.19399
335.788	5.04017
336.003	5.53993
336.217	5.19105
336.431	5.08965
336.645	4.22213
336.859	3.6548
337.073	4.60214
337.287	5.02583
337.501	3.57624
337.715	5.25048
337.929	5.61101
338.143	3.79391
338.357	4.63035
338.571	4.3872
338.785	5.48671
338.999	4.42656
339.213	4.52449
339.427	3.76066
339.641	6.18367
339.855	4.54912
340.069	4.31866
340.283	5.82416
340.497	6.53481
340.711	5.47428
340.924	5.07986
341.138	4.14699
341.352	4.0339
341.566	5.13014
341.78	3.78136
341.993	4.7203
342.207	4.51026
342.421	5.34029
342.635	4.95386
342.848	4.86724
343.062	3.20026
343.276	4.71412
343.49	6.81699
343.703	4.511
343.917	6.21703
344.131	6.29534
344.344	4.61301
344.558	4.90065
344.771	4.22478
344.985	6.63946
345.199	6.70452
345.412	5.67336
345.626	5.67519
345.839	4.10628
346.053	4.49524
346.266	4.59277
346.48	5.91926
346.693	5.84909
346.907	5.57507
347.12	4.57114
347.334	5.64391
347.547	5.65651
347.76	5.06394
347.974	6.30991
348.187	5.55576
348.401	5.15314
348.614	4.68618
348.827	5.19609
349.041	5.80185
349.254	4.09272
349.467	5.17147
349.681	4.74038
349.894	4.8777
350.107	6.52373
350.32	7.24907
350.534	4.5661
350.747	5.33308
350.96	4.80135
351.173	5.16211
351.386	5.37993
351.6	5.16158
351.813	5.25687
352.026	5.33274
352.239	4.74343
352.452	5.34108
352.665	6.62624
352.878	5.6887
353.092	7.33448
353.305	6.43961
353.518	5.92805
353.731	4.97107
353.944	6.76921
354.157	5.50123
354.37	5.42107
354.583	4.86776
354.796	4.82524
355.009	6.65139
355.222	6.21663
355.435	6.11702
355.647	6.83212
355.86	5.46656
356.073	6.20088
356.286	5.67722
356.499	6.75919
356.712	6.62066
356.925	6.666
357.138	6.69681
357.35	5.62327
357.563	5.90211
357.776	6.38215
357.989	6.16151
358.201	6.70573
358.414	6.54656
358.627	7.48588
358.84	6.13926
359.052	5.36877
359.265	5.77685
359.478	7.09865
359.69	4.52175
359.903	7.09814
360.116	7.17735
360.328	5.35772
360.541	7.08728
360.753	6.01897
360.966	6.31298
361.179	6.52944
361.391	6.29344
361.604	6.40924
361.816	6.49496
362.029	6.40749
362.241	6.14804
362.454	6.5745
362.666	6.04806
362.879	7.11758
363.091	6.45724
363.304	6.24775
363.516	6.41923
363.728	5.96514
363.941	6.91391
364.153	6.69905
364.366	5.14113
364.578	5.8242
364.79	6.7055
365.003	6.7044
365.215	6.07322
365.427	6.99534
365.639	7.15547
365.852	6.56055
366.064	8.03146
366.276	6.46757
366.488	6.76831
366.701	6.40008
366.913	6.38471
367.125	6.54483
367.337	5.94212
367.549	6.21913
367.762	6.58597
367.974	6.66024
368.186	6.36166
368.398	7.26929
368.61	6.80336
368.822	7.03309
369.034	6.22559
369.246	7.1863
369.458	8.74835
369.67	6.0314
369.882	7.80224
370.094	5.22322
370.306	7.71601
370.518	6.41369
370.73	6.29295
370.942	6.22971
371.154	6.71105
371.366	6.51195
371.578	7.03588
371.79	6.52409
372.002	7.62523
372.214	8.35933
372.425	6.6797
372.637	7.9726
372.849	7.03
373.061	5.41962
373.273	6.95557
373.484	7.00096
373.696	7.26308
373.908	5.31677
374.12	7.53467
374.331	7.13121
374.543	6.26871
374.755	6.16507
374.967	6.73024
375.178	7.51032
375.39	6.43474
375.602	7.09158
375.813	5.76105
376.025	6.38133
376.236	7.09945
376.448	7.3454
376.66	6.80621
376.871	7.00394
377.083	7.89478
377.294	8.44897
377.506	6.77475
377.717	8.10864
377.929	7.32494
378.14	6.87503
378.352	7.38605
378.563	7.516
378.775	7.98105
378.986	6.39749
379.197	7.08113
379.409	6.50074
379.62	7.40535
379.832	7.3823
380.043	6.81698
380.254	7.26467
380.466	6.35453
380.677	9.13457
380.888	8.44073
381.1	9.00037
381.311	9.05514
381.522	7.47751
381.733	9.06253
381.945	7.18882
382.156	7.05716
382.367	6.77231
382.578	9.13153
382.789	9.16436
383.001	6.84831
383.212	8.55554
383.423	8.32493
383.634	8.09492
383.845	7.83609
384.056	7.13064
384.267	7.33042
384.478	7.49408
384.69	6.64649
384.901	7.68933
385.112	7.52937
385.323	8.69739
385.534	7.66757
385.745	7.74066
385.956	7.63273
386.167	6.95683
386.378	7.81082
386.588	7.05936
386.799	6.95283
387.01	6.46735
387.221	8.05787
387.432	7.58303
387.643	8.62801
387.854	7.3813
388.065	7.27689
388.275	7.36991
388.486	7.07734
388.697	7.45889
388.908	7.09161
389.119	8.34603
389.329	8.45997
389.54	7.6028
389.751	7.74557
389.962	8.444
390.172	7.65595
390.383	7.44252
390.594	7.19897
390.804	7.34591
391.015	7.28934
391.226	7.95801
391.436	8.08179
391.647	8.01511
391.858	8.14673
392.068	6.70992
392.279	7.19434
392.489	8.02183
392.7	8.43335
392.91	7.33745
393.121	7.27802
393.331	8.12665
393.542	8.58928
393.752	8.11257
393.963	8.08778
394.173	7.97633
394.384	8.20295
394.594	7.9823
394.804	7.15924
395.015	7.97696
395.225	8.28076
395.436	7.31246
395.646	8.12541
395.856	7.56584
396.067	6.84085
396.277	8.45698
396.487	8.12838
396.697	8.12311
396.908	8.12024
397.118	8.33219
397.328	7.90974
397.538	8.48671
397.749	7.21156
397.959	8.32789
398.169	8.14787
398.379	7.11781
398.589	8.20952
398.8	7.9741
399.01	7.91262
399.22	7.66719
399.43	9.37549
399.64	7.82306
399.85	8.24133
400.06	7.93371
400.27	7.31339
400.48	7.74618
400.69	8.78404
400.9	7.56698
401.11	7.13348
401.32	8.28692
401.53	7.54387
401.74	8.90798
401.95	8.26208
402.16	7.52555
402.37	8.09595
402.58	7.65763
402.79	8.26064
403	8.65292
403.209	7.59631
403.419	8.84919
403.629	7.52588
403.839	8.77525
404.049	8.6555
404.258	7.83418
404.468	7.69546
404.678	8.44135
404.888	8.9109
405.097	7.93523
405.307	8.09295
405.517	8.58928
405.727	8.49455
405.936	7.94089
406.146	8.33929
406.356	9.05159
406.565	8.1347
406.775	7.91512
406.984	7.9194
407.194	9.3251
407.404	8.12142
407.613	8.51778
407.823	8.66814
408.032	8.87158
408.242	8.79434
408.451	7.78559
408.661	8.09262
408.87	9.32449
409.08	7.80062
409.289	8.56053
409.499	8.42407
409.708	8.36089
409.918	7.09588
410.127	8.46811
410.336	9.28632
410.546	8.78188
410.755	8.06429
410.964	8.2253
411.174	7.81325
411.383	8.62988
411.592	8.59856
411.802	7.80877
412.011	8.85805
412.22	8.16897
412.429	9.34789
412.639	9.12594
412.848	8.94735
413.057	9.2255
413.266	9.09323
413.475	8.41863
413.685	8.79478
413.894	9.02209
414.103	9.13469
414.312	9.03224
414.521	8.35502
414.73	8.60741
414.939	9.86041
415.148	9.0313
415.357	8.85149
415.566	8.5967
415.776	8.49726
415.985	8.55269
416.194	9.30226
416.403	10.13499
416.611	8.20108
416.82	8.70236
417.029	9.12649
417.238	8.74403
417.447	8.6099
417.656	9.00994
417.865	8.74922
418.074	9.05323
418.283	9.15578
418.492	9.74972
418.7	9.6111
418.909	10.57443
419.118	9.78505
419.327	10.09641
419.536	10.05314
419.744	10.12029
419.953	11.30945
420.162	11.55023
420.371	11.02534
420.579	11.57398
420.788	12.43757
420.997	12.51198
421.205	12.91978
421.414	12.56845
421.623	12.72961
421.831	12.41572
422.04	12.84334
422.249	12.02604
422.457	12.37593
422.666	11.57323
422.874	12.38016
423.083	12.49771
423.291	12.44505
423.5	12.469
423.708	12.72824
423.917	13.18674
424.125	12.86438
424.334	12.69238
424.542	14.16339
424.751	13.77618
424.959	13.29323
425.167	13.27025
425.376	13.23721
425.584	12.01131
425.793	11.95126
426.001	10.9554
426.209	11.08112
426.418	9.98249
426.626	9.75525
426.834	9.51062
427.042	9.73847
427.251	9.56953
427.459	10.29856
427.667	9.91379
427.875	9.21495
428.084	9.51158
428.292	10.50725
428.5	10.136
428.708	9.17759
428.916	9.31457
429.124	9.74641
429.333	9.55727
429.541	9.77005
429.749	9.87777
429.957	9.91521
430.165	11.39458
430.373	9.05629
430.581	9.92879
430.789	10.72921
430.997	9.6169
431.205	9.48747
431.413	10.1909
431.621	9.73068
431.829	10.42609
432.037	9.91479
432.245	10.15127
432.453	10.36995
432.661	10.02112
432.869	11.18065
433.076	9.77697
433.284	10.14744
433.492	10.59638
433.7	10.80057
433.908	9.99826
434.116	10.29117
434.323	10.41171
434.531	10.14855
434.739	10.54098
434.947	10.75086
435.154	10.60619
435.362	10.21399
435.57	10.14954
435.778	9.85588
435.985	10.46643
436.193	9.99966
436.401	10.94623
436.608	10.24595
436.816	9.99682
437.023	10.99993
437.231	11.25892
437.439	10.51522
437.646	10.74317
437.854	10.65855
438.061	10.79819
438.269	10.36706
438.476	10.8067
438.684	10.42989
438.891	10.43269
439.099	10.21102
439.306	9.96333
439.514	10.01931
439.721	11.13779
439.929	10.85856
440.136	11.7482
440.343	11.88269
440.551	11.73111
440.758	13.21517
440.965	12.05311
441.173	11.78694
441.38	11.63236
441.587	11.40753
441.795	11.13636
442.002	10.84686
442.209	10.80083
442.416	10.94616
442.624	10.96453
442.831	10.77337
443.038	10.42061
443.245	10.17955
443.452	10.55119
443.66	10.9568
443.867	10.40815
444.074	10.41894
444.281	10.3559
444.488	10.52141
444.695	10.83447
444.902	10.58149
445.109	11.62331
445.316	11.58353
445.523	12.13867
445.73	12.27738
445.937	13.13319
446.144	13.67748
446.351	14.12055
446.558	13.16403
446.765	14.84805
446.972	14.13888
447.179	13.83919
447.386	14.3454
447.593	12.82453
447.8	13.49053
448.007	12.16039
448.214	11.58869
448.42	11.05857
448.627	11.39074
448.834	10.83512
449.041	10.69436
449.248	10.64086
449.454	11.24024
449.661	11.72425
449.868	10.59599
450.075	10.47773
450.281	9.74865
450.488	10.2973
450.695	10.31363
450.901	10.46302
451.108	10.45113
451.315	11.26917
451.521	10.68738
451.728	11.39071
451.935	10.5163
452.141	10.76301
452.348	10.73128
452.554	10.66852
452.761	10.61319
452.967	11.75701
453.174	10.94888
453.38	11.12257
453.587	10.23917
453.793	10.99246
454	11.42591
454.206	11.96764
454.413	11.37687
454.619	11.22852
454.825	10.53177
455.032	11.26048
455.238	11.31149
455.445	10.37631
455.651	11.0612
455.857	10.12461
456.064	10.73345
456.27	10.71729
456.476	10.68668
456.682	10.27229
456.889	11.2052
457.095	11.21856
457.301	12.29647
457.507	11.04404
457.714	11.03143
457.92	11.07376
458.126	10.70095
458.332	11.0333
458.538	10.92976
458.744	11.05292
458.951	11.05286
459.157	13.13831
459.363	12.62116
459.569	13.07793
459.775	13.70767
459.981	13.48859
460.187	13.90039
460.393	14.05707
460.599	14.30142
460.805	13.24686
461.011	12.30646
461.217	12.17592
461.423	11.87524
461.629	11.24051
461.835	11.57507
462.041	11.18975
462.247	12.09492
462.453	11.13123
462.658	11.16112
462.864	11.58278
463.07	11.21972
463.276	11.29279
463.482	11.21556
463.688	11.96542
463.893	10.96739
464.099	11.08915
464.305	12.01103
464.511	10.98886
464.716	11.17579
464.922	11.67073
465.128	10.87574
465.333	12.1694
465.539	11.70235
465.745	11.28337
465.95	11.31761
466.156	12.87666
466.362	12.01838
466.567	11.2564
466.773	11.04035
466.978	12.16873
467.184	10.834
467.389	10.34837
467.595	11.46846
467.8	11.01364
468.006	12.11197
468.211	12.02752
468.417	10.8568
468.622	11.68335
468.828	11.75193
469.033	11.67321
469.239	12.88957
469.444	11.16928
469.649	11.99335
469.855	11.44002
470.06	11.50516
470.266	11.08117
470.471	11.81258
470.676	11.71387
470.881	10.54673
471.087	12.36844
471.292	12.91108
471.497	10.82619
471.703	11.52286
471.908	11.26437
472.113	11.6507
472.318	12.03152
472.523	10.95482
472.729	11.72466
472.934	11.76614
473.139	11.32126
473.344	11.7476
473.549	12.16919
473.754	11.19628
473.959	13.07036
474.164	11.21287
474.369	11.51255
474.575	12.01192
474.78	11.78179
474.985	11.27543
475.19	10.66067
475.395	11.2225
475.6	11.60724
475.804	12.39126
476.009	11.67121
476.214	11.63268
476.419	11.52456
476.624	10.9363
476.829	11.23937
477.034	12.10329
477.239	11.35966
477.444	12.11318
477.648	11.99612
477.853	12.05321
478.058	11.70479
478.263	11.45771
478.468	11.23372
478.672	11.28953
478.877	12.52321
479.082	12.54749
479.287	11.95112
479.491	11.75679
479.696	11.36647
479.901	12.11853
480.105	12.20521
480.31	11.47215
480.515	11.88627
480.719	12.94576
480.924	11.64925
481.128	11.38381
481.333	12.08668
481.538	12.13105
481.742	12.48222
481.947	13.64895
482.151	14.87002
482.356	15.94598
482.56	18.50844
482.765	20.681
482.969	24.32417
483.174	27.34063
483.378	31.44552
483.582	33.14059
483.787	35.54596
483.991	36.5073
484.196	37.38486
484.4	36.81748
484.604	37.0634
484.809	34.38165
485.013	32.30332
485.217	29.54213
485.422	26.61363
485.626	24.27679
485.83	22.59465
486.034	21.68578
486.239	21.98044
486.443	22.2672
486.647	22.78847
486.851	24.08044
487.055	25.75178
487.26	25.89507
487.464	27.13609
487.668	26.91036
487.872	27.69544
488.076	27.85585
488.28	26.9191
488.484	25.48472
488.688	24.86161
488.892	23.58176
489.096	21.92172
489.3	20.28277
489.504	18.93854
489.708	17.90304
489.912	17.39983
490.116	16.96614
490.32	16.61882
490.524	17.77307
490.728	18.76086
490.932	19.83397
491.136	21.03509
491.34	22.51204
491.544	22.97634
491.748	23.14309
491.951	23.2729
492.155	22.74272
492.359	22.2443
492.563	20.52941
492.767	19.48859
492.97	17.64768
493.174	15.89494
493.378	14.5321
493.582	12.96808
493.785	12.39271
493.989	12.4284
494.193	12.37402
494.396	12.13133
494.6	12.66469
494.804	12.25745
495.007	11.90808
495.211	12.01926
495.414	12.09778
495.618	12.41686
495.822	12.88675
496.025	12.29924
496.229	12.59716
496.432	12.0061
496.636	12.3459
496.839	12.33405
497.043	13.07557
497.246	12.55827
497.45	12.20304
497.653	12.47991
497.856	12.47388
498.06	12.00774
498.263	12.31068
498.467	12.23873
498.67	12.8084
498.873	12.53519
499.077	12.31834
499.28	12.3472
499.483	12.54046
499.686	12.6577
499.89	12.49336
500.093	12.8944
500.296	12.03699
500.499	13.16096
500.703	12.34436
500.906	12.69271
501.109	13.17439
501.312	12.39262
501.515	12.38578
501.719	12.50988
501.922	12.99441
502.125	12.5169
502.328	12.28527
502.531	11.93184
502.734	12.30866
502.937	11.63219
503.14	12.51927
503.343	12.13203
503.546	12.2671
503.749	11.90943
503.952	12.87827
504.155	12.0211
504.358	12.6419
504.561	12.52632
504.764	11.85783
504.967	12.51116
505.17	12.43596
505.373	13.20956
505.576	12.44956
505.778	12.82037
505.981	12.07525
506.184	13.04156
506.387	11.6882
506.59	13.6112
506.793	13.01691
506.995	12.82434
507.198	11.59639
507.401	12.83888
507.604	12.79591
507.806	12.14841
508.009	12.22543
508.212	12.96648
508.414	12.25865
508.617	12.35986
508.82	12.62785
509.022	13.26817
509.225	12.70906
509.427	11.98443
509.63	13.22962
509.833	12.71565
510.035	12.36194
510.238	12.02488
510.44	13.22269
510.643	11.78919
510.845	13.62591
511.048	12.81504
511.25	12.33732
511.453	12.60669
511.655	12.77983
511.858	12.43844
512.06	13.05784
512.262	12.74002
512.465	13.10952
512.667	12.4422
512.869	12.07001
513.072	12.83902
513.274	12.96523
513.476	12.84169
513.679	13.09809
513.881	12.22867
514.083	13.40531
514.286	12.34725
514.488	12.24325
514.69	12.14005
514.892	11.90929
515.094	12.98466
515.297	12.19667
515.499	12.75254
515.701	12.28395
515.903	13.53486
516.105	13.56309
516.307	13.08076
516.509	11.78761
516.711	12.17032
516.913	12.71987
517.116	12.76621
517.318	12.5335
517.52	13.32159
517.722	13.12824
517.924	12.20879
518.126	13.00886
518.328	12.7256
518.529	13.42619
518.731	14.22131
518.933	12.89362
519.135	13.11334
519.337	13.70851
519.539	13.04091
519.741	12.05724
519.943	12.64333
520.145	12.711
520.346	13.12158
520.548	12.66254
520.75	12.88765
520.952	12.62047
521.153	12.86912
521.355	12.90925
521.557	12.32172
521.759	12.76296
521.96	12.69675
522.162	12.10264
522.364	13.19113
522.565	12.38742
522.767	13.04518
522.969	13.28792
523.17	13.03408
523.372	12.90161
523.573	12.60293
523.775	12.65797
523.977	12.47644
524.178	13.7435
524.38	12.60623
524.581	13.15421
524.783	12.79031
524.984	13.19364
525.186	13.00165
525.387	13.70125
525.589	13.82673
525.79	14.04896
525.991	14.12071
526.193	14.82814
526.394	14.3001
526.596	15.23029
526.797	15.65488
526.998	15.48183
527.2	16.29638
527.401	18.44376
527.602	20.05501
527.803	22.86157
528.005	24.58359
528.206	26.584
528.407	28.25773
528.608	28.79187
528.81	29.23163
529.011	28.82461
529.212	29.71847
529.413	28.07914
529.614	26.51687
529.815	24.97157
530.017	23.001
530.218	20.59494
530.419	18.47468
530.62	17.56367
530.821	16.46305
531.022	14.9521
531.223	15.50422
531.424	15.10517
531.625	15.10952
531.826	14.84291
532.027	15.60086
532.228	16.79628
532.429	17.25593
532.63	17.96262
532.831	19.12743
533.032	19.65499
533.233	20.44852
533.433	20.1216
533.634	20.51361
533.835	19.71659
534.036	18.9879
534.237	18.30317
534.438	17.1341
534.638	15.67697
534.839	14.74878
535.04	14.35848
535.241	13.49031
535.441	14.27891
535.642	13.87472
535.843	13.46766
536.043	13.68111
536.244	14.00946
536.445	14.36735
536.645	15.15834
536.846	14.86353
537.047	15.19388
537.247	14.09073
537.448	13.75539
537.648	13.38547
537.849	12.99326
538.049	12.90972
538.25	13.33119
538.451	13.19104
538.651	12.6776
538.851	13.36796
539.052	13.74272
539.252	13.48779
539.453	13.08394
539.653	13.2658
539.854	13.12427
540.054	13.29328
540.254	15.32432
540.455	16.80414
540.655	17.53578
540.855	19.51963
541.056	20.8582
541.256	21.1555
541.456	22.27215
541.657	22.12568
541.857	22.76661
542.057	21.34856
542.257	20.67324
542.458	20.70397
542.658	19.77794
542.858	17.80589
543.058	17.30106
543.258	16.40646
543.458	14.78297
543.659	14.12686
543.859	14.31345
544.059	13.92394
544.259	13.20805
544.459	13.76726
544.659	12.94988
544.859	13.41805
545.059	12.90668
545.259	13.53053
545.459	13.28425
545.659	13.66285
545.859	13.26067
546.059	13.39104
546.259	12.80075
546.459	12.64214
546.659	12.74988
546.859	13.52545
547.059	13.37153
547.258	13.41937
547.458	13.46333
547.658	12.73505
547.858	12.62914
548.058	13.1924
548.258	12.9002
548.457	12.60318
548.657	14.38999
548.857	12.91304
549.057	13.59818
549.256	13.36786
549.456	12.71548
549.656	11.94619
549.855	14.28015
550.055	12.79801
550.255	14.08792
550.454	13.23059
550.654	13.4478
550.853	13.8598
551.053	13.47313
551.253	13.21315
551.452	13.48367
551.652	12.36317
551.851	12.1729
552.051	12.93959
552.25	12.59721
552.45	12.75486
552.649	12.77999
552.849	12.68737
553.048	13.10584
553.248	13.52715
553.447	12.4324
553.646	13.52566
553.846	14.61068
554.045	13.89783
554.244	12.32983
554.444	13.82463
554.643	12.34702
554.842	13.959
555.042	14.14875
555.241	12.69293
555.44	12.26584
555.64	13.37869
555.839	13.93907
556.038	13.41714
556.237	12.6058
556.436	13.09919
556.636	13.12298
556.835	12.58009
557.034	13.92622
557.233	13.00566
557.432	12.06168
557.631	13.63028
557.83	12.82952
558.029	12.59142
558.228	12.60009
558.427	12.49464
558.626	13.1653
558.825	12.28265
559.024	12.87174
559.223	14.32069
559.422	12.62445
559.621	13.39625
559.82	11.49434
560.019	12.97978
560.218	12.65895
560.417	11.51395
560.616	12.71482
560.815	15.16653
561.014	12.13184
561.212	14.01568
561.411	12.98064
561.61	12.25173
561.809	12.79254
562.008	14.21704
562.206	12.73862
562.405	13.47198
562.604	13.01181
562.803	13.21325
563.001	12.82974
563.2	12.15377
563.399	13.30971
563.597	12.3284
563.796	12.90746
563.995	12.2413
564.193	13.40767
564.392	12.90443
564.59	14.4251
564.789	11.94157
564.988	12.90056
565.186	13.28995
565.385	13.04998
565.583	13.03634
565.782	13.18822
565.98	13.00821
566.179	13.06917
566.377	12.67999
566.575	12.55651
566.774	13.9977
566.972	13.71288
567.171	14.52802
567.369	14.08484
567.567	13.23949
567.766	13.29974
567.964	11.87825
568.162	13.6117
568.361	14.00411
568.559	12.89409
568.757	13.32162
568.956	13.13566
569.154	13.08647
569.352	13.5563
569.55	13.11279
569.748	13.25731
569.947	12.58111
570.145	12.54576
570.343	12.53461
570.541	14.15203
570.739	12.38824
570.937	13.12074
571.135	13.59875
571.333	14.74036
571.532	14.52612
571.73	13.44008
571.928	13.97519
572.126	13.67402
572.324	13.1169
572.522	14.13375
572.72	15.21147
572.918	13.28914
573.116	13.65352
573.313	13.1606
573.511	13.24802
573.709	12.89201
573.907	13.89718
574.105	13.11806
574.303	12.41947
574.501	12.24496
574.699	13.80548
574.896	13.42025
575.094	13.79906
575.292	12.40518
575.49	13.95311
575.688	13.16993
575.885	14.03724
576.083	14.92729
576.281	13.68098
576.478	12.81258
576.676	13.66937
576.874	12.2911
577.071	13.2809
577.269	14.75269
577.467	13.14403
577.664	13.04966
577.862	13.88518
578.059	12.51786
578.257	13.70406
578.455	12.93654
578.652	13.06681
578.85	11.58829
579.047	13.19526
579.245	12.87401
579.442	13.01865
579.64	12.95861
579.837	11.77075
580.034	15.11432
580.232	12.9165
580.429	12.02787
580.627	13.52037
580.824	14.00188
581.021	13.6973
581.219	12.54894
581.416	12.39662
581.613	14.33376
581.811	14.02987
582.008	12.2445
582.205	13.65964
582.402	13.21424
582.6	14.31206
582.797	13.19572
582.994	13.26832
583.191	13.69053
583.388	12.81138
583.586	13.68503
583.783	14.10665
583.98	12.24895
584.177	13.25296
584.374	10.94664
584.571	12.8496
584.768	12.9758
584.965	12.661
585.162	13.56799
585.359	14.39795
585.556	13.10337
585.753	13.48045
585.95	12.00716
586.147	12.26115
586.344	13.56663
586.541	12.73019
586.738	12.1029
586.935	12.93056
587.132	12.46925
587.329	13.90464
587.526	12.92353
587.722	17.12968
587.919	11.84715
588.116	13.4865
588.313	14.24685
588.51	15.01698
588.706	13.01019
588.903	13.5502
589.1	14.15596
589.297	15.58711
589.493	13.23053
589.69	13.75441
589.887	12.60765
590.083	12.28501
590.28	12.56449
590.477	13.84103
590.673	13.71213
590.87	14.2196
591.067	12.55186
591.263	13.48019
591.46	13.34864
591.656	12.79044
591.853	14.61142
592.049	12.6314
592.246	12.7526
592.442	13.96807
592.639	14.36419
592.835	12.4194
593.032	13.56573
593.228	12.11736
593.425	12.04767
593.621	11.97442
593.817	13.45732
594.014	12.53322
594.21	13.37642
594.406	14.22662
594.603	13.81638
594.799	12.83469
594.995	11.46296
595.192	14.27733
595.388	13.01707
595.584	13.08887
595.78	12.2508
595.977	15.83887
596.173	14.72729
596.369	13.27412
596.565	12.7005
596.761	12.43807
596.957	14.53421
597.154	12.95098
597.35	13.07194
597.546	12.89853
597.742	13.76849
597.938	13.5947
598.134	12.78428
598.33	13.53349
598.526	14.40386
598.722	13.56928
598.918	14.88099
599.114	13.85386
599.31	12.06726
599.506	13.27237
599.702	12.49728
599.898	13.33024
600.094	14.01158
600.29	13.83752
600.485	14.05389
600.681	12.45538
600.877	14.61553
601.073	13.31176
601.269	15.20226
601.465	14.56401
601.66	12.59815
601.856	11.73089
602.052	15.39914
602.248	13.23219
602.443	11.61542
602.639	12.51989
602.835	12.68046
603.03	12.75778
603.226	14.29341
603.422	12.91768
603.617	13.37359
603.813	13.36479
604.009	13.08749
604.204	14.59083
604.4	12.46602
604.595	14.57742
604.791	12.81242
604.986	13.77956
605.182	12.90814
605.377	13.22659
605.573	13.28173
605.768	13.4851
605.964	13.93608
606.159	14.02434
606.355	14.37514
606.55	13.03338
606.746	14.41897
606.941	13.3523
607.136	14.99076
607.332	16.11478
607.527	12.35088
607.722	13.67975
607.918	13.25228
608.113	12.63206
608.308	14.34119
608.503	13.97967
608.699	13.9387
608.894	14.14807
609.089	12.8818
609.284	14.06834
609.479	13.3848
609.675	14.267
609.87	13.38848
610.065	14.18525
610.26	14.25604
610.455	14.23737
610.65	13.5288
610.845	13.74773
611.04	14.30689
611.235	13.3488
611.43	13.27968
611.625	12.50973
611.82	15.06347
612.015	12.86856
612.21	14.95296
612.405	12.06362
612.6	15.13041
612.795	14.80998
612.99	14.00325
613.185	12.33321
613.38	12.55151
613.575	13.34179
613.77	16.49505
613.965	12.01466
614.159	12.53327
614.354	14.8146
614.549	14.58112
614.744	14.01681
614.938	12.33551
615.133	11.88948
615.328	14.88003
615.523	14.8127
615.717	16.59266
615.912	12.87461
616.107	13.4254
616.301	13.23007
616.496	12.65192
616.691	15.04111
616.885	14.00484
617.08	16.74692
617.274	14.35628
617.469	15.75642
617.664	14.17674
617.858	12.94887
618.053	13.88156
618.247	13.30737
618.442	11.22447
618.636	15.01171
618.831	12.6592
619.025	12.93027
619.219	16.94156
619.414	10.2647
619.608	13.20185
619.803	12.80645
619.997	15.99589
620.191	14.77369
620.386	13.81987
620.58	13.34965
620.774	11.52993
620.969	11.68415
621.163	13.68651
621.357	12.18186
621.551	13.28911
621.746	13.80025
621.94	13.1643
622.134	17.28396
622.328	15.84079
622.522	11.68409
622.716	14.63511
622.911	14.8534
623.105	14.78479
623.299	13.96137
623.493	16.73274
623.687	12.95237
623.881	12.79535
624.075	14.21727
624.269	14.97171
624.463	11.28533
624.657	11.58146
624.851	14.42075
625.045	14.34932
625.239	14.80348
625.433	13.50034
625.627	15.82251
625.821	13.40713
626.015	13.05481
626.209	13.96103
626.403	12.21284
626.596	14.3052
626.79	14.74652
626.984	12.58484
627.178	14.71984
627.372	14.3913
627.565	14.94466
627.759	12.35244
627.953	12.75072
628.147	14.08405
628.34	14.59373
628.534	16.41629
628.728	13.55833
628.921	14.98146
629.115	14.69638
629.309	15.09068
629.502	15.2298
629.696	13.97952
629.89	13.73815
630.083	14.16225
630.277	14.20372
630.47	15.78042
630.664	13.24123
630.857	11.83809
631.051	14.96507
631.244	15.3777
631.438	15.31157
631.631	12.94261
631.825	15.54062
632.018	14.55811
632.212	16.18587
632.405	15.76763
632.598	13.18487
632.792	13.94816
632.985	10.9976
633.178	13.52469
633.372	13.74211
633.565	13.66113
633.758	15.55352
633.952	12.84964
634.145	12.74735
634.338	13.43139
634.531	13.43458
634.724	12.87269
634.918	14.01864
635.111	13.60628
635.304	13.22711
635.497	16.94433
635.69	14.45451
635.883	15.46069
636.077	12.849
636.27	14.70736
636.463	14.33272
636.656	14.20173
636.849	13.71476
637.042	14.63381
637.235	16.27824
637.428	15.20456
637.621	14.58267
637.814	16.26901
638.007	16.10161
638.2	15.92813
638.393	16.50847
638.586	12.36152
638.778	13.74151
638.971	13.73111
639.164	16.48501
639.357	14.4141
639.55	16.50976
639.743	15.14564
639.935	14.74904
640.128	17.49152
640.321	15.48994
640.514	14.36252
640.707	17.6313
640.899	15.12962
641.092	11.93991
641.285	30.14036
641.477	11.30774
641.67	17.87105
641.863	16.22146
642.055	14.72534
642.248	14.56111
642.441	14.07861
642.633	15.27085
642.826	15.97192
643.018	16.28925
643.211	17.55176
643.403	17.61747
643.596	18.03469
643.788	17.78866
643.981	14.12193
644.173	15.84556
644.366	14.07104
644.558	11.95473
644.751	15.93637
644.943	12.78238
645.135	17.05917
645.328	17.18117
645.52	15.73761
645.712	16.49011
645.905	19.73657
646.097	12.88057
646.289	15.17934
646.482	18.43753
646.674	13.35459
646.866	16.72979
647.058	15.69758
647.251	13.2706
647.443	14.14338
647.635	14.46327
647.827	12.81931
648.019	13.59149
648.211	14.35285
648.404	15.08522
648.596	17.61829
648.788	15.45238
648.98	15.32492
649.172	15.63858
649.364	15.68846
649.556	12.08009
649.748	19.71434
649.94	13.32547
650.132	16.01286
650.324	13.74606
650.516	13.77005
650.708	16.52521
650.9	12.79183
651.092	12.45849
651.284	13.13196
651.476	13.47786
651.667	16.17361
651.859	17.35584
652.051	14.8371
652.243	15.34065
652.435	14.4903
652.627	16.10739
652.818	15.73982
653.01	12.84174
653.202	13.3678
653.394	14.44547
653.585	15.82282
653.777	22.55747
653.969	17.97333
654.16	17.03552
654.352	13.51011
654.544	15.09163
654.735	16.86791
654.927	15.45328
655.118	17.81572
655.31	16.41702
655.502	17.59824
655.693	14.95091
655.885	16.39831
656.076	17.97937
656.268	15.92651
656.459	18.13381
656.651	17.74761
656.842	14.74125
657.034	13.84576
657.225	16.90452
657.416	18.1634
657.608	17.79295
657.799	15.93222
657.99	17.81676
658.182	14.95872
658.373	14.84895
658.564	17.83455
658.756	16.6302
658.947	15.51742
659.138	14.3816
659.33	15.15582
659.521	14.61448
659.712	15.41685
659.903	15.37395
660.094	14.99996
660.286	13.30957
660.477	19.02958
660.668	17.07285
660.859	15.56447
661.05	13.27858
661.241	16.84066
661.432	16.31138
661.623	15.33598
661.814	14.92293
662.006	13.10212
662.197	16.19323
662.388	17.56072
662.579	16.04715
662.77	18.14161
662.96	21.05272
663.151	17.32879
663.342	12.5723
663.533	17.01337
663.724	15.43514
663.915	19.62824
664.106	16.41041
664.297	19.85097
664.488	17.05225
664.678	14.63195
664.869	17.95159
665.06	17.71281
665.251	16.3872
665.442	17.4689
665.632	14.01882
665.823	20.28091
666.014	10.83191
666.204	17.62418
666.395	18.86632
666.586	20.75833
666.776	17.43485
666.967	19.75338
667.158	16.45506
667.348	19.24623
667.539	14.46888
667.729	18.19959
667.92	15.16311
668.111	18.28988
668.301	17.83781
668.492	16.17486
668.682	17.19563
668.873	16.65025
669.063	13.77061
669.253	17.21099
669.444	19.47345
669.634	16.74694
669.825	20.13177
670.015	19.17145
670.206	15.2313
670.396	20.78122
670.586	15.83855
670.777	17.77417
670.967	12.62267
671.157	16.17693
671.347	15.31702
671.538	19.42555
671.728	18.0836
671.918	20.86084
672.108	18.87962
672.299	16.62133
672.489	17.44476
672.679	15.0631
672.869	17.43904
673.059	21.61626
673.249	17.9618
673.44	14.71854
673.63	16.42
673.82	18.93684
674.01	14.90439
674.2	17.68148
674.39	23.05891
674.58	18.42347
674.77	17.04623
674.96	16.59134
675.15	25.67685
675.34	19.6876
675.53	17.15855
675.72	16.47859
675.91	13.67779
676.099	21.49707
676.289	22.46248
676.479	19.65363
676.669	16.20502
676.859	18.53013
677.049	15.80203
677.238	17.27888
677.428	21.41649
677.618	18.68922
677.808	21.67964
677.997	18.76342
678.187	15.30508
678.377	17.68761
678.567	15.93792
678.756	16.29762
678.946	17.39028
679.136	14.66368
679.325	16.33364
679.515	15.64415
679.704	15.10182
679.894	19.86183
680.084	18.33603
680.273	20.54738
680.463	16.03346
680.652	15.56865
680.842	17.32499
681.031	20.05841
681.221	16.11567
681.41	19.17847
681.6	17.39587
681.789	19.19331
681.978	20.71527
682.168	18.56367
682.357	18.4985
682.547	18.59398
682.736	17.97744
682.925	20.48852
683.115	20.8602
683.304	19.68597
683.493	18.20533
683.682	19.40562
683.872	19.18652
684.061	20.89068
684.25	19.31158
684.439	23.85455
684.629	20.11841
684.818	26.18529
685.007	18.44449
685.196	17.5188
685.385	23.10694
685.574	19.6274
685.763	19.71032
685.952	19.42041
686.142	15.72388
686.331	21.83771
686.52	14.83558
686.709	24.03872
686.898	23.53125
687.087	20.35517
687.276	22.92481
687.465	22.24133
687.654	18.34748
687.842	22.72383
688.031	16.24329
688.22	22.88048
688.409	19.5672
688.598	19.48731
688.787	25.7143
688.976	19.04701
689.165	24.24975
689.353	18.41489
689.542	20.38249
689.731	22.08313
689.92	25.31282
690.108	20.99743
690.297	18.97048
690.486	19.68949
690.675	21.36754
690.863	23.88567
691.052	23.54642
691.241	20.12254
691.429	20.49927
691.618	23.49867
691.806	16.80608
691.995	18.96942
692.184	20.07527
692.372	18.92891
692.561	20.23915
692.749	20.61225
692.938	29.27478
693.126	21.93907
693.315	19.63817
693.503	22.19384
693.692	22.88174
693.88	22.53846
694.068	26.32185
694.257	20.83147
694.445	22.72109
694.634	15.40229
694.822	23.04281
695.01	23.47136
695.199	26.7055
695.387	24.71513
695.575	24.08268
695.763	20.0542
695.952	19.81537
696.14	16.35013
696.328	18.98043
696.516	21.29907
696.705	21.36274
696.893	20.88158
697.081	16.18593
697.269	23.40173
697.457	17.73823
697.645	17.15517
697.833	22.68916
698.021	18.33402
698.21	19.3648
698.398	19.95912
698.586	17.27139
698.774	16.72187
698.962	20.08031
699.15	17.74183
699.338	16.54491
699.526	21.69037
699.714	18.25159
699.901	18.49169
700.089	22.16429
700.277	18.47985
700.465	20.08359
700.653	22.31652
700.841	21.43953
701.029	18.33644
701.217	24.95654
701.404	20.87199
701.592	24.85031
701.78	27.5526
701.968	20.39275
702.155	19.60871
702.343	17.30054
702.531	24.38912
702.718	22.07314
702.906	19.80663
703.094	19.22565
703.281	25.16795
703.469	20.80213
703.657	24.6088
703.844	31.35441
704.032	27.65398
704.219	20.20719
704.407	23.1646
704.595	26.78863
704.782	23.37481
704.97	21.66942
705.157	21.19148
705.345	28.79095
705.532	34.03894
705.719	25.41316
705.907	28.93378
706.094	25.14711
706.282	32.43557
706.469	25.04256
706.656	26.49647
706.844	25.34953
707.031	30.33596
707.218	27.46514
707.406	32.23954
707.593	29.65538
707.78	29.60095
707.968	27.85028
708.155	25.20131
708.342	29.91633
708.529	29.63368
708.716	29.4812
708.904	33.29367
709.091	29.77018
709.278	24.3898
709.465	34.79932
709.652	32.46946
709.839	31.81228
710.026	27.83703
710.213	21.86465
710.4	27.70254
710.587	29.1589
710.774	30.57102
710.961	30.99417
711.148	27.67882
711.335	30.14132
711.522	26.34893
711.709	29.15474
711.896	33.96835
712.083	30.94356
712.27	24.29747
712.457	28.29912
712.644	22.57143
712.831	35.13792
713.017	28.88208
713.204	30.01648
713.391	24.79786
713.578	30.44567
713.765	32.27338
713.951	28.50172
714.138	38.05835
714.325	27.10596
714.512	26.12969
714.698	23.08804
714.885	31.07017
715.072	25.60721
715.258	25.61119
715.445	23.17237
715.631	29.46269
715.818	16.13264
716.005	23.00071
716.191	27.12776
716.378	23.53546
716.564	27.82341
716.751	21.59434
716.937	23.31346
717.124	28.12854
717.31	21.36351
717.497	32.63459
717.683	22.12354
717.869	33.25019
718.056	23.14794
718.242	27.09538
718.429	24.18387
718.615	20.92102
718.801	24.67947
718.988	29.08209
719.174	26.77216
719.36	23.76488
719.547	30.77178
719.733	26.14395
719.919	26.28031
720.105	27.04735
720.291	25.02443
720.478	25.80772
720.664	25.26577
720.85	22.68944
721.036	37.41953
721.222	32.43608
721.408	25.43249
721.595	33.39156
721.781	32.23254
721.967	30.74594
722.153	33.71565
722.339	29.21971
722.525	27.28966
722.711	21.69862
722.897	19.80561
723.083	24.2699
723.269	29.68643
723.455	38.81728
723.641	44.2242
723.827	26.62061
724.012	27.97833
724.198	25.75281
724.384	32.5927
724.57	27.53797
724.756	20.50363
724.942	18.18504
725.127	30.89998
725.313	32.06903
725.499	31.83967
725.685	35.46296
725.87	28.18264
726.056	22.92925
726.242	32.98619
726.428	20.07246
726.613	30.81542
726.799	24.69975
726.985	22.34232
727.17	19.32279
727.356	36.22245
727.541	22.66229
727.727	26.19228
727.913	29.75171
728.098	24.52685
728.284	30.11614
728.469	22.27632
728.655	23.32211
728.84	31.60242
729.026	30.51158
729.211	30.5719
729.397	29.07357
729.582	30.91228
729.767	26.56366
729.953	29.00072
730.138	32.94972
730.323	17.38621
730.509	22.49901
730.694	35.26247
730.879	30.32787
731.065	27.98944
731.25	38.23497
731.435	30.32109
731.621	21.03747
731.806	24.50443
731.991	27.82029
732.176	20.47233
732.361	34.49994
732.547	28.91161
732.732	20.49167
732.917	37.92923
733.102	22.16928
733.287	25.03961
733.472	26.61769
733.657	26.83821
733.842	21.23214
734.027	24.90259
734.212	25.96059
734.397	23.78022
734.582	27.64314
734.767	32.44565
734.952	34.44233
735.137	16.712
735.322	34.09361
735.507	29.38403
735.692	28.30292
735.877	38.51782
736.062	36.60034
736.247	29.61902
736.431	26.98283
736.616	32.42951
736.801	29.83244
736.986	27.45413
737.171	22.65316
737.355	22.26822
737.54	34.52926
737.725	28.24057
737.909	43.03101
738.094	25.38344
738.279	32.19509
738.463	26.42061
738.648	30.81628
738.833	29.87171
739.017	39.14285
739.202	26.44739
739.386	27.54619
739.571	23.40191
739.756	32.16798
739.94	28.41838
740.125	30.9465
740.309	24.85873
740.494	33.02186
740.678	29.08626
740.863	31.12623
741.047	29.08914
741.231	36.44188
741.416	25.12372
741.6	37.06959
741.785	24.63826
741.969	33.73875
742.153	36.73803
742.338	17.6383
742.522	28.38584
742.706	33.21646
742.89	22.79414
743.075	28.18194
743.259	36.57317
743.443	35.01189
743.627	35.98981
743.812	40.4896
743.996	20.90234
744.18	27.18141
744.364	26.42287
744.548	43.16367
744.732	27.62312
744.916	34.32792
745.1	32.89047
745.285	27.77904
745.469	32.75243
745.653	38.38835
745.837	24.18993
746.021	43.51224
746.205	36.46017
746.389	29.80401
746.573	27.94989
746.757	38.62799
746.94	27.29226
747.124	36.85303
747.308	22.91814
747.492	36.54428
747.676	26.31113
747.86	45.47201
748.044	27.56738
748.227	20.40566
748.411	53.07514
748.595	29.91346
748.779	24.98492
748.963	31.56893
749.146	30.13778
749.33	26.64308
749.514	24.90936
749.697	37.00771
749.881	25.4584
750.065	24.06537
750.248	30.93677
750.432	44.58225
750.616	30.22384
750.799	23.81174
750.983	45.67922
751.166	45.35106
751.35	21.3701
751.533	34.32822
751.717	40.40838
751.9	38.8685
752.084	28.596
752.267	25.17977
752.451	25.7522
752.634	30.47131
752.818	34.23133
753.001	37.00227
753.184	38.68725
753.368	32.19485
753.551	11.77435
753.734	24.83587
753.918	46.31362
754.101	25.79441
754.284	34.92497
754.467	27.20713
754.651	26.69783
754.834	24.61744
755.017	36.83472
755.2	37.7918
755.384	24.31058
755.567	35.0894
755.75	36.21394
755.933	29.09275
756.116	35.9845
756.299	27.0822
756.482	24.79987
756.665	34.57631
756.848	30.24838
757.032	32.88209
757.215	21.9622
757.398	25.44737
757.581	25.68046
757.764	49.71445
757.947	29.60424
758.129	36.27461
758.312	15.10773
758.495	29.41611
758.678	30.09349
758.861	28.49252
759.044	42.75104
759.227	24.4472
759.41	26.10586
759.592	36.22797
759.775	28.96698
759.958	36.82916
760.141	23.02821
760.324	46.28212
760.506	40.94517
760.689	35.3646
760.872	46.15242
761.054	33.64821
761.237	29.84592
761.42	32.4019
761.602	36.3713
761.785	32.91055
761.968	38.26579
762.15	42.60787
762.333	30.2849
762.515	34.84959
762.698	28.79913
762.88	36.50138
763.063	33.79911
763.245	38.58821
763.428	25.05754
763.61	27.91913
763.793	23.63766
763.975	32.94946
764.158	29.06382
764.34	27.04727
764.522	24.9076
764.705	29.22559
764.887	40.25727
765.069	21.65872
765.252	34.27687
765.434	34.6747
765.616	32.05379
765.799	26.40671
765.981	35.51519
766.163	26.48741
766.345	40.47152
766.528	26.93667
766.71	17.45699
766.892	32.08395
767.074	40.6656
767.256	29.88758
767.438	43.48023
767.62	32.52278
767.802	48.73954
767.985	36.01763
768.167	44.33704
768.349	28.11132
768.531	35.24596
768.713	34.20559
768.895	38.43622
769.077	34.83453
769.259	51.77979
769.441	69.77073
769.623	38.66103
769.804	43.59965
769.986	42.53009
770.168	50.65895
770.35	59.87201
770.532	46.05389
770.714	50.92638
770.896	48.75139
771.077	25.39803
771.259	52.72107
771.441	47.18258
771.623	54.83334
771.804	67.09834
771.986	26.78471
772.168	36.7164
772.35	51.12448
772.531	66.42924
772.713	44.82441
772.894	57.09873
773.076	42.45609
773.258	39.52038
773.439	58.90395
773.621	64.79007
773.802	34.18283
773.984	37.16239
774.166	49.01199
774.347	60.58135
774.529	55.14506
774.71	24.5189
774.891	41.19307
775.073	38.62107
775.254	57.4136
775.436	37.51908
775.617	71.46818
775.799	37.75593
775.98	58.52612
776.161	64.44795
776.343	65.53544
776.524	43.6105
776.705	40.36645
776.886	25.3868
777.068	47.23581
777.249	95.45191
777.43	67.13354
777.611	31.58599
777.793	42.11658
777.974	64.93812
778.155	39.54986
778.336	34.47624
778.517	74.94558
778.698	36.58036
778.879	25.51214
779.061	15.94219
779.242	50.68053
779.423	50.3307
779.604	37.61053
779.785	41.71722
779.966	48.64064
780.147	57.86749
780.328	56.89514
780.509	78.48786
780.69	57.67175
780.871	37.13223
781.051	29.25563
781.232	46.23521
781.413	46.46092
781.594	40.2842
781.775	38.961
781.956	36.03929
782.137	20.99872
782.317	38.89742
782.498	46.2591
782.679	46.26172
782.86	47.27148
783.04	37.35784
783.221	47.67489
783.402	70.73039
783.583	46.32541
783.763	55.78355
783.944	38.25282
784.124	28.87129
784.305	68.68488
784.486	52.0855
784.666	44.78634
784.847	28.11913
785.027	88.33565
785.208	36.84937
785.388	35.07475
785.569	36.77481
785.749	41.80255
785.93	39.25753
786.11	28.73709
786.291	51.09485
786.471	47.97198
786.652	54.47619
786.832	41.86834
787.012	47.54513
787.193	33.66201
787.373	46.01304
787.553	38.02815
787.734	47.29457
787.914	41.4894
788.094	56.23413
788.275	48.11385
788.455	41.10111
788.635	30.58923
788.815	46.98619
788.995	32.97566
789.176	28.1381
789.356	35.74625
789.536	42.37276
789.716	50.25036
789.896	36.89278
790.076	38.60955
790.256	48.3523
790.436	21.00168
790.616	33.24981
790.796	47.07174
790.976	40.07514
791.156	35.20396
791.336	51.33858
791.516	48.66921
791.696	42.29249
791.876	28.37109
792.056	46.02902
792.236	57.93197
792.416	54.3723
792.596	49.24909
792.776	49.90762
792.956	51.32974
793.135	67.26276
793.315	32.61879
793.495	58.30668
793.675	54.21639
793.854	54.41567
794.034	57.20774
794.214	32.78785
794.394	54.41399
794.573	60.99138
794.753	46.44421
794.933	34.46568
795.112	47.91446
795.292	56.96743
795.472	68.80124
795.651	30.47499
795.831	43.64678
796.01	40.93462
796.19	40.52895
796.369	44.47641
796.549	50.06368
796.728	41.77126
796.908	29.32505
797.087	32.61644
797.267	41.87201
797.446	31.4554
797.626	49.39607
797.805	48.76988
797.984	35.48039
798.164	52.941
798.343	35.13526
798.522	48.09437
798.702	47.09336
798.881	31.09164
799.06	39.9673
799.239	23.84517
799.419	34.50985
799.598	67.18825
799.777	48.89
799.956	57.54408
800.136	40.7664
800.315	35.45757
800.494	48.42406
800.673	58.55939
800.852	52.45313
801.031	59.61257
801.21	53.34517
801.389	39.69318
801.568	46.36348
801.747	70.02468
801.926	44.51762
802.105	63.28586
802.284	39.74391
802.463	65.13225
802.642	49.58841
802.821	47.67435
803	63.29585
803.179	56.43845
803.358	58.89997
803.537	38.77487
803.716	46.34948
803.895	36.50452
804.073	41.03674
804.252	37.7787
804.431	49.56888
804.61	43.93683
804.789	56.24163
804.967	39.52206
805.146	38.99432
805.325	73.54942
805.503	50.72785
805.682	28.88728
805.861	90.21137
806.039	63.37319
806.218	40.6657
806.397	47.58369
806.575	44.06351
806.754	48.86457
806.932	34.42287
807.111	58.1855
807.289	56.37571
807.468	46.44522
807.646	57.93469
807.825	53.42583
808.003	47.61695
808.182	59.52421
808.36	46.62048
808.539	36.00539
808.717	66.59088
808.895	37.53436
809.074	49.07041
809.252	44.93319
809.43	53.67202
809.609	62.94335
809.787	70.40756
809.965	44.46501
810.144	45.3172
810.322	46.49852
810.5	52.54194
810.678	41.855
810.856	77.29232
811.035	61.81647
811.213	56.07201
811.391	65.40561
811.569	49.87925
811.747	98.99796
811.925	62.57117
812.103	37.88491
812.281	46.57786
812.459	72.13669
812.637	72.39793
812.816	57.60444
812.994	77.92052
813.171	64.65212
813.349	53.59342
813.527	61.65934
813.705	67.89884
813.883	87.47302
814.061	59.45753
814.239	73.88248
814.417	82.59388
814.595	56.23439
814.773	55.10702
814.95	47.8284
815.128	55.41823
815.306	52.00665
815.484	44.82236
815.662	36.53808
815.839	34.0745
816.017	41.42721
816.195	63.63176
816.372	45.0248
816.55	59.96862
816.728	73.01838
816.905	45.13007
817.083	72.17576
817.261	47.25064
817.438	96.36755
817.616	74.66222
817.793	40.32377
817.971	60.33271
818.148	58.9242
818.326	68.17474
818.503	51.58761
818.681	73.72056
818.858	44.67745
819.036	47.72481
819.213	52.0694
819.391	38.8919
819.568	41.81143
819.745	36.58215
819.923	58.63502
820.1	45.01621
820.277	38.31842
820.455	44.15284
820.632	46.99689
820.809	50.42146
820.986	33.9402
821.164	29.73765
821.341	27.6208
821.518	38.51699
821.695	29.41161
821.872	28.08888
822.05	25.11937
822.227	22.102
822.404	22.79187
822.581	25.44173
822.758	23.20235
822.935	23.2373
823.112	24.46855
823.289	22.68627
823.466	25.56898
823.643	24.7563
823.82	27.79026
823.997	26.03918
824.174	28.60157
824.351	35.69938
824.528	33.94494
824.705	32.03061
824.882	34.44705
825.059	41.17041
825.236	32.78372
825.412	32.97012
825.589	38.60954
825.766	50.30894
825.943	35.06964
826.12	38.96974
826.296	30.47777
826.473	35.85338
826.65	35.82984
826.827	41.16765
827.003	30.05918
827.18	33.01283
827.357	35.79857
827.533	31.59523
827.71	21.58707
827.887	29.15683
828.063	31.81035
828.24	28.3817
828.416	34.88808
828.593	29.93403
828.769	39.49517
828.946	40.1495
829.122	43.17797
829.299	41.30603
829.475	29.17609
829.652	40.90033
829.828	61.41665
830.005	40.80229
830.181	54.73399
830.357	42.88828
830.534	57.93115
830.71	44.60233
830.886	56.02852
831.063	52.67934
831.239	66.6746
831.415	36.88927
831.592	68.33272
831.768	47.70884
831.944	43.07586
832.12	72.65359
832.296	69.24199
832.473	57.10223
832.649	42.60885
832.825	58.68098
833.001	37.873
833.177	51.68688
833.353	47.6885
833.529	30.82432
833.705	44.72344
833.881	31.53613
834.058	32.32132
834.234	33.75149
834.41	32.88727
834.586	27.38919
834.761	31.35627
834.937	34.28975
835.113	35.03021
835.289	30.69791
835.465	35.41949
835.641	33.28366
835.817	35.86463
835.993	55.61525
836.169	32.47526
836.344	45.99387
836.52	51.01904
836.696	48.85025
836.872	41.10275
837.048	99.12026
837.223	45.33054
837.399	76.69437
837.575	62.078
837.75	56.90724
837.926	77.59815
838.102	112.27531
838.277	91.22235
838.453	123.49404
838.628	122.14253
838.804	54.45652
838.98	107.74215
839.155	59.65848
839.331	77.15812
839.506	55.81403
839.682	60.1929
839.857	78.91325
840.033	89.07635
840.208	45.85723
840.384	28.68391
840.559	47.8469
840.734	69.74516
840.91	85.21012
841.085	55.73457
841.26	55.48455
841.436	50.38015
841.611	48.95118
841.786	74.56839
841.962	92.35968
842.137	61.77632
842.312	46.21388
842.487	56.42327
842.663	48.15127
842.838	60.14179
843.013	161.60541
843.188	79.47415
843.363	89.96889
843.538	137.84225
843.714	136.97507
843.889	142.92746
844.064	150.40189
844.239	123.06036
844.414	137.02556
844.589	92.49731
844.764	174.72282
844.939	173.62047
845.114	182.79679
845.289	175.29202
845.464	236.43525
845.639	163.4072
845.814	79.24462
845.989	104.98569
846.163	120.65257
846.338	128.54728
846.513	170.06705
846.688	118.61602
846.863	113.83463
847.038	106.44921
847.212	125.66668
847.387	121.28618
847.562	128.1629
847.737	157.86044
847.911	64.76814
848.086	75.98171
848.261	263.69234
848.435	112.91084
848.61	165.81879
848.785	89.19431
848.959	175.9977
849.134	227.88667
849.308	233.87428
849.483	130.3545
849.658	195.22229
849.832	110.612
850.007	101.17192
850.181	260.5735
850.356	107.57366
850.53	251.43939
850.705	82.25736
850.879	48.46541
851.053	121.47957
851.228	101.70461
851.402	144.44315
851.577	175.84907
851.751	194.89804
851.925	135.41061
852.099	67.90881
852.274	100.29224
852.448	119.3118
852.622	134.65622
852.797	123.04944
852.971	120.35922
853.145	125.67355
853.319	361.6202
853.493	188.67236
853.668	96.62903
853.842	231.67785
854.016	187.08557
854.19	221.93772
854.364	138.42229
854.538	139.20417
854.712	194.96546
854.886	125.81857
855.06	111.57171
855.234	55.82962
855.408	209.4146
855.582	175.87353
855.756	176.14735
855.93	230.9545
856.104	157.06632
856.278	178.22578
856.452	132.49251
856.626	171.16011
856.8	270.9206
856.973	159.7421
857.147	151.83331
857.321	159.55325
857.495	184.60569
857.669	124.55845
857.842	113.13195
858.016	187.91293
858.19	99.40792
858.364	296.1164
858.537	116.18709
858.711	133.61535
858.885	120.3738
859.058	114.85475
859.232	60.69874
859.405	70.94756
859.579	177.48335
859.753	154.82641
859.926	109.43094
860.1	76.89195
860.273	138.69983
860.447	218.98426
860.62	116.48031
860.794	258.41426
860.967	150.58749
861.141	192.41526
861.314	270.22875
861.487	169.46914
861.661	206.90356
861.834	217.60464
862.008	190.01767
862.181	142.90559
862.354	139.05435
862.528	153.17206
862.701	117.14871
862.874	84.28929
863.047	117.18036
863.221	116.89591
863.394	63.12088
863.567	218.95868
863.74	55.12376
863.913	179.30231
864.087	153.9823
864.26	183.15081
864.433	140.69831
864.606	239.96567
864.779	138.13345
864.952	73.39941
865.125	115.13225
865.298	133.61305
865.471	132.78019
865.644	268.99496
865.817	216.36691
865.99	179.68118
866.163	210.97946
866.336	123.24902
866.509	132.56393
866.682	121.54134
866.855	198.64599
867.028	89.96906
867.2	170.66583
867.373	60.78216
867.546	149.70319
867.719	273.05367
867.892	167.77763
868.064	100.92226
868.237	155.05722
868.41	144.12177
868.583	83.76839
868.755	92.68709
868.928	134.16382
869.101	283.21789
869.273	198.2751
869.446	175.85838
869.619	201.93103
869.791	135.48683
869.964	193.94654
870.136	189.31338
870.309	147.34714
870.481	151.60766
870.654	71.2779
870.826	149.33076
870.999	117.6675
871.171	182.88887
871.344	115.06952
871.516	146.19953
871.689	103.59516
871.861	148.22485
872.033	104.88912
872.206	121.96579
872.378	194.85999
872.55	125.87232
872.723	88.87135
872.895	127.10288
873.067	198.77
873.24	217.34833
873.412	115.67362
873.584	131.8819
873.756	119.73743
873.928	163.48443
874.101	160.42504
874.273	172.72222
874.445	64.09791
874.617	86.99755
874.789	152.41763
874.961	122.06914
875.133	171.94877
875.305	144.6108
875.477	97.08479
875.649	80.62705
875.821	100.84036
875.993	235.00169
876.165	96.02146
876.337	155.5955
876.509	126.69373
876.681	150.65032
876.853	150.87179
877.025	150.32759
877.197	102.85736
877.369	94.41412
877.541	185.70497
877.712	57.03472
877.884	92.82393
878.056	171.86996
878.228	97.5142
878.4	163.35104
878.571	96.53294
878.743	70.95831
878.915	156.42654
879.086	92.55607
879.258	113.12054
879.43	104.61879
879.601	92.02526
879.773	96.83314
879.945	30.92055
880.116	44.57812
880.288	32.28967
880.459	34.05624
880.631	28.45704
880.802	31.97167
880.974	30.38392
881.145	23.92538
881.317	29.78803
881.488	24.26431
881.66	26.68065
881.831	24.65025
882.002	32.55035
882.174	25.25992
882.345	30.91606
882.517	20.94302
882.688	34.68179
882.859	31.40049
883.03	44.97678
883.202	41.92997
883.373	38.26311
883.544	38.65733
883.715	60.45986
883.887	52.0788
884.058	45.12266
884.229	60.12899
884.4	62.03692
884.571	70.13428
884.742	61.12015
884.914	65.23032
885.085	89.9211
885.256	113.09251
885.427	91.7643
885.598	106.7658
885.769	112.34211
885.94	108.52883
886.111	74.80869
886.282	127.26
886.453	105.36399
886.624	76.12925
886.795	125.21503
886.966	104.78651
887.136	136.49828
887.307	94.45263
887.478	169.25821
887.649	147.90166
887.82	151.5574
887.991	122.31853
888.161	162.80489
888.332	158.6683
888.503	85.73774
888.674	209.86466
888.844	223.97105
889.015	182.85294
889.186	89.67399
889.356	210.16828
889.527	91.22127
889.698	357.19823
889.868	124.12034
890.039	154.0569
890.209	131.04065
890.38	185.54729
890.551	158.92415
890.721	220.34155
890.892	181.58534
891.062	125.28555
891.233	154.68949
891.403	123.16428
891.574	102.99159
891.744	136.62911
891.914	169.17314
892.085	146.50381
892.255	54.44744
892.425	222.09161
892.596	176.5885
892.766	160.41455
892.936	220.97563
893.107	187.55696
893.277	103.23623
893.447	81.54528
893.618	60.92968
893.788	124.41184
893.958	64.91013
894.128	70.46729
894.298	76.2677
894.468	104.88992
894.639	52.05176
894.809	38.08206
894.979	58.26466
895.149	65.47572
895.319	54.5114
895.489	75.62336
895.659	89.71938
895.829	62.88506
895.999	68.45939
896.169	51.6267
896.339	63.6508
896.509	122.72661
896.679	138.96551
896.849	134.40374
897.019	180.80821
897.189	139.14891
897.358	131.36602
897.528	189.81145
897.698	69.56388
897.868	167.94363
898.038	281.25375
898.208	268.57821
898.377	94.81989
898.547	271.54166
898.717	420.79455
898.886	170.66053
899.056	256.25994
899.226	396.68002
899.395	242.02587
899.565	299.88833
899.735	209.49565
899.904	345.33442
900.074	280.46647
900.244	137.41446
900.413	517.02976
900.583	120.43307
900.752	197.76918
900.922	319.83044
901.091	40.01304
901.261	277.32884
901.43	249.99085
901.599	251.4973
901.769	561.9929
901.938	292.68233
902.108	289.51171
902.277	373.2229
902.446	116.87927
902.616	119.96535
902.785	175.03198
902.954	292.46955
903.124	192.07874
903.293	150.72355
903.462	95.34258
903.631	121.26021
903.801	92.45708
903.97	55.56085
904.139	82.9428
904.308	68.78056
904.477	55.01573
904.646	35.08046
904.816	51.28793
904.985	73.36523
905.154	106.34153
