Data from WindowProjectSample_Transmission__26__00026.txt Node

Date: Sat May 03 15:25:40 EDT 2025
User: jessi
Spectrometer: SR400872
Trigger mode: 0
Integration Time (sec): 5.000010E-1
Scans to average: 6
Electric dark correction enabled: true
Nonlinearity correction enabled: true
Boxcar width: 0
XAxis mode: Wavelengths
Number of Pixels in Spectrum: 3648
>>>>>Begin Spectral Data<<<<<
184.909	18953.53134
185.132	2697.59331
185.355	24164.09388
185.578	-8096.83149
185.801	441.71243
186.024	-1521.43675
186.247	843.65211
186.47	1640.81461
186.693	-426.25461
186.916	-1707.2663
187.139	-2707.25712
187.362	1566.92078
187.585	3213.98404
187.808	-3274.90733
188.031	-566.16566
188.254	-1403.49413
188.476	-853.80797
188.699	2349.42427
188.922	-161.64976
189.145	-9969.39995
189.368	-317.99225
189.591	-1136.98392
189.813	-1699.82863
190.036	1283.11761
190.259	1614.85901
190.482	531.84006
190.705	10597.37492
190.927	-937.67128
191.15	3423.62015
191.373	2080.40933
191.595	-2335.39255
191.818	2422.97065
192.041	-191.7584
192.263	2506.21719
192.486	1680.74186
192.709	-5585.38228
192.931	2706.54703
193.154	-6159.67666
193.377	177286.84747
193.599	1270.15796
193.822	1746.97506
194.044	-2179.91383
194.267	434.74395
194.489	-579.36287
194.712	1373.62139
194.934	3355.99401
195.157	-16812.27995
195.379	763.07027
195.602	2108.5416
195.824	1977.75877
196.047	2210.4839
196.269	2979.54278
196.492	3430.45068
196.714	2516.90079
196.936	1129.18435
197.159	1319.45343
197.381	-1947.69084
197.604	-1113.39299
197.826	6440.09436
198.048	2976.83555
198.271	4202.33074
198.493	2094.97359
198.715	-5981.04818
198.938	-525.64318
199.16	1890.05733
199.382	1419.58571
199.604	-582.37949
199.827	9749.0764
200.049	946.06521
200.271	-2978.03902
200.493	-52246.63402
200.715	2352.08613
200.938	6746.46639
201.16	-7206.74825
201.382	-2702.51112
201.604	-1884.0407
201.826	6290.77199
202.048	886.28217
202.27	-14453.35
202.492	4398.26105
202.715	-1094.05059
202.937	4567.92481
203.159	-2123.55416
203.381	847.55109
203.603	-3660.05101
203.825	-2552.884
204.047	3395.37136
204.269	-2224.29375
204.491	1940.47476
204.713	1899.73253
204.935	14579.41395
205.156	1719.89051
205.378	-8053.29005
205.6	-4073.26445
205.822	9310.63842
206.044	-500.42372
206.266	3565.73936
206.488	1091.15886
206.71	27458.1214
206.932	2345.31703
207.153	-4551.08795
207.375	-1755.93431
207.597	8553.17685
207.819	4472.34444
208.041	2177.80242
208.262	-2074.8446
208.484	-1262.77941
208.706	-2593.14256
208.927	24679.31239
209.149	948.00793
209.371	-6055.14754
209.593	1282.92905
209.814	5103.85298
210.036	-2445.23076
210.258	-4939.71281
210.479	-1303.80873
210.701	863.16058
210.922	6763.95292
211.144	-1189.77502
211.366	-5915.65986
211.587	-611.09242
211.809	9581.46779
212.03	-1288.1495
212.252	-1666.72786
212.473	804.44424
212.695	-2328.76758
212.916	3054.47805
213.138	3437.72194
213.359	-1769.77537
213.581	6523.35406
213.802	-1914.40321
214.024	16592.63956
214.245	-2950.72783
214.466	-613.3487
214.688	1611.22638
214.909	821.29106
215.131	-97885.53059
215.352	1486.12363
215.573	2512.93367
215.795	3007.28176
216.016	4147.42451
216.237	-611.53853
216.459	5905.9004
216.68	103040.73459
216.901	-82280.083
217.122	1661.32553
217.344	5841.19799
217.565	-55660.65273
217.786	1540.43252
218.007	2133.71329
218.228	-942.57139
218.45	-1248.3155
218.671	-1178.51416
218.892	1177.80744
219.113	-18174.72509
219.334	-602.13267
219.555	-5881.7612
219.776	1543.62976
219.997	3423.64773
220.219	1092.50529
220.44	2269.04463
220.661	-2546.21557
220.882	3332.18598
221.103	-1007.96805
221.324	979.75313
221.545	2210.11065
221.766	-6076.5969
221.987	3207.00136
222.208	-1755.68773
222.429	3488.6572
222.65	-90.02604
222.87	-455.22421
223.091	7651.2793
223.312	2425.31744
223.533	6443.45482
223.754	1847.48271
223.975	1454.78813
224.196	-9691.32307
224.417	1011.24162
224.637	908.67698
224.858	-450.97136
225.079	6416.11359
225.3	619.81503
225.521	2051.20783
225.741	1467.11351
225.962	748.09228
226.183	251.27999
226.404	635.34736
226.624	593.59466
226.845	384.79809
227.066	425.52845
227.286	196.80667
227.507	92.98111
227.728	72.50063
227.948	124.25261
228.169	38.93299
228.389	43.6297
228.61	25.33119
228.831	36.04163
229.051	4.02655
229.272	19.82068
229.492	29.90642
229.713	8.89438
229.933	23.33933
230.154	18.2596
230.374	31.83534
230.595	23.47756
230.815	16.51974
231.036	21.46101
231.256	-4.35643
231.477	42.07949
231.697	25.08186
231.917	23.98814
232.138	37.49049
232.358	69.53007
232.579	62.37486
232.799	10.35162
233.019	65.75682
233.24	76.30766
233.46	24.77683
233.68	38.58096
233.901	29.94752
234.121	20.35791
234.341	6.3076
234.561	-3.23935
234.782	16.17933
235.002	44.82635
235.222	-2.50689
235.442	41.20948
235.662	19.08219
235.883	40.78951
236.103	38.20202
236.323	21.28834
236.543	18.01882
236.763	29.18886
236.983	27.47806
237.203	27.9293
237.423	43.14477
237.643	60.29224
237.864	53.09446
238.084	12.85933
238.304	20.57697
238.524	32.65155
238.744	28.25899
238.964	44.89141
239.184	44.60682
239.404	44.31303
239.624	23.79095
239.843	40.99872
240.063	23.63042
240.283	16.41092
240.503	16.81138
240.723	16.9202
240.943	8.74951
241.163	14.06454
241.383	9.60363
241.603	5.08596
241.822	6.60938
242.042	4.5708
242.262	5.92593
242.482	6.77652
242.702	8.07368
242.921	2.57679
243.141	5.52768
243.361	4.6524
243.581	7.41032
243.8	5.63936
244.02	3.73006
244.24	7.2833
244.459	6.9901
244.679	14.14644
244.899	8.38666
245.118	10.40236
245.338	8.73395
245.558	10.55125
245.777	6.11079
245.997	7.16584
246.216	7.75901
246.436	4.04058
246.655	3.24299
246.875	2.52524
247.094	4.72057
247.314	1.45454
247.533	2.52017
247.753	3.34244
247.972	2.71708
248.192	0.8519
248.411	1.72049
248.631	3.02138
248.85	4.09726
249.07	2.63745
249.289	4.97132
249.508	3.4168
249.728	5.54528
249.947	6.80831
250.166	6.53928
250.386	3.28828
250.605	5.23316
250.824	8.09504
251.044	5.95519
251.263	20.57703
251.482	9.43932
251.701	10.03449
251.921	-0.22329
252.14	3.08889
252.359	3.65691
252.578	8.35736
252.798	3.16962
253.017	7.12697
253.236	3.77962
253.455	4.4449
253.674	9.40623
253.893	4.63546
254.112	5.85736
254.331	8.89081
254.551	7.33861
254.77	3.69633
254.989	11.6142
255.208	9.46301
255.427	11.62815
255.646	10.45388
255.865	17.67814
256.084	6.70144
256.303	8.45495
256.522	11.54823
256.741	1.98888
256.96	2.8423
257.179	6.66994
257.397	8.61225
257.616	4.03001
257.835	4.96477
258.054	11.64194
258.273	7.45941
258.492	8.99411
258.711	4.76473
258.93	2.25253
259.148	2.91249
259.367	3.41131
259.586	4.36469
259.805	1.91196
260.023	4.18604
260.242	3.33211
260.461	2.17523
260.68	1.2761
260.898	3.88617
261.117	1.17254
261.336	0.85712
261.554	3.25885
261.773	3.20476
261.992	0.63727
262.21	2.99586
262.429	3.72604
262.648	6.40123
262.866	7.19184
263.085	4.31509
263.303	4.39847
263.522	7.62312
263.74	7.67934
263.959	12.65899
264.178	6.48466
264.396	5.47045
264.615	4.25167
264.833	9.61885
265.051	8.35963
265.27	8.1416
265.488	8.87349
265.707	5.40663
265.925	9.36141
266.144	3.93568
266.362	4.95952
266.58	4.9199
266.799	4.16302
267.017	5.12536
267.235	4.24467
267.454	2.88452
267.672	1.78786
267.89	3.77071
268.109	4.15993
268.327	3.53346
268.545	0.76288
268.763	3.76106
268.982	1.56688
269.2	4.37005
269.418	2.69384
269.636	1.92059
269.854	3.44993
270.073	2.9653
270.291	1.48605
270.509	1.74196
270.727	3.62347
270.945	6.03516
271.163	6.21964
271.381	1.49981
271.599	2.55759
271.817	4.1264
272.036	1.45393
272.254	2.65593
272.472	1.97193
272.69	2.05936
272.908	2.15598
273.126	3.47162
273.344	4.70354
273.562	1.67143
273.779	2.19089
273.997	3.36298
274.215	3.83868
274.433	2.55202
274.651	3.90985
274.869	3.95375
275.087	2.16586
275.305	3.99898
275.523	1.81254
275.74	2.59213
275.958	4.76455
276.176	6.62598
276.394	2.29306
276.612	2.91175
276.829	2.65271
277.047	2.0903
277.265	2.54638
277.483	3.33704
277.7	3.58848
277.918	2.83192
278.136	5.38077
278.353	2.5008
278.571	1.46043
278.789	4.56289
279.006	0.87375
279.224	2.56803
279.442	4.43711
279.659	2.94492
279.877	2.16782
280.094	4.79617
280.312	0.86362
280.529	3.1526
280.747	1.01276
280.964	2.20442
281.182	5.41664
281.399	2.46085
281.617	3.24421
281.834	2.38996
282.052	1.79512
282.269	2.52469
282.487	2.30234
282.704	1.65297
282.921	2.09141
283.139	2.99754
283.356	3.76112
283.574	3.32937
283.791	1.73554
284.008	4.55491
284.226	2.29309
284.443	2.89522
284.66	3.52696
284.877	2.93305
285.095	2.0504
285.312	1.422
285.529	0.92745
285.746	0.70088
285.964	1.83898
286.181	1.23662
286.398	1.78766
286.615	2.51921
286.832	2.30057
287.05	0.82123
287.267	1.59339
287.484	1.74163
287.701	2.32531
287.918	2.43884
288.135	2.37362
288.352	1.08957
288.569	1.31914
288.786	2.14247
289.003	1.52818
289.22	2.4881
289.437	1.70047
289.654	2.59758
289.871	2.92982
290.088	2.58259
290.305	1.96889
290.522	1.40661
290.739	1.92416
290.956	2.81168
291.173	3.50831
291.39	3.32609
291.607	2.20615
291.824	1.4586
292.04	0.93207
292.257	2.48175
292.474	2.92853
292.691	1.74348
292.908	1.01349
293.125	1.7346
293.341	0.89633
293.558	4.69044
293.775	1.76151
293.992	1.86964
294.208	0.71779
294.425	1.04519
294.642	1.72226
294.858	2.72398
295.075	0.61713
295.292	1.56454
295.508	2.10529
295.725	3.38544
295.942	1.60596
296.158	1.23537
296.375	1.85348
296.591	1.27833
296.808	1.4342
297.024	1.78603
297.241	2.02097
297.458	2.14491
297.674	0.15051
297.891	1.71909
298.107	1.19743
298.323	0.93859
298.54	2.55593
298.756	1.13196
298.973	0.49815
299.189	2.68248
299.406	0.95268
299.622	2.67336
299.838	2.631
300.055	2.36696
300.271	0.65047
300.487	0.86794
300.704	0.94478
300.92	0.74652
301.136	3.78529
301.353	2.36249
301.569	1.71016
301.785	2.14099
302.001	2.59857
302.218	2.02936
302.434	2.13271
302.65	0.54133
302.866	1.52714
303.083	3.57245
303.299	3.29325
303.515	1.73192
303.731	1.93793
303.947	0.81695
304.163	1.03422
304.379	2.05338
304.595	2.2264
304.812	1.28338
305.028	1.00293
305.244	1.51487
305.46	2.3855
305.676	2.60726
305.892	3.09568
306.108	1.87903
306.324	1.42947
306.54	3.36697
306.756	2.39011
306.972	2.42578
307.187	1.4507
307.403	3.00568
307.619	1.25577
307.835	2.68542
308.051	3.09564
308.267	0.65713
308.483	2.57155
308.699	2.28043
308.914	1.90679
309.13	1.63692
309.346	0.48983
309.562	0.87744
309.778	0.56266
309.993	2.23478
310.209	1.64217
310.425	0.70554
310.641	1.47126
310.856	0.87908
311.072	0.84682
311.288	1.58346
311.503	1.89246
311.719	0.27855
311.935	0.18663
312.15	2.05029
312.366	1.74846
312.581	2.24202
312.797	1.86518
313.013	2.32795
313.228	1.1913
313.444	1.88555
313.659	1.29979
313.875	2.12701
314.09	1.80024
314.306	2.92203
314.521	2.44968
314.737	2.30384
314.952	1.97915
315.168	1.68116
315.383	2.37435
315.599	1.61619
315.814	1.44173
316.029	2.482
316.245	0.59536
316.46	0.62096
316.675	3.09444
316.891	3.54637
317.106	4.37555
317.321	2.52195
317.537	2.39237
317.752	2.60849
317.967	2.55875
318.183	1.09643
318.398	1.45489
318.613	2.67881
318.828	3.06096
319.043	2.56469
319.259	1.46147
319.474	2.32192
319.689	2.77304
319.904	0.34265
320.119	2.53442
320.334	2.26829
320.549	1.82806
320.765	2.71776
320.98	2.08464
321.195	2.61215
321.41	1.6415
321.625	2.62967
321.84	3.48576
322.055	3.55452
322.27	1.32012
322.485	1.15004
322.7	2.17133
322.915	3.0207
323.13	1.06944
323.345	3.24326
323.56	2.37134
323.775	2.58313
323.989	2.46915
324.204	2.20266
324.419	2.54145
324.634	0.86659
324.849	1.75502
325.064	4.04263
325.279	2.74583
325.493	2.35004
325.708	2.8414
325.923	1.22494
326.138	1.22574
326.352	3.19899
326.567	2.62897
326.782	1.57605
326.997	1.29919
327.211	2.3719
327.426	2.30258
327.641	1.50561
327.855	0.59288
328.07	2.38926
328.285	3.24167
328.499	1.62679
328.714	2.39274
328.928	2.85579
329.143	1.99243
329.358	2.74951
329.572	3.08811
329.787	2.91526
330.001	4.24364
330.216	0.63911
330.43	3.66177
330.645	3.46153
330.859	2.50401
331.074	1.37445
331.288	2.0131
331.503	3.10752
331.717	0.90228
331.931	2.0778
332.146	1.97987
332.36	3.56051
332.575	2.41407
332.789	2.19785
333.003	1.74854
333.218	2.55604
333.432	1.67485
333.646	2.53613
333.86	3.13273
334.075	3.50539
334.289	1.7444
334.503	1.35955
334.717	2.60997
334.932	2.37074
335.146	3.18558
335.36	1.73397
335.574	2.51346
335.788	2.49857
336.003	2.81775
336.217	2.64098
336.431	2.63175
336.645	1.29304
336.859	1.01685
337.073	1.72938
337.287	2.08888
337.501	1.08012
337.715	2.23314
337.929	2.63282
338.143	1.14686
338.357	1.98592
338.571	1.02784
338.785	2.38645
338.999	1.53972
339.213	1.66763
339.427	0.75101
339.641	2.83836
339.855	1.62995
340.069	1.44314
340.283	2.95995
340.497	3.4086
340.711	2.26348
340.924	1.50221
341.138	0.98051
341.352	0.78082
341.566	2.19506
341.78	0.739
341.993	1.42063
342.207	1.02371
342.421	2.11168
342.635	2.15918
342.848	1.34883
343.062	0.00121
343.276	1.25145
343.49	3.9162
343.703	1.25841
343.917	2.5532
344.131	2.63463
344.344	1.15322
344.558	1.35342
344.771	1.19924
344.985	3.14665
345.199	3.10899
345.412	2.03456
345.626	2.15102
345.839	0.52837
346.053	0.89984
346.266	0.93954
346.48	2.54073
346.693	2.09807
346.907	2.29563
347.12	1.19177
347.334	2.06943
347.547	2.29604
347.76	1.63216
347.974	2.94015
348.187	2.15948
348.401	1.65577
348.614	1.3585
348.827	1.54927
349.041	2.36258
349.254	0.33928
349.467	1.65551
349.681	0.65517
349.894	1.31898
350.107	3.11235
350.32	3.14072
350.534	0.49199
350.747	1.41382
350.96	1.06764
351.173	1.28916
351.386	1.76809
351.6	1.32743
351.813	1.09714
352.026	1.77816
352.239	0.76937
352.452	1.14077
352.665	2.18649
352.878	1.62446
353.092	3.7416
353.305	2.32518
353.518	1.9894
353.731	1.07597
353.944	2.94453
354.157	1.19095
354.37	0.95349
354.583	0.93424
354.796	0.43614
355.009	2.61949
355.222	1.78265
355.435	1.80677
355.647	2.58405
355.86	0.79544
356.073	1.76785
356.286	1.36357
356.499	2.33713
356.712	1.76538
356.925	1.97257
357.138	2.3897
357.35	0.94714
357.563	1.37581
357.776	1.76188
357.989	1.19037
358.201	2.00475
358.414	1.7319
358.627	2.54708
358.84	1.39533
359.052	0.9521
359.265	0.70059
359.478	2.5495
359.69	-0.3711
359.903	1.96742
360.116	2.05651
360.328	0.4457
360.541	2.22769
360.753	0.71461
360.966	1.20366
361.179	1.15306
361.391	1.04694
361.604	0.60072
361.816	1.04952
362.029	0.90675
362.241	0.81631
362.454	0.95249
362.666	0.74301
362.879	1.37188
363.091	1.24744
363.304	0.80343
363.516	1.32997
363.728	0.55449
363.941	1.89573
364.153	0.79851
364.366	-0.07612
364.578	0.6539
364.79	1.82325
365.003	1.31
365.215	1.19288
365.427	1.78566
365.639	2.4564
365.852	1.695
366.064	3.06526
366.276	0.95373
366.488	1.93557
366.701	0.89678
366.913	1.3253
367.125	1.36083
367.337	1.05735
367.549	1.16878
367.762	1.4658
367.974	1.5883
368.186	0.84114
368.398	2.25005
368.61	1.98496
368.822	1.9057
369.034	1.55572
369.246	1.95759
369.458	3.2072
369.67	0.69532
369.882	2.89976
370.094	0.12215
370.306	2.76066
370.518	1.10222
370.73	0.75393
370.942	0.94964
371.154	1.10019
371.366	0.98357
371.578	1.48262
371.79	0.67081
372.002	2.33481
372.214	2.67556
372.425	1.52966
372.637	2.23466
372.849	1.38168
373.061	0.00337
373.273	1.77455
373.484	1.92156
373.696	2.13522
373.908	-0.15158
374.12	2.21028
374.331	1.75061
374.543	0.684
374.755	0.7027
374.967	1.58995
375.178	1.95533
375.39	1.32066
375.602	1.533
375.813	0.64408
376.025	0.41484
376.236	1.29785
376.448	1.41606
376.66	0.85298
376.871	0.87771
377.083	2.13398
377.294	2.08905
377.506	1.00208
377.717	2.24735
377.929	1.41004
378.14	0.78132
378.352	1.76493
378.563	1.56655
378.775	2.2777
378.986	0.86413
379.197	1.20097
379.409	1.16979
379.62	2.00494
379.832	1.61537
380.043	1.24459
380.254	1.33109
380.466	0.49681
380.677	3.5553
380.888	2.99805
381.1	3.20527
381.311	3.11767
381.522	1.3501
381.733	3.60351
381.945	1.14886
382.156	1.53864
382.367	1.11448
382.578	3.57148
382.789	3.46115
383.001	1.12457
383.212	2.22553
383.423	2.52722
383.634	2.17443
383.845	1.72434
384.056	0.97461
384.267	1.41497
384.478	1.34164
384.69	0.5863
384.901	1.90945
385.112	1.5319
385.323	2.44982
385.534	1.71977
385.745	1.7808
385.956	1.74803
386.167	0.68099
386.378	1.77601
386.588	0.64303
386.799	0.71597
387.01	0.2384
387.221	2.25691
387.432	1.26915
387.643	2.84416
387.854	1.12463
388.065	1.17587
388.275	1.28754
388.486	1.21589
388.697	1.40063
388.908	1.19986
389.119	2.45707
389.329	2.67433
389.54	1.40825
389.751	1.91964
389.962	2.21569
390.172	1.6078
390.383	1.25628
390.594	0.92972
390.804	0.92739
391.015	1.20367
391.226	1.63132
391.436	1.96055
391.647	1.8211
391.858	2.03734
392.068	0.4984
392.279	0.78589
392.489	1.62018
392.7	2.27501
392.91	1.07452
393.121	1.23128
393.331	2.0011
393.542	2.44653
393.752	1.93187
393.963	2.02398
394.173	1.94796
394.384	2.2895
394.594	1.71155
394.804	1.01304
395.015	1.84498
395.225	2.26397
395.436	1.18089
395.646	2.30854
395.856	1.49335
396.067	0.92294
396.277	2.71183
396.487	2.08746
396.697	2.13252
396.908	2.62227
397.118	2.57609
397.328	2.16813
397.538	2.64728
397.749	1.6511
397.959	2.67297
398.169	2.62841
398.379	1.27261
398.589	2.55049
398.8	2.31345
399.01	2.22101
399.22	2.1535
399.43	3.75359
399.64	2.18441
399.85	2.78237
400.06	2.45685
400.27	1.99348
400.48	2.27886
400.69	3.23381
400.9	2.1366
401.11	1.86945
401.32	3.06347
401.53	2.17319
401.74	3.59962
401.95	2.93009
402.16	2.28698
402.37	2.93066
402.58	2.23751
402.79	3.16596
403	3.15385
403.209	2.27332
403.419	3.29061
403.629	2.40892
403.839	3.38485
404.049	3.47416
404.258	2.52273
404.468	2.44008
404.678	3.41031
404.888	3.78032
405.097	2.88233
405.307	2.88656
405.517	3.41361
405.727	3.5724
405.936	2.86363
406.146	3.2967
406.356	4.11397
406.565	2.98511
406.775	2.7711
406.984	2.81492
407.194	4.57891
407.404	3.26234
407.613	3.54127
407.823	3.81133
408.032	4.13684
408.242	3.97421
408.451	2.95749
408.661	3.41812
408.87	4.49797
409.08	2.78618
409.289	3.71635
409.499	3.71912
409.708	3.51706
409.918	2.18884
410.127	3.60507
410.336	4.76821
410.546	4.24977
410.755	3.51582
410.964	3.31554
411.174	2.88224
411.383	3.99433
411.592	3.94635
411.802	3.04902
412.011	4.31656
412.22	3.6028
412.429	5.06542
412.639	4.83616
412.848	4.53991
413.057	4.97466
413.266	4.5808
413.475	3.9199
413.685	4.34843
413.894	4.48426
414.103	4.71428
414.312	4.53632
414.521	3.85283
414.73	4.3038
414.939	5.33903
415.148	4.4995
415.357	4.21235
415.566	4.08696
415.776	4.08028
415.985	3.96745
416.194	4.82305
416.403	5.54705
416.611	3.5039
416.82	4.01567
417.029	4.63916
417.238	4.10542
417.447	4.07923
417.656	4.54335
417.865	4.3143
418.074	4.71751
418.283	5.08582
418.492	6.19257
418.7	5.90071
418.909	7.21963
419.118	6.02925
419.327	6.50767
419.536	6.25972
419.744	6.19605
419.953	7.52414
420.162	7.65456
420.371	6.65961
420.579	7.01722
420.788	8.03643
420.997	8.32428
421.205	8.21976
421.414	8.07503
421.623	8.35202
421.831	7.70468
422.04	8.27299
422.249	7.21178
422.457	7.90712
422.666	7.16294
422.874	8.196
423.083	8.3391
423.291	8.18632
423.5	8.12743
423.708	8.4569
423.917	8.92088
424.125	8.29815
424.334	8.11598
424.542	9.92459
424.751	9.12481
424.959	8.72297
425.167	9.30734
425.376	8.94768
425.584	7.86669
425.793	7.99859
426.001	6.87756
426.209	7.40743
426.418	6.20056
426.626	5.80922
426.834	5.65546
427.042	5.77114
427.251	5.27284
427.459	6.01475
427.667	5.71319
427.875	4.75485
428.084	5.41433
428.292	6.36912
428.5	6.04956
428.708	5.0393
428.916	4.93571
429.124	5.5481
429.333	5.34912
429.541	5.47317
429.749	5.65693
429.957	5.5329
430.165	7.24081
430.373	4.64293
430.581	5.69201
430.789	6.52966
430.997	5.39738
431.205	5.18116
431.413	5.92301
431.621	5.38602
431.829	6.12766
432.037	5.50765
432.245	6.08807
432.453	6.09092
432.661	5.87044
432.869	7.12051
433.076	5.75684
433.284	6.23203
433.492	7.03185
433.7	7.29905
433.908	6.23995
434.116	6.62452
434.323	6.42703
434.531	6.27237
434.739	6.43278
434.947	6.43563
435.154	6.65117
435.362	6.00187
435.57	5.85346
435.778	5.67439
435.985	6.12304
436.193	5.6289
436.401	6.70639
436.608	6.06377
436.816	5.73438
437.023	6.88141
437.231	7.15163
437.439	6.2742
437.646	6.47627
437.854	6.29576
438.061	6.75597
438.269	6.18331
438.476	6.63709
438.684	6.487
438.891	6.47982
439.099	6.44198
439.306	6.26327
439.514	6.38792
439.721	7.7373
439.929	7.11803
440.136	8.15277
440.343	8.15959
440.551	7.85002
440.758	9.73544
440.965	8.4239
441.173	8.1268
441.38	7.61915
441.587	7.74293
441.795	7.4851
442.002	7.09823
442.209	7.15498
442.416	7.10281
442.624	6.93834
442.831	6.63912
443.038	6.21989
443.245	5.85488
443.452	6.26636
443.66	6.84363
443.867	6.05702
444.074	6.03081
444.281	6.27434
444.488	6.47485
444.695	7.00589
444.902	6.94556
445.109	8.28384
445.316	7.90181
445.523	8.22543
445.73	8.1428
445.937	8.96057
446.144	9.53765
446.351	9.99652
446.558	8.84043
446.765	10.6027
446.972	10.06146
447.179	9.41271
447.386	10.04894
447.593	8.55452
447.8	9.57454
448.007	8.09471
448.214	7.75727
448.42	7.14656
448.627	7.85623
448.834	6.93036
449.041	6.69775
449.248	6.51404
449.454	6.94685
449.661	7.73265
449.868	6.14319
450.075	6.01409
450.281	5.53445
450.488	5.85526
450.695	5.81735
450.901	5.92103
451.108	6.05662
451.315	6.96836
451.521	6.15045
451.728	7.11578
451.935	6.0168
452.141	6.2527
452.348	6.58766
452.554	6.50295
452.761	6.37464
452.967	7.52346
453.174	6.63654
453.38	6.6618
453.587	5.75553
453.793	6.49138
454	6.90846
454.206	7.81719
454.413	7.04819
454.619	6.73495
454.825	6.08139
455.032	6.73983
455.238	7.11578
455.445	5.53633
455.651	6.66966
455.857	5.55422
456.064	6.39539
456.27	6.27826
456.476	6.28109
456.682	5.70421
456.889	6.52661
457.095	6.9405
457.301	7.8701
457.507	6.54342
457.714	6.60281
457.92	6.46522
458.126	6.12572
458.332	6.58471
458.538	6.40886
458.744	7.10531
458.951	7.34306
459.157	9.39216
459.363	8.7145
459.569	8.85921
459.775	9.51846
459.981	9.13831
460.187	9.47054
460.393	9.67862
460.599	10.06391
460.805	8.96165
461.011	8.07417
461.217	8.32388
461.423	7.51108
461.629	6.89531
461.835	7.20662
462.041	6.7116
462.247	7.73801
462.453	6.60866
462.658	6.71191
462.864	6.99826
463.07	6.80527
463.276	6.72391
463.482	6.66585
463.688	7.84133
463.893	6.21279
464.099	6.61935
464.305	7.73673
464.511	6.38523
464.716	6.6327
464.922	7.25537
465.128	6.26762
465.333	7.71079
465.539	7.30559
465.745	6.81167
465.95	6.79155
466.156	8.73447
466.362	7.50597
466.567	6.89254
466.773	6.75329
466.978	7.94503
467.184	6.32015
467.389	5.84694
467.595	7.2214
467.8	6.44321
468.006	7.85094
468.211	7.66464
468.417	6.16482
468.622	7.16519
468.828	7.21354
469.033	7.1771
469.239	8.71532
469.444	6.39548
469.649	7.53188
469.855	6.83933
470.06	7.0275
470.266	6.25822
470.471	7.21304
470.676	7.18991
470.881	5.66082
471.087	7.90644
471.292	8.34454
471.497	6.03768
471.703	6.77566
471.908	6.67807
472.113	7.1283
472.318	7.57298
472.523	6.50246
472.729	7.2652
472.934	7.1738
473.139	6.8128
473.344	7.49383
473.549	8.05367
473.754	6.41185
473.959	8.5834
474.164	6.62827
474.369	6.76247
474.575	7.33621
474.78	6.96319
474.985	6.64581
475.19	5.90983
475.395	6.63518
475.6	6.83646
475.804	8.0609
476.009	7.04673
476.214	6.93137
476.419	6.67328
476.624	6.27875
476.829	6.57647
477.034	7.38772
477.239	6.6463
477.444	7.44351
477.648	7.66876
477.853	7.36169
478.058	6.87559
478.263	6.68882
478.468	6.57243
478.672	6.60998
478.877	8.16125
479.082	8.32892
479.287	7.37981
479.491	7.0442
479.696	6.48237
479.901	7.67262
480.105	7.65152
480.31	6.86152
480.515	7.24431
480.719	8.62663
480.924	7.09074
481.128	6.79353
481.333	7.89362
481.538	8.13115
481.742	8.20098
481.947	9.53685
482.151	10.36415
482.356	11.0035
482.56	13.07416
482.765	14.73305
482.969	18.03938
483.174	20.23081
483.378	23.38471
483.582	23.92988
483.787	25.6233
483.991	25.92826
484.196	26.00641
484.4	25.2909
484.604	25.69265
484.809	22.81274
485.013	21.59373
485.217	19.22762
485.422	17.01703
485.626	15.64607
485.83	14.71693
486.034	14.1626
486.239	14.74448
486.443	15.1458
486.647	15.39982
486.851	16.7169
487.055	18.20006
487.26	18.06048
487.464	19.04215
487.668	18.22936
487.872	18.65599
488.076	19.02135
488.28	18.0241
488.484	16.54975
488.688	15.97875
488.892	15.34218
489.096	14.23127
489.3	12.97897
489.504	12.17225
489.708	11.66343
489.912	11.49
490.116	11.33862
490.32	10.81396
490.524	11.96238
490.728	12.98942
490.932	13.59451
491.136	14.46523
491.34	15.79533
491.544	16.28095
491.748	15.96533
491.951	15.66103
492.155	15.21675
492.359	14.75614
492.563	13.18258
492.767	12.47999
492.97	11.0413
493.174	9.56821
493.378	8.91775
493.582	7.78655
493.785	7.74115
493.989	7.54923
494.193	7.23761
494.396	6.65789
494.6	7.21221
494.804	6.76974
495.007	7.0883
495.211	7.08189
495.414	7.15694
495.618	7.41646
495.822	8.05665
496.025	7.3465
496.229	7.9346
496.432	7.4468
496.636	7.85954
496.839	7.90125
497.043	8.78996
497.246	8.07674
497.45	7.69784
497.653	8.08753
497.856	7.82641
498.06	7.36805
498.263	7.49688
498.467	7.33669
498.67	8.02688
498.873	7.50647
499.077	7.32179
499.28	7.47601
499.483	7.58141
499.686	8.00473
499.89	7.50866
500.093	7.936
500.296	7.07132
500.499	8.59946
500.703	7.30411
500.906	7.73646
501.109	8.46811
501.312	7.57057
501.515	7.39733
501.719	7.79399
501.922	7.96635
502.125	7.45671
502.328	7.3523
502.531	6.86234
502.734	7.45359
502.937	6.53463
503.14	7.54391
503.343	6.82518
503.546	7.15268
503.749	7.05084
503.952	7.78483
504.155	6.9158
504.358	7.69995
504.561	7.74504
504.764	6.80229
504.967	7.68861
505.17	7.33379
505.373	8.53482
505.576	7.3722
505.778	7.92753
505.981	6.82728
506.184	8.24376
506.387	6.29692
506.59	8.64953
506.793	8.24991
506.995	7.6711
507.198	6.24942
507.401	7.63074
507.604	7.81547
507.806	6.90535
508.009	7.06823
508.212	7.82614
508.414	7.05022
508.617	7.10795
508.82	7.43846
509.022	8.44413
509.225	7.83093
509.427	6.6226
509.63	8.2105
509.833	7.42106
510.035	7.16477
510.238	6.67781
510.44	8.2623
510.643	6.42933
510.845	8.61082
511.048	7.64207
511.25	7.10166
511.453	7.35979
511.655	7.62823
511.858	7.43388
512.06	8.04505
512.262	7.47685
512.465	8.10289
512.667	7.40838
512.869	6.86184
513.072	7.74252
513.274	8.01772
513.476	7.75355
513.679	8.1058
513.881	6.84541
514.083	8.37539
514.286	7.03601
514.488	7.04479
514.69	6.93596
514.892	6.65876
515.094	8.01447
515.297	6.98715
515.499	7.635
515.701	6.79399
515.903	8.51521
516.105	8.69664
516.307	7.83421
516.509	6.38271
516.711	6.73005
516.913	7.3111
517.116	7.49991
517.318	7.24188
517.52	8.06818
517.722	7.83526
517.924	7.16984
518.126	8.45331
518.328	7.97975
518.529	8.64768
518.731	9.5697
518.933	7.93767
519.135	8.06845
519.337	8.97621
519.539	8.07643
519.741	6.65749
519.943	7.38465
520.145	7.33725
520.346	8.00803
520.548	7.38578
520.75	7.74423
520.952	7.26289
521.153	7.82273
521.355	7.74816
521.557	7.01319
521.759	7.50657
521.96	7.38384
522.162	6.63648
522.364	7.99507
522.565	6.95156
522.767	7.85415
522.969	7.95476
523.17	7.78623
523.372	7.40871
523.573	7.19115
523.775	7.34779
523.977	6.76335
524.178	8.76716
524.38	7.12917
524.581	7.81533
524.783	7.33127
524.984	8.24846
525.186	8.06612
525.387	8.76649
525.589	8.84825
525.79	8.60319
525.991	8.57991
526.193	9.3434
526.394	8.60178
526.596	9.55725
526.797	9.95145
526.998	9.69078
527.2	10.04947
527.401	12.19642
527.602	13.30575
527.803	15.63231
528.005	16.78772
528.206	18.12307
528.407	19.02329
528.608	18.74612
528.81	19.18814
529.011	18.41853
529.212	19.12956
529.413	17.63056
529.614	16.32234
529.815	15.48269
530.017	13.83189
530.218	12.11106
530.419	10.74196
530.62	10.26077
530.821	9.8408
531.022	8.48997
531.223	9.46751
531.424	9.21611
531.625	9.54614
531.826	9.04165
532.027	9.85182
532.228	11.42034
532.429	11.26475
532.63	11.6494
532.831	12.68873
533.032	12.46934
533.233	13.54699
533.433	12.92356
533.634	13.13544
533.835	12.21314
534.036	11.54563
534.237	10.96723
534.438	10.20782
534.638	8.68787
534.839	8.58013
535.04	8.51942
535.241	7.76297
535.441	9.09645
535.642	8.5541
535.843	7.80567
536.043	8.39263
536.244	8.54047
536.445	8.72769
536.645	9.65821
536.846	9.27378
537.047	9.71697
537.247	8.17256
537.448	8.01626
537.648	8.16633
537.849	7.54224
538.049	7.534
538.25	7.82826
538.451	7.9353
538.651	7.00354
538.851	7.9236
539.052	8.3605
539.252	8.18901
539.453	7.48593
539.653	7.75933
539.854	7.75829
540.054	8.46054
540.254	10.2137
540.455	11.38792
540.655	11.16751
540.855	12.76474
541.056	13.87694
541.256	13.71401
541.456	14.68344
541.657	13.84539
541.857	14.5507
542.057	12.91935
542.257	12.26211
542.458	12.59483
542.658	12.01094
542.858	10.17475
543.058	10.40506
543.258	9.62503
543.458	8.12368
543.659	7.89272
543.859	8.69213
544.059	8.39965
544.259	7.70939
544.459	8.30667
544.659	7.29499
544.859	7.86347
545.059	7.2255
545.259	7.9526
545.459	7.74726
545.659	8.11826
545.859	7.63631
546.059	7.80775
546.259	7.14878
546.459	6.78971
546.659	6.9522
546.859	8.26767
547.059	7.84675
547.258	7.84265
547.458	7.88662
547.658	6.93894
547.858	6.95757
548.058	7.75997
548.258	7.29601
548.457	6.66219
548.657	9.09939
548.857	7.30937
549.057	7.93591
549.256	7.87242
549.456	6.93512
549.656	5.94673
549.855	8.73043
550.055	6.99848
550.255	8.87957
550.454	7.46449
550.654	7.91506
550.853	8.58247
551.053	8.12333
551.253	7.39931
551.452	7.71896
551.652	6.63186
551.851	6.39274
552.051	7.05292
552.25	6.82881
552.45	6.99255
552.649	7.18142
552.849	6.77777
553.048	7.37276
553.248	7.85891
553.447	6.76966
553.646	8.06056
553.846	8.93961
554.045	8.11107
554.244	6.5177
554.444	8.68533
554.643	6.82405
554.842	8.54544
555.042	9.04767
555.241	6.98667
555.44	6.58926
555.64	7.92378
555.839	9.01559
556.038	7.62967
556.237	6.71259
556.436	7.35312
556.636	7.68994
556.835	6.87646
557.034	8.87733
557.233	7.1915
557.432	6.37988
557.631	8.19306
557.83	7.28323
558.029	6.9034
558.228	6.51724
558.427	6.71852
558.626	7.59063
558.825	6.30313
559.024	7.30658
559.223	8.75106
559.422	7.35719
559.621	7.48348
559.82	5.18694
560.019	7.30626
560.218	7.13746
560.417	4.9573
560.616	6.61548
560.815	10.1122
561.014	6.11759
561.212	8.83538
561.411	7.52798
561.61	5.92766
561.809	6.90587
562.008	8.43892
562.206	6.95025
562.405	7.86735
562.604	6.85118
562.803	7.56465
563.001	7.08953
563.2	6.18705
563.399	7.54964
563.597	6.35312
563.796	7.23406
563.995	6.21753
564.193	7.80207
564.392	6.84817
564.59	9.00552
564.789	5.65518
564.988	6.53919
565.186	7.5114
565.385	6.92818
565.583	7.15819
565.782	7.12013
565.98	7.08878
566.179	7.18145
566.377	6.42491
566.575	6.84418
566.774	8.43293
566.972	8.04032
567.171	9.06676
567.369	8.40364
567.567	7.2855
567.766	7.56163
567.964	5.43911
568.162	7.53707
568.361	8.00607
568.559	7.04628
568.757	7.80121
568.956	7.29914
569.154	7.20955
569.352	7.79849
569.55	6.98872
569.748	7.23327
569.947	6.51545
570.145	6.52435
570.343	6.4984
570.541	8.05088
570.739	6.28994
570.937	7.3551
571.135	7.65931
571.333	9.17575
571.532	8.61583
571.73	7.4642
571.928	8.35576
572.126	7.70471
572.324	6.80045
572.522	8.51461
572.72	9.78326
572.918	7.46151
573.116	7.70872
573.313	7.37142
573.511	7.54363
573.709	6.60669
573.907	7.92018
574.105	6.87456
574.303	5.88692
574.501	6.1075
574.699	7.69172
574.896	7.54758
575.094	7.81751
575.292	6.05671
575.49	8.14194
575.688	7.10455
575.885	8.2227
576.083	9.00151
576.281	7.83468
576.478	6.52939
576.676	7.59102
576.874	5.92263
577.071	7.06747
577.269	9.25434
577.467	7.19405
577.664	7.14923
577.862	8.2616
578.059	6.20488
578.257	8.0293
578.455	6.69666
578.652	7.21389
578.85	5.21734
579.047	7.05878
579.245	6.95583
579.442	6.97035
579.64	7.07523
579.837	5.27015
580.034	9.89565
580.232	6.86393
580.429	5.75408
580.627	7.62443
580.824	8.73169
581.021	7.5165
581.219	6.89769
581.416	6.35188
581.613	8.78589
581.811	8.54131
582.008	6.45301
582.205	8.1536
582.402	7.64623
582.6	8.97282
582.797	7.21951
582.994	7.43243
583.191	8.15889
583.388	7.11295
583.586	8.0035
583.783	8.29016
583.98	6.59554
584.177	7.42884
584.374	4.12876
584.571	7.33567
584.768	7.03258
584.965	6.42415
585.162	7.83719
585.359	9.14702
585.556	7.33348
585.753	7.446
585.95	5.93807
586.147	6.52615
586.344	8.1586
586.541	6.88237
586.738	5.90215
586.935	6.8351
587.132	6.39354
587.329	8.36207
587.526	7.13172
587.722	12.58878
587.919	5.87134
588.116	7.83681
588.313	8.85618
588.51	9.64303
588.706	6.86663
588.903	7.61912
589.1	8.37315
589.297	10.10858
589.493	7.2789
589.69	7.98264
589.887	6.63084
590.083	6.40984
590.28	6.68447
590.477	8.026
590.673	8.0982
590.87	8.72019
591.067	7.12811
591.263	7.96332
591.46	7.65231
591.656	6.80977
591.853	8.88724
592.049	6.18411
592.246	6.61631
592.442	8.36333
592.639	8.62028
592.835	6.2063
593.032	7.75257
593.228	5.45546
593.425	5.6675
593.621	5.37397
593.817	7.46796
594.014	6.61888
594.21	7.20671
594.406	8.37078
594.603	7.78606
594.799	6.84965
594.995	4.81552
595.192	8.39209
595.388	6.86008
595.584	6.8647
595.78	5.75778
595.977	9.99682
596.173	9.04719
596.369	7.21286
596.565	6.32414
596.761	6.47202
596.957	8.83618
597.154	6.76976
597.35	6.92443
597.546	6.67259
597.742	8.28899
597.938	7.58647
598.134	6.50424
598.33	7.51574
598.526	8.94213
598.722	7.41893
598.918	9.43525
599.114	7.78675
599.31	6.36188
599.506	7.29078
599.702	6.47131
599.898	7.23521
600.094	8.24809
600.29	8.2159
600.485	8.57892
600.681	6.25822
600.877	9.35245
601.073	7.28477
601.269	9.47761
601.465	8.87534
601.66	6.22475
601.856	4.98943
602.052	9.50417
602.248	6.66498
602.443	5.20825
602.639	6.08407
602.835	6.48319
603.03	6.31438
603.226	8.264
603.422	6.32895
603.617	6.70478
603.813	6.80562
604.009	6.85787
604.204	8.49391
604.4	6.00664
604.595	8.6485
604.791	6.25843
604.986	7.56416
605.182	6.8436
605.377	6.968
605.573	6.75499
605.768	7.50855
605.964	8.06782
606.159	8.13031
606.355	8.4669
606.55	7.18587
606.746	8.69
606.941	6.94441
607.136	9.61236
607.332	11.14411
607.527	5.51763
607.722	7.46096
607.918	6.97789
608.113	6.68048
608.308	8.2992
608.503	8.27119
608.699	7.73534
608.894	8.18028
609.089	6.52911
609.284	7.49098
609.479	6.87152
609.675	8.48437
609.87	7.30671
610.065	8.25062
610.26	8.55688
610.455	8.22164
610.65	7.28028
610.845	7.54619
611.04	8.5991
611.235	7.32466
611.43	6.90883
611.625	5.77894
611.82	9.46145
612.015	6.60805
612.21	9.40057
612.405	5.35485
612.6	9.60998
612.795	9.24401
612.99	8.02557
613.185	5.92857
613.38	6.29919
613.575	7.20658
613.77	11.402
613.965	5.28297
614.159	6.26644
614.354	9.46007
614.549	9.28
614.744	8.3723
614.938	6.38295
615.133	5.33919
615.328	9.69568
615.523	8.93605
615.717	11.7454
615.912	6.36629
616.107	7.85859
616.301	7.16246
616.496	7.19306
616.691	9.72951
616.885	8.78039
617.08	11.36029
617.274	9.07533
617.469	10.60551
617.664	8.82836
617.858	7.21303
618.053	8.47931
618.247	7.84367
618.442	4.36855
618.636	9.8559
618.831	6.78461
619.025	6.68675
619.219	11.88852
619.414	3.34152
619.608	7.38648
619.803	7.08621
619.997	11.04093
620.191	9.39406
620.386	8.57233
620.58	7.478
620.774	5.18669
620.969	5.82378
621.163	7.83439
621.357	6.05253
621.551	7.25929
621.746	7.9938
621.94	7.21567
622.134	13.08215
622.328	11.08829
622.522	5.54846
622.716	9.27638
622.911	9.08543
623.105	9.20644
623.299	8.55077
623.493	12.59354
623.687	6.32603
623.881	7.30242
624.075	8.59952
624.269	9.3637
624.463	4.6277
624.657	5.44426
624.851	8.10662
625.045	9.09417
625.239	9.16096
625.433	6.98029
625.627	10.05494
625.821	6.9993
626.015	6.52059
626.209	8.09154
626.403	5.57719
626.596	8.2419
626.79	9.08279
626.984	5.95289
627.178	8.50697
627.372	8.54262
627.565	8.898
627.759	5.85753
627.953	6.24723
628.147	8.59693
628.34	8.56069
628.534	10.93308
628.728	7.64426
628.921	9.28613
629.115	8.73698
629.309	9.38738
629.502	9.312
629.696	8.10735
629.89	7.8805
630.083	8.61577
630.277	8.56998
630.47	10.99115
630.664	7.08722
630.857	5.46582
631.051	8.99612
631.244	10.11541
631.438	9.6017
631.631	6.56539
631.825	10.5985
632.018	9.76994
632.212	11.18752
632.405	10.44491
632.598	6.7009
632.792	8.03667
632.985	4.89145
633.178	7.43792
633.372	8.1469
633.565	8.11019
633.758	10.36556
633.952	6.61308
634.145	6.08544
634.338	7.79792
634.531	7.12578
634.724	7.15413
634.918	8.2394
635.111	7.58328
635.304	7.37298
635.497	12.55689
635.69	8.41762
635.883	10.41428
636.077	6.31192
636.27	8.78533
636.463	8.45681
636.656	8.5832
636.849	7.25621
637.042	9.07894
637.235	11.43802
637.428	9.65634
637.621	9.86902
637.814	11.29779
638.007	11.1661
638.2	10.88161
638.393	11.7454
638.586	6.23321
638.778	7.88131
638.971	8.39675
639.164	11.98412
639.357	8.71593
639.55	11.55786
639.743	9.97499
639.935	9.83819
640.128	12.36882
640.321	9.96116
640.514	8.51249
640.707	13.15494
640.899	9.74036
641.092	5.66917
641.285	25.07175
641.477	4.2317
641.67	14.23451
641.863	11.31561
642.055	9.51189
642.248	8.12238
642.441	8.1263
642.633	9.8541
642.826	11.77636
643.018	11.59811
643.211	12.9955
643.403	12.6696
643.596	13.52077
643.788	12.37806
643.981	8.5835
644.173	11.4428
644.366	8.58299
644.558	5.10426
644.751	11.80328
644.943	6.61426
645.135	12.47845
645.328	12.79379
645.52	10.68922
645.712	11.54982
645.905	16.85666
646.097	6.71394
646.289	9.84321
646.482	13.95519
646.674	8.18171
646.866	12.11083
647.058	10.49216
647.251	6.8972
647.443	7.99607
647.635	9.40259
647.827	6.928
648.019	7.67815
648.211	9.52808
648.404	9.21936
648.596	12.87226
648.788	10.3001
648.98	9.25639
649.172	10.72458
649.364	10.29133
649.556	5.43897
649.748	14.99212
649.94	7.5877
650.132	10.62067
650.324	7.43542
650.516	8.53616
650.708	12.17281
650.9	6.84843
651.092	8.39177
651.284	6.2464
651.476	7.22183
651.667	10.9419
651.859	12.72307
652.051	9.66045
652.243	9.21777
652.435	8.19786
652.627	10.92136
652.818	10.29073
653.01	6.21982
653.202	7.46271
653.394	9.06322
653.585	11.00326
653.777	20.09095
653.969	13.16477
654.16	11.66402
654.352	7.35898
654.544	8.46078
654.735	12.33078
654.927	10.37143
655.118	13.60139
655.31	11.04191
655.502	12.81824
655.693	8.75206
655.885	11.62107
656.076	13.39677
656.268	10.17741
656.459	13.40239
656.651	12.98585
656.842	8.61721
657.034	8.57479
657.225	11.75562
657.416	13.46278
657.608	12.74714
657.799	9.69456
657.99	12.20882
658.182	8.12291
658.373	8.3174
658.564	11.99214
658.756	9.82795
658.947	9.88655
659.138	7.74148
659.33	8.58267
659.521	7.95341
659.712	9.51233
659.903	9.35556
660.094	8.29474
660.286	6.56506
660.477	13.99951
660.668	11.24086
660.859	9.62662
661.05	6.57745
661.241	11.22088
661.432	10.77413
661.623	9.12709
661.814	8.77387
662.006	5.84486
662.197	10.26153
662.388	12.70944
662.579	11.06738
662.77	13.2347
662.96	18.22674
663.151	12.30253
663.342	6.20497
663.533	11.00377
663.724	10.12957
663.915	15.80767
664.106	10.34244
664.297	14.76426
664.488	12.32036
664.678	9.06524
664.869	12.55529
665.06	13.37142
665.251	11.21196
665.442	12.21491
665.632	7.88283
665.823	16.15917
666.014	3.13984
666.204	13.77176
666.395	14.48024
666.586	19.19049
666.776	13.19488
666.967	15.26554
667.158	11.74469
667.348	14.23884
667.539	7.66573
667.729	13.99473
667.92	8.57828
668.111	13.05631
668.301	12.42964
668.492	9.956
668.682	10.92456
668.873	11.20373
669.063	7.82816
669.253	11.72254
669.444	13.74442
669.634	10.10632
669.825	16.31685
670.015	14.08058
670.206	8.63079
670.396	16.50193
670.586	10.73912
670.777	12.75609
670.967	5.03151
671.157	10.31776
671.347	8.4753
671.538	16.79854
671.728	13.45826
671.918	17.03202
672.108	13.33534
672.299	10.61867
672.489	12.08643
672.679	9.27398
672.869	13.88404
673.059	17.85646
673.249	13.53399
673.44	8.52954
673.63	11.74976
673.82	14.88366
674.01	9.33038
674.2	13.04069
674.39	20.4264
674.58	13.84821
674.77	11.46893
674.96	11.44261
675.15	24.2864
675.34	15.89409
675.53	12.0817
675.72	10.98246
675.91	6.43216
676.099	17.86962
676.289	19.59547
676.479	14.45231
676.669	11.31415
676.859	13.58777
677.049	9.24075
677.238	11.97658
677.428	18.00581
677.618	14.28067
677.808	17.43552
677.997	13.03063
678.187	8.65367
678.377	12.01308
678.567	10.55253
678.756	10.21407
678.946	10.862
679.136	8.14247
679.325	9.64832
679.515	9.26394
679.704	7.72156
679.894	13.48133
680.084	12.7084
680.273	14.65283
680.463	9.30033
680.652	9.1967
680.842	11.16729
681.031	14.53442
681.221	9.41737
681.41	13.1214
681.6	11.48572
681.789	14.4989
681.978	16.09691
682.168	13.59443
682.357	12.42041
682.547	13.88743
682.736	12.66467
682.925	16.56971
683.115	15.94061
683.304	14.76722
683.493	13.36658
683.682	13.88782
683.872	13.98154
684.061	17.41056
684.25	14.74659
684.439	19.34307
684.629	15.0869
684.818	25.52259
685.007	12.14493
685.196	12.07652
685.385	19.37763
685.574	14.27082
685.763	14.5973
685.952	14.6763
686.142	10.01249
686.331	17.48421
686.52	7.02339
686.709	19.51474
686.898	18.72691
687.087	16.53034
687.276	19.3476
687.465	17.60479
687.654	12.71858
687.842	20.08966
688.031	9.49672
688.22	19.22383
688.409	14.96865
688.598	13.5495
688.787	23.14741
688.976	14.45525
689.165	21.23624
689.353	12.38105
689.542	15.7991
689.731	17.33736
689.92	22.39378
690.108	17.79346
690.297	13.01704
690.486	14.8191
690.675	18.00297
690.863	21.59517
691.052	20.94416
691.241	16.37794
691.429	14.9889
691.618	21.33696
691.806	10.40857
691.995	13.18169
692.184	15.12866
692.372	12.77864
692.561	15.46093
692.749	15.17991
692.938	26.14544
693.126	18.07624
693.315	15.96537
693.503	17.02316
693.692	18.74503
693.88	19.4789
694.068	23.31301
694.257	15.50856
694.445	17.48568
694.634	7.31635
694.822	20.03411
695.01	20.39139
695.199	22.43277
695.387	21.81258
695.575	19.7144
695.763	15.24423
695.952	13.90028
696.14	9.99479
696.328	14.11572
696.516	15.74349
696.705	16.53321
696.893	16.43033
697.081	8.54955
697.269	18.31262
697.457	11.44193
697.645	11.0697
697.833	17.75483
698.021	12.12931
698.21	13.75252
698.398	14.25805
698.586	10.64984
698.774	10.53649
698.962	14.20763
699.15	11.07259
699.338	9.35606
699.526	15.86189
699.714	12.26687
699.901	11.98784
700.089	18.51144
700.277	11.6664
700.465	13.60254
700.653	17.84114
700.841	16.81752
701.029	12.16784
701.217	20.81442
701.404	16.51009
701.592	21.09097
701.78	24.49299
701.968	14.73558
702.155	16.23092
702.343	9.88688
702.531	21.99019
702.718	18.27515
702.906	16.21514
703.094	13.51486
703.281	22.55567
703.469	16.63918
703.657	20.67738
703.844	31.19187
704.032	25.13326
704.219	13.73742
704.407	17.94196
704.595	21.81902
704.782	17.825
704.97	13.68211
705.157	14.77004
705.345	23.77583
705.532	31.86589
705.719	19.40043
705.907	24.09687
706.094	18.4301
706.282	25.34823
706.469	16.20489
706.656	18.25006
706.844	16.04569
707.031	22.84698
707.218	19.05657
707.406	25.51216
707.593	21.71484
707.78	20.74738
707.968	17.81612
708.155	14.6744
708.342	21.01116
708.529	22.09104
708.716	18.93106
708.904	25.92538
709.091	21.31082
709.278	11.99911
709.465	26.74484
709.652	27.05861
709.839	24.77438
710.026	21.10224
710.213	10.74761
710.4	20.16761
710.587	24.42689
710.774	25.89893
710.961	24.87678
711.148	19.85632
711.335	25.80655
711.522	18.02444
711.709	21.00489
711.896	30.2195
712.083	23.97232
712.27	14.09832
712.457	20.16926
712.644	12.24923
712.831	30.64362
713.017	20.55025
713.204	22.72277
713.391	16.39684
713.578	24.96808
713.765	28.53632
713.951	23.32643
714.138	38.20116
714.325	23.64848
714.512	20.08124
714.698	16.80975
714.885	29.69745
715.072	22.05538
715.258	22.41184
715.445	17.13026
715.631	27.0155
715.818	7.83712
716.005	17.54209
716.191	23.78676
716.378	19.38598
716.564	25.22321
716.751	16.91619
716.937	18.56991
717.124	27.34724
717.31	17.49737
717.497	31.38129
717.683	17.12869
717.869	34.25213
718.056	17.6903
718.242	23.55528
718.429	21.30087
718.615	14.89675
718.801	21.82695
718.988	28.06949
719.174	25.16524
719.36	22.11026
719.547	28.27163
719.733	24.80495
719.919	25.02987
720.105	28.22659
720.291	21.94724
720.478	23.27761
720.664	21.91731
720.85	19.58533
721.036	40.03273
721.222	32.2276
721.408	21.91762
721.595	33.48878
721.781	34.29016
721.967	31.68933
722.153	34.8189
722.339	24.39702
722.525	26.31355
722.711	18.45594
722.897	15.14917
723.083	20.77867
723.269	29.15488
723.455	41.61677
723.641	44.30781
723.827	24.67872
724.012	28.20306
724.198	20.00229
724.384	33.34805
724.57	26.82951
724.756	14.35381
724.942	12.62278
725.127	31.62955
725.313	32.98269
725.499	32.63468
725.685	36.09406
725.87	26.93966
726.056	18.80486
726.242	33.54243
726.428	15.59095
726.613	30.6855
726.799	22.21725
726.985	17.57888
727.17	13.67182
727.356	36.92934
727.541	17.86529
727.727	25.26259
727.913	29.60045
728.098	21.84635
728.284	29.37392
728.469	15.84476
728.655	20.0618
728.84	31.31836
729.026	28.13119
729.211	31.51679
729.397	27.04831
729.582	28.95283
729.767	24.57347
729.953	26.51361
730.138	32.00874
730.323	11.12362
730.509	16.73842
730.694	35.45846
730.879	28.56953
731.065	26.41043
731.25	41.46053
731.435	28.85466
731.621	15.20963
731.806	21.65548
731.991	26.66404
732.176	14.54943
732.361	34.58499
732.547	29.84502
732.732	14.08739
732.917	42.02446
733.102	17.28758
733.287	19.27943
733.472	25.83002
733.657	25.51405
733.842	15.19962
734.027	21.70097
734.212	23.02765
734.397	20.54981
734.582	24.78511
734.767	31.91232
734.952	35.46041
735.137	9.42387
735.322	35.66358
735.507	26.12405
735.692	27.10685
735.877	40.87933
736.062	40.91421
736.247	27.89182
736.431	23.55073
736.616	34.74944
736.801	28.22336
736.986	27.2092
737.171	19.67518
737.355	14.58179
737.54	35.85785
737.725	27.56389
737.909	48.55117
738.094	23.77644
738.279	34.26077
738.463	25.34824
738.648	30.35183
738.833	28.88899
739.017	42.21544
739.202	23.3366
739.386	27.35337
739.571	19.83947
739.756	33.63496
739.94	26.24471
740.125	35.46405
740.309	21.93035
740.494	31.19566
740.678	28.73406
740.863	32.2411
741.047	28.37774
741.231	40.15779
741.416	22.46189
741.6	39.80908
741.785	20.97285
741.969	33.79409
742.153	38.05179
742.338	8.84195
742.522	27.59314
742.706	34.05041
742.89	15.48454
743.075	29.54261
743.259	39.00687
743.443	37.48975
743.627	37.82672
743.812	46.22504
743.996	8.25542
744.18	28.61572
744.364	22.72441
744.548	52.48108
744.732	27.48873
744.916	34.78591
745.1	32.43739
745.285	25.95725
745.469	34.31016
745.653	46.1575
745.837	17.98005
746.021	50.08743
746.205	36.68788
746.389	30.4338
746.573	25.17726
746.757	44.31761
746.94	25.63406
747.124	41.93477
747.308	17.07727
747.492	38.31221
747.676	24.6824
747.86	52.21018
748.044	25.61974
748.227	14.14011
748.411	67.20591
748.595	32.2407
748.779	22.9436
748.963	32.27294
749.146	30.54036
749.33	21.49705
749.514	19.18037
749.697	37.07986
749.881	22.03628
750.065	20.1271
750.248	29.35524
750.432	51.65111
750.616	31.85867
750.799	15.79956
750.983	53.67626
751.166	57.83551
751.35	16.77349
751.533	34.41902
751.717	43.95261
751.9	42.62362
752.084	27.17405
752.267	18.26798
752.451	23.16199
752.634	32.56021
752.818	34.98579
753.001	37.65582
753.184	40.88204
753.368	33.85572
753.551	1.59651
753.734	22.02237
753.918	52.42424
754.101	24.13789
754.284	35.56408
754.467	27.65152
754.651	23.72021
754.834	23.17883
755.017	41.6142
755.2	42.22434
755.384	18.4072
755.567	38.43025
755.75	40.72164
755.933	27.25718
756.116	36.12187
756.299	25.79178
756.482	21.94085
756.665	38.272
756.848	33.88298
757.032	36.7152
757.215	13.83561
757.398	22.37536
757.581	21.44122
757.764	56.73839
757.947	31.81359
758.129	43.38688
758.312	1.89602
758.495	27.03092
758.678	25.8356
758.861	27.44145
759.044	53.44267
759.227	23.10459
759.41	22.87355
759.592	37.14259
759.775	30.5597
759.958	39.62866
760.141	18.45336
760.324	54.13025
760.506	47.19856
760.689	39.02783
760.872	57.99697
761.054	37.38118
761.237	24.77373
761.42	35.55568
761.602	39.48161
761.785	36.11791
761.968	43.67066
762.15	48.57884
762.333	28.03847
762.515	34.39692
762.698	25.97621
762.88	35.31429
763.063	31.43485
763.245	37.97064
763.428	20.71744
763.61	25.26625
763.793	19.57951
763.975	32.77783
764.158	26.01979
764.34	23.51199
764.522	19.22101
764.705	26.6036
764.887	42.9459
765.069	17.7164
765.252	36.82198
765.434	36.38951
765.616	30.25737
765.799	23.48661
765.981	37.46409
766.163	21.46311
766.345	41.67118
766.528	24.89482
766.71	7.80892
766.892	30.76449
767.074	47.72746
767.256	27.93094
767.438	48.83841
767.62	37.15138
767.802	56.49649
767.985	38.75205
768.167	55.90712
768.349	27.25946
768.531	40.01485
768.713	35.42783
768.895	41.85068
769.077	34.23718
769.259	64.42952
769.441	97.39576
769.623	44.71123
769.804	56.3988
769.986	55.95762
770.168	70.06772
770.35	73.59638
770.532	64.03487
770.714	63.84687
770.896	73.7779
771.077	23.64296
771.259	68.087
771.441	56.48097
771.623	72.09235
771.804	91.77212
771.986	23.54308
772.168	43.10552
772.35	72.51371
772.531	94.22567
772.713	57.67107
772.894	72.13355
773.076	51.32106
773.258	41.81706
773.439	77.09674
773.621	84.70838
773.802	33.22515
773.984	51.64253
774.166	57.16544
774.347	87.58491
774.529	71.30424
774.71	19.45693
774.891	47.90889
775.073	45.1247
775.254	85.38265
775.436	42.53392
775.617	90.65727
775.799	42.25553
775.98	83.32346
776.161	89.07868
776.343	86.50935
776.524	59.52127
776.705	50.50289
776.886	27.47485
777.068	56.36238
777.249	112.87955
777.43	93.93729
777.611	35.73205
777.793	52.64855
777.974	88.52433
778.155	47.9281
778.336	39.89511
778.517	97.23881
778.698	44.16989
778.879	18.8484
779.061	6.5038
779.242	63.98044
779.423	61.25127
779.604	42.82508
779.785	49.23316
779.966	62.90618
780.147	74.2
780.328	78.56936
780.509	104.62156
780.69	70.89807
780.871	46.56645
781.051	23.41534
781.232	60.99425
781.413	61.49155
781.594	43.8107
781.775	44.29193
781.956	42.09974
782.137	22.30895
782.317	42.46543
782.498	60.43324
782.679	62.14953
782.86	60.24187
783.04	36.29492
783.221	61.86154
783.402	101.99657
783.583	60.43186
783.763	74.45008
783.944	45.87424
784.124	22.56536
784.305	90.77231
784.486	71.33939
784.666	55.20194
784.847	21.39803
785.027	116.3141
785.208	36.61673
785.388	43.10488
785.569	37.95224
785.749	44.25767
785.93	44.1764
786.11	24.35246
786.291	57.19261
786.471	57.02859
786.652	69.31689
786.832	51.18342
787.012	65.90795
787.193	28.93405
787.373	54.3138
787.553	48.0779
787.734	59.92239
787.914	45.64269
788.094	70.19088
788.275	58.15323
788.455	49.15555
788.635	27.32983
788.815	56.23072
788.995	32.93175
789.176	26.55846
789.356	35.87911
789.536	47.51762
789.716	62.20253
789.896	40.16958
790.076	44.68611
790.256	59.29939
790.436	14.42106
790.616	33.31821
790.796	60.15968
790.976	42.93056
791.156	42.13325
791.336	65.63677
791.516	61.11455
791.696	49.82838
791.876	23.58968
792.056	58.25058
792.236	80.59329
792.416	71.00397
792.596	63.88125
792.776	58.9288
792.956	65.69743
793.135	90.19365
793.315	30.25712
793.495	81.75375
793.675	67.90585
793.854	75.86776
794.034	72.17111
794.214	30.01104
794.394	70.42416
794.573	74.67283
794.753	56.42533
794.933	41.84765
795.112	61.12641
795.292	70.06841
795.472	92.03738
795.651	30.78377
795.831	57.29949
796.01	47.84842
796.19	46.60683
796.369	47.65388
796.549	63.80292
796.728	47.89981
796.908	32.34444
797.087	32.10327
797.267	51.48655
797.446	30.87784
797.626	60.5336
797.805	58.01508
797.984	41.4293
798.164	67.08094
798.343	36.68376
798.522	57.61497
798.702	54.74137
798.881	30.34974
799.06	47.98056
799.239	20.32264
799.419	32.20049
799.598	85.61539
799.777	60.90721
799.956	73.08192
800.136	45.75794
800.315	34.8292
800.494	61.68447
800.673	74.25138
800.852	70.57762
801.031	78.40064
801.21	70.00845
801.389	42.23478
801.568	56.50509
801.747	90.44792
801.926	49.06695
802.105	92.46096
802.284	48.25811
802.463	85.19317
802.642	56.63047
802.821	57.62423
803	79.56099
803.179	73.12747
803.358	77.37837
803.537	38.09971
803.716	66.57807
803.895	40.44021
804.073	50.18861
804.252	46.20838
804.431	63.58861
804.61	53.06707
804.789	86.90004
804.967	44.90579
805.146	43.66806
805.325	97.89069
805.503	66.40108
805.682	25.13645
805.861	120.80428
806.039	87.49112
806.218	40.32737
806.397	66.25218
806.575	62.49049
806.754	61.35482
806.932	38.55414
807.111	87.42145
807.289	76.5871
807.468	63.69182
807.646	79.6952
807.825	61.94426
808.003	66.04752
808.182	80.65305
808.36	58.71777
808.539	39.19624
808.717	93.35623
808.895	39.57077
809.074	63.21552
809.252	48.44909
809.43	85.53138
809.609	81.07275
809.787	102.44857
809.965	48.95973
810.144	55.08639
810.322	47.04494
810.5	70.25472
810.678	62.69093
810.856	105.89011
811.035	83.7887
811.213	83.22184
811.391	81.65726
811.569	63.34647
811.747	140.1232
811.925	97.33369
812.103	41.14937
812.281	48.62614
812.459	113.54818
812.637	102.51302
812.816	88.99661
812.994	112.37624
813.171	89.0288
813.349	85.56126
813.527	98.95058
813.705	91.99274
813.883	114.94062
814.061	90.27247
814.239	112.84162
814.417	125.22675
814.595	82.19964
814.773	66.81747
814.95	73.51267
815.128	77.15346
815.306	64.8949
815.484	71.59967
815.662	44.68043
815.839	42.43828
816.017	51.15314
816.195	90.46613
816.372	57.99752
816.55	87.76337
816.728	104.32068
816.905	63.23001
817.083	92.89572
817.261	63.53358
817.438	137.57831
817.616	122.6227
817.793	54.52023
817.971	83.53878
818.148	78.33156
818.326	107.5679
818.503	78.81184
818.681	99.19709
818.858	52.38275
819.036	66.30012
819.213	64.51339
819.391	46.37368
819.568	43.30123
819.745	39.10637
819.923	79.61151
820.1	51.31994
820.277	45.60953
820.455	51.67991
820.632	54.13352
820.809	58.58651
820.986	33.27727
821.164	27.81066
821.341	21.987
821.518	34.40839
821.695	24.93898
821.872	23.60857
822.05	19.72147
822.227	14.39417
822.404	16.2423
822.581	19.08942
822.758	16.14575
822.935	16.05051
823.112	18.91099
823.289	15.63379
823.466	19.07946
823.643	17.5859
823.82	21.58823
823.997	18.56205
824.174	23.36721
824.351	31.00296
824.528	28.27469
824.705	24.91669
824.882	27.01877
825.059	36.56988
825.236	24.53256
825.412	26.59837
825.589	33.97923
825.766	51.88845
825.943	28.50583
826.12	34.03179
826.296	22.41652
826.473	31.87153
826.65	33.18901
826.827	43.36719
827.003	26.73098
827.18	28.92765
827.357	35.29232
827.533	28.33988
827.71	14.65449
827.887	24.75808
828.063	30.0413
828.24	24.53985
828.416	34.39634
828.593	27.68007
828.769	43.39833
828.946	45.24433
829.122	46.93532
829.299	46.55525
829.475	17.90135
829.652	41.65442
829.828	72.36209
830.005	46.04924
830.181	65.55431
830.357	42.2255
830.534	64.83085
830.71	54.80591
830.886	72.16294
831.063	63.25343
831.239	89.02219
831.415	31.66665
831.592	102.37479
831.768	53.46864
831.944	43.09648
832.12	98.6628
832.296	91.97935
832.473	75.66239
832.649	46.35927
832.825	68.15122
833.001	39.67815
833.177	57.90535
833.353	53.94515
833.529	28.18774
833.705	43.59291
833.881	30.53167
834.058	27.12723
834.234	31.03146
834.41	32.19895
834.586	23.13303
834.761	28.79729
834.937	32.85256
835.113	34.43509
835.289	30.33472
835.465	37.95829
835.641	31.18754
835.817	34.35989
835.993	70.17875
836.169	29.8385
836.344	50.96076
836.52	59.64866
836.696	67.07717
836.872	37.74461
837.048	144.44717
837.223	42.29684
837.399	123.98357
837.575	89.80365
837.75	79.93708
837.926	124.16958
838.102	201.53773
838.277	150.12495
838.453	206.79734
838.628	199.77344
838.804	57.87453
838.98	194.82314
839.155	101.37085
839.331	128.49642
839.506	90.12254
839.682	87.22924
839.857	107.17552
840.033	126.84987
840.208	53.56318
840.384	32.54308
840.559	55.71481
840.734	101.21721
840.91	136.58216
841.085	85.73985
841.26	89.1258
841.436	72.44499
841.611	73.94058
841.786	106.84344
841.962	147.28721
842.137	106.52243
842.312	56.19333
842.487	81.79691
842.663	86.77191
842.838	91.06254
843.013	293.64111
843.188	182.7406
843.363	130.81864
843.538	280.03266
843.714	328.57812
843.889	302.31485
844.064	307.49918
844.239	220.26361
844.414	469.76969
844.589	240.68395
844.764	383.98169
844.939	359.97442
845.114	400.61693
845.289	420.55298
845.464	484.70589
845.639	360.87635
845.814	164.35974
845.989	294.10758
846.163	240.08765
846.338	287.86555
846.513	388.07268
846.688	243.36621
846.863	289.31664
847.038	216.44121
847.212	273.87937
847.387	338.78205
847.562	289.91849
847.737	447.72119
847.911	178.79979
848.086	163.17172
848.261	356.1479
848.435	248.18907
848.61	356.62175
848.785	209.42302
848.959	425.4867
849.134	471.43903
849.308	656.18443
849.483	273.01711
849.658	542.15819
849.832	248.39199
850.007	206.77726
850.181	639.47774
850.356	249.66412
850.53	737.45526
850.705	305.56918
850.879	107.83965
851.053	276.33632
851.228	276.51695
851.402	457.10171
851.577	473.53383
851.751	550.70406
851.925	318.00939
852.099	131.18156
852.274	228.17148
852.448	297.23694
852.622	445.4395
852.797	320.263
852.971	318.48965
853.145	392.26298
853.319	710.79174
853.493	626.43113
853.668	473.31969
853.842	730.10834
854.016	485.28401
854.19	660.90259
854.364	351.98092
854.538	353.0726
854.712	716.88406
854.886	387.57123
855.06	285.54274
855.234	98.01344
855.408	603.89578
855.582	392.16254
855.756	603.76043
855.93	533.93614
856.104	568.40095
856.278	536.22742
856.452	358.63561
856.626	405.52868
856.8	934.94885
856.973	368.2134
857.147	428.56425
857.321	461.87884
857.495	505.94609
857.669	320.77052
857.842	418.49895
858.016	551.43862
858.19	194.51665
858.364	728.66187
858.537	374.35413
858.711	459.49976
858.885	408.52946
859.058	236.26958
859.232	154.73321
859.405	144.05133
859.579	482.33946
859.753	503.80324
859.926	231.75534
860.1	240.36184
860.273	364.86574
860.447	469.84424
860.62	338.41858
860.794	616.46214
860.967	347.19652
861.141	473.42639
861.314	790.71245
861.487	442.9544
861.661	471.96695
861.834	524.98892
862.008	659.79429
862.181	436.89759
862.354	499.44927
862.528	514.9027
862.701	330.57159
862.874	175.34288
863.047	288.60919
863.221	263.26501
863.394	156.15325
863.567	403.16355
863.74	111.48509
863.913	496.05475
864.087	480.39932
864.26	445.93565
864.433	333.75744
864.606	605.4052
864.779	352.86331
864.952	138.16664
865.125	367.38894
865.298	278.91144
865.471	348.01102
865.644	744.75204
865.817	463.77737
865.99	472.86487
866.163	460.092
866.336	227.21654
866.509	305.43214
866.682	601.78948
866.855	724.2982
867.028	190.51155
867.2	365.6408
867.373	86.68042
867.546	359.87708
867.719	676.62897
867.892	418.68878
868.064	240.8333
868.237	311.97869
868.41	341.31513
868.583	170.24614
868.755	206.28402
868.928	385.05674
869.101	801.83318
869.273	558.74515
869.446	482.15097
869.619	560.94019
869.791	359.75829
869.964	491.85834
870.136	833.16453
870.309	352.4083
870.481	376.02425
870.654	195.64069
870.826	312.43736
870.999	205.01699
871.171	412.18758
871.344	230.89943
871.516	281.41599
871.689	240.71177
871.861	333.97658
872.033	242.4068
872.206	274.52643
872.378	328.51557
872.55	362.56543
872.723	201.49197
872.895	311.75255
873.067	423.73369
873.24	347.34216
873.412	320.31035
873.584	355.23203
873.756	326.28092
873.928	449.28134
874.101	319.04968
874.273	396.16126
874.445	111.90105
874.617	247.58533
874.789	288.66148
874.961	300.52409
875.133	344.09513
875.305	374.48685
875.477	246.06452
875.649	168.74631
875.821	163.29097
875.993	580.65424
876.165	318.88564
876.337	362.09468
876.509	294.37819
876.681	350.01236
876.853	335.50623
877.025	361.88208
877.197	219.63636
877.369	155.43348
877.541	309.04924
877.712	69.01346
877.884	189.90486
878.056	316.22286
878.228	173.80171
878.4	391.70011
878.571	152.49095
878.743	110.84252
878.915	265.39177
879.086	122.86087
879.258	167.14252
879.43	165.37447
879.601	133.16682
879.773	130.79374
879.945	22.53306
880.116	49.88872
880.288	26.80715
880.459	29.89485
880.631	22.62875
880.802	28.79219
880.974	25.61987
881.145	16.29211
881.317	25.85487
881.488	18.13756
881.66	20.62681
881.831	19.05775
882.002	26.04442
882.174	19.10113
882.345	24.31408
882.517	11.07444
882.688	30.22963
882.859	21.73985
883.03	41.18736
883.202	35.58565
883.373	28.5919
883.544	27.38791
883.715	54.66518
883.887	43.13338
884.058	34.47316
884.229	53.71528
884.4	54.99776
884.571	70.52484
884.742	54.3259
884.914	57.8872
885.085	92.02567
885.256	140.3284
885.427	113.59683
885.598	142.86369
885.769	145.10972
885.94	149.68075
886.111	83.51648
886.282	166.54327
886.453	142.08011
886.624	100.21927
886.795	204.96626
886.966	162.90361
887.136	205.77386
887.307	140.93277
887.478	307.17194
887.649	261.54823
887.82	248.56294
887.991	194.76825
888.161	314.7209
888.332	333.89296
888.503	127.45741
888.674	375.94646
888.844	522.49869
889.015	317.73461
889.186	169.4094
889.356	464.66875
889.527	228.08774
889.698	634.21463
889.868	214.51601
890.039	385.31794
890.209	278.0163
890.38	385.66849
890.551	343.69784
890.721	387.17448
890.892	471.38624
891.062	388.34837
891.233	511.7344
891.403	457.61768
891.574	286.61849
891.744	234.64855
891.914	349.16898
892.085	376.48218
892.255	65.23008
892.425	417.34646
892.596	287.16501
892.766	367.75651
892.936	462.66711
893.107	377.9914
893.277	163.73502
893.447	140.3512
893.618	105.33132
893.788	185.90404
893.958	108.24241
894.128	80.64182
894.298	111.19191
894.468	153.52356
894.639	61.72674
894.809	29.57328
894.979	67.92095
895.149	79.46628
895.319	67.47045
895.489	88.5586
895.659	135.70836
895.829	78.21032
895.999	84.42857
896.169	78.72684
896.339	86.71122
896.509	194.97848
896.679	190.70912
896.849	209.77399
897.019	270.28246
897.189	228.52724
897.358	214.34259
897.528	327.65099
897.698	173.84341
897.868	294.71591
898.038	636.61963
898.208	603.07296
898.377	210.81721
898.547	990.20666
898.717	1401.68869
898.886	379.85574
899.056	637.56573
899.226	1464.59617
899.395	724.92023
899.565	1220.79391
899.735	808.56881
899.904	892.01638
900.074	928.08456
900.244	249.73442
900.413	1252.99067
900.583	325.88228
900.752	1355.01231
900.922	932.60142
901.091	62.5022
901.261	1638.17277
901.43	526.54292
901.599	2342.02352
901.769	1472.21964
901.938	1067.16036
902.108	1574.35245
902.277	784.38774
902.446	434.56762
902.616	342.23387
902.785	482.60643
902.954	675.63501
903.124	485.11758
903.293	298.08458
903.462	127.20585
903.631	199.45318
903.801	144.06593
903.97	58.47783
904.139	113.74738
904.308	79.39301
904.477	72.49783
904.646	33.13115
904.816	59.4748
904.985	91.77982
905.154	137.6442
