Data from WindowProjectSample_Transmission__43__00043__032284781510961635.txt Node

Date: Mon May 05 17:58:53 EDT 2025
User: jessi
Spectrometer: SR400872
Trigger mode: 0
Integration Time (sec): 5.000010E-1
Scans to average: 20
Electric dark correction enabled: true
Nonlinearity correction enabled: true
Boxcar width: 0
XAxis mode: Wavelengths
Number of Pixels in Spectrum: 3648
>>>>>Begin Spectral Data<<<<<
184.909	21888.35075
185.132	-5527.81103
185.355	-3202.90013
185.578	-18998.12755
185.801	1605.99995
186.024	10663.82559
186.247	-1748.09557
186.47	1289.94312
186.693	502.84098
186.916	323.2109
187.139	-4000.84124
187.362	3876.90346
187.585	4497.81785
187.808	3534.32941
188.031	-60.1814
188.254	-55747.468
188.476	-625.14994
188.699	6424.62835
188.922	678.53265
189.145	-15776.10159
189.368	-676.61916
189.591	-1336.44509
189.813	3350.9874
190.036	-51444.08041
190.259	-881.70894
190.482	-4435.27637
190.705	7400.92414
190.927	-2467.62118
191.15	13724.56722
191.373	3515.27595
191.595	-9490.5807
191.818	-4271.66559
192.041	-7291.57859
192.263	-3655.79878
192.486	-768.71314
192.709	-4095.38016
192.931	8132.26294
193.154	-29799.26263
193.377	-2908.57109
193.599	-2685.3032
193.822	-9985.47633
194.044	-1998.07651
194.267	1221.05122
194.489	309.65444
194.712	-44817.56027
194.934	-32489.102
195.157	1249.10826
195.379	1574.27521
195.602	-7385.12154
195.824	-1284.82393
196.047	-10059.12633
196.269	2785.80441
196.492	-6806.72475
196.714	31596.99265
196.936	-8955.75737
197.159	-1168.01632
197.381	1247.82191
197.604	427.93217
197.826	12703.70186
198.048	-11114.51513
198.271	-2946.54397
198.493	7916.82879
198.715	2428.35111
198.938	-558.21429
199.16	7427.54604
199.382	-106604.6286
199.604	2628.37391
199.827	-1126.63968
200.049	-3132.46254
200.271	14954.77846
200.493	1303.76852
200.715	-39160.45337
200.938	-6351.44511
201.16	-4263.27602
201.382	21494.28918
201.604	2367.1049
201.826	2385.01923
202.048	-2020.83274
202.27	-1942.93295
202.492	-38269.17914
202.715	3126.99546
202.937	-4590.32274
203.159	-6746.28106
203.381	1556.68873
203.603	7207.54442
203.825	6673.25484
204.047	2220.82012
204.269	-3129.92182
204.491	2349.42483
204.713	6178.69137
204.935	-483039.30122
205.156	1214.00855
205.378	-3199.21009
205.6	1667.17251
205.822	162271.7113
206.044	-1102.13477
206.266	1649.68492
206.488	4968.06248
206.71	-5421.86623
206.932	1144.9634
207.153	12631.37
207.375	-6968.14722
207.597	-38822.24709
207.819	-2939.31468
208.041	2470.22209
208.262	506.01686
208.484	703.80421
208.706	-779.74535
208.927	-836.38855
209.149	576.45976
209.371	-2960.55931
209.593	-324.06533
209.814	-868.11172
210.036	614.3519
210.258	-675.44066
210.479	1680.55162
210.701	1712.50428
210.922	3227.05747
211.144	-3798.35084
211.366	2197.26193
211.587	7491.84015
211.809	-8550.56535
212.03	2331.12664
212.252	475.43175
212.473	2135.26778
212.695	-5022.47896
212.916	2988.21807
213.138	-722.03295
213.359	3975.38502
213.581	5573.73235
213.802	-782.88547
214.024	1172.07186
214.245	2295.13436
214.466	4063.60663
214.688	-3199.46785
214.909	-1241.65963
215.131	-1780.24901
215.352	-3369.35018
215.573	15310.38512
215.795	5299.00413
216.016	5647.07028
216.237	828.40253
216.459	3787.52883
216.68	1846.08849
216.901	5297.83053
217.122	-2872.49909
217.344	-12483.2119
217.565	3522.17802
217.786	9184.34786
218.007	15336.06679
218.228	-854.66517
218.45	5737.00956
218.671	868.44205
218.892	38491.37402
219.113	1538.9751
219.334	-317.66987
219.555	10841.16355
219.776	3162.47733
219.997	22733.02889
220.219	2712.21741
220.44	-12027.22388
220.661	465.4829
220.882	1521.52705
221.103	-1153.31813
221.324	2367.78981
221.545	2444.6168
221.766	-9124.80443
221.987	899.1973
222.208	1598.24344
222.429	4417.30903
222.65	83.79164
222.87	20290.79156
223.091	761.11372
223.312	586.40063
223.533	1328.70117
223.754	1517.0234
223.975	1412.31382
224.196	2086.86516
224.417	1376.11472
224.637	582.31168
224.858	101.78821
225.079	1207.38725
225.3	655.43675
225.521	3808.24403
225.741	497.97917
225.962	529.02713
226.183	130.58036
226.404	684.86915
226.624	457.48466
226.845	659.2452
227.066	406.97153
227.286	264.58486
227.507	141.04511
227.728	123.936
227.948	247.9726
228.169	75.85946
228.389	89.15514
228.61	47.7624
228.831	68.41379
229.051	2.46639
229.272	38.69852
229.492	59.17239
229.713	14.72139
229.933	39.16921
230.154	34.52286
230.374	55.59977
230.595	37.87374
230.815	25.06436
231.036	41.59031
231.256	-9.80789
231.477	72.71105
231.697	40.56549
231.917	45.74566
232.138	56.37261
232.358	111.00109
232.579	106.14492
232.799	19.26308
233.019	104.90121
233.24	119.1448
233.46	39.79645
233.68	62.62903
233.901	43.59811
234.121	27.59456
234.341	14.66668
234.561	-2.22943
234.782	24.46177
235.002	71.39533
235.222	-3.04644
235.442	67.94684
235.662	32.05579
235.883	65.51696
236.103	52.83009
236.323	40.52344
236.543	28.21165
236.763	43.05099
236.983	45.52887
237.203	40.96472
237.423	64.78029
237.643	90.20211
237.864	77.06835
238.084	17.59172
238.304	27.33095
238.524	45.57548
238.744	42.31379
238.964	78.98234
239.184	62.21742
239.404	65.52413
239.624	34.75538
239.843	61.82725
240.063	35.77058
240.283	21.79399
240.503	26.46245
240.723	26.21726
240.943	15.37317
241.163	20.03931
241.383	15.30946
241.603	7.40032
241.822	9.92349
242.042	6.84679
242.262	8.59284
242.482	10.27508
242.702	10.99904
242.921	2.97242
243.141	6.81909
243.361	6.65742
243.581	9.88632
243.8	7.53393
244.02	5.20418
244.24	9.30106
244.459	8.8964
244.679	18.70669
244.899	11.93487
245.118	13.85525
245.338	12.97259
245.558	13.81359
245.777	8.53316
245.997	11.13671
246.216	10.64747
246.436	6.43221
246.655	5.02231
246.875	3.42175
247.094	6.49542
247.314	2.09755
247.533	3.84787
247.753	4.61856
247.972	3.59279
248.192	1.16089
248.411	1.9188
248.631	3.61241
248.85	4.61664
249.07	4.12316
249.289	6.21263
249.508	5.00098
249.728	8.14653
249.947	6.86059
250.166	8.59056
250.386	4.47691
250.605	7.63082
250.824	11.66264
251.044	7.95118
251.263	29.65009
251.482	15.26399
251.701	12.52703
251.921	0.53669
252.14	3.43642
252.359	4.2736
252.578	10.81888
252.798	3.56771
253.017	9.51351
253.236	4.23195
253.455	5.93705
253.674	10.73015
253.893	4.92423
254.112	8.06053
254.331	11.03124
254.551	8.84202
254.77	3.03178
254.989	13.72581
255.208	10.59069
255.427	15.57226
255.646	11.60863
255.865	22.9393
256.084	8.8309
256.303	11.36993
256.522	14.32023
256.741	2.93903
256.96	2.76078
257.179	8.88935
257.397	11.30117
257.616	6.11005
257.835	8.29431
258.054	15.58527
258.273	10.98243
258.492	11.62343
258.711	7.02372
258.93	3.11497
259.148	5.01616
259.367	4.86226
259.586	5.84248
259.805	2.48111
260.023	5.49221
260.242	4.01912
260.461	3.01103
260.68	1.38892
260.898	4.61582
261.117	1.27458
261.336	0.92241
261.554	3.6238
261.773	3.4581
261.992	0.807
262.21	3.33048
262.429	3.82417
262.648	8.0228
262.866	8.34009
263.085	5.9034
263.303	5.29084
263.522	9.05182
263.74	9.51486
263.959	16.17228
264.178	7.31686
264.396	6.68315
264.615	4.67794
264.833	11.16487
265.051	9.25425
265.27	11.49308
265.488	11.72683
265.707	6.33489
265.925	11.53772
266.144	5.09932
266.362	5.85292
266.58	5.73616
266.799	5.09366
267.017	6.22765
267.235	5.1072
267.454	3.39122
267.672	1.83168
267.89	4.16266
268.109	4.40956
268.327	4.46957
268.545	0.9361
268.763	4.04967
268.982	1.52271
269.2	4.19373
269.418	3.04842
269.636	2.06585
269.854	5.05135
270.073	3.45788
270.291	1.77945
270.509	1.97526
270.727	4.62751
270.945	7.39186
271.163	7.40055
271.381	1.46169
271.599	3.29831
271.817	5.38925
272.036	1.89023
272.254	3.17635
272.472	2.61223
272.69	2.7501
272.908	2.37295
273.126	4.64381
273.344	5.53325
273.562	1.77074
273.779	2.56738
273.997	3.86239
274.215	4.18961
274.433	2.89579
274.651	4.32903
274.869	4.93343
275.087	3.06085
275.305	4.02637
275.523	2.47791
275.74	3.0523
275.958	5.68224
276.176	8.37719
276.394	2.69884
276.612	3.26971
276.829	3.36996
277.047	2.79837
277.265	3.00737
277.483	3.71504
277.7	4.46419
277.918	3.80949
278.136	6.3453
278.353	3.13491
278.571	1.98434
278.789	4.47037
279.006	0.94539
279.224	2.9239
279.442	5.2556
279.659	3.64577
279.877	2.40717
280.094	6.106
280.312	1.13105
280.529	3.62633
280.747	0.87096
280.964	2.67835
281.182	6.18538
281.399	2.89613
281.617	3.9266
281.834	2.72784
282.052	1.89685
282.269	3.22261
282.487	2.43328
282.704	2.32458
282.921	2.31944
283.139	3.5193
283.356	4.24456
283.574	3.81618
283.791	1.98635
284.008	5.90269
284.226	3.03581
284.443	3.26794
284.66	4.71179
284.877	3.59915
285.095	2.1005
285.312	1.61716
285.529	0.87842
285.746	0.82981
285.964	2.14476
286.181	1.41267
286.398	1.92894
286.615	2.78838
286.832	2.70063
287.05	0.62572
287.267	1.86333
287.484	1.85481
287.701	2.66677
287.918	2.73128
288.135	2.67198
288.352	1.23682
288.569	1.41484
288.786	2.47083
289.003	1.95151
289.22	3.17446
289.437	1.69261
289.654	2.93504
289.871	3.19893
290.088	3.09383
290.305	2.3745
290.522	1.87544
290.739	2.20731
290.956	3.18092
291.173	3.62172
291.39	3.56915
291.607	2.5257
291.824	1.81067
292.04	1.32797
292.257	2.93353
292.474	3.40879
292.691	1.98645
292.908	0.96774
293.125	1.78618
293.341	1.17456
293.558	5.00651
293.775	1.95278
293.992	1.99655
294.208	0.95271
294.425	1.37474
294.642	1.93058
294.858	3.07708
295.075	0.62407
295.292	2.09441
295.508	2.50785
295.725	4.24404
295.942	1.87027
296.158	1.5484
296.375	2.33653
296.591	1.81463
296.808	2.07766
297.024	2.38013
297.241	2.65984
297.458	2.86138
297.674	0.62109
297.891	2.38691
298.107	2.20179
298.323	1.71116
298.54	3.83152
298.756	2.0528
298.973	1.35553
299.189	4.03131
299.406	2.08774
299.622	3.70463
299.838	3.71632
300.055	3.63363
300.271	1.73609
300.487	2.12388
300.704	2.54188
300.92	1.89304
301.136	5.70169
301.353	3.9181
301.569	3.14256
301.785	3.58413
302.001	3.9837
302.218	3.634
302.434	3.86327
302.65	2.30327
302.866	3.05517
303.083	5.5496
303.299	5.66419
303.515	3.74642
303.731	4.0118
303.947	2.31153
304.163	3.07601
304.379	3.92671
304.595	4.28073
304.812	3.08203
305.028	3.19499
305.244	3.47233
305.46	4.33754
305.676	4.69244
305.892	5.1014
306.108	4.44524
306.324	3.44688
306.54	5.77918
306.756	4.46463
306.972	4.34025
307.187	3.95463
307.403	5.22928
307.619	3.57601
307.835	5.1385
308.051	5.44974
308.267	3.15833
308.483	5.29803
308.699	4.56906
308.914	4.17937
309.13	4.00437
309.346	3.05101
309.562	3.40681
309.778	3.06876
309.993	4.70712
310.209	4.49294
310.425	3.28726
310.641	4.22225
310.856	3.63321
311.072	3.4828
311.288	4.27707
311.503	4.77902
311.719	2.80696
311.935	2.96322
312.15	4.99904
312.366	4.62309
312.581	4.94301
312.797	4.53393
313.013	5.27448
313.228	3.84064
313.444	4.0971
313.659	3.91521
313.875	4.92409
314.09	4.26362
314.306	5.90682
314.521	5.19786
314.737	5.1688
314.952	4.5888
315.168	4.64482
315.383	4.83926
315.599	4.21424
315.814	4.2873
316.029	5.1706
316.245	3.61903
316.46	2.93824
316.675	5.70176
316.891	6.18689
317.106	7.48677
317.321	4.77869
317.537	5.47592
317.752	5.44625
317.967	5.44568
318.183	3.85293
318.398	4.34452
318.613	5.53291
318.828	6.03293
319.043	5.46248
319.259	4.62034
319.474	4.98908
319.689	5.93558
319.904	3.25775
320.119	5.64904
320.334	5.02792
320.549	4.61952
320.765	5.7613
320.98	5.35637
321.195	5.2789
321.41	4.90481
321.625	5.64499
321.84	6.62661
322.055	6.40039
322.27	4.47993
322.485	3.8074
322.7	5.43243
322.915	5.68301
323.13	4.49159
323.345	6.71707
323.56	6.30718
323.775	5.79233
323.989	5.60891
324.204	5.37182
324.419	6.38272
324.634	4.3986
324.849	5.06408
325.064	8.4705
325.279	6.31693
325.493	5.63861
325.708	6.19398
325.923	4.72546
326.138	5.05242
326.352	6.86933
326.567	6.33779
326.782	5.04657
326.997	4.952
327.211	6.06811
327.426	5.88227
327.641	5.30154
327.855	4.16454
328.07	6.03673
328.285	7.30763
328.499	5.00983
328.714	5.71027
328.928	6.05387
329.143	5.42394
329.358	6.61489
329.572	6.53562
329.787	6.88983
330.001	8.10568
330.216	4.49566
330.43	7.74209
330.645	7.06894
330.859	6.62973
331.074	4.79968
331.288	5.83743
331.503	7.27308
331.717	4.73263
331.931	5.91527
332.146	6.17202
332.36	7.75429
332.575	6.19809
332.789	6.10641
333.003	6.31919
333.218	6.54908
333.432	5.57101
333.646	6.95452
333.86	7.76409
334.075	7.71151
334.289	5.65054
334.503	5.02709
334.717	6.45729
334.932	6.31906
335.146	6.94993
335.36	5.40872
335.574	6.83183
335.788	6.54657
336.003	7.08289
336.217	7.09796
336.431	6.7782
336.645	5.99548
336.859	5.39217
337.073	6.50579
337.287	6.90813
337.501	5.43027
337.715	7.23305
337.929	7.34968
338.143	5.64689
338.357	6.4183
338.571	6.30893
338.785	7.43753
338.999	6.33834
339.213	6.20284
339.427	5.50562
339.641	8.00079
339.855	6.50983
340.069	6.11442
340.283	7.65928
340.497	8.48101
340.711	7.46369
340.924	7.00888
341.138	6.18461
341.352	5.84019
341.566	7.14098
341.78	5.76779
341.993	6.7192
342.207	6.37327
342.421	7.43072
342.635	7.00424
342.848	6.90609
343.062	5.06278
343.276	6.59879
343.49	8.9785
343.703	6.60182
343.917	8.3015
344.131	8.37302
344.344	6.56646
344.558	7.20053
344.771	6.33828
344.985	8.94346
345.199	9.00425
345.412	7.81353
345.626	7.97703
345.839	6.29002
346.053	6.58684
346.266	6.85876
346.48	8.13393
346.693	8.05419
346.907	7.97415
347.12	6.78317
347.334	7.85283
347.547	7.93119
347.76	7.53627
347.974	8.62005
348.187	7.89877
348.401	7.43948
348.614	6.74271
348.827	7.4831
349.041	8.10709
349.254	6.35017
349.467	7.3031
349.681	6.93601
349.894	7.06658
350.107	8.97385
350.32	9.58819
350.534	6.85457
350.747	7.71335
350.96	7.27108
351.173	7.43745
351.386	7.63633
351.6	7.50898
351.813	7.59753
352.026	7.6044
352.239	7.22903
352.452	7.64726
352.665	9.15106
352.878	8.11934
353.092	9.96715
353.305	8.8273
353.518	8.29844
353.731	7.35541
353.944	9.12938
354.157	8.03777
354.37	7.97958
354.583	7.44015
354.796	7.51855
355.009	9.12126
355.222	8.8034
355.435	8.6033
355.647	9.44547
355.86	8.12858
356.073	8.80845
356.286	8.18654
356.499	9.48671
356.712	9.40635
356.925	9.50213
357.138	9.51007
357.35	8.29343
357.563	8.60066
357.776	9.16793
357.989	8.981
358.201	9.57995
358.414	9.37927
358.627	10.20265
358.84	8.91204
359.052	8.26994
359.265	8.57266
359.478	9.97241
359.69	7.15067
359.903	9.85906
360.116	10.06492
360.328	8.19105
360.541	9.99724
360.753	8.92765
360.966	9.17291
361.179	9.47381
361.391	9.33804
361.604	9.40375
361.816	9.50237
362.029	9.45218
362.241	9.17959
362.454	9.58697
362.666	9.0323
362.879	10.234
363.091	9.38243
363.304	9.27561
363.516	9.53403
363.728	8.91597
363.941	9.91099
364.153	9.75096
364.366	8.037
364.578	8.88926
364.79	9.76731
365.003	9.73724
365.215	8.95347
365.427	10.03499
365.639	10.20467
365.852	9.64124
366.064	11.15843
366.276	9.40183
366.488	9.75896
366.701	9.51149
366.913	9.35712
367.125	9.50392
367.337	8.95302
367.549	9.27515
367.762	9.66188
367.974	9.58552
368.186	9.39409
368.398	10.35092
368.61	9.89732
368.822	10.14037
369.034	9.35919
369.246	10.33751
369.458	11.87279
369.67	9.07672
369.882	11.11711
370.094	8.5018
370.306	10.84117
370.518	9.55624
370.73	9.41234
370.942	9.49474
371.154	9.92722
371.366	9.6968
371.578	10.32652
371.79	9.76983
372.002	10.73388
372.214	11.75843
372.425	9.91168
372.637	11.31931
372.849	10.43832
373.061	8.66363
373.273	10.51326
373.484	10.2767
373.696	10.6311
373.908	8.57977
374.12	10.81998
374.331	10.48549
374.543	9.50307
374.755	9.40893
374.967	10.17146
375.178	10.94939
375.39	9.74798
375.602	10.3361
375.813	9.1401
376.025	9.74682
376.236	10.40856
376.448	10.65423
376.66	10.2598
376.871	10.34933
377.083	11.29593
377.294	11.9706
377.506	10.28847
377.717	11.64891
377.929	10.85078
378.14	10.46375
378.352	10.88637
378.563	11.20773
378.775	11.81994
378.986	9.99126
379.197	10.84986
379.409	10.09428
379.62	10.9701
379.832	10.9231
380.043	10.36861
380.254	10.89079
380.466	9.85795
380.677	12.83098
380.888	11.99335
381.1	12.57224
381.311	12.62093
381.522	11.02531
381.733	12.76113
381.945	10.86969
382.156	10.59797
382.367	10.48893
382.578	12.76648
382.789	13.00514
383.001	10.43404
383.212	12.27099
383.423	12.15671
383.634	11.79247
383.845	11.72364
384.056	10.87275
384.267	11.10946
384.478	11.26264
384.69	10.39206
384.901	11.58436
385.112	11.35972
385.323	12.42226
385.534	11.51368
385.745	11.53535
385.956	11.43734
386.167	10.65427
386.378	11.56849
386.588	10.77986
386.799	10.71465
387.01	10.35305
387.221	12.02256
387.432	11.35781
387.643	12.40442
387.854	11.20064
388.065	11.09675
388.275	11.28676
388.486	10.94616
388.697	11.41118
388.908	11.06039
389.119	12.30411
389.329	12.382
389.54	11.53181
389.751	11.59207
389.962	12.37952
390.172	11.54822
390.383	11.44477
390.594	11.06623
390.804	11.25121
391.015	11.2151
391.226	11.82646
391.436	12.08751
391.647	12.08855
391.858	12.1611
392.068	10.80396
392.279	11.10721
392.489	12.06958
392.7	12.41917
392.91	11.36019
393.121	11.2271
393.331	12.11015
393.542	12.55994
393.752	12.17017
393.963	12.19974
394.173	12.19148
394.384	12.14604
394.594	12.05008
394.804	11.23718
395.015	12.03149
395.225	12.30364
395.436	11.42648
395.646	12.17396
395.856	11.59651
396.067	10.91091
396.277	12.35426
396.487	12.13316
396.697	12.08105
396.908	12.16757
397.118	12.1323
397.328	11.79846
397.538	12.43317
397.749	11.22524
397.959	12.47483
398.169	12.19725
398.379	11.0714
398.589	12.19235
398.8	12.14286
399.01	12.08936
399.22	11.76662
399.43	13.40756
399.64	11.96543
399.85	12.20919
400.06	12.04318
400.27	11.41682
400.48	11.84839
400.69	12.92041
400.9	11.69786
401.11	11.2224
401.32	12.38539
401.53	11.60987
401.74	12.88588
401.95	12.28767
402.16	11.66493
402.37	12.14674
402.58	11.73131
402.79	12.38898
403	12.97975
403.209	11.68491
403.419	12.87047
403.629	11.63202
403.839	12.87009
404.049	12.76351
404.258	11.98506
404.468	11.69583
404.678	12.43106
404.888	13.00568
405.097	12.02769
405.307	12.11058
405.517	12.75633
405.727	12.60401
405.936	12.10219
406.146	12.46894
406.356	13.16269
406.565	12.25883
406.775	12.03476
406.984	11.99563
407.194	13.39748
407.404	12.28128
407.613	12.58285
407.823	12.68155
408.032	12.96322
408.242	12.87751
408.451	11.89364
408.661	11.99174
408.87	13.40866
409.08	11.76103
409.289	12.45987
409.499	12.41547
409.708	12.35124
409.918	11.11306
410.127	12.51661
410.336	13.39212
410.546	12.8514
410.755	12.10639
410.964	12.20339
411.174	11.79459
411.383	12.67387
411.592	12.52396
411.802	11.90148
412.011	12.78985
412.22	12.22819
412.429	13.38767
412.639	13.31847
412.848	12.96909
413.057	13.31664
413.266	12.98111
413.475	12.43788
413.685	12.78539
413.894	13.12503
414.103	13.06614
414.312	13.04755
414.521	12.37045
414.73	12.5869
414.939	13.94414
415.148	12.93285
415.357	12.78691
415.566	12.62133
415.776	12.47915
415.985	12.55937
416.194	13.32301
416.403	14.09603
416.611	12.17581
416.82	12.61882
417.029	13.07826
417.238	12.74993
417.447	12.62015
417.656	12.89183
417.865	12.80865
418.074	13.04376
418.283	13.1884
418.492	13.73359
418.7	13.55043
418.909	14.71047
419.118	13.90646
419.327	14.29932
419.536	14.26342
419.744	14.44144
419.953	15.78674
420.162	16.06845
420.371	15.69636
420.579	16.47238
420.788	17.32687
420.997	17.4902
421.205	18.06709
421.414	17.77132
421.623	17.9171
421.831	17.48332
422.04	18.05268
422.249	17.06148
422.457	17.24675
422.666	16.33018
422.874	17.07723
423.083	17.22536
423.291	17.2233
423.5	17.27088
423.708	17.74005
423.917	18.2309
424.125	17.737
424.334	17.69638
424.542	19.43312
424.751	18.91854
424.959	18.44238
425.167	18.25787
425.376	18.17544
425.584	16.5819
425.793	16.47547
426.001	15.42988
426.209	15.22126
426.418	14.01484
426.626	13.56255
426.834	13.4296
427.042	13.71141
427.251	13.34314
427.459	14.14214
427.667	13.81301
427.875	13.02129
428.084	13.41414
428.292	14.26808
428.5	14.00914
428.708	13.11202
428.916	13.09832
429.124	13.64927
429.333	13.4465
429.541	13.45575
429.749	13.74066
429.957	13.65442
430.165	15.23199
430.373	12.83746
430.581	13.81872
430.789	14.57543
430.997	13.53131
431.205	13.28897
431.413	14.02354
431.621	13.6035
431.829	14.17749
432.037	13.70963
432.245	14.04243
432.453	14.1351
432.661	13.77366
432.869	15.0594
433.076	13.54387
433.284	13.90208
433.492	14.46045
433.7	14.70454
433.908	13.92386
434.116	14.03221
434.323	14.18342
434.531	13.97431
434.739	14.34672
434.947	14.51416
435.154	14.54922
435.362	14.01556
435.57	13.9021
435.778	13.68835
435.985	14.27808
436.193	13.77274
436.401	14.85294
436.608	13.99227
436.816	13.7982
437.023	14.8597
437.231	15.12226
437.439	14.13182
437.646	14.38071
437.854	14.33045
438.061	14.65566
438.269	14.0494
438.476	14.50906
438.684	14.2913
438.891	14.24226
439.099	14.04496
439.306	13.82886
439.514	13.95623
439.721	15.02438
439.929	14.82489
440.136	15.8484
440.343	16.02151
440.551	15.93109
440.758	17.6062
440.965	16.16071
441.173	16.00448
441.38	15.85415
441.587	15.38632
441.795	15.11192
442.002	14.72264
442.209	14.65761
442.416	14.7365
442.624	14.68611
442.831	14.60312
443.038	14.09736
443.245	13.76863
443.452	14.25648
443.66	14.65365
443.867	14.14342
444.074	14.0634
444.281	14.16202
444.488	14.29371
444.695	14.47624
444.902	14.2924
445.109	15.56832
445.316	15.55784
445.523	16.24866
445.73	16.63921
445.937	17.79849
446.144	18.32767
446.351	18.91304
446.558	17.79821
446.765	19.87396
446.972	18.95036
447.179	18.523
447.386	19.06251
447.593	17.25556
447.8	18.05435
448.007	16.3619
448.214	15.55325
448.42	14.96534
448.627	15.08828
448.834	14.49645
449.041	14.43418
449.248	14.35258
449.454	14.79491
449.661	15.40578
449.868	14.23337
450.075	14.17047
450.281	13.31288
450.488	13.9357
450.695	13.98576
450.901	14.09204
451.108	14.17078
451.315	14.99444
451.521	14.34614
451.728	15.07541
451.935	14.02207
452.141	14.39258
452.348	14.42655
452.554	14.40815
452.761	14.25896
452.967	15.33943
453.174	14.61458
453.38	14.7633
453.587	13.90038
453.793	14.54291
454	15.02094
454.206	15.71573
454.413	15.03473
454.619	14.82698
454.825	14.12691
455.032	14.99712
455.238	14.9247
455.445	13.91315
455.651	14.58035
455.857	13.6576
456.064	14.29764
456.27	14.34386
456.476	14.32698
456.682	13.87649
456.889	14.63335
457.095	14.80711
457.301	15.87887
457.507	14.57085
457.714	14.5625
457.92	14.69249
458.126	14.17642
458.332	14.59608
458.538	14.43778
458.744	14.63235
458.951	14.60681
459.157	16.96904
459.363	16.49733
459.569	17.03401
459.775	17.82212
459.981	17.68986
460.187	18.25776
460.393	18.45305
460.599	18.42243
460.805	17.20941
461.011	16.16194
461.217	15.87033
461.423	15.46954
461.629	14.78887
461.835	15.08561
462.041	14.63718
462.247	15.70058
462.453	14.63959
462.658	14.69911
462.864	15.06031
463.07	14.78324
463.276	14.79716
463.482	14.65814
463.688	15.5122
463.893	14.38626
464.099	14.69038
464.305	15.52172
464.511	14.48219
464.716	14.71996
464.922	15.27664
465.128	14.29143
465.333	15.69677
465.539	15.14207
465.745	14.72833
465.95	14.67244
466.156	16.28136
466.362	15.36524
466.567	14.78161
466.773	14.44417
466.978	15.6635
467.184	14.16159
467.389	13.69995
467.595	14.91964
467.8	14.40597
468.006	15.50707
468.211	15.59299
468.417	14.18818
468.622	15.03238
468.828	15.22932
469.033	15.02328
469.239	16.38266
469.444	14.66656
469.649	15.2899
469.855	14.75764
470.06	14.77787
470.266	14.37245
470.471	15.17663
470.676	15.08884
470.881	13.85215
471.087	15.44842
471.292	16.35466
471.497	14.20307
471.703	14.82922
471.908	14.50544
472.113	14.90836
472.318	15.38535
472.523	14.28488
472.729	15.05449
472.934	15.12474
473.139	14.68173
473.344	15.04828
473.549	15.49614
473.754	14.42668
473.959	16.41553
474.164	14.33945
474.369	14.80539
474.575	15.27196
474.78	14.91702
474.985	14.47875
475.19	13.96103
475.395	14.57886
475.6	14.8336
475.804	15.72971
476.009	14.94885
476.214	14.85272
476.419	14.65473
476.624	14.09002
476.829	14.56985
477.034	15.38514
477.239	14.52952
477.444	15.29632
477.648	15.30452
477.853	15.21527
478.058	14.91291
478.263	14.55019
478.468	14.41738
478.672	14.54613
478.877	15.74948
479.082	15.79506
479.287	15.17911
479.491	14.91197
479.696	14.51144
479.901	15.24744
480.105	15.32268
480.31	14.63388
480.515	14.95908
480.719	16.19811
480.924	14.77215
481.128	14.37292
481.333	15.15665
481.538	15.17421
481.742	15.67414
481.947	17.09846
482.151	18.45974
482.356	19.87404
482.56	23.04313
482.765	25.62884
482.969	30.11323
483.174	33.99981
483.378	39.1355
483.582	41.32089
483.787	44.31635
483.991	45.78617
484.196	46.62955
484.4	46.15607
484.604	46.32251
484.809	42.99895
485.013	40.39531
485.217	36.90642
485.422	33.08339
485.626	30.04403
485.83	28.02338
486.034	26.77914
486.239	27.03064
486.443	27.51238
486.647	28.17148
486.851	29.56374
487.055	31.62156
487.26	32.14783
487.464	33.5813
487.668	33.55763
487.872	34.38191
488.076	34.5263
488.28	33.49941
488.484	31.75654
488.688	30.79133
488.892	29.11538
489.096	26.95987
489.3	24.96385
489.504	23.33446
489.708	22.00633
489.912	21.28631
490.116	20.62358
490.32	20.30872
490.524	21.72743
490.728	22.87858
490.932	24.22083
491.136	25.85599
491.34	27.35096
491.544	28.18523
491.748	28.47058
491.951	28.60453
492.155	28.12122
492.359	27.3383
492.563	25.42468
492.767	23.9558
492.97	21.62984
493.174	19.44307
493.378	17.68069
493.582	15.84221
493.785	14.99794
493.989	15.0752
494.193	15.02959
494.396	14.83638
494.6	15.33042
494.804	14.88851
495.007	14.52638
495.211	14.50203
495.414	14.72127
495.618	15.05082
495.822	15.40081
496.025	14.90818
496.229	15.26884
496.432	14.61615
496.636	14.99985
496.839	14.80994
497.043	15.69087
497.246	15.15776
497.45	14.83051
497.653	15.08153
497.856	15.05033
498.06	14.63453
498.263	14.85571
498.467	14.86236
498.67	15.28788
498.873	15.10573
499.077	14.81245
499.28	14.83315
499.483	14.92465
499.686	15.19838
499.89	14.93694
500.093	15.31327
500.296	14.48165
500.499	15.59876
500.703	14.78761
500.906	14.97116
501.109	15.59523
501.312	14.93272
501.515	14.67663
501.719	14.95048
501.922	15.38682
502.125	14.85102
502.328	14.71069
502.531	14.27706
502.734	14.6992
502.937	13.94291
503.14	14.89725
503.343	14.37944
503.546	14.58294
503.749	14.43994
503.952	15.09705
504.155	14.3905
504.358	14.90899
504.561	14.87854
504.764	14.06948
504.967	14.79714
505.17	14.66467
505.373	15.47958
505.576	14.83685
505.778	15.05583
505.981	14.20387
506.184	15.33586
506.387	13.90445
506.59	15.83658
506.793	15.27105
506.995	14.95494
507.198	13.76714
507.401	15.02976
507.604	14.97764
507.806	14.26942
508.009	14.40256
508.212	15.25474
508.414	14.49577
508.617	14.61447
508.82	14.83444
509.022	15.48988
509.225	14.85671
509.427	14.11574
509.63	15.44316
509.833	14.77626
510.035	14.50106
510.238	14.06017
510.44	15.43887
510.643	13.94978
510.845	15.66204
511.048	14.94887
511.25	14.54536
511.453	14.6947
511.655	14.88653
511.858	14.5016
512.06	15.28014
512.262	14.86225
512.465	15.13984
512.667	14.43502
512.869	14.18552
513.072	14.89362
513.274	14.90304
513.476	15.01451
513.679	15.15731
513.881	14.2685
514.083	15.44921
514.286	14.32154
514.488	14.35825
514.69	14.20283
514.892	13.9558
515.094	14.98843
515.297	14.24966
515.499	14.69975
515.701	14.21074
515.903	15.55632
516.105	15.55066
516.307	14.9981
516.509	13.76007
516.711	14.09289
516.913	14.57533
517.116	14.67403
517.318	14.41952
517.52	15.28524
517.722	15.04426
517.924	14.20032
518.126	15.0167
518.328	14.67583
518.529	15.53076
518.731	16.41391
518.933	14.89775
519.135	15.19684
519.337	15.76207
519.539	15.11536
519.741	13.96126
519.943	14.52707
520.145	14.50271
520.346	15.02993
520.548	14.41089
520.75	14.74204
520.952	14.46635
521.153	14.75667
521.355	14.77799
521.557	14.16271
521.759	14.58844
521.96	14.58409
522.162	14.06337
522.364	15.10051
522.565	14.29092
522.767	14.97022
522.969	15.04062
523.17	14.96453
523.372	14.76357
523.573	14.31246
523.775	14.47495
523.977	14.12522
524.178	15.52229
524.38	14.39901
524.581	14.92813
524.783	14.63963
524.984	14.98162
525.186	14.87457
525.387	15.58036
525.589	15.77528
525.79	16.05777
525.991	16.14889
526.193	16.88774
526.394	16.35864
526.596	17.39122
526.797	17.76873
526.998	17.56539
527.2	18.40677
527.401	20.85917
527.602	22.58263
527.803	25.82421
528.005	27.85425
528.206	30.17899
528.407	32.09248
528.608	32.66738
528.81	33.33081
529.011	32.9824
529.212	33.85068
529.413	32.15758
529.614	30.33
529.815	28.42197
530.017	26.13992
530.218	23.3082
530.419	20.9128
530.62	19.81747
530.821	18.64161
531.022	16.9587
531.223	17.46899
531.424	16.99721
531.625	17.0791
531.826	16.73044
532.027	17.50718
532.228	18.96771
532.429	19.46317
532.63	20.40018
532.831	21.76802
533.032	22.20706
533.233	23.19846
533.433	23.02965
533.634	23.36256
533.835	22.4604
534.036	21.72423
534.237	20.88327
534.438	19.60939
534.638	17.77715
534.839	16.85924
535.04	16.2412
535.241	15.27164
535.441	15.94532
535.642	15.68483
535.843	15.20108
536.043	15.62452
536.244	15.87129
536.445	16.47022
536.645	17.26659
536.846	16.91006
537.047	17.28704
537.247	16.20111
537.448	15.71323
537.648	15.33563
537.849	14.906
538.049	14.87647
538.25	15.13639
538.451	15.08786
538.651	14.32932
538.851	15.10542
539.052	15.45795
539.252	15.28472
539.453	14.86421
539.653	15.04161
539.854	14.96193
540.054	15.14533
540.254	17.4311
540.455	19.09998
540.655	19.89994
540.855	22.26774
541.056	23.9631
541.256	24.24084
541.456	25.57785
541.657	25.4198
541.857	26.05708
542.057	24.72799
542.257	23.84951
542.458	23.64731
542.658	22.72449
542.858	20.42871
543.058	19.81511
543.258	18.78827
543.458	17.03618
543.659	16.2209
543.859	16.42445
544.059	15.7986
544.259	15.14495
544.459	15.63651
544.659	14.92038
544.859	15.278
545.059	14.91121
545.259	15.53005
545.459	15.39443
545.659	15.66653
545.859	15.19538
546.059	15.36035
546.259	14.87371
546.459	14.61766
546.659	14.79787
546.859	15.65216
547.059	15.41411
547.258	15.54026
547.458	15.50903
547.658	14.79786
547.858	14.70571
548.058	15.32062
548.258	15.07248
548.457	14.70646
548.657	16.5409
548.857	15.12628
549.057	15.59229
549.256	15.44172
549.456	14.9408
549.656	13.90304
549.855	16.32651
550.055	14.85748
550.255	16.15843
550.454	15.46424
550.654	15.65761
550.853	16.172
551.053	15.84941
551.253	15.38792
551.452	15.61367
551.652	14.56568
551.851	14.40521
552.051	15.14844
552.25	14.99717
552.45	14.95507
552.649	15.09934
552.849	14.86504
553.048	15.37092
553.248	15.81457
553.447	14.76829
553.646	15.8362
553.846	16.96754
554.045	16.24865
554.244	14.6107
554.444	16.17752
554.643	14.91041
554.842	16.35197
555.042	16.54789
555.241	14.93984
555.44	14.63386
555.64	15.77284
555.839	16.47064
556.038	15.72069
556.237	14.98162
556.436	15.56828
556.636	15.69077
556.835	14.88215
557.034	16.46954
557.233	15.63678
557.432	14.54852
557.631	16.07107
557.83	15.33749
558.029	15.22507
558.228	15.0203
558.427	14.99254
558.626	15.76356
558.825	14.79374
559.024	15.35264
559.223	16.91814
559.422	15.39081
559.621	15.8097
559.82	13.99854
560.019	15.59432
560.218	15.30646
560.417	13.95334
560.616	15.28921
560.815	17.98095
561.014	14.54777
561.212	16.74155
561.411	15.79427
561.61	14.77843
561.809	15.56261
562.008	16.95504
562.206	15.54809
562.405	16.14021
562.604	15.49887
562.803	15.95213
563.001	15.73151
563.2	14.88355
563.399	16.07962
563.597	15.03619
563.796	15.77231
563.995	15.12357
564.193	16.36381
564.392	15.60105
564.59	17.37543
564.789	14.72338
564.988	15.63164
565.186	16.00435
565.385	15.97055
565.583	15.78731
565.782	16.06563
565.98	15.92927
566.179	15.96196
566.377	15.4618
566.575	15.62311
566.774	17.00779
566.972	16.65967
567.171	17.53366
567.369	17.08974
567.567	16.2991
567.766	16.28864
567.964	14.78855
568.162	16.6078
568.361	17.02843
568.559	15.9628
568.757	16.30074
568.956	16.17411
569.154	16.17775
569.352	16.55751
569.55	16.04604
569.748	16.36074
569.947	15.62127
570.145	15.39127
570.343	15.50337
570.541	17.2227
570.739	15.36514
570.937	16.38113
571.135	16.68583
571.333	17.89608
571.532	17.65203
571.73	16.59532
571.928	17.18309
572.126	16.87137
572.324	16.27645
572.522	17.27662
572.72	18.34149
572.918	16.43912
573.116	16.85405
573.313	16.21334
573.511	16.52059
573.709	16.21097
573.907	17.16521
574.105	16.28039
574.303	15.6121
574.501	15.4915
574.699	17.04922
574.896	16.75969
575.094	16.98233
575.292	15.73659
575.49	17.23061
575.688	16.46113
575.885	17.64556
576.083	18.34659
576.281	16.96898
576.478	16.00696
576.676	16.88713
576.874	15.51386
577.071	16.61458
577.269	18.33622
577.467	16.24772
577.664	16.45241
577.862	17.30624
578.059	15.96697
578.257	17.20267
578.455	16.30835
578.652	16.36129
578.85	14.9283
579.047	16.83124
579.245	16.10196
579.442	16.37257
579.64	16.16649
579.837	15.11422
580.034	18.44243
580.232	16.29329
580.429	15.532
580.627	16.88384
580.824	17.4408
581.021	17.19746
581.219	16.02537
581.416	15.90953
581.613	17.76786
581.811	17.43614
582.008	15.82682
582.205	17.39584
582.402	16.7111
582.6	17.95158
582.797	16.45943
582.994	16.9648
583.191	17.19543
583.388	16.48535
583.586	17.14396
583.783	17.55308
583.98	15.61671
584.177	16.69524
584.374	14.6325
584.571	16.47164
584.768	16.31472
584.965	16.37181
585.162	17.14147
585.359	18.00158
585.556	16.5652
585.753	16.71912
585.95	15.52973
586.147	15.73723
586.344	17.06157
586.541	16.26899
586.738	15.576
586.935	16.40043
587.132	16.11717
587.329	17.64791
587.526	16.59594
587.722	21.04975
587.919	15.61233
588.116	17.28145
588.313	17.91324
588.51	18.46062
588.706	16.62022
588.903	17.37172
589.1	17.65397
589.297	19.2263
589.493	16.88749
589.69	17.4165
589.887	16.36043
590.083	16.14239
590.28	16.4233
590.477	17.76388
590.673	17.40181
590.87	18.08706
591.067	16.48231
591.263	17.32442
591.46	17.28045
591.656	16.81764
591.853	18.25776
592.049	16.29709
592.246	16.35183
592.442	17.81552
592.639	18.00723
592.835	16.12592
593.032	17.1827
593.228	15.75984
593.425	15.68334
593.621	15.75128
593.817	17.38775
594.014	16.26198
594.21	17.22195
594.406	18.00481
594.603	17.5393
594.799	16.55875
594.995	15.33431
595.192	18.11574
595.388	16.83758
595.584	17.01895
595.78	16.10571
595.977	19.66318
596.173	18.73772
596.369	16.98844
596.565	16.61249
596.761	16.35095
596.957	18.43186
597.154	16.9009
597.35	17.02953
597.546	16.77665
597.742	17.93323
597.938	17.58583
598.134	16.73214
598.33	17.53291
598.526	18.46392
598.722	17.48649
598.918	18.81679
599.114	17.71813
599.31	16.08074
599.506	17.01237
599.702	16.33316
599.898	17.2439
600.094	17.84359
600.29	17.83974
600.485	18.26408
600.681	16.3938
600.877	18.69477
601.073	17.31996
601.269	19.06772
601.465	18.58135
601.66	16.38664
601.856	15.577
602.052	19.45612
602.248	17.11968
602.443	15.67519
602.639	16.54141
602.835	16.83772
603.03	16.52102
603.226	18.42335
603.422	16.85746
603.617	17.54305
603.813	17.50959
604.009	17.22402
604.204	18.64186
604.4	16.58117
604.595	18.67854
604.791	16.80887
604.986	17.97538
605.182	17.03615
605.377	17.35482
605.573	17.41411
605.768	17.59591
605.964	18.17877
606.159	18.11129
606.355	18.45327
606.55	17.23546
606.746	18.68322
606.941	17.20801
607.136	19.41411
607.332	20.11342
607.527	16.32418
607.722	17.69209
607.918	17.41122
608.113	16.80492
608.308	18.46231
608.503	18.22257
608.699	17.9714
608.894	18.26581
609.089	17.15822
609.284	18.12806
609.479	17.63358
609.675	18.42912
609.87	17.56475
610.065	18.43969
610.26	18.47145
610.455	18.35907
610.65	17.70025
610.845	17.99192
611.04	18.38039
611.235	17.54941
611.43	17.54764
611.625	16.65363
611.82	18.95188
612.015	16.83368
612.21	19.30703
612.405	16.12699
612.6	19.24547
612.795	19.18322
612.99	18.23266
613.185	16.41809
613.38	16.73937
613.575	17.62372
613.77	20.78757
613.965	16.00175
614.159	16.81074
614.354	18.67963
614.549	18.31774
614.744	17.98999
614.938	16.28137
615.133	16.14082
615.328	19.19714
615.523	18.75973
615.717	20.74419
615.912	17.00625
616.107	17.57329
616.301	16.97637
616.496	16.87754
616.691	19.30525
616.885	18.39101
617.08	21.22248
617.274	18.2687
617.469	19.7589
617.664	18.32093
617.858	17.04488
618.053	18.11849
618.247	17.43363
618.442	15.35804
618.636	19.34777
618.831	16.91015
619.025	16.90153
619.219	21.09085
619.414	14.29456
619.608	17.21374
619.803	17.16116
619.997	20.27277
620.191	18.81486
620.386	18.17074
620.58	17.33643
620.774	15.59262
620.969	15.94861
621.163	17.95497
621.357	16.31309
621.551	17.3783
621.746	17.90053
621.94	17.14105
622.134	21.40015
622.328	20.07265
622.522	15.8677
622.716	18.86258
622.911	19.0892
623.105	18.9752
623.299	18.32392
623.493	21.49375
623.687	16.80283
623.881	16.91161
624.075	18.72331
624.269	19.46977
624.463	15.59921
624.657	15.94364
624.851	18.59746
625.045	18.88317
625.239	18.97721
625.433	17.30087
625.627	20.1117
625.821	17.8113
626.015	17.11599
626.209	18.31073
626.403	16.33387
626.596	18.8476
626.79	19.18149
626.984	16.90622
627.178	18.82101
627.372	18.85196
627.565	19.23516
627.759	16.7761
627.953	17.07354
628.147	18.59281
628.34	18.93245
628.534	20.75448
628.728	17.49646
628.921	19.20801
629.115	18.8145
629.309	19.21926
629.502	19.35277
629.696	18.09817
629.89	17.96048
630.083	18.352
630.277	18.56534
630.47	20.14695
630.664	17.71296
630.857	16.21506
631.051	18.84988
631.244	19.19562
631.438	19.08765
631.631	17.12614
631.825	19.82914
632.018	18.85729
632.212	20.63658
632.405	19.4818
632.598	17.11027
632.792	18.1954
632.985	15.21051
633.178	17.77474
633.372	18.07086
633.565	17.74789
633.758	19.88601
633.952	17.02014
634.145	17.25801
634.338	17.52528
634.531	17.56184
634.724	17.38417
634.918	18.269
635.111	17.67722
635.304	17.48796
635.497	21.27114
635.69	18.70977
635.883	19.97013
636.077	17.03797
636.27	18.98748
636.463	18.51227
636.656	18.4276
636.849	18.10201
637.042	18.8552
637.235	20.71154
637.428	19.34809
637.621	18.85943
637.814	20.42294
638.007	20.24509
638.2	20.2766
638.393	20.87224
638.586	16.26385
638.778	17.66059
638.971	18.18912
639.164	20.28043
639.357	18.61473
639.55	20.69967
639.743	19.40267
639.935	19.06804
640.128	21.64926
640.321	19.50281
640.514	18.58041
640.707	21.98549
640.899	19.41762
641.092	15.86761
641.285	34.2461
641.477	15.12399
641.67	22.32405
641.863	20.3218
642.055	18.45975
642.248	18.2377
642.441	17.83602
642.633	19.70744
642.826	19.91297
643.018	20.5522
643.211	21.58116
643.403	21.45824
643.596	22.53003
643.788	21.12632
643.981	18.18558
644.173	19.85992
644.366	18.23335
644.558	15.75898
644.751	20.15737
644.943	16.66949
645.135	21.06014
645.328	21.04112
645.52	19.70632
645.712	20.74362
645.905	23.73098
646.097	17.09339
646.289	19.34605
646.482	22.64608
646.674	17.29786
646.866	21.12474
647.058	19.80132
647.251	17.20314
647.443	17.98799
647.635	18.56033
647.827	16.94142
648.019	17.3556
648.211	18.34503
648.404	18.84584
648.596	21.74437
648.788	19.24594
648.98	19.37414
649.172	19.55838
649.364	19.70996
649.556	16.41106
649.748	23.81262
649.94	17.93962
650.132	20.22782
650.324	17.56211
650.516	18.00096
650.708	21.20047
650.9	17.04736
651.092	16.52321
651.284	16.94843
651.476	17.40475
651.667	20.02541
651.859	21.70664
652.051	18.91285
652.243	19.40638
652.435	18.73457
652.627	20.3695
652.818	20.09831
653.01	16.80949
653.202	17.69294
653.394	18.44976
653.585	20.04569
653.777	27.03522
653.969	21.84742
654.16	21.33825
654.352	17.46211
654.544	19.07599
654.735	21.16476
654.927	19.48175
655.118	21.8525
655.31	20.565
655.502	21.62094
655.693	18.61067
655.885	20.09289
656.076	21.99508
656.268	20.02284
656.459	22.4139
656.651	21.8447
656.842	18.77379
657.034	18.39748
657.225	21.23733
657.416	22.37301
657.608	22.14749
657.799	19.9096
657.99	22.08946
658.182	18.86016
658.373	18.95378
658.564	22.12866
658.756	20.73572
658.947	19.90268
659.138	18.80865
659.33	19.54339
659.521	18.92216
659.712	20.00927
659.903	19.82968
660.094	19.09102
660.286	17.58727
660.477	23.06039
660.668	21.10208
660.859	19.723
661.05	17.7312
661.241	21.02064
661.432	20.68554
661.623	19.38544
661.814	18.96836
662.006	17.10631
662.197	20.33829
662.388	22.02459
662.579	20.12797
662.77	24.77962
662.96	25.06512
663.151	21.46084
663.342	16.53394
663.533	21.16033
663.724	20.21041
663.915	23.7918
664.106	20.20014
664.297	23.57533
664.488	21.17811
664.678	18.35634
664.869	21.94261
665.06	22.05866
665.251	20.45541
665.442	21.1959
665.632	18.24041
665.823	23.74581
666.014	14.50093
666.204	21.55572
666.395	23.09996
666.586	24.74567
666.776	21.84439
666.967	23.94728
667.158	20.27046
667.348	23.26083
667.539	18.37762
667.729	22.0228
667.92	19.08544
668.111	22.75635
668.301	21.8523
668.492	19.98837
668.682	20.63226
668.873	20.37365
669.063	18.16875
669.253	21.4448
669.444	23.66334
669.634	20.62357
669.825	24.56414
670.015	23.43634
670.206	19.41248
670.396	24.66595
670.586	20.17103
670.777	21.88658
670.967	16.78713
671.157	19.87809
671.347	19.41969
671.538	23.88211
671.728	21.96112
671.918	24.865
672.108	22.89281
672.299	20.13514
672.489	21.70667
672.679	19.2349
672.869	22.32301
673.059	25.79667
673.249	21.69757
673.44	18.66202
673.63	20.28588
673.82	23.05362
674.01	18.86231
674.2	22.00293
674.39	27.16213
674.58	22.44387
674.77	21.36922
674.96	20.62717
675.15	30.08948
675.34	24.00665
675.53	21.33872
675.72	20.1322
675.91	17.80782
676.099	25.81586
676.289	26.67725
676.479	23.82393
676.669	20.24062
676.859	22.50843
677.049	19.89606
677.238	21.10752
677.428	25.37015
677.618	21.67051
677.808	25.68866
677.997	22.82275
678.187	19.49481
678.377	21.53235
678.567	20.10597
678.756	20.8435
678.946	21.81807
679.136	18.89964
679.325	20.55522
679.515	19.95555
679.704	19.35147
679.894	23.91341
680.084	22.81605
680.273	24.70294
680.463	20.27134
680.652	20.2042
680.842	21.83213
681.031	24.07669
681.221	20.09162
681.41	23.24446
681.6	21.88728
681.789	23.52844
681.978	24.862
682.168	22.39588
682.357	21.97226
682.547	22.99392
682.736	22.38882
682.925	24.95548
683.115	24.71477
683.304	23.58747
683.493	22.29015
683.682	23.2407
683.872	22.88271
684.061	24.73992
684.25	23.45444
684.439	27.86104
684.629	24.14237
684.818	30.87926
685.007	21.99782
685.196	21.55741
685.385	26.9461
685.574	22.91999
685.763	23.4115
685.952	23.2881
686.142	19.69136
686.331	25.70073
686.52	19.15617
686.709	27.78011
686.898	27.14572
687.087	24.62996
687.276	27.16333
687.465	26.1141
687.654	22.27222
687.842	26.55646
688.031	19.77022
688.22	26.58278
688.409	23.36738
688.598	23.53924
688.787	29.82622
688.976	23.43982
689.165	28.58631
689.353	22.44936
689.542	24.45309
689.731	25.74321
689.92	29.23375
690.108	25.32365
690.297	22.21135
690.486	23.74481
690.675	25.88929
690.863	28.42506
691.052	27.99721
691.241	24.29827
691.429	24.60928
691.618	27.85394
691.806	20.49662
691.995	22.6523
692.184	23.55018
692.372	22.95302
692.561	24.3399
692.749	24.84871
692.938	33.36823
693.126	25.6994
693.315	23.06923
693.503	26.20738
693.692	27.16762
693.88	26.84797
694.068	29.84861
694.257	24.63704
694.445	26.25977
694.634	19.13672
694.822	26.53648
695.01	27.2873
695.199	30.30295
695.387	28.76886
695.575	28.17263
695.763	24.68979
695.952	23.0879
696.14	20.18142
696.328	23.05768
696.516	24.66224
696.705	25.73552
696.893	25.09417
697.081	20.18292
697.269	27.25466
697.457	21.73666
697.645	21.11388
697.833	26.84671
698.021	22.49595
698.21	23.18721
698.398	24.08524
698.586	21.6901
698.774	20.94393
698.962	24.22648
699.15	22.26394
699.338	20.53055
699.526	26.05182
699.714	22.62421
699.901	22.79308
700.089	26.77679
700.277	22.55538
700.465	24.17284
700.653	26.09806
700.841	24.92462
701.029	22.40554
701.217	28.6058
701.404	24.45168
701.592	29.40941
701.78	32.22572
701.968	23.96169
702.155	23.49592
702.343	21.18746
702.531	28.75591
702.718	26.13941
702.906	23.25956
703.094	23.31411
703.281	29.5515
703.469	25.26818
703.657	28.88976
703.844	35.73466
704.032	32.47815
704.219	24.05288
704.407	26.94877
704.595	30.51963
704.782	26.87305
704.97	25.63535
705.157	25.15722
705.345	32.82174
705.532	38.52517
705.719	29.53694
705.907	33.14507
706.094	29.13898
706.282	36.04835
706.469	29.18988
706.656	30.06485
706.844	28.85293
707.031	34.11369
707.218	31.92426
707.406	36.40702
707.593	33.57312
707.78	33.10736
707.968	31.43214
708.155	29.13721
708.342	33.47168
708.529	34.10182
708.716	32.90717
708.904	37.70134
709.091	33.84468
709.278	28.29289
709.465	39.62969
709.652	37.02333
709.839	35.73809
710.026	31.73736
710.213	25.61982
710.4	31.65614
710.587	33.16671
710.774	33.89745
710.961	34.83721
711.148	30.817
711.335	34.26867
711.522	30.4974
711.709	32.90007
711.896	38.74457
712.083	34.39113
712.27	28.18095
712.457	32.41051
712.644	26.08962
712.831	39.08135
713.017	31.86175
713.204	34.33933
713.391	29.14135
713.578	34.35042
713.765	36.2486
713.951	32.30686
714.138	42.22269
714.325	31.70622
714.512	29.46809
714.698	26.78689
714.885	35.04104
715.072	29.69617
715.258	29.89003
715.445	27.1988
715.631	33.18043
715.818	19.6788
716.005	26.47499
716.191	31.39634
716.378	26.86788
716.564	31.9016
716.751	25.53159
716.937	27.25312
717.124	32.6258
717.31	25.46082
717.497	36.68586
717.683	25.96194
717.869	37.49033
718.056	27.00636
718.242	30.66883
718.429	27.89777
718.615	24.0121
718.801	28.86959
718.988	33.97864
719.174	31.01073
719.36	27.18226
719.547	34.53252
719.733	29.91741
719.919	29.70905
720.105	31.37266
720.291	28.90685
720.478	30.26283
720.664	28.71132
720.85	26.9233
721.036	41.4668
721.222	36.21369
721.408	29.34293
721.595	37.56069
721.781	36.06186
721.967	33.46432
722.153	36.44997
722.339	32.39435
722.525	31.40663
722.711	25.46785
722.897	24.17811
723.083	27.30968
723.269	34.52526
723.455	43.11144
723.641	48.48913
723.827	29.77359
724.012	32.14501
724.198	29.27011
724.384	36.5637
724.57	31.83564
724.756	23.67941
724.942	22.03998
725.127	35.4852
725.313	36.41099
725.499	36.35901
725.685	39.51422
725.87	31.60356
726.056	25.87785
726.242	36.39007
726.428	22.61431
726.613	35.27996
726.799	29.07759
726.985	25.50452
727.17	23.34521
727.356	39.96658
727.541	26.04651
727.727	29.81962
727.913	33.52123
728.098	28.07648
728.284	33.26526
728.469	25.78541
728.655	27.30141
728.84	35.52613
729.026	34.52443
729.211	33.97477
729.397	32.83693
729.582	34.45167
729.767	30.94833
729.953	32.15079
730.138	36.71057
730.323	20.55201
730.509	26.04088
730.694	39.08129
730.879	33.89735
731.065	31.69881
731.25	42.84748
731.435	34.4971
731.621	24.57558
731.806	28.50079
731.991	31.71437
732.176	24.45016
732.361	38.3777
732.547	31.94053
732.732	24.54273
732.917	42.61208
733.102	25.24315
733.287	28.43794
733.472	31.28763
733.657	30.90974
733.842	24.49047
734.027	28.68192
734.212	30.50614
734.397	27.67326
734.582	31.19442
734.767	35.55708
734.952	38.2358
735.137	20.32623
735.322	38.3165
735.507	33.8688
735.692	32.84326
735.877	42.07026
736.062	41.19997
736.247	33.92818
736.431	29.91989
736.616	36.77145
736.801	33.38431
736.986	31.26535
737.171	27.09179
737.355	26.61058
737.54	38.70163
737.725	31.25048
737.909	46.78241
738.094	28.89557
738.279	35.71117
738.463	30.45633
738.648	34.99907
738.833	33.66851
739.017	43.44932
739.202	30.4363
739.386	30.4141
739.571	26.96445
739.756	36.49097
739.94	32.30927
740.125	34.84994
740.309	28.54066
740.494	35.80789
740.678	32.82758
740.863	33.87725
741.047	32.03819
741.231	40.85874
741.416	28.74931
741.6	39.94509
741.785	28.03475
741.969	36.72833
742.153	40.55359
742.338	22.02505
742.522	33.03672
742.706	37.0093
742.89	26.74028
743.075	32.10343
743.259	39.23505
743.443	40.24151
743.627	39.69343
743.812	46.01258
743.996	23.60895
744.18	30.46426
744.364	30.51665
744.548	46.52179
744.732	31.10227
744.916	38.4798
745.1	37.04732
745.285	31.14976
745.469	35.98751
745.653	43.2296
745.837	26.19983
746.021	47.79042
746.205	39.82695
746.389	33.55265
746.573	32.26902
746.757	42.18173
746.94	31.47604
747.124	40.09562
747.308	27.1351
747.492	40.55591
747.676	27.38034
747.86	49.20148
748.044	30.0724
748.227	23.88816
748.411	57.81974
748.595	33.68087
748.779	29.12531
748.963	36.3675
749.146	34.18771
749.33	28.93838
749.514	28.75022
749.697	40.93989
749.881	28.07605
750.065	28.11148
750.248	34.88329
750.432	48.18941
750.616	33.81534
750.799	27.92515
750.983	48.85155
751.166	49.2613
751.35	25.12809
751.533	41.16413
751.717	44.21635
751.9	43.38694
752.084	31.2408
752.267	29.338
752.451	29.61344
752.634	34.01805
752.818	38.23662
753.001	39.64897
753.184	40.94016
753.368	37.68581
753.551	15.59808
753.734	29.34586
753.918	48.9308
754.101	29.23072
754.284	39.75473
754.467	30.96113
754.651	30.33144
754.834	28.63204
755.017	41.16198
755.2	42.23636
755.384	28.06385
755.567	38.67287
755.75	40.20967
755.933	32.80507
756.116	39.21578
756.299	29.45266
756.482	28.51728
756.665	37.6728
756.848	33.67237
757.032	36.5606
757.215	25.59218
757.398	29.20565
757.581	28.92753
757.764	53.58812
757.947	33.82444
758.129	39.95577
758.312	18.27881
758.495	33.50715
758.678	33.44784
758.861	32.74454
759.044	47.34768
759.227	27.26372
759.41	28.73154
759.592	39.08689
759.775	32.41805
759.958	39.46413
760.141	27.90386
760.324	51.53061
760.506	44.59366
760.689	40.42393
760.872	49.59726
761.054	36.79223
761.237	33.69892
761.42	36.24015
761.602	40.19369
761.785	37.3354
761.968	42.91368
762.15	47.35243
762.333	33.25468
762.515	38.27136
762.698	32.10174
762.88	40.92021
763.063	37.05418
763.245	42.45859
763.428	28.77605
763.61	31.27804
763.793	26.08068
763.975	36.86107
764.158	31.87122
764.34	30.63414
764.522	28.56679
764.705	33.25364
764.887	43.89313
765.069	24.46234
765.252	38.28123
765.434	39.09938
765.616	34.81128
765.799	30.39793
765.981	39.36212
766.163	29.85811
766.345	44.40885
766.528	29.91161
766.71	21.11434
766.892	36.64389
767.074	44.61126
767.256	33.00744
767.438	47.3287
767.62	36.97215
767.802	52.17164
767.985	40.1669
768.167	49.47604
768.349	31.97921
768.531	39.84421
768.713	38.49229
768.895	40.34344
769.077	38.58518
769.259	55.97638
769.441	74.28968
769.623	41.18033
769.804	47.28253
769.986	45.87068
770.168	52.95519
770.35	65.01565
770.532	50.55002
770.714	55.38693
770.896	53.06542
771.077	30.24648
771.259	56.59757
771.441	50.0046
771.623	57.55024
771.804	71.7845
771.986	30.11276
772.168	40.88371
772.35	55.54261
772.531	72.68725
772.713	48.39363
772.894	61.22185
773.076	45.10766
773.258	41.93593
773.439	63.43244
773.621	69.66161
773.802	36.21823
773.984	40.48141
774.166	51.18566
774.347	64.82039
774.529	59.55871
774.71	28.80818
774.891	45.20162
775.073	43.21191
775.254	60.4787
775.436	41.27201
775.617	76.40786
775.799	43.18307
775.98	61.76278
776.161	69.17392
776.343	71.54582
776.524	46.81817
776.705	44.86606
776.886	30.43914
777.068	51.54306
777.249	98.71103
777.43	72.42891
777.611	34.48865
777.793	44.31787
777.974	69.44946
778.155	41.13581
778.336	37.19868
778.517	81.76113
778.698	40.14537
778.879	28.04803
779.061	19.56345
779.242	54.7228
779.423	53.56047
779.604	42.27708
779.785	45.55861
779.966	51.55494
780.147	61.54438
780.328	62.36932
780.509	81.46406
780.69	59.7718
780.871	40.46622
781.051	33.19738
781.232	49.41411
781.413	49.90274
781.594	45.56581
781.775	42.63192
781.956	41.4846
782.137	25.60204
782.317	42.08115
782.498	49.71654
782.679	48.17891
782.86	52.8901
783.04	42.72392
783.221	50.78337
783.402	73.81562
783.583	50.28943
783.763	60.06855
783.944	42.47604
784.124	32.68025
784.305	71.23377
784.486	57.76507
784.666	47.46282
784.847	31.15304
785.027	92.89036
785.208	41.29582
785.388	42.26267
785.569	41.46262
785.749	46.61897
785.93	43.11205
786.11	31.25505
786.291	56.15233
786.471	51.5065
786.652	59.57658
786.832	45.58257
787.012	49.98911
787.193	35.24698
787.373	49.93768
787.553	40.81251
787.734	51.31572
787.914	43.57399
788.094	61.73477
788.275	51.81385
788.455	44.30654
788.635	34.3381
788.815	51.53507
788.995	36.73526
789.176	30.6026
789.356	38.9593
789.536	45.74729
789.716	54.28413
789.896	38.89898
790.076	41.41918
790.256	50.89654
790.436	24.89916
790.616	36.65717
790.796	51.13726
790.976	43.91772
791.156	39.38092
791.336	55.15317
791.516	53.53242
791.696	43.61221
791.876	32.14414
792.056	49.82965
792.236	61.40105
792.416	57.6535
792.596	52.61393
792.776	54.08098
792.956	56.01194
793.135	71.05404
793.315	38.58015
793.495	62.15871
793.675	58.82482
793.854	58.31685
794.034	61.25084
794.214	35.60407
794.394	58.31307
794.573	64.82805
794.753	50.03196
794.933	39.14573
795.112	51.23417
795.292	60.01857
795.472	72.17684
795.651	32.92067
795.831	47.74421
796.01	44.24238
796.19	45.0726
796.369	48.61707
796.549	54.30296
796.728	46.56858
796.908	33.13158
797.087	35.58378
797.267	44.48979
797.446	33.65856
797.626	52.88882
797.805	53.83389
797.984	39.4072
798.164	58.936
798.343	37.79198
798.522	49.5745
798.702	50.40618
798.881	34.96838
799.06	45.22495
799.239	28.39575
799.419	38.29618
799.598	72.30156
799.777	53.26914
799.956	63.82123
800.136	44.26385
800.315	38.21607
800.494	51.29374
800.673	62.27062
800.852	57.27036
801.031	61.68682
801.21	54.90561
801.389	44.81303
801.568	51.2401
801.747	74.43659
801.926	50.40827
802.105	68.3461
802.284	43.58221
802.463	70.20161
802.642	52.7406
802.821	52.05071
803	68.47834
803.179	59.9841
803.358	64.08167
803.537	41.22708
803.716	48.1063
803.895	40.57783
804.073	46.00126
804.252	38.41701
804.431	54.81069
804.61	48.58171
804.789	59.62426
804.967	43.20828
805.146	42.9152
805.325	78.79411
805.503	54.40427
805.682	32.84156
805.861	93.08232
806.039	67.92385
806.218	43.82983
806.397	51.76539
806.575	48.25321
806.754	54.03782
806.932	37.78023
807.111	62.81811
807.289	63.0761
807.468	50.9388
807.646	62.00739
807.825	56.73714
808.003	53.77572
808.182	63.18507
808.36	50.7089
808.539	39.46698
808.717	70.48679
808.895	41.37628
809.074	53.86762
809.252	50.93893
809.43	58.91694
809.609	67.57765
809.787	77.97093
809.965	45.90457
810.144	51.277
810.322	48.73027
810.5	55.87319
810.678	47.47552
810.856	81.85789
811.035	63.51894
811.213	59.43407
811.391	70.93891
811.569	53.27826
811.747	103.15066
811.925	67.1331
812.103	43.54914
812.281	50.52937
812.459	75.41498
812.637	78.99072
812.816	63.07323
812.994	84.58334
813.171	71.53879
813.349	57.70419
813.527	65.86188
813.705	72.29907
813.883	88.73266
814.061	65.15619
814.239	78.23736
814.417	84.67355
814.595	60.04932
814.773	57.88239
814.95	56.68033
815.128	60.94831
815.306	54.87554
815.484	50.80207
815.662	41.1651
815.839	38.33447
816.017	47.55575
816.195	70.91829
816.372	45.13066
816.55	62.66235
816.728	76.9165
816.905	50.24879
817.083	76.51073
817.261	51.46406
817.438	98.16695
817.616	79.11041
817.793	45.38567
817.971	66.17171
818.148	62.26521
818.326	72.7006
818.503	57.98034
818.681	78.62694
818.858	48.85297
819.036	52.97676
819.213	57.91985
819.391	45.69527
819.568	44.07342
819.745	40.28012
819.923	64.18868
820.1	48.86238
820.277	41.87256
820.455	48.12388
820.632	50.89472
820.809	53.55272
820.986	38.01133
821.164	33.18708
821.341	31.72846
821.518	42.15257
821.695	33.16707
821.872	31.58894
822.05	28.69228
822.227	25.46639
822.404	26.53063
822.581	28.73501
822.758	26.35748
822.935	26.4118
823.112	28.3357
823.289	25.69658
823.466	28.79709
823.643	27.88533
823.82	31.21544
823.997	29.31781
824.174	32.56653
824.351	39.53343
824.528	37.78455
824.705	35.69154
824.882	38.57808
825.059	45.82287
825.236	36.53055
825.412	38.13781
825.589	42.24616
825.766	55.21694
825.943	37.95915
826.12	43.35802
826.296	35.18395
826.473	39.37398
826.65	39.85769
826.827	44.84396
827.003	33.45012
827.18	36.61369
827.357	39.72751
827.533	35.44792
827.71	25.72563
827.887	32.75621
828.063	35.52331
828.24	31.25584
828.416	38.33412
828.593	33.85609
828.769	43.82541
828.946	44.06765
829.122	46.11886
829.299	45.35756
829.475	33.08017
829.652	44.82947
829.828	65.12937
830.005	46.16832
830.181	58.37128
830.357	46.8296
830.534	62.93647
830.71	49.95679
830.886	60.54546
831.063	59.25514
831.239	72.14771
831.415	40.68398
831.592	73.36823
831.768	49.66563
831.944	43.46884
832.12	77.92534
832.296	73.14055
832.473	62.27
832.649	46.82546
832.825	63.59605
833.001	41.0369
833.177	55.6399
833.353	51.0349
833.529	33.83096
833.705	48.20555
833.881	34.73682
834.058	34.31897
834.234	36.31524
834.41	36.3841
834.586	30.67649
834.761	35.48447
834.937	38.02983
835.113	38.87191
835.289	34.32475
835.465	39.39346
835.641	36.49717
835.817	39.66994
835.993	60.43665
836.169	37.70183
836.344	50.33057
836.52	56.15508
836.696	52.31995
836.872	45.36546
837.048	103.0745
837.223	48.85757
837.399	81.49164
837.575	65.29286
837.75	64.64712
837.926	80.62255
838.102	117.39877
838.277	101.36656
838.453	129.72962
838.628	129.74824
838.804	60.77099
838.98	114.30884
839.155	66.64228
839.331	86.9355
839.506	61.70316
839.682	65.84858
839.857	85.25038
840.033	95.24892
840.208	50.41494
840.384	33.03809
840.559	51.84311
840.734	71.32545
840.91	90.69899
841.085	59.49988
841.26	59.02152
841.436	54.56057
841.611	55.91319
841.786	79.55009
841.962	98.992
842.137	67.37759
842.312	44.81548
842.487	61.83481
842.663	52.47995
842.838	59.26967
843.013	169.82707
843.188	88.57801
843.363	92.81596
843.538	139.52877
843.714	141.6457
843.889	147.98814
844.064	160.4058
844.239	132.38591
844.414	150.45529
844.589	101.82795
844.764	178.91218
844.939	177.51618
845.114	188.76481
845.289	180.39428
845.464	245.47482
845.639	168.5128
845.814	91.15885
845.989	106.36889
846.163	126.64738
846.338	135.82733
846.513	175.62029
846.688	120.93648
846.863	124.70026
847.038	110.17715
847.212	136.07503
847.387	130.88729
847.562	138.28869
847.737	167.09252
847.911	77.06424
848.086	83.31264
848.261	277.96644
848.435	117.05396
848.61	171.36542
848.785	94.01762
848.959	180.33772
849.134	235.61296
849.308	243.61236
849.483	135.51013
849.658	203.87353
849.832	114.86175
850.007	99.02851
850.181	272.87805
850.356	104.17435
850.53	252.72548
850.705	89.11826
850.879	57.38519
851.053	128.55391
851.228	116.54352
851.402	145.00212
851.577	191.28903
851.751	207.34457
851.925	141.91009
852.099	75.19609
852.274	102.03651
852.448	129.91413
852.622	146.70444
852.797	137.72882
852.971	128.05874
853.145	136.57365
853.319	363.01791
853.493	200.81788
853.668	120.8268
853.842	235.92265
854.016	194.39905
854.19	225.26345
854.364	144.51271
854.538	146.03787
854.712	197.62817
854.886	134.52395
855.06	124.49038
855.234	51.71877
855.408	218.91476
855.582	187.63224
855.756	185.71931
855.93	236.23799
856.104	167.06998
856.278	189.99214
856.452	145.04681
856.626	186.14967
856.8	278.86824
856.973	171.18072
857.147	155.89872
857.321	157.35551
857.495	198.24172
857.669	132.02237
857.842	121.05263
858.016	197.03082
858.19	105.92555
858.364	305.23171
858.537	120.43197
858.711	145.39809
858.885	125.8392
859.058	118.4697
859.232	79.15583
859.405	84.22806
859.579	177.87051
859.753	156.27814
859.926	102.53852
860.1	77.70679
860.273	143.09312
860.447	220.92606
860.62	124.38512
860.794	264.34653
860.967	157.63878
861.141	203.30027
861.314	281.7502
861.487	179.73977
861.661	222.76722
861.834	216.53555
862.008	202.68149
862.181	147.59598
862.354	151.28871
862.528	162.61872
862.701	118.92055
862.874	81.89978
863.047	128.51087
863.221	125.63701
863.394	72.86828
863.567	223.37415
863.74	59.45239
863.913	182.33286
864.087	166.60093
864.26	189.28696
864.433	135.2445
864.606	248.13293
864.779	142.76272
864.952	77.59542
865.125	111.6323
865.298	132.41585
865.471	149.07914
865.644	277.11827
865.817	230.52727
865.99	185.349
866.163	209.9329
866.336	127.43974
866.509	142.32172
866.682	131.54354
866.855	212.86959
867.028	98.76238
867.2	175.4876
867.373	65.21758
867.546	153.36774
867.719	281.85181
867.892	180.03082
868.064	110.32313
868.237	169.15105
868.41	147.60733
868.583	88.65789
868.755	93.52147
868.928	143.79773
869.101	288.65444
869.273	212.91886
869.446	183.47929
869.619	214.07234
869.791	134.46592
869.964	208.4132
870.136	193.40495
870.309	149.37956
870.481	158.40253
870.654	78.41739
870.826	153.77873
870.999	119.63939
871.171	196.14633
871.344	121.24291
871.516	129.42505
871.689	104.75389
871.861	145.12618
872.033	104.82213
872.206	131.25764
872.378	203.32609
872.55	132.30978
872.723	88.76425
872.895	139.71255
873.067	206.2863
873.24	229.28872
873.412	121.1743
873.584	131.04756
873.756	127.80122
873.928	168.34351
874.101	168.02898
874.273	185.9619
874.445	66.31189
874.617	91.25669
874.789	156.96163
874.961	134.76372
875.133	174.76034
875.305	146.42639
875.477	96.61798
875.649	86.23399
875.821	108.90441
875.993	245.71259
876.165	97.32653
876.337	164.75687
876.509	135.83012
876.681	163.88387
876.853	157.53955
877.025	159.12316
877.197	110.28279
877.369	101.68853
877.541	197.90915
877.712	66.26352
877.884	94.43322
878.056	181.85084
878.228	104.15973
878.4	169.76511
878.571	103.05165
878.743	75.16648
878.915	158.46734
879.086	98.62115
879.258	120.12953
879.43	108.62819
879.601	95.74299
879.773	100.34802
879.945	33.01384
880.116	51.44003
880.288	34.92514
880.459	37.24931
880.631	31.14125
880.802	35.27379
880.974	33.62005
881.145	26.95517
881.317	32.72733
881.488	27.26097
881.66	29.72112
881.831	27.11455
882.002	35.04227
882.174	28.31893
882.345	33.44087
882.517	24.2709
882.688	37.45596
882.859	34.88968
883.03	48.25803
883.202	46.81304
883.373	42.74198
883.544	42.74322
883.715	65.23286
883.887	55.82745
884.058	50.32722
884.229	68.61032
884.4	69.5547
884.571	75.26014
884.742	69.40833
884.914	73.75473
885.085	98.11603
885.256	118.5849
885.427	101.09247
885.598	114.53837
885.769	122.85699
885.94	117.63227
886.111	84.93369
886.282	138.19616
886.453	114.98424
886.624	85.52396
886.795	132.11962
886.966	111.72306
887.136	143.85228
887.307	94.93054
887.478	174.46541
887.649	152.55751
887.82	158.85183
887.991	130.18346
888.161	174.02572
888.332	172.94657
888.503	91.85921
888.674	218.30135
888.844	233.18235
889.015	187.1158
889.186	91.79264
889.356	225.64926
889.527	94.29844
889.698	362.79869
889.868	132.46195
890.039	156.06841
890.209	143.86893
890.38	191.01108
890.551	162.41515
890.721	228.50321
890.892	189.63138
891.062	139.9324
891.233	167.22754
891.403	132.55939
891.574	106.31893
891.744	141.28527
891.914	188.86998
892.085	150.42632
892.255	60.1972
892.425	234.40501
892.596	186.96347
892.766	168.8785
892.936	223.51338
893.107	196.32995
893.277	114.15154
893.447	89.95219
893.618	67.12311
893.788	126.83487
893.958	75.72565
894.128	76.66244
894.298	81.78547
894.468	112.83427
894.639	54.75721
894.809	43.79046
894.979	61.75076
895.149	68.55507
895.319	56.51432
895.489	80.27795
895.659	95.44769
895.829	66.2977
895.999	71.54193
896.169	55.60306
896.339	65.83849
896.509	126.12835
896.679	146.68497
896.849	135.98899
897.019	194.17963
897.189	150.18256
897.358	128.062
897.528	188.84216
897.698	79.72461
897.868	183.64306
898.038	291.94109
898.208	277.85576
898.377	110.58002
898.547	285.12966
898.717	438.79293
898.886	186.65391
899.056	276.40939
899.226	410.29033
899.395	253.5894
899.565	322.39146
899.735	218.26902
899.904	353.63898
900.074	286.21676
900.244	138.07343
900.413	529.60834
900.583	121.46731
900.752	211.34482
900.922	320.29618
901.091	45.25592
901.261	298.55513
901.43	259.01978
901.599	271.75012
901.769	585.61338
901.938	311.0459
902.108	291.06119
902.277	379.71776
902.446	120.26831
902.616	141.91814
902.785	185.20032
902.954	292.71387
903.124	205.64174
903.293	169.4146
903.462	97.74203
903.631	127.58681
903.801	96.65403
903.97	57.23457
904.139	89.16753
904.308	67.71617
904.477	57.8825
904.646	36.97226
904.816	55.95716
904.985	76.97649
905.154	112.05751
