Data from WindowProjectSample_Transmission__33__00033__07857850917917442.txt Node

Date: Mon May 05 17:40:51 EDT 2025
User: jessi
Spectrometer: SR400872
Trigger mode: 0
Integration Time (sec): 5.000010E-1
Scans to average: 20
Electric dark correction enabled: true
Nonlinearity correction enabled: true
Boxcar width: 0
XAxis mode: Wavelengths
Number of Pixels in Spectrum: 3648
>>>>>Begin Spectral Data<<<<<
184.909	20946.70032
185.132	-5241.43047
185.355	-3103.49992
185.578	-18023.51054
185.801	2130.92709
186.024	10544.37095
186.247	-2129.21029
186.47	1122.0148
186.693	501.91321
186.916	357.90946
187.139	-3788.20761
187.362	3307.91991
187.585	4073.45445
187.808	3679.15498
188.031	-55.70381
188.254	-52901.02489
188.476	-600.93316
188.699	6047.71781
188.922	627.24952
189.145	-15686.07319
189.368	-540.39311
189.591	-1331.38592
189.813	2972.60928
190.036	-51100.37914
190.259	-824.43623
190.482	-4889.75396
190.705	7123.77147
190.927	-2519.7451
191.15	13386.86899
191.373	3510.41445
191.595	-8811.92089
191.818	-4159.35301
192.041	-5125.64314
192.263	-3323.97698
192.486	-1017.50102
192.709	-3940.48827
192.931	7981.04408
193.154	-29003.73818
193.377	-2896.15767
193.599	-2521.23082
193.822	-8574.6134
194.044	-2146.64299
194.267	1220.89181
194.489	276.47491
194.712	-41753.64274
194.934	-31968.07535
195.157	1204.57339
195.379	1536.28368
195.602	-6639.98186
195.824	-1369.99504
196.047	-9234.37299
196.269	2685.46987
196.492	-6370.68824
196.714	29032.53908
196.936	-8722.29864
197.159	-1172.79279
197.381	1237.47303
197.604	551.73205
197.826	12175.16336
198.048	-11045.17419
198.271	-2800.34965
198.493	7577.76388
198.715	2376.47888
198.938	-411.92443
199.16	7339.27374
199.382	-103994.0366
199.604	2621.4025
199.827	-1113.78497
200.049	-2903.94784
200.271	13983.11172
200.493	1251.72214
200.715	-37866.71702
200.938	-6096.7261
201.16	-4329.56143
201.382	20031.37366
201.604	2284.76431
201.826	2338.03661
202.048	-1985.74878
202.27	-1912.90628
202.492	-38613.17728
202.715	2879.16155
202.937	-4520.47034
203.159	-6191.2492
203.381	1523.18755
203.603	6767.56289
203.825	6571.93222
204.047	2208.79768
204.269	-2918.39974
204.491	2105.23986
204.713	6179.42128
204.935	-474946.75592
205.156	1247.94243
205.378	-2937.08088
205.6	1688.08655
205.822	155398.02603
206.044	-1047.82246
206.266	1625.24949
206.488	4587.81808
206.71	-5410.28841
206.932	1121.98877
207.153	12633.84481
207.375	-7063.72378
207.597	-38968.97123
207.819	-2876.90738
208.041	2417.33432
208.262	449.0082
208.484	717.02182
208.706	-837.12678
208.927	-779.8631
209.149	526.15026
209.371	-2866.06603
209.593	-332.87439
209.814	-868.55282
210.036	566.78016
210.258	-673.74792
210.479	1846.20377
210.701	1706.50069
210.922	3470.15005
211.144	-3824.62835
211.366	2066.79312
211.587	7325.35744
211.809	-8224.45087
212.03	2372.17017
212.252	425.75226
212.473	2180.03123
212.695	-5810.13737
212.916	3033.57982
213.138	-639.93628
213.359	3722.54852
213.581	5119.2153
213.802	-788.57113
214.024	1126.59536
214.245	2101.60641
214.466	3440.31664
214.688	-3182.19221
214.909	-1230.79153
215.131	-1758.49529
215.352	-3109.1809
215.573	15147.59334
215.795	5241.72606
216.016	5392.47821
216.237	843.32054
216.459	3762.48337
216.68	1815.85974
216.901	5057.86384
217.122	-3311.46494
217.344	-11799.35749
217.565	3473.63547
217.786	9079.86045
218.007	16025.11133
218.228	-716.13408
218.45	5941.00346
218.671	822.0767
218.892	38947.09594
219.113	1631.88031
219.334	-354.66595
219.555	9189.59649
219.776	3129.83056
219.997	22922.04317
220.219	2875.27503
220.44	-12115.0689
220.661	457.17035
220.882	1506.56321
221.103	-993.4242
221.324	2403.63488
221.545	2298.55778
221.766	-8724.42505
221.987	961.32025
222.208	1588.57568
222.429	4308.81331
222.65	368.41721
222.87	19330.70393
223.091	739.10236
223.312	580.2116
223.533	1269.21889
223.754	1521.17953
223.975	1402.31833
224.196	2047.86587
224.417	1389.31805
224.637	629.00209
224.858	46.32512
225.079	1083.69988
225.3	645.87842
225.521	3764.50543
225.741	446.70922
225.962	521.77266
226.183	156.83108
226.404	667.3735
226.624	428.6314
226.845	611.92163
227.066	407.61317
227.286	263.01012
227.507	135.01353
227.728	119.65769
227.948	241.8162
228.169	70.80734
228.389	86.62016
228.61	46.24724
228.831	63.08689
229.051	1.15482
229.272	38.10699
229.492	57.82942
229.713	13.87037
229.933	36.38977
230.154	31.15208
230.374	53.28521
230.595	39.11614
230.815	23.54502
231.036	40.2706
231.256	-11.85792
231.477	70.8008
231.697	38.57918
231.917	39.29802
232.138	58.58598
232.358	112.86731
232.579	105.62863
232.799	18.13344
233.019	99.27154
233.24	114.20757
233.46	41.17349
233.68	63.51686
233.901	34.02641
234.121	28.47549
234.341	12.82748
234.561	0.89366
234.782	21.33403
235.002	70.65394
235.222	-5.87017
235.442	66.43328
235.662	31.59246
235.883	63.16383
236.103	50.22606
236.323	37.62333
236.543	28.3251
236.763	40.04478
236.983	44.43444
237.203	43.24007
237.423	57.39965
237.643	85.52401
237.864	77.20869
238.084	18.52328
238.304	26.05212
238.524	45.53567
238.744	38.55058
238.964	73.55512
239.184	62.54634
239.404	65.57687
239.624	33.11623
239.843	60.01712
240.063	36.68877
240.283	23.86203
240.503	24.96684
240.723	25.15673
240.943	14.64714
241.163	19.5689
241.383	15.35102
241.603	7.42921
241.822	10.22393
242.042	6.67494
242.262	8.27369
242.482	9.60126
242.702	10.81842
242.921	2.6423
243.141	6.56414
243.361	6.46294
243.581	9.60501
243.8	7.54501
244.02	4.96198
244.24	9.20695
244.459	9.47284
244.679	17.77592
244.899	11.65519
245.118	13.08217
245.338	12.74615
245.558	14.17693
245.777	8.44651
245.997	10.27105
246.216	10.46394
246.436	6.24343
246.655	4.73174
246.875	3.26915
247.094	6.35583
247.314	2.21319
247.533	3.4937
247.753	4.31476
247.972	3.45261
248.192	1.1924
248.411	1.64002
248.631	3.60658
248.85	4.58494
249.07	4.03837
249.289	5.86045
249.508	4.79787
249.728	7.28339
249.947	7.05054
250.166	9.25454
250.386	3.87859
250.605	6.50011
250.824	11.10813
251.044	6.83885
251.263	28.21085
251.482	14.85639
251.701	11.64789
251.921	-0.35766
252.14	3.53334
252.359	4.02133
252.578	10.48702
252.798	3.36926
253.017	8.87114
253.236	4.30886
253.455	5.59946
253.674	10.22562
253.893	5.29715
254.112	7.87756
254.331	11.91158
254.551	8.21281
254.77	2.72633
254.989	13.87447
255.208	9.68748
255.427	14.94148
255.646	12.2149
255.865	21.59893
256.084	8.74861
256.303	10.79552
256.522	13.91807
256.741	3.28108
256.96	3.04025
257.179	8.37668
257.397	11.01282
257.616	5.87804
257.835	5.88086
258.054	15.07583
258.273	10.79914
258.492	11.70337
258.711	6.81725
258.93	3.3332
259.148	4.75976
259.367	4.74323
259.586	5.59228
259.805	2.52542
260.023	5.29042
260.242	3.87058
260.461	2.90864
260.68	1.37716
260.898	4.50598
261.117	1.36498
261.336	0.90841
261.554	3.46144
261.773	3.25647
261.992	0.67408
262.21	3.15221
262.429	3.55967
262.648	7.35102
262.866	8.36632
263.085	5.89247
263.303	4.87078
263.522	8.56567
263.74	8.76486
263.959	15.45177
264.178	7.47952
264.396	6.36254
264.615	4.5189
264.833	11.03141
265.051	8.63706
265.27	10.58286
265.488	11.04459
265.707	6.28836
265.925	10.99212
266.144	4.93676
266.362	5.80603
266.58	5.21352
266.799	5.18639
267.017	5.98541
267.235	4.99885
267.454	3.24421
267.672	1.83333
267.89	4.07408
268.109	4.25528
268.327	4.45197
268.545	0.9363
268.763	3.91747
268.982	1.4901
269.2	4.38636
269.418	2.89972
269.636	1.77205
269.854	4.82378
270.073	3.14478
270.291	1.8416
270.509	1.73127
270.727	4.21319
270.945	7.12989
271.163	7.22946
271.381	1.30037
271.599	3.27289
271.817	5.2801
272.036	1.79957
272.254	3.10951
272.472	2.47302
272.69	2.4466
272.908	2.37469
273.126	4.42213
273.344	5.3576
273.562	1.81667
273.779	2.59111
273.997	4.0601
274.215	4.25452
274.433	2.90882
274.651	4.51498
274.869	4.72944
275.087	3.06059
275.305	4.0045
275.523	2.56136
275.74	2.8282
275.958	5.50807
276.176	8.33686
276.394	2.35097
276.612	3.16605
276.829	3.27352
277.047	2.76259
277.265	2.91533
277.483	3.5972
277.7	4.3462
277.918	3.45807
278.136	6.23966
278.353	2.87412
278.571	1.52765
278.789	4.4014
279.006	0.75695
279.224	3.05682
279.442	5.19126
279.659	3.69504
279.877	2.36454
280.094	5.85338
280.312	1.08115
280.529	3.37807
280.747	1.12194
280.964	2.71477
281.182	6.26665
281.399	2.50477
281.617	3.76148
281.834	2.51092
282.052	1.80782
282.269	3.10867
282.487	2.47274
282.704	2.0805
282.921	2.14819
283.139	3.36276
283.356	4.10041
283.574	3.80451
283.791	1.88886
284.008	5.76605
284.226	3.01494
284.443	3.34179
284.66	4.64624
284.877	3.49526
285.095	2.06131
285.312	1.50322
285.529	0.93422
285.746	0.72772
285.964	2.07258
286.181	1.35172
286.398	1.98004
286.615	2.63202
286.832	2.6988
287.05	0.51053
287.267	1.91331
287.484	1.77633
287.701	2.57488
287.918	2.64393
288.135	2.65013
288.352	1.33044
288.569	1.30703
288.786	2.52551
289.003	2.09141
289.22	3.08502
289.437	1.70495
289.654	2.92499
289.871	3.17072
290.088	3.0348
290.305	2.38916
290.522	1.69334
290.739	2.01308
290.956	3.1768
291.173	3.4787
291.39	3.35849
291.607	2.48722
291.824	1.64883
292.04	1.36599
292.257	2.94014
292.474	3.3018
292.691	1.92265
292.908	1.07024
293.125	1.71217
293.341	1.13526
293.558	5.15696
293.775	2.15035
293.992	2.18074
294.208	1.00052
294.425	1.58707
294.642	2.1561
294.858	3.02992
295.075	1.03098
295.292	2.302
295.508	2.9032
295.725	4.70655
295.942	2.53891
296.158	2.17456
296.375	3.09094
296.591	2.62508
296.808	3.01944
297.024	3.49442
297.241	3.70055
297.458	4.09132
297.674	2.03147
297.891	3.6841
298.107	3.70327
298.323	3.13572
298.54	5.37897
298.756	3.64348
298.973	2.91845
299.189	5.6841
299.406	3.96196
299.622	5.40716
299.838	5.57269
300.055	5.28272
300.271	3.74335
300.487	4.03043
300.704	4.51084
300.92	3.94513
301.136	7.68613
301.353	5.80513
301.569	5.31594
301.785	5.74831
302.001	6.16647
302.218	5.71763
302.434	6.14943
302.65	4.6147
302.866	5.32744
303.083	7.92819
303.299	7.92401
303.515	6.04423
303.731	6.64603
303.947	4.94049
304.163	5.69189
304.379	6.40384
304.595	6.65132
304.812	5.64486
305.028	5.67078
305.244	6.11106
305.46	6.96942
305.676	7.32746
305.892	7.71534
306.108	7.16818
306.324	6.27478
306.54	8.30748
306.756	7.08663
306.972	6.88756
307.187	6.67005
307.403	7.86679
307.619	6.39066
307.835	7.7667
308.051	8.3059
308.267	5.92967
308.483	8.14891
308.699	7.54725
308.914	7.08086
309.13	7.04064
309.346	6.22914
309.562	6.42329
309.778	6.27188
309.993	7.80982
310.209	7.85824
310.425	6.46456
310.641	7.79612
310.856	6.84897
311.072	6.8784
311.288	7.49242
311.503	8.22134
311.719	6.46259
311.935	6.43463
312.15	8.40747
312.366	8.2694
312.581	8.35634
312.797	7.97179
313.013	8.71314
313.228	7.40896
313.444	7.46215
313.659	7.133
313.875	8.06565
314.09	7.60319
314.306	8.9793
314.521	8.55576
314.737	8.34484
314.952	7.80368
315.168	7.93293
315.383	8.18637
315.599	7.44094
315.814	7.68093
316.029	8.36275
316.245	7.13063
316.46	6.14271
316.675	8.81561
316.891	9.23344
317.106	10.52595
317.321	8.08272
317.537	8.69908
317.752	8.58498
317.967	8.71846
318.183	7.10994
318.398	7.50868
318.613	8.78593
318.828	9.22643
319.043	8.56663
319.259	7.73145
319.474	8.04086
319.689	9.22318
319.904	6.36436
320.119	8.9133
320.334	8.22432
320.549	7.86647
320.765	9.01667
320.98	8.43218
321.195	8.386
321.41	8.11572
321.625	8.78989
321.84	9.53158
322.055	9.5577
322.27	7.46587
322.485	7.10078
322.7	8.62964
322.915	8.89929
323.13	7.75078
323.345	9.80174
323.56	8.99414
323.775	9.03137
323.989	8.84914
324.204	8.72755
324.419	9.75865
324.634	7.59177
324.849	8.62239
325.064	11.74997
325.279	9.76156
325.493	9.05035
325.708	9.32076
325.923	8.07019
326.138	8.58363
326.352	10.10482
326.567	9.61664
326.782	8.24086
326.997	8.40094
327.211	9.3047
327.426	8.96551
327.641	8.56063
327.855	7.62919
328.07	9.21865
328.285	10.65874
328.499	8.14766
328.714	8.83177
328.928	9.07694
329.143	8.54814
329.358	9.58266
329.572	9.68008
329.787	10.15785
330.001	10.96081
330.216	7.66141
330.43	10.76649
330.645	10.01009
330.859	9.536
331.074	8.02582
331.288	8.9638
331.503	10.46354
331.717	7.81562
331.931	8.96937
332.146	9.3092
332.36	10.78271
332.575	9.30238
332.789	9.22734
333.003	9.51169
333.218	9.62645
333.432	8.73354
333.646	10.03791
333.86	10.85736
334.075	10.43552
334.289	8.75517
334.503	7.89941
334.717	9.68872
334.932	9.17395
335.146	9.93249
335.36	8.35176
335.574	9.89699
335.788	9.5299
336.003	10.05453
336.217	10.07096
336.431	9.72222
336.645	8.9296
336.859	8.54588
337.073	9.44914
337.287	9.74401
337.501	8.28724
337.715	10.1605
337.929	10.09677
338.143	8.66603
338.357	9.48281
338.571	9.25225
338.785	10.39769
338.999	9.26797
339.213	9.22138
339.427	8.75507
339.641	10.84761
339.855	9.25257
340.069	9.00422
340.283	10.47104
340.497	11.21173
340.711	10.18056
340.924	9.65459
341.138	8.9669
341.352	8.53222
341.566	9.9165
341.78	8.51228
341.993	9.43059
342.207	9.11217
342.421	10.18198
342.635	9.56238
342.848	9.58292
343.062	7.77247
343.276	9.40679
343.49	11.40385
343.703	9.24252
343.917	10.90563
344.131	10.9727
344.344	9.22913
344.558	9.71699
344.771	8.78628
344.985	11.3586
345.199	11.52186
345.412	10.56029
345.626	10.50389
345.839	8.86603
346.053	9.16493
346.266	9.39481
346.48	10.60404
346.693	10.66532
346.907	10.16202
347.12	9.14879
347.334	10.26845
347.547	10.32935
347.76	9.93764
347.974	10.89822
348.187	10.19757
348.401	9.74501
348.614	9.03805
348.827	9.76192
349.041	10.33789
349.254	8.74527
349.467	9.65352
349.681	9.42807
349.894	9.39398
350.107	11.22664
350.32	11.92376
350.534	8.97111
350.747	9.87036
350.96	9.45219
351.173	9.65182
351.386	10.03278
351.6	9.67958
351.813	9.89647
352.026	9.85557
352.239	9.43815
352.452	9.79531
352.665	11.28654
352.878	10.08492
353.092	11.8809
353.305	10.9264
353.518	10.47854
353.731	9.46201
353.944	11.21974
354.157	10.10921
354.37	10.1032
354.583	9.48458
354.796	9.51609
355.009	11.06635
355.222	10.7974
355.435	10.64305
355.647	11.44068
355.86	9.99553
356.073	10.90498
356.286	10.239
356.499	11.42963
356.712	11.30525
356.925	11.27918
357.138	11.41379
357.35	10.34618
357.563	10.52846
357.776	11.07486
357.989	10.90274
358.201	11.52971
358.414	11.19466
358.627	12.07574
358.84	10.90487
359.052	10.04404
359.265	10.51563
359.478	11.81023
359.69	9.18738
359.903	11.74374
360.116	11.99151
360.328	10.03181
360.541	11.7416
360.753	10.61489
360.966	10.9426
361.179	11.2184
361.391	11.01671
361.604	10.90178
361.816	11.22864
362.029	11.26553
362.241	10.91791
362.454	11.33457
362.666	10.84663
362.879	11.93467
363.091	11.18389
363.304	11.12464
363.516	11.12887
363.728	10.76598
363.941	11.70036
364.153	11.57701
364.366	9.94997
364.578	10.55622
364.79	11.38756
365.003	11.39709
365.215	10.80089
365.427	11.83278
365.639	11.96977
365.852	11.3865
366.064	12.81259
366.276	11.11206
366.488	11.47873
366.701	10.96864
366.913	11.05658
367.125	11.16514
367.337	10.56961
367.549	10.8834
367.762	11.25999
367.974	11.23241
368.186	11.00236
368.398	11.85408
368.61	11.58337
368.822	11.8653
369.034	10.79473
369.246	11.84256
369.458	13.61607
369.67	10.70713
369.882	12.47801
370.094	9.93894
370.306	12.29522
370.518	11.03358
370.73	10.96054
370.942	11.05262
371.154	11.40048
371.366	11.20307
371.578	11.73342
371.79	11.3972
372.002	12.29514
372.214	13.22703
372.425	11.43438
372.637	12.73771
372.849	11.87867
373.061	10.17288
373.273	11.68332
373.484	11.75562
373.696	12.08762
373.908	9.99394
374.12	12.33935
374.331	11.92424
374.543	10.8624
374.755	10.85954
374.967	11.47334
375.178	12.29796
375.39	11.2048
375.602	11.64072
375.813	10.46921
376.025	11.0766
376.236	11.77169
376.448	12.0288
376.66	11.54951
376.871	11.62065
377.083	12.71378
377.294	13.16859
377.506	11.55482
377.717	12.85282
377.929	12.02267
378.14	11.69763
378.352	12.10666
378.563	12.42581
378.775	12.86051
378.986	11.35961
379.197	11.98843
379.409	11.29842
379.62	12.25613
379.832	12.12661
380.043	11.60628
380.254	12.07937
380.466	11.08049
380.677	13.88731
380.888	13.06692
381.1	13.81625
381.311	13.77377
381.522	12.26335
381.733	13.80099
381.945	11.95909
382.156	11.67954
382.367	11.75052
382.578	13.78525
382.789	13.96449
383.001	11.44753
383.212	13.20225
383.423	13.1881
383.634	12.87264
383.845	12.60759
384.056	11.98747
384.267	12.14277
384.478	12.2222
384.69	11.57086
384.901	12.63221
385.112	12.34135
385.323	13.52002
385.534	12.48092
385.745	12.46101
385.956	12.47533
386.167	11.7738
386.378	12.51349
386.588	11.8388
386.799	11.71145
387.01	11.39246
387.221	12.89831
387.432	12.32911
387.643	13.49939
387.854	12.18549
388.065	12.13562
388.275	12.26665
388.486	12.00166
388.697	12.38471
388.908	11.9902
389.119	13.08007
389.329	13.30731
389.54	12.43915
389.751	12.55443
389.962	13.33035
390.172	12.49918
390.383	12.37479
390.594	12.0486
390.804	12.13812
391.015	12.12801
391.226	12.75275
391.436	12.89968
391.647	12.89969
391.858	13.05818
392.068	11.68161
392.279	12.00325
392.489	13.01503
392.7	13.4575
392.91	12.37208
393.121	12.22091
393.331	13.0954
393.542	13.45751
393.752	13.25405
393.963	12.92776
394.173	13.02157
394.384	13.07001
394.594	12.91173
394.804	12.05851
395.015	12.9719
395.225	13.27378
395.436	12.32917
395.646	13.04869
395.856	12.71064
396.067	11.96685
396.277	13.27414
396.487	12.88714
396.697	12.9252
396.908	13.05
397.118	13.07167
397.328	12.8356
397.538	13.46629
397.749	12.29432
397.959	13.27757
398.169	12.99345
398.379	11.97407
398.589	13.11829
398.8	13.05917
399.01	12.90059
399.22	12.69746
399.43	14.19038
399.64	12.94992
399.85	13.20919
400.06	12.90274
400.27	12.41566
400.48	12.75825
400.69	13.6919
400.9	12.5608
401.11	12.26046
401.32	13.21911
401.53	12.59887
401.74	13.90188
401.95	13.24112
402.16	12.58734
402.37	13.15947
402.58	12.62135
402.79	13.2658
403	13.68607
403.209	12.56278
403.419	13.72124
403.629	12.50505
403.839	13.64276
404.049	13.52719
404.258	12.92496
404.468	12.64856
404.678	13.48532
404.888	13.93072
405.097	12.9661
405.307	13.09551
405.517	13.81822
405.727	13.6109
405.936	13.01708
406.146	13.37108
406.356	14.06893
406.565	13.0772
406.775	13.01639
406.984	13.04915
407.194	14.40619
407.404	13.17895
407.613	13.627
407.823	13.67469
408.032	13.88337
408.242	13.76762
408.451	12.93524
408.661	12.9572
408.87	14.2652
409.08	12.69597
409.289	13.36793
409.499	13.23911
409.708	13.25624
409.918	12.06079
410.127	13.46224
410.336	14.30874
410.546	13.87599
410.755	13.14229
410.964	13.28768
411.174	12.87162
411.383	13.80135
411.592	13.62129
411.802	12.88935
412.011	13.74058
412.22	13.26217
412.429	14.51999
412.639	14.38237
412.848	14.05574
413.057	14.34842
413.266	14.05536
413.475	13.4896
413.685	13.80862
413.894	14.19343
414.103	14.12315
414.312	14.04625
414.521	13.46682
414.73	13.57814
414.939	14.8671
415.148	14.03682
415.357	13.84988
415.566	13.57142
415.776	13.49307
415.985	13.57478
416.194	14.3616
416.403	14.95854
416.611	13.16045
416.82	13.75753
417.029	14.02897
417.238	13.71075
417.447	13.59637
417.656	13.91927
417.865	13.6578
418.074	13.91861
418.283	14.24302
418.492	14.74424
418.7	14.63954
418.909	15.77916
419.118	14.86261
419.327	15.39609
419.536	15.29204
419.744	15.55661
419.953	16.90427
420.162	17.34201
420.371	17.00943
420.579	17.84144
420.788	18.7186
420.997	18.76441
421.205	19.55599
421.414	19.15546
421.623	19.45465
421.831	19.09733
422.04	19.57595
422.249	18.62368
422.457	18.74782
422.666	17.74346
422.874	18.55916
423.083	18.59962
423.291	18.50767
423.5	18.65866
423.708	19.04228
423.917	19.69491
424.125	19.20488
424.334	19.29882
424.542	20.81815
424.751	20.50152
424.959	20.02454
425.167	19.90577
425.376	19.84285
425.584	18.21668
425.793	17.92238
426.001	16.85863
426.209	16.68563
426.418	15.37781
426.626	14.9298
426.834	14.71504
427.042	15.05372
427.251	14.71426
427.459	15.4971
427.667	15.06036
427.875	14.37627
428.084	14.69347
428.292	15.62774
428.5	15.16458
428.708	14.27645
428.916	14.25536
429.124	14.91895
429.333	14.61871
429.541	14.7828
429.749	15.05251
429.957	14.93046
430.165	16.47806
430.373	14.19427
430.581	15.04329
430.789	15.84572
430.997	14.93371
431.205	14.62031
431.413	15.15563
431.621	14.88267
431.829	15.37151
432.037	14.90813
432.245	15.08741
432.453	15.44825
432.661	15.08722
432.869	16.24985
433.076	14.91584
433.284	15.22528
433.492	15.68069
433.7	15.943
433.908	15.22854
434.116	15.49823
434.323	15.49006
434.531	15.32636
434.739	15.76082
434.947	16.03794
435.154	15.85111
435.362	15.40796
435.57	15.39102
435.778	15.1225
435.985	15.54448
436.193	15.13369
436.401	16.11194
436.608	15.35633
436.816	15.16889
437.023	16.28943
437.231	16.31519
437.439	15.62372
437.646	15.78367
437.854	15.64045
438.061	15.87116
438.269	15.36934
438.476	15.91782
438.684	15.60114
438.891	15.50154
439.099	15.32776
439.306	15.12942
439.514	15.17871
439.721	16.38353
439.929	16.19966
440.136	17.26746
440.343	17.39578
440.551	17.50881
440.758	19.14901
440.965	17.6443
441.173	17.50156
441.38	17.49117
441.587	16.90082
441.795	16.70364
442.002	16.1708
442.209	16.10982
442.416	16.20862
442.624	16.2531
442.831	16.08103
443.038	15.55469
443.245	15.24204
443.452	15.68304
443.66	16.09639
443.867	15.4948
444.074	15.42954
444.281	15.53371
444.488	15.74903
444.695	15.83016
444.902	15.62701
445.109	16.93402
445.316	17.07812
445.523	17.77486
445.73	18.22641
445.937	19.31009
446.144	19.9948
446.351	20.71956
446.558	19.54683
446.765	21.76134
446.972	20.90191
447.179	20.51811
447.386	20.91507
447.593	19.09057
447.8	19.89521
448.007	18.09265
448.214	17.34109
448.42	16.57619
448.627	16.64599
448.834	16.10011
449.041	16.04588
449.248	15.93996
449.454	16.48172
449.661	16.95121
449.868	15.87358
450.075	15.85751
450.281	15.09391
450.488	15.54436
450.695	15.52225
450.901	15.66239
451.108	15.6746
451.315	16.56205
451.521	15.80717
451.728	16.52685
451.935	15.57875
452.141	15.94075
452.348	15.91813
452.554	15.9641
452.761	15.78949
452.967	17.0009
453.174	16.18924
453.38	16.32627
453.587	15.58388
453.793	16.27515
454	16.53543
454.206	17.25303
454.413	16.68377
454.619	16.45987
454.825	15.85836
455.032	16.51933
455.238	16.56272
455.445	15.63721
455.651	16.19025
455.857	15.25945
456.064	16.10129
456.27	15.96059
456.476	15.94525
456.682	15.62635
456.889	16.41906
457.095	16.40877
457.301	17.42399
457.507	16.0824
457.714	16.14209
457.92	16.16572
458.126	15.74509
458.332	16.20736
458.538	15.94034
458.744	16.14602
458.951	16.10195
459.157	18.4719
459.363	18.24101
459.569	18.92041
459.775	19.66981
459.981	19.81645
460.187	20.41204
460.393	20.46844
460.599	20.54846
460.805	19.56835
461.011	18.25404
461.217	17.68184
461.423	17.33383
461.629	16.66747
461.835	16.95219
462.041	16.5126
462.247	17.40662
462.453	16.44466
462.658	16.51585
462.864	16.8628
463.07	16.65313
463.276	16.61629
463.482	16.47132
463.688	17.1617
463.893	16.19586
464.099	16.37608
464.305	17.26195
464.511	16.30376
464.716	16.4636
464.922	17.0558
465.128	16.00757
465.333	17.36093
465.539	16.89815
465.745	16.52923
465.95	16.51259
466.156	17.99291
466.362	17.23931
466.567	16.44208
466.773	16.16319
466.978	17.43012
467.184	16.11601
467.389	15.67868
467.595	16.76145
467.8	16.33976
468.006	17.44541
468.211	17.32979
468.417	15.97103
468.622	16.98036
468.828	17.11661
469.033	16.9446
469.239	18.09887
469.444	16.52192
469.649	17.17241
469.855	16.55705
470.06	16.79386
470.266	16.20357
470.471	17.07765
470.676	17.01564
470.881	15.80776
471.087	17.62788
471.292	18.215
471.497	16.22841
471.703	16.70617
471.908	16.44388
472.113	16.80225
472.318	17.272
472.523	16.29664
472.729	17.00655
472.934	17.24689
473.139	16.52314
473.344	16.98764
473.549	17.47381
473.754	16.49008
473.959	18.2813
474.164	16.42358
474.369	16.60403
474.575	17.26386
474.78	16.80558
474.985	16.50213
475.19	15.79983
475.395	16.40776
475.6	16.86624
475.804	17.68971
476.009	16.72088
476.214	16.81561
476.419	16.70307
476.624	16.10869
476.829	16.48488
477.034	17.26279
477.239	16.59811
477.444	17.28692
477.648	17.23739
477.853	17.24108
478.058	16.87232
478.263	16.47788
478.468	16.44692
478.672	16.56622
478.877	17.76597
479.082	17.71487
479.287	17.1895
479.491	16.92747
479.696	16.57226
479.901	17.32451
480.105	17.45742
480.31	16.65152
480.515	17.00123
480.719	18.06083
480.924	16.77635
481.128	16.43963
481.333	17.22078
481.538	17.16457
481.742	17.81648
481.947	19.23521
482.151	20.84289
482.356	22.35128
482.56	25.68097
482.765	28.62706
482.969	33.6539
483.174	38.08818
483.378	43.85017
483.582	46.39771
483.787	49.8675
483.991	51.96094
484.196	52.88155
484.4	52.4903
484.604	52.94836
484.809	49.34482
485.013	46.5662
485.217	42.56369
485.422	38.24588
485.626	34.57764
485.83	32.10544
486.034	30.58314
486.239	30.64711
486.443	31.26673
486.647	31.96106
486.851	33.53717
487.055	35.87582
487.26	36.57081
487.464	38.30369
487.668	38.3837
487.872	39.65004
488.076	39.65157
488.28	38.64529
488.484	36.61953
488.688	35.54133
488.892	33.63256
489.096	31.26662
489.3	29.06994
489.504	27.06324
489.708	25.33455
489.912	24.47516
490.116	23.63585
490.32	23.3371
490.524	24.85223
490.728	26.0649
490.932	27.79332
491.136	29.55863
491.34	31.3193
491.544	32.30972
491.748	32.85699
491.951	33.01722
492.155	32.61074
492.359	31.76539
492.563	29.68332
492.767	28.0327
492.97	25.42623
493.174	22.89776
493.378	20.82408
493.582	18.60857
493.785	17.63222
493.989	17.63684
494.193	17.46764
494.396	17.27093
494.6	17.79109
494.804	17.36939
495.007	17.08171
495.211	17.07629
495.414	17.20333
495.618	17.44113
495.822	18.01416
496.025	17.28874
496.229	17.75564
496.432	17.0694
496.636	17.52132
496.839	17.47242
497.043	18.13965
497.246	17.71189
497.45	17.4784
497.653	17.6117
497.856	17.65283
498.06	17.24381
498.263	17.52319
498.467	17.43859
498.67	17.96399
498.873	17.77109
499.077	17.43422
499.28	17.48468
499.483	17.65469
499.686	17.92407
499.89	17.69948
500.093	17.90558
500.296	17.24115
500.499	18.31121
500.703	17.50955
500.906	17.72502
501.109	18.21882
501.312	17.60198
501.515	17.44856
501.719	17.82654
501.922	18.1059
502.125	17.61288
502.328	17.4586
502.531	17.02037
502.734	17.48665
502.937	16.75081
503.14	17.64389
503.343	17.18426
503.546	17.40542
503.749	17.19693
503.952	17.91634
504.155	17.16014
504.358	17.73052
504.561	17.60951
504.764	16.99428
504.967	17.69303
505.17	17.50894
505.373	18.3975
505.576	17.62109
505.778	18.03728
505.981	17.11798
506.184	18.22203
506.387	16.74061
506.59	18.51293
506.793	18.05913
506.995	17.78737
507.198	16.63624
507.401	17.88575
507.604	17.81541
507.806	17.14664
508.009	17.24377
508.212	18.02244
508.414	17.27064
508.617	17.45981
508.82	17.7348
509.022	18.42223
509.225	17.79895
509.427	17.03567
509.63	18.37345
509.833	17.90687
510.035	17.49678
510.238	17.05479
510.44	18.37226
510.643	16.95134
510.845	18.59979
511.048	17.94686
511.25	17.45564
511.453	17.67375
511.655	17.88173
511.858	17.55031
512.06	18.17565
512.262	17.84492
512.465	18.18207
512.667	17.5404
512.869	17.20804
513.072	18.02491
513.274	18.25031
513.476	18.03395
513.679	18.1726
513.881	17.34838
514.083	18.56758
514.286	17.40889
514.488	17.43903
514.69	17.27428
514.892	16.96515
515.094	18.09477
515.297	17.41583
515.499	17.81633
515.701	17.30948
515.903	18.43117
516.105	18.53044
516.307	18.04563
516.509	16.78128
516.711	17.06898
516.913	17.70863
517.116	17.74275
517.318	17.44848
517.52	18.18423
517.722	17.97797
517.924	17.07025
518.126	17.88246
518.328	17.70544
518.529	18.54584
518.731	19.52704
518.933	18.05724
519.135	18.29679
519.337	18.92109
519.539	18.22666
519.741	17.30873
519.943	17.79967
520.145	17.83983
520.346	18.28418
520.548	17.66191
520.75	18.00896
520.952	17.7778
521.153	18.02977
521.355	18.0319
521.557	17.41044
521.759	17.87724
521.96	17.822
522.162	17.18396
522.364	18.33479
522.565	17.49553
522.767	18.07491
522.969	18.253
523.17	17.94625
523.372	18.03304
523.573	17.49276
523.775	17.67211
523.977	17.42991
524.178	18.75476
524.38	17.41191
524.581	17.93622
524.783	17.61882
524.984	17.96725
525.186	17.88875
525.387	18.81618
525.589	19.09345
525.79	19.51456
525.991	19.74077
526.193	20.47449
526.394	20.06591
526.596	21.07826
526.797	21.4901
526.998	21.28451
527.2	22.3835
527.401	24.965
527.602	27.04037
527.803	30.71805
528.005	33.45323
528.206	36.32612
528.407	38.43709
528.608	39.4957
528.81	40.3918
529.011	40.22209
529.212	41.25431
529.413	39.40475
529.614	37.20075
529.815	34.84561
530.017	32.05041
530.218	28.65096
530.419	25.72339
530.62	24.20509
530.821	22.83574
531.022	20.88404
531.223	21.18814
531.424	20.57224
531.625	20.58611
531.826	20.30711
532.027	21.05592
532.228	22.73451
532.429	23.48733
532.63	24.56386
532.831	26.22099
533.032	26.8941
533.233	28.12496
533.433	27.78087
533.634	28.24425
533.835	27.50231
534.036	26.58438
534.237	25.59121
534.438	24.06225
534.638	22.01338
534.839	20.70214
535.04	19.75636
535.241	18.68217
535.441	19.30224
535.642	18.8172
535.843	18.48975
536.043	18.94698
536.244	19.26336
536.445	19.90804
536.645	20.682
536.846	20.45347
537.047	20.70558
537.247	19.68139
537.448	19.18382
537.648	18.60192
537.849	18.14678
538.049	18.05241
538.25	18.44437
538.451	18.23606
538.651	17.66137
538.851	18.31146
539.052	18.61209
539.252	18.31693
539.453	17.80247
539.653	18.04131
539.854	17.78871
540.054	18.02801
540.254	20.52321
540.455	22.53145
540.655	23.6907
540.855	26.39455
541.056	28.30346
541.256	28.92099
541.456	30.26325
541.657	30.49204
541.857	31.13835
542.057	29.87315
542.257	28.96216
542.458	28.5461
542.658	27.20345
542.858	24.6708
543.058	23.84126
543.258	22.54098
543.458	20.50856
543.659	19.70007
543.859	19.80228
544.059	19.07785
544.259	18.28784
544.459	18.77366
544.659	18.03769
544.859	18.31529
545.059	17.9737
545.259	18.40068
545.459	18.23864
545.659	18.59317
545.859	18.05556
546.059	18.38425
546.259	17.71609
546.459	17.61781
546.659	17.74061
546.859	18.58675
547.059	18.38978
547.258	18.38801
547.458	18.47124
547.658	17.83236
547.858	17.75139
548.058	18.35207
548.258	18.06872
548.457	17.82196
548.657	19.6024
548.857	18.09365
549.057	18.61307
549.256	18.43892
549.456	17.85043
549.656	16.97773
549.855	19.2413
550.055	17.76067
550.255	19.13806
550.454	18.11401
550.654	18.41746
550.853	18.936
551.053	18.41679
551.253	18.02496
551.452	18.46968
551.652	17.39682
551.851	17.05609
552.051	17.77859
552.25	17.81023
552.45	17.62639
552.649	17.89292
552.849	17.62142
553.048	18.18379
553.248	18.52151
553.447	17.43301
553.646	18.55664
553.846	19.58165
554.045	18.95181
554.244	17.23713
554.444	18.85856
554.643	17.6587
554.842	19.11123
555.042	19.26372
555.241	17.68381
555.44	17.43265
555.64	18.3361
555.839	18.95623
556.038	18.20229
556.237	17.51561
556.436	18.24882
556.636	18.25711
556.835	17.67286
557.034	19.00638
557.233	17.8786
557.432	16.90817
557.631	18.67956
557.83	17.92872
558.029	17.65525
558.228	17.50562
558.427	17.41138
558.626	18.2391
558.825	17.28986
559.024	17.89669
559.223	19.18814
559.422	17.85603
559.621	18.15183
559.82	16.29974
560.019	17.92302
560.218	17.54169
560.417	16.3986
560.616	17.6433
560.815	20.16501
561.014	16.98451
561.212	19.10454
561.411	18.09595
561.61	17.09998
561.809	17.74785
562.008	19.04636
562.206	17.7988
562.405	18.41052
562.604	17.94828
562.803	18.17156
563.001	17.9495
563.2	17.03708
563.399	18.22076
563.597	17.30838
563.796	17.77314
563.995	17.19041
564.193	18.46378
564.392	17.79255
564.59	19.24715
564.789	16.75514
564.988	17.77195
565.186	18.08509
565.385	17.81867
565.583	17.76686
565.782	17.98367
565.98	17.83867
566.179	18.01838
566.377	17.57519
566.575	17.7266
566.774	19.0306
566.972	18.73915
567.171	19.505
567.369	19.17233
567.567	18.34017
567.766	18.32619
567.964	16.81934
568.162	18.52697
568.361	19.00011
568.559	17.99965
568.757	18.28884
568.956	18.10358
569.154	18.0997
569.352	18.57554
569.55	17.99265
569.748	18.02396
569.947	17.55254
570.145	17.20798
570.343	17.4715
570.541	19.01446
570.739	17.21935
570.937	18.00701
571.135	18.42773
571.333	19.53045
571.532	19.46395
571.73	18.28022
571.928	18.88551
572.126	18.52392
572.324	17.8733
572.522	18.97368
572.72	19.97677
572.918	18.20046
573.116	18.67483
573.313	18.04854
573.511	18.21449
573.709	17.80027
573.907	18.85806
574.105	17.89006
574.303	17.19811
574.501	17.19457
574.699	18.70472
574.896	18.4663
575.094	18.51857
575.292	17.33543
575.49	18.82851
575.688	18.19186
575.885	19.11246
576.083	19.8779
576.281	18.52889
576.478	17.78319
576.676	18.63149
576.874	17.23024
577.071	18.18747
577.269	19.86673
577.467	18.04961
577.664	18.2017
577.862	18.77895
578.059	17.53152
578.257	18.59347
578.455	17.90694
578.652	18.14819
578.85	16.63251
579.047	18.14871
579.245	17.61212
579.442	17.94703
579.64	17.77758
579.837	16.74501
580.034	20.03716
580.232	17.74397
580.429	17.06967
580.627	18.2233
580.824	18.90617
581.021	18.62333
581.219	17.54426
581.416	17.45678
581.613	19.05474
581.811	18.77381
582.008	17.32305
582.205	18.72227
582.402	18.28307
582.6	19.72677
582.797	17.90652
582.994	18.18666
583.191	18.56061
583.388	17.83794
583.586	18.5002
583.783	18.76116
583.98	17.20616
584.177	18.36446
584.374	15.97029
584.571	17.87111
584.768	17.83102
584.965	17.59964
585.162	18.73597
585.359	19.19315
585.556	17.97841
585.753	18.15616
585.95	17.00587
586.147	17.08406
586.344	18.1815
586.541	17.78974
586.738	16.89829
586.935	17.7244
587.132	17.27321
587.329	18.86733
587.526	18.11235
587.722	22.14628
587.919	16.81198
588.116	18.35668
588.313	19.25196
588.51	19.82102
588.706	17.81193
588.903	18.59399
589.1	18.87026
589.297	20.4037
589.493	18.09617
589.69	18.49765
589.887	17.66994
590.083	17.32081
590.28	17.60662
590.477	18.83355
590.673	18.80284
590.87	19.20878
591.067	17.73212
591.263	18.31613
591.46	18.41311
591.656	17.53796
591.853	19.52557
592.049	17.49438
592.246	17.70929
592.442	19.06712
592.639	19.01565
592.835	17.22784
593.032	18.24667
593.228	16.94793
593.425	16.83779
593.621	16.91256
593.817	18.49569
594.014	17.38663
594.21	18.40771
594.406	19.1521
594.603	18.54041
594.799	17.77076
594.995	16.41492
595.192	19.17711
595.388	17.89473
595.584	17.81796
595.78	17.12745
595.977	20.41017
596.173	19.70386
596.369	18.05285
596.565	17.60786
596.761	17.26004
596.957	19.46021
597.154	17.78017
597.35	17.991
597.546	17.98746
597.742	18.81748
597.938	18.79719
598.134	17.78391
598.33	18.51681
598.526	19.41689
598.722	18.47423
598.918	19.77013
599.114	18.70587
599.31	17.08583
599.506	18.16522
599.702	17.28233
599.898	18.17228
600.094	18.59393
600.29	18.77957
600.485	18.81591
600.681	17.32214
600.877	19.65688
601.073	18.1083
601.269	20.05123
601.465	19.42704
601.66	17.32661
601.856	16.38103
602.052	20.17805
602.248	17.88871
602.443	16.5325
602.639	17.30147
602.835	17.58372
603.03	17.58698
603.226	19.07723
603.422	17.6598
603.617	18.23559
603.813	18.13435
604.009	18.02734
604.204	19.44229
604.4	17.36891
604.595	19.41376
604.791	17.68309
604.986	18.67113
605.182	17.88207
605.377	18.15907
605.573	18.22188
605.768	18.5214
605.964	18.86127
606.159	19.1715
606.355	19.29092
606.55	18.03431
606.746	19.41348
606.941	18.2331
607.136	20.21676
607.332	20.87087
607.527	17.19585
607.722	18.40752
607.918	17.93975
608.113	17.43798
608.308	18.94755
608.503	18.75997
608.699	18.69446
608.894	18.87265
609.089	17.60995
609.284	18.74606
609.479	18.08297
609.675	19.08669
609.87	18.28506
610.065	19.2164
610.26	19.3293
610.455	19.1748
610.65	18.58399
610.845	18.97236
611.04	19.3215
611.235	18.37074
611.43	18.41043
611.625	17.48776
611.82	19.93167
612.015	17.84418
612.21	19.95567
612.405	17.03127
612.6	20.03083
612.795	19.95812
612.99	19.03565
613.185	17.2617
613.38	17.73357
613.575	18.57212
613.77	21.50808
613.965	16.93518
614.159	17.33244
614.354	19.69049
614.549	19.3576
614.744	19.02038
614.938	17.03062
615.133	16.94873
615.328	19.71617
615.523	19.27159
615.717	21.44344
615.912	17.88496
616.107	18.32382
616.301	18.03951
616.496	17.51605
616.691	19.92173
616.885	19.1044
617.08	21.66472
617.274	19.22134
617.469	20.38586
617.664	19.21613
617.858	17.64049
618.053	18.68672
618.247	17.9246
618.442	15.69024
618.636	20.02062
618.831	17.22887
619.025	17.54975
619.219	21.42299
619.414	15.16889
619.608	18.01521
619.803	17.6943
619.997	20.53568
620.191	19.43332
620.386	18.53352
620.58	18.07109
620.774	16.22579
620.969	16.49063
621.163	18.33583
621.357	16.95538
621.551	17.82928
621.746	18.352
621.94	17.78209
622.134	21.90926
622.328	20.48677
622.522	16.46458
622.716	19.62107
622.911	19.40111
623.105	19.25077
623.299	18.84071
623.493	21.59541
623.687	17.49817
623.881	17.62242
624.075	19.07857
624.269	19.72305
624.463	16.3685
624.657	16.45252
624.851	19.06136
625.045	19.37672
625.239	19.30423
625.433	17.87408
625.627	20.51048
625.821	17.76435
626.015	17.572
626.209	18.78289
626.403	16.82255
626.596	19.0894
626.79	19.61633
626.984	17.37387
627.178	19.39378
627.372	19.21334
627.565	19.41569
627.759	17.28541
627.953	17.49719
628.147	18.96271
628.34	19.40924
628.534	21.45838
628.728	18.27342
628.921	19.55891
629.115	19.41259
629.309	19.70418
629.502	19.69944
629.696	18.69123
629.89	18.2905
630.083	19.04472
630.277	18.88751
630.47	20.31253
630.664	18.24696
630.857	16.81337
631.051	19.77825
631.244	19.59781
631.438	19.54252
631.631	17.83229
631.825	20.20942
632.018	19.00729
632.212	20.76737
632.405	19.84484
632.598	17.18112
632.792	18.5678
632.985	15.56254
633.178	18.06339
633.372	18.15679
633.565	18.28058
633.758	19.84477
633.952	17.50419
634.145	17.51727
634.338	18.35786
634.531	18.01241
634.724	17.54513
634.918	18.74687
635.111	18.17246
635.304	18.07354
635.497	21.83099
635.69	18.86555
635.883	20.3968
636.077	17.24368
636.27	19.14261
636.463	18.99279
636.656	18.68629
636.849	18.47555
637.042	19.38733
637.235	21.06971
637.428	19.40148
637.621	19.09886
637.814	20.55715
638.007	20.72913
638.2	20.49931
638.393	20.88032
638.586	16.61374
638.778	18.16904
638.971	18.35327
639.164	20.52697
639.357	18.74651
639.55	20.95871
639.743	19.80184
639.935	19.20317
640.128	21.98551
640.321	20.03491
640.514	19.05979
640.707	21.89393
640.899	19.61745
641.092	16.19635
641.285	34.28598
641.477	15.56771
641.67	22.58389
641.863	20.91124
642.055	18.88642
642.248	18.73909
642.441	18.26204
642.633	19.60312
642.826	20.31898
643.018	20.96621
643.211	22.15078
643.403	21.87291
643.596	22.35102
643.788	22.26925
643.981	18.17833
644.173	20.22137
644.366	18.18036
644.558	16.12531
644.751	20.36646
644.943	16.99235
645.135	21.19441
645.328	21.51899
645.52	19.66652
645.712	20.75214
645.905	23.6675
646.097	17.28863
646.289	19.4197
646.482	22.6065
646.674	17.69733
646.866	20.88781
647.058	19.87768
647.251	17.64586
647.443	18.18676
647.635	18.49463
647.827	17.37623
648.019	17.58915
648.211	18.5504
648.404	19.23656
648.596	22.08046
648.788	19.56831
648.98	19.44816
649.172	19.87709
649.364	19.72255
649.556	16.62013
649.748	24.00891
649.94	17.66633
650.132	20.46671
650.324	17.92975
650.516	17.94979
650.708	21.09378
650.9	17.09371
651.092	16.7338
651.284	17.08433
651.476	17.55613
651.667	20.38838
651.859	21.48902
652.051	19.19699
652.243	19.44238
652.435	18.81756
652.627	20.38613
652.818	20.25273
653.01	17.15154
653.202	18.0036
653.394	18.5947
653.585	20.12226
653.777	26.74884
653.969	21.92416
654.16	21.56397
654.352	17.4806
654.544	19.23346
654.735	20.73871
654.927	19.74438
655.118	21.91669
655.31	20.54268
655.502	21.74029
655.693	19.29607
655.885	20.49736
656.076	21.80625
656.268	19.85196
656.459	22.42483
656.651	21.60819
656.842	18.98778
657.034	18.6116
657.225	21.17798
657.416	22.10816
657.608	22.03909
657.799	19.89441
657.99	22.09767
658.182	18.75454
658.373	18.64939
658.564	21.93727
658.756	20.68828
658.947	19.81626
659.138	18.69372
659.33	19.38479
659.521	19.20945
659.712	20.28851
659.903	19.92258
660.094	19.29158
660.286	17.56636
660.477	23.17145
660.668	21.16857
660.859	19.77195
661.05	17.51403
661.241	21.18921
661.432	20.57696
661.623	19.57941
661.814	19.07844
662.006	17.46301
662.197	20.45478
662.388	22.26437
662.579	20.55994
662.77	22.352
662.96	24.7174
663.151	21.36417
663.342	16.56839
663.533	21.0893
663.724	20.09672
663.915	23.63828
664.106	20.10864
664.297	23.24181
664.488	21.3228
664.678	18.90084
664.869	21.57423
665.06	21.59156
665.251	20.07019
665.442	21.11103
665.632	17.77936
665.823	24.18383
666.014	14.35219
666.204	21.40606
666.395	22.77933
666.586	24.59137
666.776	21.45037
666.967	24.10159
667.158	20.16546
667.348	23.17509
667.539	18.36936
667.729	22.21776
667.92	18.81212
668.111	22.1452
668.301	21.60491
668.492	19.90211
668.682	20.65019
668.873	20.50403
669.063	18.12263
669.253	21.34793
669.444	23.42095
669.634	20.3523
669.825	24.28534
670.015	23.21246
670.206	19.14816
670.396	24.43078
670.586	20.24699
670.777	21.29473
670.967	16.65447
671.157	19.93428
671.347	19.17273
671.538	23.8085
671.728	22.07545
671.918	24.67107
672.108	22.39229
672.299	19.94831
672.489	21.43182
672.679	19.09248
672.869	21.1007
673.059	25.72149
673.249	21.89341
673.44	18.22469
673.63	20.62031
673.82	23.00935
674.01	18.62193
674.2	21.37594
674.39	26.53949
674.58	22.17608
674.77	21.37327
674.96	20.05104
675.15	30.00362
675.34	23.07949
675.53	20.72791
675.72	19.75145
675.91	17.54239
676.099	25.53613
676.289	26.25651
676.479	23.0991
676.669	19.93341
676.859	21.7288
677.049	19.48646
677.238	20.97601
677.428	24.99841
677.618	22.27888
677.808	25.79913
677.997	22.55719
678.187	19.14673
678.377	20.97785
678.567	20.12679
678.756	20.56359
678.946	21.43516
679.136	18.51237
679.325	20.36197
679.515	19.41574
679.704	19.15993
679.894	23.5116
680.084	22.4319
680.273	24.48002
680.463	20.03731
680.652	19.81744
680.842	21.6022
681.031	23.96168
681.221	20.1094
681.41	23.20235
681.6	21.58297
681.789	23.36741
681.978	24.57583
682.168	22.46124
682.357	22.17345
682.547	22.67236
682.736	22.14492
682.925	24.41264
683.115	24.04415
683.304	23.49387
683.493	21.96676
683.682	23.00863
683.872	22.7121
684.061	24.40906
684.25	23.12944
684.439	27.35515
684.629	24.26164
684.818	30.2386
685.007	22.03365
685.196	21.52229
685.385	26.7087
685.574	23.2329
685.763	23.47083
685.952	23.29823
686.142	19.41655
686.331	25.64011
686.52	19.16369
686.709	27.39088
686.898	26.83317
687.087	24.43569
687.276	26.60141
687.465	25.9273
687.654	22.27441
687.842	26.56195
688.031	20.01621
688.22	26.09712
688.409	23.04058
688.598	23.3338
688.787	29.09926
688.976	23.22936
689.165	28.24327
689.353	21.77579
689.542	23.87249
689.731	26.1572
689.92	29.04977
690.108	25.08521
690.297	22.17103
690.486	23.40742
690.675	25.34877
690.863	27.45013
691.052	27.26684
691.241	23.91976
691.429	24.55341
691.618	26.92562
691.806	20.68242
691.995	22.89985
692.184	23.57683
692.372	22.85843
692.561	23.72381
692.749	24.55239
692.938	32.87284
693.126	25.29702
693.315	22.60126
693.503	25.8236
693.692	26.54715
693.88	26.09761
694.068	29.57048
694.257	24.62652
694.445	26.45388
694.634	18.82531
694.822	26.38228
695.01	27.23014
695.199	29.83927
695.387	28.05009
695.575	27.48945
695.763	23.78057
695.952	22.98452
696.14	19.69318
696.328	22.43225
696.516	23.98574
696.705	25.37013
696.893	24.60006
697.081	19.68933
697.269	26.18228
697.457	21.31574
697.645	20.93776
697.833	26.4386
698.021	22.17948
698.21	23.23536
698.398	23.69401
698.586	21.41277
698.774	20.83317
698.962	24.00752
699.15	21.39338
699.338	20.29707
699.526	25.7529
699.714	22.36503
699.901	22.69813
700.089	26.03048
700.277	22.0403
700.465	23.69698
700.653	26.0747
700.841	24.78974
701.029	22.04315
701.217	28.76215
701.404	23.91928
701.592	28.83107
701.78	31.29303
701.968	23.50864
702.155	23.95966
702.343	20.77023
702.531	28.74474
702.718	25.41437
702.906	22.72211
703.094	23.10519
703.281	28.79779
703.469	24.52008
703.657	28.05413
703.844	35.23803
704.032	31.01091
704.219	24.066
704.407	26.48951
704.595	29.78941
704.782	26.57904
704.97	25.37537
705.157	25.14354
705.345	32.71805
705.532	38.25858
705.719	29.01944
705.907	33.00563
706.094	28.52053
706.282	35.69128
706.469	29.03756
706.656	30.58606
706.844	28.63038
707.031	33.8343
707.218	31.68501
707.406	36.48322
707.593	32.8684
707.78	33.58212
707.968	31.6547
708.155	29.27853
708.342	33.67282
708.529	33.85591
708.716	32.79205
708.904	37.47016
709.091	33.72539
709.278	28.66706
709.465	38.82559
709.652	36.49506
709.839	35.27237
710.026	31.58983
710.213	25.74964
710.4	31.52567
710.587	33.08034
710.774	34.68516
710.961	34.59928
711.148	31.24648
711.335	33.97566
711.522	30.63029
711.709	32.79034
711.896	38.41337
712.083	34.39568
712.27	28.62973
712.457	31.78711
712.644	26.30774
712.831	38.65858
713.017	31.96905
713.204	33.90678
713.391	28.4872
713.578	34.56988
713.765	35.74955
713.951	31.5089
714.138	41.55714
714.325	31.2913
714.512	29.49662
714.698	26.12599
714.885	34.97416
715.072	29.26725
715.258	28.68784
715.445	26.74173
715.631	32.93769
715.818	19.35696
716.005	25.96454
716.191	30.43181
716.378	27.40873
716.564	31.2215
716.751	24.5394
716.937	26.31403
717.124	31.03515
717.31	24.84848
717.497	35.46818
717.683	25.53724
717.869	36.18424
718.056	25.48951
718.242	29.82241
718.429	27.40565
718.615	23.77646
718.801	27.95538
718.988	32.63739
719.174	30.13384
719.36	27.12017
719.547	33.48039
719.733	29.22248
719.919	29.86969
720.105	30.73756
720.291	28.00925
720.478	29.87331
720.664	28.22728
720.85	26.1507
721.036	40.3381
721.222	35.77109
721.408	28.05096
721.595	35.98486
721.781	35.44396
721.967	33.47442
722.153	35.76038
722.339	31.40504
722.525	30.09175
722.711	24.0767
722.897	23.69946
723.083	27.76823
723.269	32.63972
723.455	41.4738
723.641	46.73718
723.827	29.48732
724.012	30.90392
724.198	28.57011
724.384	35.38236
724.57	30.82199
724.756	22.55666
724.942	20.82394
725.127	34.16039
725.313	34.80855
725.499	33.87645
725.685	37.84927
725.87	31.91266
726.056	25.28969
726.242	35.57044
726.428	22.43317
726.613	33.47782
726.799	27.98721
726.985	24.92014
727.17	22.25741
727.356	38.90886
727.541	25.56856
727.727	29.24374
727.913	32.90394
728.098	27.75462
728.284	33.02847
728.469	25.10891
728.655	25.93369
728.84	34.28898
729.026	33.73875
729.211	33.19001
729.397	32.0077
729.582	32.94788
729.767	29.46273
729.953	31.73146
730.138	35.91118
730.323	20.57361
730.509	25.29145
730.694	38.23344
730.879	33.17151
731.065	30.64175
731.25	40.79978
731.435	33.36113
731.621	24.02731
731.806	27.37618
731.991	31.15542
732.176	22.81788
732.361	37.78348
732.547	31.54985
732.732	23.97253
732.917	41.52605
733.102	24.81957
733.287	27.25632
733.472	29.51087
733.657	30.24179
733.842	23.94672
734.027	27.06104
734.212	29.3648
734.397	26.79381
734.582	30.8749
734.767	34.88586
734.952	37.11725
735.137	19.32972
735.322	36.8785
735.507	32.96748
735.692	31.31496
735.877	41.89501
736.062	39.274
736.247	31.77183
736.431	29.49579
736.616	35.15703
736.801	31.57159
736.986	31.0123
737.171	25.76175
737.355	24.96423
737.54	36.96031
737.725	30.84264
737.909	45.26676
738.094	28.10963
738.279	35.55693
738.463	29.61949
738.648	33.68933
738.833	33.12291
739.017	42.06706
739.202	29.17668
739.386	29.81662
739.571	26.00126
739.756	34.95888
739.94	30.18054
740.125	33.73455
740.309	27.58091
740.494	35.47689
740.678	31.64261
740.863	34.10798
741.047	31.93761
741.231	39.56076
741.416	27.70265
741.6	39.5058
741.785	27.32347
741.969	36.20258
742.153	39.31552
742.338	21.57474
742.522	30.41472
742.706	35.43822
742.89	25.3312
743.075	31.32254
743.259	38.88856
743.443	38.02837
743.627	38.67229
743.812	44.1691
743.996	22.41992
744.18	30.31481
744.364	29.22655
744.548	46.01755
744.732	30.82987
744.916	37.92041
745.1	35.55426
745.285	30.55798
745.469	35.09548
745.653	41.10249
745.837	26.83019
746.021	45.10633
746.205	39.14419
746.389	33.56767
746.573	32.16667
746.757	41.12991
746.94	29.5037
747.124	39.27856
747.308	25.81119
747.492	38.44729
747.676	26.93579
747.86	47.17473
748.044	29.89013
748.227	23.82734
748.411	55.49546
748.595	32.91599
748.779	28.15059
748.963	34.72171
749.146	32.41519
749.33	27.64416
749.514	28.01125
749.697	38.51619
749.881	28.02634
750.065	27.06415
750.248	32.95616
750.432	47.38887
750.616	32.08345
750.799	26.96032
750.983	47.94788
751.166	47.63145
751.35	23.8726
751.533	36.41119
751.717	43.72682
751.9	42.62094
752.084	31.62962
752.267	27.99183
752.451	29.50255
752.634	32.94423
752.818	36.45307
753.001	38.2753
753.184	40.45637
753.368	35.12695
753.551	14.8303
753.734	27.93581
753.918	48.76303
754.101	28.44829
754.284	36.84718
754.467	30.18199
754.651	29.15776
754.834	26.78084
755.017	40.02739
755.2	40.79166
755.384	28.53708
755.567	38.27981
755.75	39.08082
755.933	31.39449
756.116	37.65572
756.299	28.98998
756.482	27.83788
756.665	36.01588
756.848	31.5722
757.032	35.7549
757.215	25.5851
757.398	28.51556
757.581	28.04128
757.764	52.43592
757.947	32.90018
758.129	40.08329
758.312	17.21062
758.495	31.70232
758.678	33.18746
758.861	30.95138
759.044	46.58893
759.227	27.41948
759.41	28.09995
759.592	39.13282
759.775	32.03556
759.958	38.91274
760.141	25.95838
760.324	50.30438
760.506	43.42404
760.689	38.24449
760.872	48.19872
761.054	35.84265
761.237	32.97315
761.42	34.69815
761.602	38.4765
761.785	35.76508
761.968	41.04445
762.15	45.69822
762.333	32.82125
762.515	36.49659
762.698	32.0582
762.88	39.85955
763.063	36.68283
763.245	40.98494
763.428	28.18391
763.61	30.37085
763.793	25.86295
763.975	36.06723
764.158	31.36686
764.34	30.21851
764.522	28.66845
764.705	32.16287
764.887	43.40294
765.069	24.55031
765.252	36.5854
765.434	38.24292
765.616	34.18211
765.799	29.64344
765.981	37.71828
766.163	29.72253
766.345	42.95829
766.528	29.44644
766.71	20.41374
766.892	35.16188
767.074	42.88399
767.256	31.22068
767.438	46.82342
767.62	35.17175
767.802	50.86969
767.985	39.64695
768.167	47.27693
768.349	29.8266
768.531	39.15927
768.713	37.08101
768.895	39.77323
769.077	36.74471
769.259	53.64894
769.441	69.7093
769.623	40.50447
769.804	46.71282
769.986	43.22007
770.168	53.033
770.35	61.73188
770.532	49.30688
770.714	52.39725
770.896	50.98323
771.077	28.46547
771.259	55.62479
771.441	47.96596
771.623	57.45774
771.804	67.16271
771.986	30.62002
772.168	39.43523
772.35	54.71739
772.531	68.12398
772.713	46.78586
772.894	59.11952
773.076	46.12981
773.258	41.2116
773.439	61.79696
773.621	68.89297
773.802	34.72182
773.984	38.91797
774.166	49.32838
774.347	60.77708
774.529	58.10286
774.71	25.21829
774.891	44.38361
775.073	40.76785
775.254	60.46055
775.436	38.97719
775.617	71.76148
775.799	41.16799
775.98	59.13982
776.161	67.67733
776.343	70.20056
776.524	45.43073
776.705	45.17898
776.886	28.35034
777.068	50.99046
777.249	98.02268
777.43	69.71073
777.611	34.59623
777.793	43.6676
777.974	68.08219
778.155	40.38519
778.336	33.54471
778.517	78.8387
778.698	37.51596
778.879	28.04336
779.061	19.85103
779.242	52.53444
779.423	51.21188
779.604	40.39295
779.785	44.36938
779.966	49.9315
780.147	60.32971
780.328	57.77371
780.509	78.68288
780.69	59.02683
780.871	38.10229
781.051	31.06761
781.232	48.88163
781.413	47.71102
781.594	43.86101
781.775	41.9821
781.956	38.65388
782.137	26.85569
782.317	41.12706
782.498	47.80007
782.679	47.3728
782.86	50.4801
783.04	39.86489
783.221	48.44067
783.402	72.79909
783.583	47.64913
783.763	57.8035
783.944	40.68853
784.124	30.96678
784.305	68.71043
784.486	55.48165
784.666	46.68577
784.847	30.78026
785.027	91.06334
785.208	40.25153
785.388	38.94846
785.569	40.47019
785.749	44.10642
785.93	42.18611
786.11	29.87634
786.291	54.41822
786.471	50.96709
786.652	59.28793
786.832	46.10193
787.012	49.57569
787.193	34.7761
787.373	47.8325
787.553	40.79706
787.734	50.51803
787.914	42.88019
788.094	59.09025
788.275	51.78799
788.455	43.2548
788.635	32.88311
788.815	49.74631
788.995	36.20169
789.176	31.12671
789.356	38.6008
789.536	44.52884
789.716	53.28632
789.896	38.78901
790.076	39.61138
790.256	51.09868
790.436	22.234
790.616	36.49798
790.796	49.92778
790.976	43.24529
791.156	38.52341
791.336	54.06661
791.516	50.99807
791.696	43.86651
791.876	30.06157
792.056	48.63909
792.236	57.34264
792.416	55.26618
792.596	51.43332
792.776	52.15633
792.956	55.97741
793.135	70.9281
793.315	34.49573
793.495	59.6155
793.675	56.62596
793.854	57.18243
794.034	59.90463
794.214	34.54925
794.394	57.1644
794.573	63.52524
794.753	49.23919
794.933	35.29055
795.112	50.27563
795.292	58.85088
795.472	70.23661
795.651	32.78789
795.831	45.99077
796.01	44.17536
796.19	43.14393
796.369	46.8385
796.549	51.6777
796.728	46.61496
796.908	32.02588
797.087	32.93145
797.267	44.109
797.446	33.41566
797.626	53.53147
797.805	52.18778
797.984	37.96956
798.164	56.4114
798.343	37.35298
798.522	47.65244
798.702	47.35155
798.881	32.9455
799.06	42.90205
799.239	28.4079
799.419	37.14522
799.598	69.83198
799.777	52.81854
799.956	61.06905
800.136	43.90339
800.315	37.17928
800.494	51.56016
800.673	61.28351
800.852	55.68585
801.031	61.12229
801.21	53.78687
801.389	42.63079
801.568	49.03774
801.747	73.50002
801.926	46.39404
802.105	66.93794
802.284	39.97822
802.463	67.83226
802.642	52.76409
802.821	50.76196
803	65.34924
803.179	57.80848
803.358	59.97878
803.537	39.56909
803.716	47.51646
803.895	39.03468
804.073	43.96959
804.252	37.95555
804.431	52.25933
804.61	44.95923
804.789	57.75193
804.967	41.99495
805.146	42.02798
805.325	77.7049
805.503	53.47948
805.682	31.89623
805.861	94.04244
806.039	66.31437
806.218	42.92805
806.397	50.11639
806.575	46.57703
806.754	53.19802
806.932	36.33319
807.111	61.77497
807.289	57.28911
807.468	47.49335
807.646	59.86436
807.825	55.51896
808.003	51.81259
808.182	60.86307
808.36	50.43183
808.539	38.65298
808.717	68.92453
808.895	38.13801
809.074	53.5784
809.252	49.40673
809.43	55.64794
809.609	63.23139
809.787	67.96017
809.965	44.70541
810.144	49.43025
810.322	50.18107
810.5	52.50528
810.678	45.91438
810.856	79.28103
811.035	62.50549
811.213	57.03288
811.391	67.59722
811.569	54.07963
811.747	103.41389
811.925	66.62294
812.103	40.46343
812.281	48.40022
812.459	76.79727
812.637	74.27951
812.816	59.7472
812.994	81.58046
813.171	69.63907
813.349	56.40847
813.527	65.24293
813.705	71.95006
813.883	86.41099
814.061	63.01146
814.239	76.68723
814.417	85.3228
814.595	60.91364
814.773	56.75362
814.95	53.13505
815.128	56.10001
815.306	56.26396
815.484	48.32166
815.662	37.33015
815.839	35.27412
816.017	46.88025
816.195	66.44498
816.372	44.72713
816.55	60.32463
816.728	76.03226
816.905	48.85687
817.083	75.94255
817.261	50.68393
817.438	95.97381
817.616	75.25691
817.793	43.73934
817.971	61.90697
818.148	60.9889
818.326	70.49965
818.503	54.36283
818.681	75.45727
818.858	48.32791
819.036	49.94542
819.213	55.44061
819.391	42.68625
819.568	42.96328
819.745	40.45118
819.923	63.08748
820.1	47.23101
820.277	41.05615
820.455	46.90008
820.632	48.77558
820.809	53.49858
820.986	36.7744
821.164	32.54037
821.341	30.37118
821.518	41.75813
821.695	33.03224
821.872	31.11194
822.05	28.20636
822.227	25.43552
822.404	26.21914
822.581	28.22236
822.758	26.3683
822.935	26.35466
823.112	28.57525
823.289	25.9226
823.466	28.83376
823.643	27.76277
823.82	30.95337
823.997	29.23878
824.174	32.02285
824.351	38.51781
824.528	37.03183
824.705	34.7584
824.882	37.10141
825.059	44.03533
825.236	34.93696
825.412	37.03252
825.589	41.59142
825.766	54.0502
825.943	38.28399
826.12	41.792
826.296	33.53714
826.473	39.65216
826.65	39.36039
826.827	43.97041
827.003	32.93483
827.18	35.94341
827.357	38.89311
827.533	34.52171
827.71	24.53567
827.887	32.25722
828.063	34.87831
828.24	31.14263
828.416	37.80881
828.593	33.71259
828.769	42.99787
828.946	43.52578
829.122	45.41613
829.299	43.55675
829.475	31.61436
829.652	43.44183
829.828	63.94482
830.005	44.392
830.181	57.80495
830.357	45.65908
830.534	58.65054
830.71	49.53941
830.886	58.35845
831.063	55.76301
831.239	70.28876
831.415	39.62851
831.592	72.99613
831.768	49.66704
831.944	43.36167
832.12	75.70805
832.296	72.67848
832.473	60.74825
832.649	45.45119
832.825	60.79374
833.001	39.35491
833.177	55.75771
833.353	50.78273
833.529	32.97602
833.705	47.52
833.881	34.68721
834.058	33.95131
834.234	36.30444
834.41	35.48329
834.586	29.97573
834.761	34.25361
834.937	36.6921
835.113	37.61613
835.289	34.15486
835.465	38.95395
835.641	35.15649
835.817	38.93558
835.993	57.7156
836.169	36.87612
836.344	50.7498
836.52	54.64183
836.696	49.50441
836.872	44.18457
837.048	99.51876
837.223	47.96958
837.399	77.56961
837.575	62.92763
837.75	60.41086
837.926	81.82144
838.102	114.08005
838.277	94.17515
838.453	123.51806
838.628	123.14789
838.804	56.43141
838.98	108.43488
839.155	65.23215
839.331	82.0263
839.506	61.62907
839.682	63.97826
839.857	81.86692
840.033	94.31541
840.208	50.24467
840.384	29.81051
840.559	49.20552
840.734	69.66711
840.91	87.74102
841.085	57.96047
841.26	58.21349
841.436	52.39238
841.611	53.88202
841.786	77.28733
841.962	97.50756
842.137	63.77781
842.312	45.96748
842.487	57.94823
842.663	48.3107
842.838	59.76406
843.013	165.66102
843.188	86.17288
843.363	95.3676
843.538	140.00484
843.714	139.25071
843.889	146.60168
844.064	154.42616
844.239	128.3694
844.414	145.72407
844.589	97.84298
844.764	175.00224
844.939	169.92361
845.114	189.30348
845.289	174.94775
845.464	241.39021
845.639	160.49925
845.814	87.12441
845.989	101.75372
846.163	121.04804
846.338	130.14497
846.513	175.90018
846.688	118.04093
846.863	116.63785
847.038	110.81488
847.212	121.5644
847.387	123.63735
847.562	135.61315
847.737	160.32252
847.911	73.17611
848.086	85.16051
848.261	267.78022
848.435	113.013
848.61	164.66707
848.785	90.96688
848.959	174.43145
849.134	228.79708
849.308	234.4906
849.483	128.22656
849.658	199.41737
849.832	107.23118
850.007	104.09316
850.181	262.97478
850.356	106.62368
850.53	246.31514
850.705	91.65728
850.879	54.7436
851.053	125.2048
851.228	115.7652
851.402	141.55186
851.577	183.34775
851.751	198.13085
851.925	136.17867
852.099	68.7844
852.274	94.87085
852.448	127.51167
852.622	136.75701
852.797	131.35128
852.971	123.07604
853.145	135.34488
853.319	362.2427
853.493	190.23189
853.668	110.83889
853.842	230.43444
854.016	191.98728
854.19	221.49402
854.364	141.49632
854.538	146.70585
854.712	188.73401
854.886	126.27638
855.06	119.40759
855.234	56.68939
855.408	207.71144
855.582	185.80704
855.756	179.76157
855.93	225.92989
856.104	157.90795
856.278	174.00443
856.452	133.76274
856.626	176.92692
856.8	265.125
856.973	168.69559
857.147	153.61707
857.321	158.45853
857.495	188.74843
857.669	127.58095
857.842	115.80427
858.016	191.15572
858.19	111.89916
858.364	301.8708
858.537	116.17787
858.711	141.44783
858.885	128.8052
859.058	110.29074
859.232	67.20332
859.405	76.06288
859.579	180.48725
859.753	151.78108
859.926	109.44809
860.1	81.26069
860.273	133.58487
860.447	220.58819
860.62	122.17494
860.794	255.85356
860.967	150.05464
861.141	200.77796
861.314	273.37678
861.487	168.03644
861.661	212.04191
861.834	212.3537
862.008	195.61588
862.181	138.66258
862.354	148.35297
862.528	156.78787
862.701	115.52613
862.874	81.82508
863.047	125.26231
863.221	122.14295
863.394	65.39544
863.567	220.80476
863.74	57.52389
863.913	186.99402
864.087	157.02588
864.26	187.37458
864.433	128.69709
864.606	232.70798
864.779	141.11135
864.952	72.13576
865.125	112.60798
865.298	131.24768
865.471	146.71093
865.644	265.92109
865.817	226.14326
865.99	188.46828
866.163	203.85144
866.336	123.30088
866.509	144.26794
866.682	127.03022
866.855	202.47497
867.028	89.36916
867.2	174.40031
867.373	67.05742
867.546	146.526
867.719	275.196
867.892	172.61246
868.064	100.15502
868.237	164.58562
868.41	146.34205
868.583	93.57801
868.755	90.82816
868.928	138.08915
869.101	279.77165
869.273	208.24867
869.446	174.00622
869.619	203.83262
869.791	139.80845
869.964	198.37126
870.136	186.15664
870.309	149.88968
870.481	149.27279
870.654	82.40323
870.826	152.26267
870.999	122.21714
871.171	187.45178
871.344	122.18376
871.516	143.04169
871.689	105.32691
871.861	149.89357
872.033	112.27282
872.206	128.52952
872.378	198.80188
872.55	128.34053
872.723	85.33281
872.895	129.08071
873.067	202.76968
873.24	224.7513
873.412	123.9732
873.584	128.55353
873.756	124.36299
873.928	165.71656
874.101	158.51227
874.273	173.16735
874.445	66.60653
874.617	84.04926
874.789	152.46505
874.961	133.84949
875.133	175.73096
875.305	147.90218
875.477	97.46645
875.649	84.92451
875.821	103.44758
875.993	238.07508
876.165	96.55141
876.337	159.89219
876.509	128.58847
876.681	164.01478
876.853	153.24936
877.025	163.05018
877.197	102.22432
877.369	97.6264
877.541	190.60448
877.712	61.14267
877.884	91.06752
878.056	176.33989
878.228	97.71001
878.4	167.80334
878.571	105.32826
878.743	71.77937
878.915	159.52555
879.086	97.44833
879.258	113.21513
879.43	107.17187
879.601	92.28645
879.773	99.98709
879.945	31.516
880.116	48.70592
880.288	34.89831
880.459	35.95784
880.631	30.44835
880.802	34.98714
880.974	33.82258
881.145	26.51644
881.317	32.25294
881.488	27.5016
881.66	29.70746
881.831	27.75867
882.002	35.19128
882.174	28.52466
882.345	33.99029
882.517	24.25005
882.688	37.62071
882.859	34.28641
883.03	47.46025
883.202	45.44569
883.373	41.96543
883.544	41.76159
883.715	64.78692
883.887	53.79012
884.058	48.81717
884.229	66.54861
884.4	67.04917
884.571	72.68491
884.742	66.89513
884.914	72.94097
885.085	96.78302
885.256	115.90847
885.427	97.6592
885.598	113.82936
885.769	120.52918
885.94	113.64254
886.111	80.3371
886.282	131.41618
886.453	110.68181
886.624	87.53793
886.795	130.04423
886.966	112.58917
887.136	141.15653
887.307	97.22279
887.478	171.72387
887.649	153.85198
887.82	160.0621
887.991	125.55904
888.161	168.50408
888.332	161.47857
888.503	90.5471
888.674	215.58436
888.844	227.87555
889.015	183.05904
889.186	92.77971
889.356	209.33885
889.527	88.38208
889.698	361.54514
889.868	116.79193
890.039	157.17089
890.209	139.00595
890.38	185.92762
890.551	155.2197
890.721	227.84104
890.892	188.82289
891.062	128.21189
891.233	170.16552
891.403	124.88559
891.574	98.39727
891.744	142.01489
891.914	179.17771
892.085	142.29619
892.255	53.6937
892.425	224.06192
892.596	185.88577
892.766	159.70597
892.936	222.06198
893.107	187.94226
893.277	112.0383
893.447	83.53403
893.618	64.42948
893.788	124.48914
893.958	74.15818
894.128	76.18408
894.298	82.34529
894.468	107.32081
894.639	54.14721
894.809	42.12059
894.979	60.15151
895.149	70.05122
895.319	57.62772
895.489	74.5756
895.659	90.82321
895.829	66.0783
895.999	69.69134
896.169	57.56855
896.339	62.49214
896.509	124.03218
896.679	141.473
896.849	133.44755
897.019	186.16128
897.189	142.55862
897.358	134.48246
897.528	190.00083
897.698	73.46295
897.868	177.4449
898.038	290.46822
898.208	267.22366
898.377	100.09604
898.547	284.40484
898.717	428.49933
898.886	180.76442
899.056	276.59684
899.226	404.08845
899.395	245.13093
899.565	312.45219
899.735	217.14194
899.904	341.80073
900.074	282.00954
900.244	146.55336
900.413	511.04763
900.583	118.50925
900.752	195.73104
900.922	309.52551
901.091	51.05656
901.261	278.1884
901.43	260.94505
901.599	264.87503
901.769	558.69734
901.938	310.72408
902.108	291.66256
902.277	373.18523
902.446	105.02961
902.616	127.77985
902.785	178.11382
902.954	298.78792
903.124	194.58768
903.293	166.24614
903.462	94.55896
903.631	122.58903
903.801	97.03729
903.97	54.90806
904.139	86.15614
904.308	70.76361
904.477	55.75055
904.646	36.92496
904.816	55.21672
904.985	75.61031
905.154	108.22462
