Data from WindowProjectSample3_Transmission__5__00005.txt Node

Date: Sun May 04 09:43:57 EDT 2025
User: jessi
Spectrometer: SR400872
Trigger mode: 0
Integration Time (sec): 5.000070E-1
Scans to average: 20
Electric dark correction enabled: true
Nonlinearity correction enabled: true
Boxcar width: 0
XAxis mode: Wavelengths
Number of Pixels in Spectrum: 3648
>>>>>Begin Spectral Data<<<<<
184.909	-5706.38715
185.132	10645.09544
185.355	-8476.92583
185.578	-54086.06977
185.801	4750.15161
186.024	-139916.0941
186.247	-714.08113
186.47	1291.25118
186.693	1298.16122
186.916	-709.24407
187.139	-2543390.05624
187.362	-3029.67618
187.585	7539.75528
187.808	1933.95137
188.031	-233.35725
188.254	4941.29073
188.476	-1863.18906
188.699	2428.25207
188.922	490.73134
189.145	-5938.81366
189.368	-4299.03979
189.591	1993.25004
189.813	-144191.37485
190.036	9170.08399
190.259	1482.9376
190.482	6064.33624
190.705	17207.72919
190.927	17274.4928
191.15	-4100.35491
191.373	1988.45442
191.595	1541.58151
191.818	17253.29898
192.041	774.43099
192.263	-7876.82576
192.486	-1795.35753
192.709	2809.60948
192.931	-3493.42027
193.154	13562.33125
193.377	2573.17731
193.599	27155.41269
193.822	2296.31077
194.044	1949.80577
194.267	1023.88425
194.489	-62.96664
194.712	3586.35822
194.934	33711.32778
195.157	-531.18221
195.379	11182.91529
195.602	1897.97316
195.824	4614.04869
196.047	6722.41501
196.269	14100.61832
196.492	-11826.84423
196.714	4013.25304
196.936	6965.5249
197.159	10731.56815
197.381	3977.52557
197.604	1525193.15635
197.826	1957.65234
198.048	2129.03277
198.271	9853.20519
198.493	1963.78207
198.715	2754.46576
198.938	8288.84925
199.16	3202.56914
199.382	9513.38218
199.604	10108.16313
199.827	1837.38814
200.049	2852.85278
200.271	19903.31286
200.493	1773.295
200.715	7514.17502
200.938	7851.68131
201.16	-3734.42342
201.382	30409.65734
201.604	4128.10047
201.826	8722.70686
202.048	4716.01466
202.27	1821.92859
202.492	5921.11005
202.715	20634.08483
202.937	3826.3943
203.159	1538.21317
203.381	2093.5803
203.603	2856.98156
203.825	-1479.70726
204.047	-23229.88544
204.269	3751.97245
204.491	7088.39092
204.713	-1666934.86635
204.935	2295.96749
205.156	3672.28003
205.378	1691.56097
205.6	37095.87902
205.822	4698.54279
206.044	3175.11538
206.266	6111.52477
206.488	1452.8858
206.71	9298.76127
206.932	1507.8544
207.153	30083.62555
207.375	15803.46742
207.597	12095.59393
207.819	40834.15076
208.041	-44437.22363
208.262	1131.26702
208.484	13832.3623
208.706	3792.47047
208.927	2091.44215
209.149	828.28476
209.371	3758.28719
209.593	918.70443
209.814	9133.68523
210.036	-441155.81816
210.258	1703.3294
210.479	2273.28708
210.701	3413.63218
210.922	-5502.65112
211.144	-3211.44867
211.366	5067.42898
211.587	2677.24504
211.809	5984.20417
212.03	-62702.08089
212.252	541.79492
212.473	930.61558
212.695	675.7274
212.916	1249.19786
213.138	624.7604
213.359	5021.7689
213.581	3094.73326
213.802	881.27635
214.024	7463.16394
214.245	-12770.90091
214.466	430.66645
214.688	3976.08919
214.909	10286.17462
215.131	4375.79764
215.352	2645.53789
215.573	11674.60206
215.795	2146.58652
216.016	1935.62079
216.237	-813156.39048
216.459	2051.26452
216.68	5985.21698
216.901	3240.26811
217.122	759.9423
217.344	3061.4211
217.565	7120.08899
217.786	3558.14564
218.007	844.24414
218.228	2545.30422
218.45	-16681.16321
218.671	48653.19803
218.892	19637.37012
219.113	1679.80225
219.334	4303.74832
219.555	-7822.74903
219.776	1912.94056
219.997	3973.81578
220.219	1139.88798
220.44	1691.97516
220.661	1483.36143
220.882	6133.26705
221.103	1408.14943
221.324	8176.01312
221.545	3215.17981
221.766	3072.307
221.987	1531.8332
222.208	933.65782
222.429	2353.81235
222.65	208.80007
222.87	819.12039
223.091	1738.94452
223.312	1084.68066
223.533	2096.79129
223.754	1621.31391
223.975	1779.74914
224.196	1026.01831
224.417	5162.48103
224.637	650.39867
224.858	100.6856
225.079	1177.11431
225.3	639.05284
225.521	2306.8149
225.741	617.04624
225.962	634.48933
226.183	152.82604
226.404	1022.57582
226.624	549.2504
226.845	637.77767
227.066	462.60431
227.286	303.22065
227.507	185.31931
227.728	155.82996
227.948	269.48417
228.169	95.70193
228.389	100.29145
228.61	61.10189
228.831	80.51072
229.051	8.38459
229.272	49.13534
229.492	72.4217
229.713	19.92748
229.933	53.95879
230.154	45.98504
230.374	76.34742
230.595	55.34204
230.815	34.0379
231.036	58.91716
231.256	-11.30652
231.477	95.19022
231.697	59.66536
231.917	62.44546
232.138	86.16063
232.358	155.74741
232.579	151.97471
232.799	28.73408
233.019	132.99047
233.24	159.27668
233.46	61.58968
233.68	93.26458
233.901	61.05745
234.121	45.49374
234.341	14.9361
234.561	-5.12177
234.782	34.56542
235.002	98.44429
235.222	-4.25185
235.442	91.28183
235.662	45.21522
235.883	86.6332
236.103	76.3816
236.323	55.49465
236.543	40.78783
236.763	60.39326
236.983	64.02578
237.203	62.70866
237.423	89.47162
237.643	127.68365
237.864	110.51263
238.084	32.13387
238.304	40.04769
238.524	66.56726
238.744	58.75106
238.964	99.31989
239.184	89.19591
239.404	95.93343
239.624	50.99092
239.843	82.56345
240.063	48.05795
240.283	31.22091
240.503	36.97909
240.723	35.81294
240.943	22.77869
241.163	28.21218
241.383	19.86061
241.603	10.81889
241.822	12.51986
242.042	9.25409
242.262	12.1081
242.482	13.50369
242.702	15.65876
242.921	4.98495
243.141	10.84148
243.361	9.62102
243.581	13.91022
243.8	12.26985
244.02	8.69385
244.24	14.82135
244.459	13.72363
244.679	28.37773
244.899	18.61307
245.118	20.90959
245.338	19.09463
245.558	20.91996
245.777	12.38033
245.997	14.44722
246.216	14.94944
246.436	8.80453
246.655	6.07085
246.875	4.71527
247.094	8.68861
247.314	3.64845
247.533	5.68487
247.753	6.31559
247.972	5.48334
248.192	1.82634
248.411	3.22094
248.631	5.74516
248.85	7.10895
249.07	6.7601
249.289	9.31683
249.508	6.91779
249.728	12.00551
249.947	11.3643
250.166	13.94123
250.386	7.99826
250.605	10.92869
250.824	17.46062
251.044	12.61209
251.263	35.77516
251.482	20.97798
251.701	16.96879
251.921	0.30419
252.14	5.56706
252.359	6.90251
252.578	14.68995
252.798	5.92476
253.017	13.42768
253.236	7.02786
253.455	8.74044
253.674	17.71911
253.893	9.12749
254.112	13.16827
254.331	17.81698
254.551	15.17791
254.77	7.95028
254.989	21.83514
255.208	16.67115
255.427	23.94131
255.646	20.52933
255.865	31.03007
256.084	14.74767
256.303	16.57331
256.522	20.59683
256.741	3.83139
256.96	5.15096
257.179	12.65755
257.397	16.25909
257.616	8.91343
257.835	9.91902
258.054	21.69914
258.273	15.76227
258.492	15.96015
258.711	9.39654
258.93	4.66302
259.148	6.51809
259.367	6.20385
259.586	8.00358
259.805	3.4943
260.023	7.04176
260.242	5.37458
260.461	4.26019
260.68	2.15401
260.898	6.4291
261.117	2.08921
261.336	1.42219
261.554	5.67574
261.773	5.55408
261.992	1.65317
262.21	5.72209
262.429	6.77459
262.648	11.04893
262.866	12.76324
263.085	9.40774
263.303	7.56871
263.522	13.67441
263.74	13.39815
263.959	23.03692
264.178	12.25494
264.396	10.14006
264.615	7.94979
264.833	17.36298
265.051	14.38401
265.27	16.15613
265.488	15.86499
265.707	9.32374
265.925	15.4696
266.144	7.69852
266.362	8.45268
266.58	8.47146
266.799	7.32183
267.017	9.05617
267.235	7.36815
267.454	4.97286
267.672	2.94982
267.89	6.83228
268.109	6.99417
268.327	7.08898
268.545	1.75908
268.763	6.38911
268.982	2.56857
269.2	7.4467
269.418	4.36366
269.636	3.76626
269.854	7.15812
270.073	5.11595
270.291	3.08424
270.509	3.12105
270.727	6.83176
270.945	10.52457
271.163	10.55649
271.381	2.80688
271.599	4.87117
271.817	7.67629
272.036	2.77312
272.254	4.7346
272.472	3.66156
272.69	3.8267
272.908	4.13836
273.126	6.21309
273.344	7.99203
273.562	2.75795
273.779	4.05645
273.997	6.62205
274.215	6.3903
274.433	4.79684
274.651	7.20493
274.869	6.94689
275.087	4.23348
275.305	6.41742
275.523	4.19712
275.74	4.81466
275.958	8.31684
276.176	11.89685
276.394	3.65041
276.612	5.16392
276.829	5.19921
277.047	4.56586
277.265	4.61482
277.483	5.7365
277.7	6.31456
277.918	5.24708
278.136	9.54397
278.353	4.62674
278.571	2.75563
278.789	7.03353
279.006	1.60508
279.224	3.92574
279.442	7.71546
279.659	5.67321
279.877	3.88682
280.094	8.34948
280.312	1.87934
280.529	5.4404
280.747	1.70375
280.964	4.26863
281.182	8.56253
281.399	4.35591
281.617	5.55741
281.834	3.84958
282.052	2.90616
282.269	5.10473
282.487	3.88496
282.704	3.53171
282.921	3.46754
283.139	5.13109
283.356	6.186
283.574	5.92798
283.791	2.91131
284.008	7.92807
284.226	4.76144
284.443	5.18838
284.66	6.28522
284.877	5.16818
285.095	3.06245
285.312	2.42307
285.529	1.48166
285.746	1.36193
285.964	3.20206
286.181	2.04948
286.398	3.02716
286.615	4.04564
286.832	4.13213
287.05	1.20404
287.267	2.91599
287.484	2.81616
287.701	4.25477
287.918	3.98223
288.135	4.24458
288.352	1.75098
288.569	2.48268
288.786	3.60546
289.003	2.91923
289.22	4.46686
289.437	2.52717
289.654	4.43846
289.871	4.46614
290.088	4.29138
290.305	3.33291
290.522	2.78752
290.739	3.1152
290.956	4.72219
291.173	5.49863
291.39	5.26819
291.607	3.59456
291.824	2.96025
292.04	1.98045
292.257	4.50748
292.474	4.9632
292.691	3.3723
292.908	1.65
293.125	2.53648
293.341	1.84238
293.558	7.74173
293.775	3.13308
293.992	3.19418
294.208	1.19341
294.425	2.24467
294.642	2.81165
294.858	4.29533
295.075	1.202
295.292	3.05822
295.508	3.72407
295.725	5.47176
295.942	2.83785
296.158	2.01541
296.375	3.19333
296.591	2.4222
296.808	2.48438
297.024	2.95078
297.241	3.32626
297.458	3.58246
297.674	0.43809
297.891	2.84997
298.107	2.37317
298.323	1.77597
298.54	4.24102
298.756	2.28766
298.973	1.05204
299.189	4.63716
299.406	1.95215
299.622	4.51693
299.838	4.53871
300.055	3.99685
300.271	0.98656
300.487	1.70786
300.704	1.86297
300.92	1.18327
301.136	5.88846
301.353	4.47215
301.569	3.04153
301.785	3.4485
302.001	4.06244
302.218	3.65586
302.434	3.67317
302.65	1.39262
302.866	2.46026
303.083	6.03151
303.299	5.88962
303.515	2.91732
303.731	3.27181
303.947	1.17656
304.163	2.3097
304.379	3.24847
304.595	3.60313
304.812	2.18584
305.028	2.08809
305.244	2.63102
305.46	4.1113
305.676	4.14149
305.892	5.04294
306.108	3.70725
306.324	2.67251
306.54	5.80988
306.756	3.83859
306.972	3.81254
307.187	2.70879
307.403	5.25811
307.619	2.50378
307.835	4.61059
308.051	4.95391
308.267	1.62049
308.483	4.52597
308.699	3.73186
308.914	3.20123
309.13	3.01853
309.346	1.12182
309.562	1.61923
309.778	1.06463
309.993	3.70403
310.209	2.77574
310.425	1.3291
310.641	2.57465
310.856	1.61685
311.072	1.51127
311.288	2.85067
311.503	3.15512
311.719	0.7926
311.935	0.58195
312.15	3.40381
312.366	3.01464
312.581	3.67644
312.797	3.04824
313.013	3.88871
313.228	2.14573
313.444	2.9892
313.659	2.0104
313.875	3.64791
314.09	2.79644
314.306	4.72889
314.521	4.1309
314.737	3.94376
314.952	3.20266
315.168	3.08626
315.383	3.61262
315.599	2.6093
315.814	2.38019
316.029	4.13783
316.245	1.38922
316.46	0.95076
316.675	4.78347
316.891	5.74951
317.106	7.19791
317.321	3.77051
317.537	3.87452
317.752	4.09306
317.967	4.232
318.183	2.01775
318.398	2.78138
318.613	4.50657
318.828	5.00432
319.043	4.39339
319.259	2.87619
319.474	3.51197
319.689	4.73775
319.904	0.8284
320.119	4.20378
320.334	3.52527
320.549	2.9819
320.765	4.7468
320.98	3.71536
321.195	4.22392
321.41	2.99223
321.625	4.37055
321.84	5.63244
322.055	5.45587
322.27	2.31684
322.485	2.0143
322.7	3.60505
322.915	4.63296
323.13	2.12426
323.345	5.2897
323.56	4.10794
323.775	4.09433
323.989	3.71221
324.204	3.45753
324.419	4.42341
324.634	1.57341
324.849	2.85376
325.064	6.3496
325.279	4.49242
325.493	3.8837
325.708	4.32256
325.923	2.12095
326.138	2.30245
326.352	5.3283
326.567	4.5072
326.782	2.65037
326.997	2.13298
327.211	4.2763
327.426	3.62631
327.641	2.88838
327.855	1.15245
328.07	3.93351
328.285	5.56796
328.499	2.90091
328.714	3.60732
328.928	4.34961
329.143	3.27879
329.358	4.82472
329.572	4.83765
329.787	5.23472
330.001	6.92991
330.216	1.67254
330.43	5.62762
330.645	5.47421
330.859	4.58402
331.074	2.38513
331.288	3.694
331.503	5.47366
331.717	1.81884
331.931	3.24238
332.146	3.56531
332.36	6.00843
332.575	4.09801
332.789	3.52591
333.003	3.27693
333.218	4.09775
333.432	2.495
333.646	4.39099
333.86	5.49723
334.075	5.70444
334.289	2.65002
334.503	1.93578
334.717	4.24117
334.932	3.83419
335.146	5.16308
335.36	2.97759
335.574	4.80426
335.788	4.25717
336.003	5.0939
336.217	4.72081
336.431	4.29198
336.645	2.77938
336.859	2.10338
337.073	3.18379
337.287	3.59319
337.501	2.03705
337.715	3.59709
337.929	4.06638
338.143	1.76819
338.357	3.03103
338.571	2.14067
338.785	4.05728
338.999	2.65655
339.213	2.73641
339.427	1.73213
339.641	5.06716
339.855	2.91343
340.069	2.62407
340.283	4.85504
340.497	5.67773
340.711	4.13739
340.924	3.18548
341.138	2.11226
341.352	1.63561
341.566	3.52751
341.78	1.39496
341.993	2.62991
342.207	2.10006
342.421	3.62542
342.635	3.16486
342.848	2.61803
343.062	0.51449
343.276	2.56243
343.49	6.0162
343.703	2.49163
343.917	4.50559
344.131	4.4316
344.344	2.39225
344.558	2.74281
344.771	1.93706
344.985	4.8293
345.199	5.35566
345.412	3.63293
345.626	3.84963
345.839	1.22185
346.053	1.94916
346.266	2.04741
346.48	4.19586
346.693	3.72988
346.907	3.93681
347.12	2.19131
347.334	3.65276
347.547	3.69644
347.76	3.06752
347.974	4.72505
348.187	3.82238
348.401	2.86247
348.614	2.5383
348.827	2.96578
349.041	3.97874
349.254	1.36457
349.467	2.98134
349.681	1.81112
349.894	2.38365
350.107	4.71807
350.32	5.46191
350.534	1.38895
350.747	2.93548
350.96	2.28379
351.173	2.40138
351.386	2.64942
351.6	2.7092
351.813	2.63997
352.026	3.31499
352.239	1.68167
352.452	2.87964
352.665	4.42191
352.878	2.8464
353.092	5.79552
353.305	4.13982
353.518	3.34953
353.731	2.05799
353.944	4.4349
354.157	2.59697
354.37	2.17459
354.583	1.83663
354.796	1.30924
355.009	4.52706
355.222	3.21332
355.435	3.21344
355.647	4.35247
355.86	2.10594
356.073	3.083
356.286	2.54014
356.499	3.98549
356.712	3.65055
356.925	3.66059
357.138	4.16711
357.35	1.81052
357.563	2.58891
357.776	3.1362
357.989	2.82169
358.201	3.66163
358.414	3.49094
358.627	4.43234
358.84	2.68689
359.052	1.70688
359.265	1.86373
359.478	4.09878
359.69	0.24975
359.903	3.80306
360.116	4.02735
360.328	1.10957
360.541	3.75088
360.753	1.93366
360.966	2.35396
361.179	2.49444
361.391	2.31165
361.604	1.78505
361.816	2.29492
362.029	2.09446
362.241	1.69995
362.454	2.26951
362.666	1.765
362.879	3.06334
363.091	2.58193
363.304	2.07147
363.516	2.66952
363.728	1.50466
363.941	3.51874
364.153	2.54355
364.366	0.58634
364.578	1.68792
364.79	3.40351
365.003	2.97048
365.215	2.57374
365.427	3.27049
365.639	4.25548
365.852	3.0433
366.064	4.82087
366.276	2.40221
366.488	3.38402
366.701	2.49449
366.913	2.76417
367.125	2.18952
367.337	2.27844
367.549	2.38486
367.762	2.87057
367.974	2.8398
368.186	2.24509
368.398	4.01419
368.61	3.61667
368.822	3.67988
369.034	2.91007
369.246	3.87588
369.458	5.82559
369.67	1.84329
369.882	4.99865
370.094	0.80743
370.306	4.78482
370.518	2.48267
370.73	2.40257
370.942	2.20081
371.154	2.71247
371.366	2.37229
371.578	3.48924
371.79	2.18801
372.002	4.16494
372.214	5.01884
372.425	3.1003
372.637	4.51789
372.849	3.51115
373.061	0.79005
373.273	3.51706
373.484	3.49855
373.696	4.07184
373.908	0.6065
374.12	4.15074
374.331	3.66996
374.543	2.17377
374.755	1.88982
374.967	3.11311
375.178	3.99594
375.39	2.78607
375.602	3.12007
375.813	1.59782
376.025	1.80409
376.236	3.06073
376.448	3.20687
376.66	2.56438
376.871	2.52955
377.083	3.91601
377.294	4.37342
377.506	2.35875
377.717	4.42123
377.929	3.25002
378.14	2.17457
378.352	3.58172
378.563	3.48481
378.775	4.46435
378.986	2.14362
379.197	3.27246
379.409	2.44438
379.62	3.85521
379.832	3.29552
380.043	2.80275
380.254	3.16271
380.466	1.86401
380.677	6.00554
380.888	5.47603
381.1	5.68051
381.311	5.82849
381.522	3.09931
381.733	6.332
381.945	2.79007
382.156	3.15194
382.367	2.64551
382.578	6.17262
382.789	6.17869
383.001	2.64002
383.212	4.65375
383.423	4.91827
383.634	4.41735
383.845	3.73097
384.056	2.75213
384.267	3.27956
384.478	2.92132
384.69	1.97805
384.901	3.6906
385.112	3.40437
385.323	4.85982
385.534	3.57464
385.745	3.44558
385.956	3.54385
386.167	2.12687
386.378	3.75415
386.588	2.12192
386.799	2.42939
387.01	1.58269
387.221	4.04817
387.432	2.99395
387.643	5.29756
387.854	2.87661
388.065	2.8625
388.275	2.92202
388.486	2.776
388.697	3.1038
388.908	2.94375
389.119	4.37501
389.329	5.12587
389.54	3.32576
389.751	3.67471
389.962	4.52081
390.172	3.42481
390.383	2.77376
390.594	2.41539
390.804	2.42791
391.015	2.68801
391.226	3.26235
391.436	3.7443
391.647	3.6196
391.858	3.77312
392.068	1.4791
392.279	2.15837
392.489	3.36626
392.7	4.15997
392.91	2.1401
393.121	2.49392
393.331	3.63049
393.542	4.44911
393.752	3.57242
393.963	3.38855
394.173	3.32936
394.384	3.96864
394.594	3.21032
394.804	2.00759
395.015	3.29083
395.225	3.82144
395.436	2.20669
395.646	3.82659
395.856	2.68424
396.067	1.92734
396.277	4.306
396.487	3.71586
396.697	3.44371
396.908	4.23187
397.118	3.90274
397.328	3.57493
397.538	4.32508
397.749	2.64578
397.959	4.36187
398.169	4.03699
398.379	2.02398
398.589	3.95293
398.8	3.35138
399.01	3.28676
399.22	3.06518
399.43	5.79539
399.64	3.10947
399.85	3.98154
400.06	3.31661
400.27	2.63482
400.48	3.48568
400.69	4.821
400.9	2.90207
401.11	2.61108
401.32	4.31394
401.53	2.82489
401.74	5.04714
401.95	4.11729
402.16	2.70037
402.37	3.82509
402.58	2.90049
402.79	4.0778
403	4.18277
403.209	2.79006
403.419	4.21218
403.629	2.90322
403.839	4.17822
404.049	4.29092
404.258	2.68142
404.468	2.50886
404.678	3.94511
404.888	4.11683
405.097	2.63013
405.307	3.46741
405.517	3.93602
405.727	3.74253
405.936	2.95835
406.146	3.70612
406.356	4.74652
406.565	3.38466
406.775	2.92556
406.984	2.94917
407.194	5.22205
407.404	3.53343
407.613	3.89785
407.823	4.30707
408.032	4.73718
408.242	4.73102
408.451	3.06933
408.661	3.36164
408.87	5.31049
409.08	3.11438
409.289	3.77852
409.499	3.80595
409.708	3.61947
409.918	1.55679
410.127	3.50024
410.336	4.99628
410.546	4.15865
410.755	3.07302
410.964	3.16033
411.174	2.82396
411.383	4.0467
411.592	4.12256
411.802	2.61957
412.011	4.4677
412.22	3.63195
412.429	5.18965
412.639	4.99816
412.848	4.70235
413.057	5.20848
413.266	4.84246
413.475	3.51949
413.685	4.49202
413.894	4.50291
414.103	4.79289
414.312	4.34547
414.521	3.65112
414.73	3.68711
414.939	5.59492
415.148	4.13277
415.357	3.88539
415.566	3.30393
415.776	3.26523
415.985	3.13776
416.194	4.40325
416.403	5.20166
416.611	2.42353
416.82	3.02846
417.029	3.68745
417.238	2.90686
417.447	2.69752
417.656	3.07409
417.865	2.80275
418.074	3.08638
418.283	3.37212
418.492	4.10045
418.7	3.94622
418.909	4.69199
419.118	3.52486
419.327	3.71848
419.536	3.5414
419.744	2.93437
419.953	4.16442
420.162	4.07443
420.371	2.97145
420.579	3.01726
420.788	4.11079
420.997	4.1537
421.205	4.11628
421.414	3.79518
421.623	3.78452
421.831	3.34452
422.04	4.22302
422.249	3.10731
422.457	3.80144
422.666	3.18157
422.874	4.19424
423.083	4.17388
423.291	4.12509
423.5	3.83207
423.708	3.99734
423.917	4.50794
424.125	3.92994
424.334	3.58448
424.542	5.57416
424.751	4.67374
424.959	4.42261
425.167	4.80284
425.376	4.57236
425.584	3.78408
425.793	4.1524
426.001	3.2333
426.209	4.47935
426.418	3.345
426.626	3.53054
426.834	3.27833
427.042	3.90726
427.251	3.32937
427.459	4.66388
427.667	4.17318
427.875	2.89928
428.084	3.48507
428.292	4.95988
428.5	4.44035
428.708	3.22559
428.916	3.22353
429.124	3.99738
429.333	3.67949
429.541	3.65125
429.749	3.99471
429.957	3.92571
430.165	5.94424
430.373	2.85291
430.581	4.13701
430.789	5.17477
430.997	3.60003
431.205	3.40273
431.413	4.03473
431.621	3.72573
431.829	4.47285
432.037	3.6025
432.245	4.44494
432.453	4.18519
432.661	3.60343
432.869	5.48453
433.076	3.08775
433.284	3.62518
433.492	4.37952
433.7	4.92123
433.908	3.49026
434.116	4.03014
434.323	4.00065
434.531	3.96543
434.739	4.43373
434.947	4.85637
435.154	4.6015
435.362	4.21118
435.57	3.80235
435.778	3.71399
435.985	4.40454
436.193	3.61145
436.401	5.06513
436.608	4.04809
436.816	3.82614
437.023	5.51109
437.231	5.49593
437.439	4.33081
437.646	4.51003
437.854	4.49579
438.061	4.66267
438.269	3.95775
438.476	4.67698
438.684	4.2565
438.891	3.83213
439.099	3.60203
439.306	3.02467
439.514	3.2916
439.721	4.329
439.929	3.54054
440.136	4.36955
440.343	4.21982
440.551	3.80739
440.758	5.58596
440.965	4.55329
441.173	4.16487
441.38	3.67089
441.587	4.35265
441.795	3.74457
442.002	4.35715
442.209	4.45827
442.416	4.75828
442.624	4.62031
442.831	4.54935
443.038	3.78606
443.245	3.5266
443.452	3.87099
443.66	4.88291
443.867	3.63789
444.074	3.78671
444.281	3.63879
444.488	3.992
444.695	4.02531
444.902	3.69617
445.109	4.604
445.316	3.79994
445.523	3.73315
445.73	3.45874
445.937	4.22066
446.144	4.57587
446.351	4.62746
446.558	3.58314
446.765	5.06313
446.972	5.01467
447.179	4.14798
447.386	5.17521
447.593	3.83544
447.8	5.02274
448.007	4.10157
448.214	4.25674
448.42	3.7731
448.627	5.22463
448.834	4.20319
449.041	4.11494
449.248	4.01271
449.454	5.04052
449.661	5.83045
449.868	4.14448
450.075	3.85343
450.281	2.76498
450.488	3.4063
450.695	3.68395
450.901	3.74517
451.108	3.8951
451.315	5.13877
451.521	4.32635
451.728	5.12675
451.935	3.75467
452.141	4.15019
452.348	4.34267
452.554	4.18671
452.761	4.11996
452.967	5.63525
453.174	4.49693
453.38	4.61601
453.587	3.35055
453.793	4.45007
454	5.10757
454.206	6.20051
454.413	5.36197
454.619	4.76539
454.825	3.82672
455.032	5.00137
455.238	5.30411
455.445	3.42664
455.651	4.5979
455.857	2.89344
456.064	4.29805
456.27	4.26889
456.476	4.30574
456.682	3.35366
456.889	4.80083
457.095	4.96476
457.301	6.41898
457.507	4.46167
457.714	4.50812
457.92	4.34156
458.126	3.81171
458.332	4.16867
458.538	3.82175
458.744	3.94872
458.951	3.97904
459.157	5.47093
459.363	4.25871
459.569	4.06604
459.775	4.80382
459.981	3.82514
460.187	4.28157
460.393	4.74317
460.599	5.28132
460.805	4.54865
461.011	4.51519
461.217	5.3652
461.423	5.52258
461.629	4.3256
461.835	5.15328
462.041	4.45001
462.247	6.03468
462.453	4.38581
462.658	4.65099
462.864	5.26925
463.07	4.95119
463.276	4.99077
463.482	4.81154
463.688	5.87841
463.893	4.27159
464.099	4.50587
464.305	6.09011
464.511	4.31801
464.716	4.67991
464.922	5.40416
465.128	4.14304
465.333	6.13754
465.539	5.23025
465.745	4.52432
465.95	4.95872
466.156	7.11803
466.362	5.78338
466.567	4.71018
466.773	4.29368
466.978	6.07519
467.184	4.05106
467.389	3.01514
467.595	5.2982
467.8	4.0227
468.006	6.03355
468.211	5.87553
468.417	3.90207
468.622	5.22118
468.828	5.52176
469.033	5.08201
469.239	7.37506
469.444	4.39879
469.649	5.78693
469.855	4.77389
470.06	5.00708
470.266	4.04488
470.471	5.49223
470.676	5.29673
470.881	3.66752
471.087	5.47973
471.292	6.69755
471.497	3.7715
471.703	4.70671
471.908	4.50602
472.113	5.10429
472.318	5.64352
472.523	4.1914
472.729	5.27168
472.934	5.34039
473.139	4.60299
473.344	5.39012
473.549	5.98205
473.754	4.33334
473.959	6.79931
474.164	4.30449
474.369	4.80554
474.575	5.72573
474.78	5.06164
474.985	4.72432
475.19	3.62621
475.395	4.38824
475.6	4.8685
475.804	6.11645
476.009	4.94774
476.214	4.95542
476.419	4.54763
476.624	3.60023
476.829	4.29557
477.034	5.32435
477.239	4.22101
477.444	5.0657
477.648	5.27138
477.853	5.42753
478.058	4.57403
478.263	4.25273
478.468	3.93642
478.672	4.18179
478.877	5.90454
479.082	6.37658
479.287	5.1019
479.491	4.97994
479.696	3.9348
479.901	5.60288
480.105	5.4591
480.31	4.41661
480.515	4.69715
480.719	6.62009
480.924	4.28285
481.128	3.8382
481.333	4.81194
481.538	4.87756
481.742	4.26086
481.947	4.86273
482.151	5.06712
482.356	5.09116
482.56	6.34539
482.765	6.91714
482.969	8.31305
483.174	9.47581
483.378	10.90892
483.582	10.70755
483.787	11.68172
483.991	11.57195
484.196	11.70474
484.4	11.34326
484.604	11.65367
484.809	9.86939
485.013	9.55583
485.217	8.35643
485.422	7.44167
485.626	6.86411
485.83	6.64857
486.034	6.51478
486.239	6.87469
486.443	6.93773
486.647	6.95928
486.851	7.83601
487.055	8.57559
487.26	7.94442
487.464	8.6297
487.668	7.96391
487.872	7.89592
488.076	8.5847
488.28	7.82917
488.484	7.24954
488.688	7.10253
488.892	7.01581
489.096	6.5922
489.3	5.85057
489.504	5.56252
489.708	5.72533
489.912	5.70057
490.116	5.53565
490.32	4.95187
490.524	6.00558
490.728	6.27168
490.932	6.46908
491.136	6.44846
491.34	7.53589
491.544	7.65791
491.748	7.1911
491.951	7.32246
492.155	6.89266
492.359	6.90989
492.563	5.76612
492.767	5.32588
492.97	5.05409
493.174	4.64684
493.378	5.04658
493.582	4.50082
493.785	5.1543
493.989	5.38338
494.193	5.3215
494.396	4.90476
494.6	5.77532
494.804	5.15537
495.007	4.64949
495.211	4.63368
495.414	4.90863
495.618	5.17887
495.822	5.99658
496.025	4.92368
496.229	5.68666
496.432	4.50928
496.636	4.94866
496.839	4.81195
497.043	6.40553
497.246	5.07143
497.45	4.71641
497.653	4.93042
497.856	5.27923
498.06	4.20191
498.263	4.88525
498.467	4.66526
498.67	5.91192
498.873	5.50808
499.077	4.84287
499.28	4.83179
499.483	5.34118
499.686	5.75827
499.89	5.39133
500.093	5.77314
500.296	4.66124
500.499	6.41263
500.703	5.2851
500.906	5.31078
501.109	6.70847
501.312	5.17468
501.515	5.09061
501.719	5.57933
501.922	6.57956
502.125	5.59619
502.328	5.31114
502.531	4.30971
502.734	5.33472
502.937	3.745
503.14	5.39037
503.343	4.34199
503.546	4.92705
503.749	4.58062
503.952	5.67188
504.155	4.46792
504.358	5.74026
504.561	5.18822
504.764	4.33368
504.967	5.23688
505.17	5.28382
505.373	6.66322
505.576	5.37201
505.778	5.89303
505.981	4.85743
506.184	6.25212
506.387	4.01808
506.59	6.80812
506.793	6.28634
506.995	5.63599
507.198	3.83055
507.401	5.47875
507.604	5.61561
507.806	4.39904
508.009	4.65624
508.212	5.58976
508.414	4.79229
508.617	4.69556
508.82	5.16408
509.022	6.26071
509.225	5.43365
509.427	3.9185
509.63	6.24853
509.833	5.28915
510.035	5.04012
510.238	4.08626
510.44	6.25946
510.643	3.64635
510.845	7.0599
511.048	5.58374
511.25	4.97211
511.453	5.1259
511.655	5.56602
511.858	4.91458
512.06	5.99602
512.262	5.31821
512.465	5.97
512.667	4.71183
512.869	4.50068
513.072	5.66289
513.274	6.02201
513.476	5.81588
513.679	6.1072
513.881	4.37963
514.083	6.82155
514.286	4.85203
514.488	4.96796
514.69	4.54495
514.892	4.38416
515.094	5.8525
515.297	4.93479
515.499	5.39073
515.701	4.68675
515.903	6.6597
516.105	6.66808
516.307	5.97075
516.509	3.87709
516.711	4.26776
516.913	5.4388
517.116	5.2037
517.318	4.91433
517.52	6.07391
517.722	5.65199
517.924	4.30768
518.126	5.4273
518.328	4.63208
518.529	5.51738
518.731	6.49655
518.933	4.74625
519.135	5.15906
519.337	6.15905
519.539	5.58837
519.741	3.99758
519.943	5.18612
520.145	5.06949
520.346	5.89504
520.548	5.0815
520.75	5.71512
520.952	5.14983
521.153	5.62744
521.355	5.73617
521.557	4.57619
521.759	5.64434
521.96	5.48969
522.162	4.62277
522.364	6.20185
522.565	4.75233
522.767	6.01299
522.969	6.26464
523.17	5.75019
523.372	5.79385
523.573	4.88544
523.775	5.3025
523.977	4.61375
524.178	6.60183
524.38	4.72724
524.581	5.89435
524.783	4.97591
524.984	5.72212
525.186	5.25411
525.387	5.69399
525.589	5.19261
525.79	4.9826
525.991	4.60993
526.193	5.39777
526.394	4.22453
526.596	5.37926
526.797	5.2899
526.998	4.9212
527.2	4.65476
527.401	6.47866
527.602	6.71973
527.803	8.53313
528.005	8.47101
528.206	9.12869
528.407	9.59005
528.608	9.16132
528.81	9.27532
529.011	8.57748
529.212	9.54664
529.413	8.5539
529.614	7.7775
529.815	7.55134
530.017	7.0147
530.218	6.18256
530.419	5.28733
530.62	5.69566
530.821	5.75901
531.022	4.78846
531.223	5.93933
531.424	5.89248
531.625	5.66237
531.826	5.57299
532.027	5.48325
532.228	6.48583
532.429	6.08606
532.63	6.0527
532.831	6.59642
533.032	6.59478
533.233	7.11925
533.433	6.7504
533.634	7.02753
533.835	6.1936
534.036	5.71236
534.237	5.65167
534.438	5.30169
534.638	4.87855
534.839	5.18116
535.04	5.96995
535.241	5.23893
535.441	6.82326
535.642	5.83325
535.843	4.7523
536.043	4.89076
536.244	4.99484
536.445	5.1016
536.645	6.02746
536.846	5.53924
537.047	6.34849
537.247	4.81889
537.448	5.33397
537.648	5.58812
537.849	5.63583
538.049	5.5471
538.25	6.39232
538.451	5.9996
538.651	5.06849
538.851	6.15821
539.052	6.7002
539.252	6.38059
539.453	5.60523
539.653	5.70536
539.854	5.49877
540.054	5.45844
540.254	6.03737
540.455	6.4973
540.655	5.98375
540.855	6.83575
541.056	7.57272
541.256	6.96587
541.456	7.95857
541.657	7.11316
541.857	7.95827
542.057	6.36186
542.257	6.07451
542.458	6.77718
542.658	6.67578
542.858	5.0865
543.058	6.48247
543.258	6.04279
543.458	4.9636
543.659	4.77612
543.859	6.21043
544.059	6.17132
544.259	5.49817
544.459	6.59139
544.659	5.31138
544.859	6.15824
545.059	5.17385
545.259	6.33351
545.459	5.9485
545.659	6.43001
545.859	5.72317
546.059	5.82391
546.259	5.09779
546.459	4.47999
546.659	4.89452
546.859	6.19188
547.059	5.9563
547.258	6.10335
547.458	6.09145
547.658	4.93216
547.858	5.0054
548.058	6.14746
548.258	5.69386
548.457	5.16185
548.657	8.62085
548.857	5.81489
549.057	6.89713
549.256	6.66349
549.456	6.08315
549.656	4.35471
549.855	8.16754
550.055	5.99508
550.255	7.9565
550.454	6.65309
550.654	7.3329
550.853	7.58971
551.053	7.2773
551.253	6.63414
551.452	6.65961
551.652	5.15019
551.851	4.77328
552.051	5.802
552.25	5.54697
552.45	5.16554
552.649	5.74993
552.849	5.25801
553.048	6.1559
553.248	6.72537
553.447	5.10395
553.646	6.95984
553.846	7.88884
554.045	7.30088
554.244	5.05662
554.444	8.02405
554.643	5.13963
554.842	8.02888
555.042	8.67757
555.241	5.74193
555.44	5.4596
555.64	6.63986
555.839	8.34176
556.038	6.99222
556.237	5.85091
556.436	6.44359
556.636	6.98063
556.835	5.61315
557.034	8.11097
557.233	6.36947
557.432	5.23789
557.631	7.6996
557.83	6.3978
558.029	5.97955
558.228	6.07181
558.427	5.49326
558.626	6.98726
558.825	5.51885
559.024	6.73759
559.223	8.76218
559.422	6.43351
559.621	7.21025
559.82	3.89874
560.019	6.61782
560.218	5.97057
560.417	3.53977
560.616	5.91563
560.815	10.04855
561.014	4.88297
561.212	7.68421
561.411	6.74919
561.61	4.61971
561.809	6.19406
562.008	8.35839
562.206	6.29346
562.405	7.15424
562.604	6.27734
562.803	6.72268
563.001	6.4812
563.2	4.84674
563.399	7.09038
563.597	5.0448
563.796	6.69759
563.995	4.9891
564.193	6.99494
564.392	5.82898
564.59	9.03873
564.789	4.25408
564.988	5.84756
565.186	6.30592
565.385	5.84455
565.583	5.62509
565.782	6.0241
565.98	5.71504
566.179	6.07257
566.377	4.83812
566.575	5.25441
566.774	7.19882
566.972	7.03809
567.171	8.63032
567.369	7.76052
567.567	6.39625
567.766	6.66528
567.964	4.01513
568.162	7.12311
568.361	7.57729
568.559	6.36274
568.757	6.94479
568.956	6.68661
569.154	6.25857
569.352	7.41556
569.55	6.16415
569.748	6.3171
569.947	5.30111
570.145	5.27428
570.343	4.98872
570.541	7.55522
570.739	4.64303
570.937	6.26731
571.135	6.38404
571.333	8.05808
571.532	7.85608
571.73	6.35251
571.928	7.17968
572.126	6.54975
572.324	5.59284
572.522	7.4716
572.72	9.15154
572.918	6.16225
573.116	6.46711
573.313	6.14974
573.511	6.00017
573.709	5.72949
573.907	7.01031
574.105	5.96317
574.303	4.2264
574.501	4.52488
574.699	6.56719
574.896	6.53672
575.094	6.70831
575.292	4.84521
575.49	7.25451
575.688	6.03657
575.885	7.95853
576.083	8.6372
576.281	6.81923
576.478	5.84697
576.676	7.14912
576.874	5.07225
577.071	6.14575
577.269	9.56489
577.467	6.24143
577.664	6.58566
577.862	7.65631
578.059	5.78317
578.257	7.68057
578.455	6.58462
578.652	6.92638
578.85	4.46351
579.047	6.78723
579.245	6.78309
579.442	6.85601
579.64	6.7614
579.837	4.47487
580.034	10.09866
580.232	6.39566
580.429	5.49183
580.627	7.54748
580.824	8.72022
581.021	7.50292
581.219	6.35745
581.416	5.57992
581.613	8.84561
581.811	8.73868
582.008	5.8447
582.205	8.04749
582.402	7.5667
582.6	8.98699
582.797	7.37345
582.994	7.77057
583.191	7.96359
583.388	7.33745
583.586	8.13678
583.783	8.58278
583.98	6.1299
584.177	7.56394
584.374	3.05654
584.571	7.13111
584.768	7.01725
584.965	6.83239
585.162	8.24045
585.359	9.65392
585.556	7.19796
585.753	7.51456
585.95	5.38578
586.147	6.01859
586.344	7.66739
586.541	6.94007
586.738	5.53778
586.935	7.02619
587.132	6.18678
587.329	8.73752
587.526	6.96267
587.722	14.18513
587.919	5.23001
588.116	7.77501
588.313	9.15664
588.51	10.33041
588.706	6.8849
588.903	7.96299
589.1	8.26765
589.297	11.01153
589.493	7.0536
589.69	7.90833
589.887	5.96952
590.083	5.22898
590.28	5.96784
590.477	8.50966
590.673	8.2072
590.87	9.15331
591.067	6.60477
591.263	7.87603
591.46	7.81366
591.656	6.8724
591.853	9.16472
592.049	6.20068
592.246	6.72979
592.442	9.35599
592.639	8.46453
592.835	5.93329
593.032	7.9801
593.228	5.06342
593.425	5.3393
593.621	5.15484
593.817	7.40119
594.014	6.26459
594.21	7.29418
594.406	8.60047
594.603	7.75086
594.799	6.37762
594.995	3.7066
595.192	8.46066
595.388	6.3925
595.584	6.21278
595.78	4.83575
595.977	9.82757
596.173	9.06106
596.369	6.21496
596.565	5.29087
596.761	4.75149
596.957	8.14572
597.154	5.44264
597.35	5.91489
597.546	5.7246
597.742	7.34175
597.938	7.12928
598.134	5.69275
598.33	7.45245
598.526	9.39888
598.722	8.10534
598.918	10.02882
599.114	8.24561
599.31	6.15766
599.506	7.64947
599.702	6.21752
599.898	8.01078
600.094	9.30196
600.29	8.78026
600.485	8.78538
600.681	6.8342
600.877	10.17619
601.073	7.52016
601.269	10.50716
601.465	9.57292
601.66	6.18453
601.856	4.74056
602.052	9.87949
602.248	6.58694
602.443	4.17162
602.639	5.27457
602.835	5.76677
603.03	5.64292
603.226	8.21869
603.422	5.39631
603.617	6.46114
603.813	5.95713
604.009	5.70918
604.204	8.03181
604.4	4.34254
604.595	7.76046
604.791	5.30046
604.986	6.70237
605.182	5.24042
605.377	5.88177
605.573	5.88703
605.768	6.95772
605.964	7.79046
606.159	8.12932
606.355	9.13408
606.55	6.85249
606.746	8.72702
606.941	7.34764
607.136	10.49969
607.332	12.14728
607.527	5.46964
607.722	7.92231
607.918	7.24366
608.113	5.87724
608.308	8.24323
608.503	7.83149
608.699	7.63089
608.894	7.44538
609.089	5.7087
609.284	7.24108
609.479	6.18291
609.675	7.62865
609.87	6.2516
610.065	7.80223
610.26	8.5038
610.455	7.98963
610.65	6.82419
610.845	7.51839
611.04	8.86838
611.235	7.33731
611.43	6.8183
611.625	5.38444
611.82	9.74517
612.015	6.53614
612.21	10.54257
612.405	5.39722
612.6	11.33902
612.795	10.17298
612.99	9.62665
613.185	6.01264
613.38	6.50644
613.575	8.74369
613.77	12.92548
613.965	5.50541
614.159	6.58434
614.354	10.51342
614.549	10.43003
614.744	9.46204
614.938	6.15947
615.133	5.7723
615.328	10.53663
615.523	10.80878
615.717	13.98036
615.912	7.17117
616.107	8.79679
616.301	8.10677
616.496	6.72077
616.691	11.56065
616.885	9.89345
617.08	13.24208
617.274	10.96523
617.469	12.54103
617.664	9.79227
617.858	7.20858
618.053	9.16094
618.247	7.98494
618.442	4.27428
618.636	11.08775
618.831	7.69916
619.025	7.65842
619.219	13.62789
619.414	2.20801
619.608	8.31468
619.803	6.74215
619.997	12.80616
620.191	10.69535
620.386	9.5767
620.58	8.73579
620.774	5.28514
620.969	5.6091
621.163	8.70112
621.357	6.5561
621.551	8.12528
621.746	8.66962
621.94	8.9031
622.134	16.01674
622.328	13.01758
622.522	5.90921
622.716	11.00143
622.911	10.9708
623.105	10.27998
623.299	9.4935
623.493	15.51801
623.687	7.05703
623.881	7.87358
624.075	10.03911
624.269	11.16606
624.463	5.19423
624.657	5.55745
624.851	10.02037
625.045	10.55234
625.239	10.20931
625.433	7.05093
625.627	11.45571
625.821	7.13889
626.015	6.76388
626.209	7.96334
626.403	5.11038
626.596	8.97278
626.79	9.29012
626.984	5.69501
627.178	8.81838
627.372	9.11302
627.565	9.74906
627.759	5.26032
627.953	5.81577
628.147	9.23436
628.34	9.78829
628.534	12.52574
628.728	8.11378
628.921	10.59685
629.115	10.02795
629.309	10.63135
629.502	10.8885
629.696	9.48469
629.89	8.75978
630.083	9.49978
630.277	9.98386
630.47	13.06575
630.664	8.78181
630.857	6.02454
631.051	10.87238
631.244	11.66398
631.438	11.14242
631.631	7.21084
631.825	12.02228
632.018	10.73326
632.212	13.70082
632.405	12.3026
632.598	7.38665
632.792	9.62001
632.985	4.09287
633.178	7.99128
633.372	8.99408
633.565	8.99099
633.758	11.94535
633.952	7.16378
634.145	7.13221
634.338	9.32119
634.531	8.30306
634.724	7.75058
634.918	9.87601
635.111	8.70807
635.304	8.07608
635.497	14.56286
635.69	10.06199
635.883	12.1808
636.077	6.6057
636.27	10.95008
636.463	10.16659
636.656	10.70032
636.849	8.44001
637.042	10.66812
637.235	14.19186
637.428	11.6711
637.621	11.04836
637.814	13.80317
638.007	14.07625
638.2	14.0782
638.393	14.68112
638.586	7.3271
638.778	8.62764
638.971	11.04045
639.164	14.19996
639.357	11.69736
639.55	14.13978
639.743	12.74605
639.935	12.1956
640.128	15.83498
640.321	12.7781
640.514	11.25331
640.707	17.54497
640.899	12.5465
641.092	6.47648
641.285	31.05642
641.477	5.19149
641.67	16.31903
641.863	14.61649
642.055	11.73298
642.248	11.3672
642.441	10.12286
642.633	12.58585
642.826	14.66104
643.018	14.9244
643.211	16.24273
643.403	15.82368
643.596	17.54741
643.788	17.88934
643.981	10.4592
644.173	13.64269
644.366	10.25132
644.558	7.28719
644.751	14.20726
644.943	7.69882
645.135	16.37413
645.328	16.82528
645.52	13.95174
645.712	14.18868
645.905	21.57161
646.097	8.68549
646.289	13.3158
646.482	17.33213
646.674	10.75818
646.866	14.74034
647.058	13.57092
647.251	8.92827
647.443	9.95246
647.635	11.3486
647.827	9.23624
648.019	8.98584
648.211	11.89149
648.404	12.0988
648.596	16.64703
648.788	13.12518
648.98	13.46412
649.172	13.33782
649.364	12.85582
649.556	6.9819
649.748	19.08231
649.94	9.2847
650.132	13.60386
650.324	9.61621
650.516	9.60808
650.708	14.9565
650.9	7.95741
651.092	10.67367
651.284	7.35517
651.476	8.94219
651.667	13.41823
651.859	15.75348
652.051	11.93006
652.243	12.78276
652.435	10.29469
652.627	13.33913
652.818	13.63356
653.01	7.7624
653.202	10.04369
653.394	11.66326
653.585	14.04708
653.777	25.98174
653.969	15.9021
654.16	15.89654
654.352	9.30155
654.544	11.88129
654.735	16.04144
654.927	13.0396
655.118	17.21575
655.31	15.09761
655.502	15.78015
655.693	10.96348
655.885	14.3726
656.076	17.09225
656.268	13.25646
656.459	16.64323
656.651	16.68068
656.842	10.94812
657.034	9.94298
657.225	14.57316
657.416	16.87261
657.608	16.12122
657.799	11.85928
657.99	14.31241
658.182	9.23816
658.373	9.62735
658.564	14.15404
658.756	11.77174
658.947	11.14997
659.138	8.42093
659.33	9.76018
659.521	8.98645
659.712	10.90798
659.903	10.8872
660.094	9.72529
660.286	7.35611
660.477	17.83438
660.668	13.45488
660.859	12.64171
661.05	8.29425
661.241	14.62603
661.432	14.60625
661.623	12.3925
661.814	11.79528
662.006	7.7501
662.197	14.54291
662.388	16.96013
662.579	14.1456
662.77	23.45
662.96	22.92931
663.151	17.19191
663.342	8.19123
663.533	15.771
663.724	13.09815
663.915	19.59955
664.106	13.6877
664.297	20.32103
664.488	16.7251
664.678	12.68446
664.869	16.36117
665.06	17.78859
665.251	14.93954
665.442	15.89789
665.632	10.92564
665.823	21.26458
666.014	4.49704
666.204	16.4015
666.395	19.55366
666.586	24.82376
666.776	17.21023
666.967	20.67051
667.158	14.08967
667.348	20.18775
667.539	10.60877
667.729	17.32808
667.92	11.44723
668.111	18.07515
668.301	16.60564
668.492	12.77055
668.682	14.07649
668.873	13.35026
669.063	10.3239
669.253	14.07379
669.444	18.39604
669.634	13.95794
669.825	21.58661
670.015	18.17405
670.206	11.71436
670.396	22.53918
670.586	14.43568
670.777	16.89852
670.967	7.43224
671.157	14.20962
671.347	12.506
671.538	21.50702
671.728	17.00401
671.918	22.15909
672.108	19.35744
672.299	15.02717
672.489	16.71334
672.679	12.93583
672.869	17.27582
673.059	22.75419
673.249	16.89341
673.44	12.49908
673.63	14.8615
673.82	19.08683
674.01	12.41547
674.2	17.52824
674.39	27.84062
674.58	17.82316
674.77	17.07874
674.96	16.35732
675.15	32.25438
675.34	20.30926
675.53	16.22858
675.72	14.03791
675.91	10.98139
676.099	23.09424
676.289	24.87977
676.479	19.92437
676.669	14.3779
676.859	18.17089
677.049	11.99178
677.238	15.89211
677.428	22.59734
677.618	17.06188
677.808	21.23284
677.997	17.30085
678.187	11.52993
678.377	15.08686
678.567	13.60843
678.756	13.79614
678.946	13.86644
679.136	9.76879
679.325	11.64484
679.515	11.44832
679.704	9.4297
679.894	16.90256
680.084	15.36808
680.273	19.72035
680.463	10.45018
680.652	11.2965
680.842	13.97458
681.031	18.34531
681.221	11.04272
681.41	16.84679
681.6	14.36367
681.789	18.12297
681.978	20.8124
682.168	16.5671
682.357	17.39369
682.547	19.36415
682.736	16.66358
682.925	21.57462
683.115	21.31273
683.304	19.80478
683.493	18.00584
683.682	19.1681
683.872	18.52106
684.061	21.86369
684.25	19.14951
684.439	25.14379
684.629	19.89006
684.818	32.14745
685.007	17.41835
685.196	15.73209
685.385	25.16152
685.574	19.55352
685.763	19.14758
685.952	18.74453
686.142	12.90128
686.331	24.22549
686.52	10.05964
686.709	24.99021
686.898	25.17777
687.087	21.30537
687.276	25.71983
687.465	22.65502
687.654	16.14541
687.842	25.46961
688.031	11.52455
688.22	24.17354
688.409	19.17975
688.598	19.20879
688.787	30.05765
688.976	19.1983
689.165	27.61263
689.353	16.18318
689.542	21.13861
689.731	23.01526
689.92	28.63341
690.108	23.13014
690.297	17.58372
690.486	19.92081
690.675	22.88966
690.863	28.45215
691.052	28.22657
691.241	22.1334
691.429	21.69701
691.618	26.45686
691.806	14.5118
691.995	19.29341
692.184	19.73359
692.372	17.91508
692.561	20.84727
692.749	20.85314
692.938	33.00828
693.126	23.48232
693.315	17.88379
693.503	23.29551
693.692	24.32129
693.88	26.07246
694.068	32.94883
694.257	20.90263
694.445	23.50129
694.634	11.37756
694.822	26.91111
695.01	27.8907
695.199	29.44548
695.387	29.52919
695.575	28.6135
695.763	21.50352
695.952	19.40933
696.14	14.12718
696.328	18.01536
696.516	22.18034
696.705	22.12544
696.893	21.57435
697.081	11.15003
697.269	22.90544
697.457	13.90954
697.645	12.76981
697.833	21.46111
698.021	13.51446
698.21	15.45793
698.398	16.65363
698.586	12.33652
698.774	11.32718
698.962	15.50617
699.15	12.22601
699.338	10.26894
699.526	19.81324
699.714	14.78381
699.901	15.77155
700.089	23.39187
700.277	15.06204
700.465	18.65742
700.653	23.89317
700.841	21.87347
701.029	16.05396
701.217	27.28065
701.404	22.11301
701.592	28.14718
701.78	32.33492
701.968	19.4037
702.155	21.45488
702.343	15.59201
702.531	29.08365
702.718	24.44751
702.906	20.40854
703.094	18.56998
703.281	29.88312
703.469	21.44278
703.657	29.53985
703.844	42.28904
704.032	33.14843
704.219	19.20769
704.407	25.84409
704.595	31.66534
704.782	23.84443
704.97	21.03958
705.157	21.23567
705.345	34.13761
705.532	39.76118
705.719	26.41307
705.907	32.67825
706.094	24.39967
706.282	34.45181
706.469	22.83934
706.656	25.05762
706.844	22.36488
707.031	30.53527
707.218	25.05263
707.406	34.3873
707.593	29.24003
707.78	29.09278
707.968	23.4475
708.155	19.30882
708.342	28.57858
708.529	28.62915
708.716	25.58522
708.904	36.0313
709.091	29.28334
709.278	19.0179
709.465	36.21127
709.652	36.57155
709.839	34.35378
710.026	27.08531
710.213	15.56707
710.4	27.66926
710.587	30.26524
710.774	33.9672
710.961	32.78035
711.148	25.5732
711.335	33.40869
711.522	24.90081
711.709	27.75337
711.896	39.65099
712.083	31.66177
712.27	20.9614
712.457	27.15879
712.644	16.99901
712.831	39.87187
713.017	28.25333
713.204	31.25825
713.391	22.50848
713.578	34.72634
713.765	35.71456
713.951	30.99519
714.138	48.60473
714.325	31.32483
714.512	27.44013
714.698	22.75347
714.885	37.27018
715.072	29.67169
715.258	28.15023
715.445	23.8001
715.631	35.39615
715.818	11.53222
716.005	23.70804
716.191	30.89973
716.378	26.03845
716.564	33.3083
716.751	22.86487
716.937	24.95161
717.124	36.9317
717.31	24.17113
717.497	40.2851
717.683	23.28602
717.869	47.76038
718.056	25.9605
718.242	33.03231
718.429	28.73459
718.615	21.81212
718.801	30.41107
718.988	37.77837
719.174	34.35106
719.36	29.81764
719.547	40.52998
719.733	33.29039
719.919	32.70137
720.105	37.1673
720.291	30.34853
720.478	32.43711
720.664	30.77642
720.85	29.64446
721.036	55.58181
721.222	43.24454
721.408	30.30459
721.595	48.03166
721.781	46.6831
721.967	42.21249
722.153	45.26678
722.339	35.64021
722.525	36.35364
722.711	25.88484
722.897	21.91389
723.083	29.98791
723.269	42.58064
723.455	53.71274
723.641	58.52247
723.827	35.66774
724.012	37.7247
724.198	30.12269
724.384	45.15855
724.57	36.70139
724.756	21.16802
724.942	18.17749
725.127	42.05043
725.313	45.82847
725.499	44.64216
725.685	49.44997
725.87	37.80429
726.056	27.15143
726.242	45.30899
726.428	20.76784
726.613	42.26939
726.799	32.10197
726.985	25.00034
727.17	22.44692
727.356	48.96677
727.541	27.13112
727.727	32.87816
727.913	40.41211
728.098	29.42725
728.284	40.12092
728.469	23.92217
728.655	28.08832
728.84	41.61861
729.026	40.032
729.211	41.43397
729.397	36.26967
729.582	39.39907
729.767	32.48801
729.953	36.58866
730.138	43.17545
730.323	15.46808
730.509	24.19633
730.694	48.08016
730.879	38.27534
731.065	34.86959
731.25	53.95219
731.435	39.74711
731.621	22.12873
731.806	28.47627
731.991	36.60713
732.176	23.4009
732.361	46.3605
732.547	35.99261
732.732	20.90773
732.917	54.90034
733.102	24.73619
733.287	28.46852
733.472	34.74622
733.657	35.92491
733.842	22.951
734.027	33.0837
734.212	34.65725
734.397	29.11807
734.582	35.80924
734.767	43.99335
734.952	50.51012
735.137	14.10005
735.322	50.35519
735.507	40.74123
735.692	38.67647
735.877	57.47713
736.062	54.50234
736.247	40.43802
736.431	35.50973
736.616	48.6857
736.801	40.82801
736.986	38.53344
737.171	29.55588
737.355	24.55145
737.54	49.66535
737.725	38.19123
737.909	64.45764
738.094	31.65832
738.279	46.35192
738.463	35.45014
738.648	42.62322
738.833	41.80202
739.017	57.85364
739.202	33.76912
739.386	37.81169
739.571	28.38437
739.756	44.42795
739.94	37.65493
740.125	48.78955
740.309	31.44601
740.494	46.39532
740.678	40.30496
740.863	43.56197
741.047	40.2155
741.231	51.73067
741.416	30.7684
741.6	55.34552
741.785	32.9619
741.969	47.01642
742.153	52.66256
742.338	18.5925
742.522	40.19717
742.706	48.3206
742.89	26.39469
743.075	43.41393
743.259	56.22325
743.443	49.85403
743.627	53.9267
743.812	65.60995
743.996	22.96825
744.18	38.11843
744.364	36.15637
744.548	69.23954
744.732	39.08351
744.916	49.12838
745.1	46.59456
745.285	38.2763
745.469	44.35568
745.653	62.10019
745.837	25.56011
746.021	68.48297
746.205	55.04405
746.389	42.16117
746.573	37.17889
746.757	60.94506
746.94	35.7046
747.124	55.47688
747.308	28.91093
747.492	55.12243
747.676	34.29152
747.86	67.82576
748.044	35.86561
748.227	23.26286
748.411	83.07884
748.595	45.98278
748.779	32.74925
748.963	46.89916
749.146	42.79887
749.33	33.56217
749.514	30.91379
749.697	56.60079
749.881	35.60664
750.065	32.14649
750.248	43.4949
750.432	70.28446
750.616	43.85926
750.799	30.54369
750.983	68.12178
751.166	75.88421
751.35	26.37664
751.533	51.45848
751.717	57.44814
751.9	62.51951
752.084	38.60492
752.267	31.4452
752.451	33.35763
752.634	43.48287
752.818	50.84493
753.001	53.50341
753.184	56.76472
753.368	47.25557
753.551	8.04376
753.734	33.90058
753.918	67.11389
754.101	33.74588
754.284	53.26998
754.467	39.59646
754.651	35.77873
754.834	35.13023
755.017	57.75106
755.2	55.85779
755.384	31.60177
755.567	52.76634
755.75	55.78733
755.933	38.37301
756.116	48.12493
756.299	37.9756
756.482	32.75913
756.665	52.06519
756.848	44.84614
757.032	50.30844
757.215	26.98419
757.398	33.45682
757.581	33.44899
757.764	78.5005
757.947	44.78107
758.129	61.14119
758.312	12.35096
758.495	43.24292
758.678	41.8971
758.861	41.24655
759.044	68.32323
759.227	35.63704
759.41	34.88034
759.592	51.73798
759.775	43.72193
759.958	58.49504
760.141	29.76923
760.324	72.38658
760.506	64.29981
760.689	56.19055
760.872	76.43313
761.054	53.74551
761.237	41.46951
761.42	49.86465
761.602	54.71727
761.785	50.27347
761.968	57.08201
762.15	67.4833
762.333	40.69833
762.515	48.08752
762.698	36.01606
762.88	51.15647
763.063	43.39233
763.245	49.00873
763.428	28.9638
763.61	33.57766
763.793	25.39217
763.975	42.02336
764.158	36.4769
764.34	33.45069
764.522	27.8002
764.705	38.15207
764.887	57.75252
765.069	24.93463
765.252	52.23306
765.434	54.28351
765.616	44.91313
765.799	38.05403
765.981	54.86919
766.163	33.8412
766.345	57.65518
766.528	37.533
766.71	15.2789
766.892	44.79539
767.074	63.5036
767.256	42.23622
767.438	70.10083
767.62	51.58709
767.802	79.02193
767.985	57.56286
768.167	72.84464
768.349	38.65702
768.531	56.16244
768.713	52.72155
768.895	63.99133
769.077	54.34803
769.259	87.43765
769.441	119.87859
769.623	65.07111
769.804	75.45381
769.986	71.90718
770.168	88.00459
770.35	105.31071
770.532	75.11781
770.714	85.06368
770.896	88.59273
771.077	36.59904
771.259	86.97244
771.441	72.25892
771.623	95.69983
771.804	115.82619
771.986	36.17878
772.168	54.51754
772.35	91.54265
772.531	122.36629
772.713	70.96147
772.894	96.40616
773.076	66.75068
773.258	57.81523
773.439	96.78568
773.621	108.06768
773.802	46.57187
773.984	59.99471
774.166	75.61541
774.347	104.48471
774.529	93.41516
774.71	30.88173
774.891	64.75539
775.073	62.43244
775.254	102.34644
775.436	59.20272
775.617	112.23478
775.799	62.40519
775.98	106.17513
776.161	106.96937
776.343	109.16901
776.524	67.87619
776.705	62.86074
776.886	31.84877
777.068	78.99598
777.249	134.39806
777.43	120.49051
777.611	48.37592
777.793	62.3787
777.974	110.78396
778.155	61.17407
778.336	54.32946
778.517	121.66153
778.698	56.26453
778.879	29.03435
779.061	16.63137
779.242	80.18516
779.423	82.76202
779.604	68.72634
779.785	72.67538
779.966	75.49563
780.147	98.00252
780.328	96.66806
780.509	137.94528
780.69	87.84136
780.871	54.71281
781.051	42.09446
781.232	75.34358
781.413	74.87252
781.594	65.51644
781.775	59.3942
781.956	54.9875
782.137	31.76624
782.317	55.58482
782.498	79.44343
782.679	70.6176
782.86	75.23067
783.04	56.95032
783.221	77.84804
783.402	120.89278
783.583	76.93487
783.763	89.40064
783.944	63.70497
784.124	39.35922
784.305	112.73384
784.486	83.86971
784.666	66.81801
784.847	40.13908
785.027	139.37828
785.208	57.70674
785.388	56.97233
785.569	59.76264
785.749	65.42257
785.93	57.80755
786.11	38.85987
786.291	84.677
786.471	76.05591
786.652	90.52616
786.832	68.28172
787.012	80.12247
787.193	44.89162
787.373	73.76365
787.553	62.70619
787.734	77.60676
787.914	61.69274
788.094	83.57054
788.275	77.54375
788.455	63.20678
788.635	39.09864
788.815	75.92101
788.995	48.1561
789.176	40.6194
789.356	54.31192
789.536	64.76369
789.716	81.88851
789.896	54.60632
790.076	57.69635
790.256	73.95689
790.436	24.60927
790.616	51.01539
790.796	76.25037
790.976	61.68386
791.156	56.52569
791.336	86.50664
791.516	79.12221
791.696	67.03495
791.876	37.30511
792.056	74.69548
792.236	93.90381
792.416	87.97402
792.596	80.9322
792.776	82.10222
792.956	84.70418
793.135	106.33548
793.315	48.78966
793.495	100.32614
793.675	85.83967
793.854	91.106
794.034	94.34407
794.214	45.9267
794.394	89.28528
794.573	101.92217
794.753	73.2103
794.933	50.10579
795.112	74.31002
795.292	90.64794
795.472	112.77686
795.651	41.42076
795.831	68.1877
796.01	61.75196
796.19	65.68732
796.369	66.1152
796.549	82.76013
796.728	67.22119
796.908	41.02394
797.087	46.58467
797.267	62.20613
797.446	47.57196
797.626	82.35532
797.805	84.28647
797.984	52.85546
798.164	86.54732
798.343	50.38344
798.522	77.25051
798.702	73.21398
798.881	43.3287
799.06	67.46776
799.239	30.44546
799.419	52.04786
799.598	107.93047
799.777	84.20326
799.956	100.73011
800.136	62.79411
800.315	53.83171
800.494	81.38154
800.673	97.5929
800.852	86.69821
801.031	98.94198
801.21	85.82174
801.389	60.41589
801.568	78.52685
801.747	118.04071
801.926	73.62364
802.105	110.90186
802.284	60.42725
802.463	110.75885
802.642	80.19274
802.821	76.39325
803	106.01941
803.179	92.87316
803.358	102.90155
803.537	57.37206
803.716	76.60152
803.895	57.46716
804.073	68.49453
804.252	57.37583
804.431	81.24404
804.61	67.95876
804.789	96.82288
804.967	58.18217
805.146	57.17016
805.325	119.24483
805.503	84.07772
805.682	40.9771
805.861	140.50038
806.039	104.38037
806.218	58.97537
806.397	75.14292
806.575	70.93479
806.754	79.596
806.932	51.60877
807.111	111.81809
807.289	96.17859
807.468	77.06147
807.646	99.31776
807.825	88.2674
808.003	79.66603
808.182	99.21079
808.36	77.22397
808.539	57.57177
808.717	111.6225
808.895	57.82538
809.074	83.42261
809.252	71.99548
809.43	93.00397
809.609	104.10893
809.787	113.66938
809.965	72.63314
810.144	77.31698
810.322	72.75281
810.5	92.6631
810.678	71.0217
810.856	138.27842
811.035	105.9765
811.213	93.13498
811.391	110.32795
811.569	84.65787
811.747	153.50507
811.925	109.84378
812.103	61.58057
812.281	72.8179
812.459	127.1559
812.637	126.47343
812.816	101.84545
812.994	132.71404
813.171	108.85333
813.349	93.94148
813.527	112.82211
813.705	121.55351
813.883	144.72935
814.061	110.64879
814.239	130.99742
814.417	137.76958
814.595	92.53614
814.773	88.91662
814.95	88.63222
815.128	94.62072
815.306	81.81705
815.484	73.3077
815.662	62.09563
815.839	50.53644
816.017	62.72147
816.195	106.72839
816.372	72.0125
816.55	97.89249
816.728	122.87334
816.905	76.72037
817.083	128.36273
817.261	79.57947
817.438	147.81143
817.616	132.23683
817.793	66.02377
817.971	102.72993
818.148	97.24395
818.326	120.7143
818.503	91.17073
818.681	117.00174
818.858	66.40329
819.036	81.82677
819.213	83.58735
819.391	62.06297
819.568	59.17167
819.745	54.18456
819.923	97.29106
820.1	62.53462
820.277	55.69375
820.455	65.48967
820.632	67.0114
820.809	68.35407
820.986	43.55883
821.164	35.33199
821.341	29.05706
821.518	39.87792
821.695	27.15093
821.872	24.63852
822.05	20.37127
822.227	14.87081
822.404	16.29015
822.581	20.84013
822.758	15.59289
822.935	16.54016
823.112	19.92195
823.289	14.98722
823.466	20.90204
823.643	19.37952
823.82	25.84057
823.997	22.96712
824.174	30.00705
824.351	42.64009
824.528	40.12026
824.705	34.75515
824.882	41.10002
825.059	55.33704
825.236	35.56767
825.412	37.85116
825.589	47.61779
825.766	67.42003
825.943	41.62434
826.12	49.30025
826.296	30.58444
826.473	39.94902
826.65	38.75431
826.827	49.33432
827.003	30.38533
827.18	34.20875
827.357	39.84547
827.533	35.03941
827.71	18.19533
827.887	30.54344
828.063	37.0416
828.24	32.0802
828.416	46.23113
828.593	38.97732
828.769	58.44847
828.946	66.44282
829.122	68.83308
829.299	65.84823
829.475	37.08508
829.652	66.87551
829.828	109.66351
830.005	68.55186
830.181	92.80969
830.357	65.41141
830.534	93.94201
830.71	69.10914
830.886	92.15826
831.063	88.00406
831.239	111.10661
831.415	53.05889
831.592	111.40918
831.768	71.3812
831.944	57.94931
832.12	110.33952
832.296	99.43336
832.473	89.21584
832.649	63.21508
832.825	84.74093
833.001	47.50286
833.177	70.98971
833.353	63.09768
833.529	34.98816
833.705	52.29642
833.881	37.11234
834.058	35.98784
834.234	41.26005
834.41	39.75821
834.586	31.80502
834.761	41.38976
834.937	45.84054
835.113	50.00449
835.289	45.32308
835.465	56.26534
835.641	49.79731
835.817	57.70888
835.993	103.13994
836.169	49.83194
836.344	76.47026
836.52	89.79821
836.696	85.14288
836.872	61.64869
837.048	172.59587
837.223	72.47845
837.399	149.18544
837.575	109.86317
837.75	100.41351
837.926	132.35561
838.102	210.49605
838.277	167.58686
838.453	206.66874
838.628	198.98336
838.804	90.58306
838.98	205.024
839.155	96.62456
839.331	129.9306
839.506	94.85673
839.682	95.17252
839.857	116.11199
840.033	135.96766
840.208	71.58833
840.384	34.28483
840.559	70.17432
840.734	110.8152
840.91	151.21251
841.085	98.49539
841.26	96.15037
841.436	86.55332
841.611	85.54088
841.786	142.73523
841.962	181.36434
842.137	112.28559
842.312	73.31555
842.487	99.18676
842.663	75.06163
842.838	99.85353
843.013	285.1646
843.188	143.82906
843.363	124.39387
843.538	259.95506
843.714	261.72688
843.889	264.81157
844.064	269.84476
844.239	221.63583
844.414	273.14957
844.589	185.11885
844.764	303.20905
844.939	289.18002
845.114	386.28022
845.289	316.52202
845.464	366.39408
845.639	285.35324
845.814	148.99395
845.989	187.4359
846.163	191.874
846.338	230.20816
846.513	333.01598
846.688	222.8135
846.863	213.98408
847.038	190.75079
847.212	211.88366
847.387	237.33114
847.562	237.5083
847.737	248.08145
847.911	115.41713
848.086	147.55264
848.261	424.15666
848.435	204.65702
848.61	318.21581
848.785	138.59275
848.959	275.9231
849.134	384.5702
849.308	500.05932
849.483	221.50799
849.658	342.09827
849.832	209.0926
850.007	176.40926
850.181	411.09644
850.356	181.44212
850.53	378.10468
850.705	146.17989
850.879	93.60961
851.053	244.52609
851.228	193.66615
851.402	269.39916
851.577	331.32645
851.751	322.45266
851.925	252.42173
852.099	113.43235
852.274	168.03538
852.448	218.99509
852.622	248.19394
852.797	228.65572
852.971	217.57803
853.145	260.44946
853.319	461.08928
853.493	346.03087
853.668	195.87002
853.842	381.09222
854.016	313.16263
854.19	406.2142
854.364	264.16958
854.538	266.92811
854.712	347.84858
854.886	239.34745
855.06	198.87721
855.234	77.70023
855.408	377.34138
855.582	332.0426
855.756	319.10838
855.93	398.55449
856.104	271.62726
856.278	325.80183
856.452	232.96779
856.626	281.21038
856.8	454.64626
856.973	293.90564
857.147	265.38771
857.321	278.6716
857.495	334.49284
857.669	241.9121
857.842	212.88877
858.016	379.66086
858.19	160.5914
858.364	585.19266
858.537	219.07199
858.711	242.28168
858.885	192.55668
859.058	181.21417
859.232	113.71655
859.405	129.08585
859.579	331.54751
859.753	269.87728
859.926	172.22229
860.1	133.35329
860.273	223.52484
860.447	417.86791
860.62	216.44313
860.794	437.38239
860.967	254.58277
861.141	360.36763
861.314	467.64421
861.487	285.94601
861.661	370.47316
861.834	405.35899
862.008	315.26624
862.181	259.09561
862.354	259.60591
862.528	289.34073
862.701	183.34414
862.874	134.36379
863.047	205.49514
863.221	229.48622
863.394	107.54073
863.567	340.44364
863.74	88.43985
863.913	340.6789
864.087	283.09434
864.26	307.04732
864.433	220.04597
864.606	471.27627
864.779	249.76234
864.952	116.04589
865.125	201.68934
865.298	235.54445
865.471	243.64403
865.644	399.41144
865.817	344.64524
865.99	306.45906
866.163	384.70206
866.336	193.60576
866.509	227.07831
866.682	189.10983
866.855	336.03531
867.028	148.36467
867.2	286.41818
867.373	109.03911
867.546	263.44081
867.719	427.02035
867.892	252.25736
868.064	171.32553
868.237	270.41341
868.41	279.18975
868.583	126.54563
868.755	137.68394
868.928	204.03088
869.101	454.74862
869.273	318.84189
869.446	255.87913
869.619	349.65699
869.791	216.28514
869.964	329.27657
870.136	299.4856
870.309	263.08723
870.481	242.34044
870.654	130.54245
870.826	252.9378
870.999	209.82401
871.171	304.01801
871.344	185.23348
871.516	231.0222
871.689	162.9262
871.861	254.1461
872.033	174.53634
872.206	213.32932
872.378	313.0119
872.55	211.02744
872.723	129.34084
872.895	194.3201
873.067	341.24893
873.24	315.63868
873.412	184.47984
873.584	220.02375
873.756	199.93064
873.928	255.50966
874.101	243.80422
874.273	256.98794
874.445	96.89153
874.617	143.93533
874.789	234.72392
874.961	206.60131
875.133	265.89823
875.305	227.42089
875.477	150.533
875.649	119.02644
875.821	157.82066
875.993	349.00066
876.165	155.15917
876.337	245.95781
876.509	219.66327
876.681	242.56176
876.853	255.73921
877.025	241.64645
877.197	170.93088
877.369	147.14478
877.541	279.84803
877.712	81.27722
877.884	136.22064
878.056	247.61115
878.228	134.53907
878.4	257.9819
878.571	138.52326
878.743	94.66475
878.915	204.95723
879.086	128.29464
879.258	160.32361
879.43	135.75499
879.601	118.22923
879.773	123.58106
879.945	30.94108
880.116	51.5488
880.288	30.26845
880.459	34.93481
880.631	24.81441
880.802	29.79605
880.974	27.73772
881.145	18.19961
881.317	26.18137
881.488	18.90298
881.66	21.42909
881.831	19.34078
882.002	29.09263
882.174	19.37103
882.345	28.02898
882.517	12.98677
882.688	37.85603
882.859	29.70007
883.03	52.82744
883.202	51.66539
883.373	45.02462
883.544	45.91262
883.715	79.35224
883.887	67.11484
884.058	57.66868
884.229	81.24741
884.4	81.77196
884.571	93.47503
884.742	74.4537
884.914	83.37795
885.085	117.23541
885.256	161.40254
885.427	128.27023
885.598	145.95289
885.769	155.00362
885.94	150.30514
886.111	102.51331
886.282	182.22692
886.453	136.71881
886.624	105.88798
886.795	192.05165
886.966	147.62774
887.136	197.70851
887.307	125.39507
887.478	261.81517
887.649	229.37521
887.82	218.98597
887.991	186.72652
888.161	259.4655
888.332	215.25726
888.503	121.18749
888.674	308.77097
888.844	333.53822
889.015	260.90007
889.186	125.94108
889.356	321.85153
889.527	114.97446
889.698	485.00057
889.868	166.95026
890.039	238.31507
890.209	194.51768
890.38	258.02655
890.551	213.75736
890.721	315.97259
890.892	272.66946
891.062	197.35798
891.233	242.2104
891.403	182.1181
891.574	140.72654
891.744	203.38546
891.914	214.62199
892.085	199.02259
892.255	70.43775
892.425	296.04343
892.596	220.92364
892.766	240.49103
892.936	284.73394
893.107	247.95354
893.277	145.30276
893.447	115.97847
893.618	83.68166
893.788	154.40412
893.958	86.17445
894.128	81.48948
894.298	93.71919
894.468	128.87706
894.639	63.67358
894.809	40.96346
894.979	65.56276
895.149	80.92736
895.319	65.22661
895.489	98.43695
895.659	123.24428
895.829	86.00132
895.999	92.00112
896.169	71.18809
896.339	97.18689
896.509	196.83927
896.679	207.465
896.849	212.38828
897.019	281.17512
897.189	199.80872
897.358	187.3224
897.528	281.89638
897.698	99.49647
897.868	241.97466
898.038	414.45924
898.208	374.74503
898.377	109.09625
898.547	345.83193
898.717	483.7573
898.886	237.6251
899.056	411.02693
899.226	469.74728
899.395	305.76947
899.565	451.62725
899.735	309.78797
899.904	469.79673
900.074	397.97208
900.244	177.92773
900.413	609.10754
900.583	159.12895
900.752	282.92658
900.922	410.13456
901.091	38.59449
901.261	342.42616
901.43	353.42514
901.599	328.12547
901.769	699.92981
901.938	472.69775
902.108	362.27814
902.277	459.97327
902.446	125.36217
902.616	160.61606
902.785	199.97899
902.954	374.92833
903.124	215.33602
903.293	172.71042
903.462	96.38575
903.631	143.65957
903.801	107.13111
903.97	55.12783
904.139	94.6781
904.308	73.71675
904.477	61.14676
904.646	37.53325
904.816	61.44466
904.985	94.56765
905.154	147.79989
