Data from WindowProjectSample3_Transmission__55__00055.txt Node

Date: Sun May 04 11:29:38 EDT 2025
User: jessi
Spectrometer: SR400872
Trigger mode: 0
Integration Time (sec): 5.000050E-1
Scans to average: 20
Electric dark correction enabled: true
Nonlinearity correction enabled: true
Boxcar width: 0
XAxis mode: Wavelengths
Number of Pixels in Spectrum: 3648
>>>>>Begin Spectral Data<<<<<
184.909	-1295.19481
185.132	-1470.51882
185.355	-1160.94823
185.578	-1074.76196
185.801	1338.35124
186.024	-934.21218
186.247	-4921.80289
186.47	-2011.18102
186.693	-290.46997
186.916	-403.83178
187.139	-786.83887
187.362	-2837.63137
187.585	-691.76965
187.808	-5138.38456
188.031	10547.41288
188.254	-2370.77659
188.476	-8886.67227
188.699	-1050.59341
188.922	510.52783
189.145	-1216.57837
189.368	3186.63959
189.591	-2232.49325
189.813	-1520.07194
190.036	-871.61135
190.259	-1200.93886
190.482	-1528.53142
190.705	-2413.47278
190.927	-725.78434
191.15	-1530.89978
191.373	-1098.0613
191.595	-1289.1643
191.818	-1332.41374
192.041	-702.52348
192.263	-1118.57321
192.486	-558.11494
192.709	-1556.47378
192.931	-3259.1983
193.154	-1165.72564
193.377	-1631.79056
193.599	-3192.89791
193.822	-3400.07386
194.044	-3189.08272
194.267	-1773.42236
194.489	-39.12928
194.712	-966.98821
194.934	-1708.90858
195.157	-700.42294
195.379	-1242.45107
195.602	-849.0034
195.824	-1319.29298
196.047	-2164.77219
196.269	-1051.25987
196.492	-1388.83487
196.714	-1269.54855
196.936	-1239.01854
197.159	-947.95919
197.381	-767.69929
197.604	-474.10741
197.826	-2117.82007
198.048	-1135.57148
198.271	-1448.19752
198.493	-1181.20839
198.715	-961.04519
198.938	-3225.36351
199.16	-4118.64408
199.382	-1262.78907
199.604	-1082.12039
199.827	-1880.59903
200.049	-1675.7326
200.271	-1273.76588
200.493	-1436.08043
200.715	-952.33253
200.938	-846.28901
201.16	-949.70751
201.382	-1010.99884
201.604	-1213.93285
201.826	-751.52996
202.048	-850.40504
202.27	-1476.92147
202.492	-1423.30874
202.715	-1911.27747
202.937	-2020.94028
203.159	-1330.04969
203.381	-1582.88047
203.603	-1035.03956
203.825	-5076.70104
204.047	-1615.7292
204.269	-1384.23028
204.491	-1334.04588
204.713	-1523.89518
204.935	-1309.19952
205.156	-2723.50817
205.378	-2725.26281
205.6	-1610.09783
205.822	-1113.44237
206.044	1353.76841
206.266	-1314.97896
206.488	-870.57978
206.71	-1752.90062
206.932	-1760.83625
207.153	-1112.11729
207.375	-1322.66839
207.597	-1077.08015
207.819	-1096.7913
208.041	-1241.42961
208.262	-1744.94909
208.484	-892.51018
208.706	-2140.21254
208.927	-811.24582
209.149	-1247.50355
209.371	-1221.93901
209.593	-1741.52697
209.814	-626.5123
210.036	-938.87492
210.258	-685.76244
210.479	-1081.86948
210.701	-1672.7064
210.922	-1265.31966
211.144	-996.7578
211.366	-1095.06239
211.587	1487.13576
211.809	-1097.88345
212.03	-6462.95763
212.252	964.89632
212.473	-940.49744
212.695	-20597.1481
212.916	-3591.5975
213.138	-1372.38808
213.359	-967.49553
213.581	-1464.32135
213.802	-918.36637
214.024	-1377.37559
214.245	-11232.07113
214.466	-806.86294
214.688	-1483.15023
214.909	-1022.66319
215.131	-2876.85297
215.352	-3746.10143
215.573	-1095.24633
215.795	-1880.42409
216.016	-1538.39203
216.237	-3253.64704
216.459	-1397.36628
216.68	-1061.27581
216.901	-1525.87999
217.122	11254.07224
217.344	-965.67164
217.565	-1288.56453
217.786	-1309.63058
218.007	-942.28642
218.228	-1298.28848
218.45	-1102.70831
218.671	-1123.9012
218.892	-999.97816
219.113	-1678.27518
219.334	-96.28903
219.555	-1511.81743
219.776	-1577.21863
219.997	-1231.15142
220.219	17304.04674
220.44	-1179.45118
220.661	-3353.36765
220.882	-947.06522
221.103	1636.25155
221.324	-2781.36639
221.545	-1128.54372
221.766	-1302.63894
221.987	-1936.81635
222.208	-1987.11737
222.429	-766.9924
222.65	-674.99416
222.87	-1869.00588
223.091	-3583.92715
223.312	3263.66777
223.533	-1153.60655
223.754	-1555.34856
223.975	-2186.25234
224.196	8825.4792
224.417	-7831.4645
224.637	4027.69534
224.858	200.25286
225.079	-1896.68931
225.3	26077.53172
225.521	-1038.28259
225.741	-5254.91068
225.962	7458.83436
226.183	391.75755
226.404	-3641.16799
226.624	2611.84803
226.845	-83993.76798
227.066	-641383.82305
227.286	866.12279
227.507	306.29018
227.728	280.2069
227.948	680.16104
228.169	162.39519
228.389	179.90747
228.61	98.49995
228.831	129.7869
229.051	10.85068
229.272	70.3518
229.492	105.53694
229.713	30.10225
229.933	70.79376
230.154	62.58676
230.374	101.75251
230.595	74.0275
230.815	47.43073
231.036	75.49492
231.256	-10.33549
231.477	133.95329
231.697	74.29931
231.917	83.44186
232.138	118.82953
232.358	242.70388
232.579	194.72722
232.799	29.4116
233.019	192.57395
233.24	238.11606
233.46	80.50654
233.68	126.35925
233.901	84.25162
234.121	55.58419
234.341	20.20862
234.561	-4.8757
234.782	42.92538
235.002	135.60899
235.222	-0.49377
235.442	116.62863
235.662	59.73905
235.883	115.86984
236.103	97.77963
236.323	69.89514
236.543	53.65497
236.763	75.47994
236.983	78.08116
237.203	77.8008
237.423	114.65734
237.643	168.90748
237.864	151.13573
238.084	36.52468
238.304	46.11962
238.524	80.82225
238.744	78.21962
238.964	132.05969
239.184	112.98521
239.404	123.04643
239.624	63.78275
239.843	108.64528
240.063	67.26348
240.283	40.71063
240.503	47.25675
240.723	45.4434
240.943	28.26609
241.163	35.13047
241.383	24.88112
241.603	14.18923
241.822	15.22554
242.042	11.30117
242.262	14.32677
242.482	15.27069
242.702	17.21266
242.921	5.48662
243.141	11.20306
243.361	10.72671
243.581	15.05074
243.8	12.73429
244.02	8.40736
244.24	15.30136
244.459	14.39936
244.679	29.50768
244.899	18.08305
245.118	23.81078
245.338	21.38757
245.558	23.68246
245.777	13.30684
245.997	17.11421
246.216	17.62735
246.436	10.35607
246.655	7.48834
246.875	5.79095
247.094	10.22572
247.314	3.86831
247.533	6.32353
247.753	6.91551
247.972	5.41868
248.192	2.5776
248.411	3.43528
248.631	5.33028
248.85	7.15945
249.07	6.68419
249.289	10.03008
249.508	7.10235
249.728	11.89137
249.947	11.17754
250.166	14.55997
250.386	7.49704
250.605	11.16238
250.824	18.9229
251.044	12.812
251.263	39.39751
251.482	22.7466
251.701	19.17378
251.921	0.6736
252.14	6.92844
252.359	7.4243
252.578	16.26449
252.798	6.13009
253.017	14.19401
253.236	7.0819
253.455	9.07288
253.674	18.87513
253.893	8.65924
254.112	13.81246
254.331	19.14028
254.551	16.05714
254.77	7.6098
254.989	21.73245
255.208	16.90234
255.427	27.27058
255.646	22.08225
255.865	34.13858
256.084	15.15105
256.303	19.25493
256.522	23.09084
256.741	6.07493
256.96	6.55493
257.179	14.13635
257.397	17.48614
257.616	9.7685
257.835	10.70744
258.054	25.52186
258.273	17.9661
258.492	17.48769
258.711	11.62444
258.93	5.19543
259.148	8.04089
259.367	7.36421
259.586	9.12538
259.805	4.32636
260.023	7.92258
260.242	5.75077
260.461	4.39069
260.68	2.27776
260.898	6.56364
261.117	2.53905
261.336	1.69917
261.554	5.41804
261.773	5.60257
261.992	1.48429
262.21	5.02586
262.429	6.23348
262.648	10.9871
262.866	12.79908
263.085	9.63876
263.303	7.55211
263.522	14.37815
263.74	13.84955
263.959	23.8542
264.178	12.47969
264.396	10.33019
264.615	7.58492
264.833	17.52116
265.051	15.37532
265.27	17.62165
265.488	17.73298
265.707	10.51892
265.925	17.28078
266.144	8.4519
266.362	9.60308
266.58	10.20299
266.799	8.12168
267.017	9.59929
267.235	8.66399
267.454	5.75477
267.672	3.10281
267.89	6.95822
268.109	7.6657
268.327	7.50853
268.545	1.54331
268.763	6.86758
268.982	3.06697
269.2	7.79839
269.418	5.02176
269.636	3.82504
269.854	7.61286
270.073	5.55957
270.291	3.26372
270.509	3.06717
270.727	7.31777
270.945	11.76413
271.163	11.44059
271.381	2.96693
271.599	5.02568
271.817	8.28369
272.036	3.10877
272.254	5.73219
272.472	4.12269
272.69	4.08758
272.908	4.4016
273.126	6.67077
273.344	8.39251
273.562	3.20559
273.779	4.48394
273.997	6.98967
274.215	6.65418
274.433	4.76516
274.651	7.55732
274.869	7.17961
275.087	4.35348
275.305	6.81469
275.523	4.36374
275.74	5.09027
275.958	8.95007
276.176	12.99274
276.394	4.32081
276.612	5.34541
276.829	5.34734
277.047	4.6456
277.265	4.8544
277.483	5.93714
277.7	6.43976
277.918	5.52646
278.136	10.3489
278.353	4.87435
278.571	3.28849
278.789	8.15659
279.006	2.01655
279.224	4.91579
279.442	8.30928
279.659	5.99373
279.877	3.75995
280.094	8.76657
280.312	1.78606
280.529	5.97919
280.747	1.96318
280.964	4.85956
281.182	9.08249
281.399	5.23816
281.617	5.97993
281.834	4.28896
282.052	3.04101
282.269	5.41916
282.487	4.35357
282.704	3.89852
282.921	3.58099
283.139	5.34464
283.356	6.92698
283.574	6.48213
283.791	3.24193
284.008	8.49928
284.226	5.24944
284.443	5.55949
284.66	7.07161
284.877	6.30314
285.095	3.59921
285.312	2.89877
285.529	1.74513
285.746	1.53815
285.964	3.56306
286.181	2.24453
286.398	3.11652
286.615	4.61316
286.832	4.34778
287.05	1.15482
287.267	3.01746
287.484	3.13178
287.701	4.55405
287.918	4.1477
288.135	4.46345
288.352	1.93242
288.569	2.45678
288.786	4.18094
289.003	3.16411
289.22	5.13721
289.437	2.81708
289.654	4.88782
289.871	4.81226
290.088	4.70026
290.305	3.78752
290.522	3.2311
290.739	3.39136
290.956	5.06418
291.173	5.9213
291.39	5.55507
291.607	3.80445
291.824	3.15849
292.04	2.40853
292.257	4.90416
292.474	5.44554
292.691	3.59188
292.908	1.79392
293.125	2.8079
293.341	2.00544
293.558	7.88369
293.775	3.7375
293.992	4.06317
294.208	1.59446
294.425	2.48451
294.642	3.34439
294.858	5.05123
295.075	1.3825
295.292	3.48446
295.508	4.29685
295.725	5.84052
295.942	3.20469
296.158	2.48144
296.375	3.74407
296.591	3.0418
296.808	3.03221
297.024	3.52155
297.241	3.83915
297.458	4.10017
297.674	0.69355
297.891	3.29069
298.107	2.87096
298.323	2.12126
298.54	4.70369
298.756	2.73016
298.973	1.33621
299.189	5.03622
299.406	2.50605
299.622	5.16943
299.838	5.23575
300.055	4.5527
300.271	1.6207
300.487	2.31584
300.704	2.67516
300.92	1.74502
301.136	6.77193
301.353	5.30257
301.569	3.83778
301.785	4.04983
302.001	4.81053
302.218	4.33541
302.434	4.54599
302.65	1.92658
302.866	2.97074
303.083	7.06183
303.299	7.00498
303.515	4.01925
303.731	4.29873
303.947	1.96596
304.163	2.96907
304.379	3.99755
304.595	4.51752
304.812	3.02879
305.028	2.57885
305.244	3.42443
305.46	4.92908
305.676	4.63311
305.892	5.83412
306.108	4.79748
306.324	3.4301
306.54	6.55064
306.756	4.76516
306.972	4.57978
307.187	3.60458
307.403	6.1712
307.619	2.92918
307.835	5.69205
308.051	5.7682
308.267	2.47978
308.483	5.53959
308.699	4.69722
308.914	3.85286
309.13	4.09599
309.346	1.56992
309.562	2.45991
309.778	1.64033
309.993	4.70499
310.209	3.79986
310.425	2.09408
310.641	3.48825
310.856	2.39387
311.072	2.21403
311.288	3.66618
311.503	3.90983
311.719	1.49819
311.935	1.22294
312.15	4.38343
312.366	3.97738
312.581	4.49833
312.797	3.57542
313.013	4.81505
313.228	2.86146
313.444	3.71974
313.659	2.5733
313.875	4.43611
314.09	3.69431
314.306	6.06815
314.521	5.04131
314.737	4.88322
314.952	4.14284
315.168	4.11724
315.383	4.51499
315.599	3.61
315.814	3.59302
316.029	5.14192
316.245	2.52041
316.46	1.44087
316.675	5.86472
316.891	6.9927
317.106	8.30816
317.321	4.75856
317.537	4.80201
317.752	5.30523
317.967	5.27306
318.183	3.02365
318.398	3.61521
318.613	5.78963
318.828	6.09126
319.043	5.46264
319.259	3.70607
319.474	4.35855
319.689	5.8421
319.904	1.4857
320.119	5.5481
320.334	4.67649
320.549	3.72884
320.765	6.03409
320.98	4.65327
321.195	5.36195
321.41	4.19856
321.625	5.59457
321.84	6.76427
322.055	6.98482
322.27	3.1953
322.485	2.4901
322.7	4.69298
322.915	5.96123
323.13	2.94867
323.345	6.53925
323.56	5.40022
323.775	5.2342
323.989	5.08908
324.204	4.51995
324.419	5.57226
324.634	2.43736
324.849	4.0484
325.064	7.23427
325.279	5.5955
325.493	4.98697
325.708	5.61669
325.923	3.1788
326.138	3.40314
326.352	6.77858
326.567	5.43032
326.782	3.7986
326.997	3.32559
327.211	5.26273
327.426	4.77766
327.641	3.86106
327.855	1.94026
328.07	5.15581
328.285	7.07264
328.499	3.97893
328.714	4.80903
328.928	5.30401
329.143	4.46202
329.358	6.12151
329.572	5.87812
329.787	6.6199
330.001	8.6107
330.216	2.45181
330.43	7.18687
330.645	7.07249
330.859	5.75283
331.074	3.23265
331.288	4.65526
331.503	6.78697
331.717	2.75784
331.931	4.43631
332.146	4.95366
332.36	7.68786
332.575	5.24772
332.789	4.97645
333.003	4.45965
333.218	5.62401
333.432	3.63058
333.646	5.82748
333.86	6.96585
334.075	7.43082
334.289	3.91303
334.503	2.99743
334.717	5.60377
334.932	5.13134
335.146	6.02948
335.36	3.72467
335.574	5.33258
335.788	5.27358
336.003	6.1256
336.217	5.9959
336.431	5.30421
336.645	4.12063
336.859	3.06473
337.073	4.76443
337.287	5.06896
337.501	3.23688
337.715	5.45985
337.929	5.63181
338.143	3.22348
338.357	4.74507
338.571	3.74396
338.785	5.85983
338.999	4.0174
339.213	4.08687
339.427	2.99844
339.641	6.51302
339.855	3.94759
340.069	3.72751
340.283	6.19927
340.497	7.09594
340.711	5.50323
340.924	4.5955
341.138	3.41303
341.352	2.94747
341.566	4.91845
341.78	2.41213
341.993	3.96489
342.207	3.70782
342.421	5.23657
342.635	4.69333
342.848	3.96187
343.062	1.67152
343.276	3.97937
343.49	7.76321
343.703	3.91863
343.917	6.20415
344.131	6.21511
344.344	3.88957
344.558	4.1153
344.771	3.40918
344.985	6.43418
345.199	7.22902
345.412	4.91638
345.626	5.43359
345.839	2.51819
346.053	3.4709
346.266	3.53227
346.48	5.64563
346.693	5.36942
346.907	5.47568
347.12	3.55131
347.334	5.01349
347.547	5.4087
347.76	4.65222
347.974	6.52023
348.187	5.53293
348.401	4.61539
348.614	3.89494
348.827	4.54079
349.041	5.7015
349.254	2.59606
349.467	4.81179
349.681	3.63305
349.894	3.94875
350.107	6.6166
350.32	7.75158
350.534	3.09671
350.747	4.76405
350.96	3.93242
351.173	3.9838
351.386	4.38439
351.6	4.42979
351.813	4.33601
352.026	4.99569
352.239	3.35718
352.452	4.65902
352.665	6.60001
352.878	4.75842
353.092	8.04007
353.305	6.019
353.518	5.15536
353.731	3.99412
353.944	6.30366
354.157	4.46738
354.37	4.30061
354.583	3.53243
354.796	3.15879
355.009	6.68484
355.222	5.35461
355.435	5.12244
355.647	6.60053
355.86	3.95834
356.073	5.16323
356.286	4.40834
356.499	6.29358
356.712	6.13578
356.925	5.7146
357.138	6.43201
357.35	3.92937
357.563	4.63989
357.776	5.32617
357.989	5.09061
358.201	5.95152
358.414	5.67812
358.627	6.63922
358.84	4.98672
359.052	3.72927
359.265	3.94308
359.478	6.40664
359.69	2.04587
359.903	6.42187
360.116	6.50569
360.328	3.31697
360.541	6.27569
360.753	4.32143
360.966	4.8762
361.179	4.97531
361.391	4.74926
361.604	4.35478
361.816	4.81696
362.029	4.70379
362.241	4.30629
362.454	4.80678
362.666	4.36576
362.879	5.70081
363.091	4.9737
363.304	4.45009
363.516	4.97723
363.728	3.99334
363.941	5.76487
364.153	5.30644
364.366	2.76397
364.578	4.03488
364.79	5.90793
365.003	5.56781
365.215	4.76005
365.427	6.18492
365.639	6.85891
365.852	5.65366
366.064	7.55373
366.276	4.98388
366.488	5.94188
366.701	5.22545
366.913	5.08806
367.125	5.46606
367.337	4.76374
367.549	4.99753
367.762	5.46689
367.974	5.5859
368.186	5.25655
368.398	6.95876
368.61	6.34479
368.822	6.58519
369.034	5.5147
369.246	6.75348
369.458	8.83545
369.67	4.73213
369.882	8.18727
370.094	3.41097
370.306	7.6719
370.518	5.36795
370.73	5.46321
370.942	5.19142
371.154	5.80193
371.366	5.56313
371.578	6.81449
371.79	5.50742
372.002	7.43816
372.214	8.51152
372.425	6.1786
372.637	8.00886
372.849	6.60328
373.061	3.45859
373.273	6.86245
373.484	6.70052
373.696	7.22038
373.908	3.43872
374.12	7.51873
374.331	6.9346
374.543	5.26638
374.755	5.27849
374.967	6.6257
375.178	7.65255
375.39	6.11323
375.602	6.67233
375.813	4.71398
376.025	5.33984
376.236	6.50063
376.448	6.86167
376.66	6.48292
376.871	6.46917
377.083	7.62323
377.294	8.45886
377.506	6.22232
377.717	8.35377
377.929	7.09886
378.14	6.21362
378.352	7.53541
378.563	7.63904
378.775	8.41787
378.986	5.93497
379.197	7.0822
379.409	6.20519
379.62	7.86271
379.832	7.22238
380.043	6.82463
380.254	7.47564
380.466	5.53112
380.677	10.33896
380.888	9.47626
381.1	10.39414
381.311	9.87655
381.522	7.44636
381.733	10.72236
381.945	7.10253
382.156	7.15622
382.367	6.68489
382.578	10.74515
382.789	10.92721
383.001	6.69158
383.212	9.66215
383.423	9.65367
383.634	9.01625
383.845	8.61149
384.056	7.39534
384.267	7.76215
384.478	7.97113
384.69	6.52992
384.901	8.51425
385.112	8.26567
385.323	10.13217
385.534	8.30943
385.745	8.42302
385.956	8.47919
386.167	7.03674
386.378	8.76316
386.588	7.14763
386.799	7.20197
387.01	6.29816
387.221	9.27046
387.432	8.28851
387.643	10.41492
387.854	7.83125
388.065	7.86838
388.275	8.25199
388.486	7.64612
388.697	8.50627
388.908	7.97175
389.119	9.64129
389.329	10.25611
389.54	8.58927
389.751	8.94185
389.962	10.25324
390.172	8.77447
390.383	8.38407
390.594	8.04882
390.804	8.26727
391.015	8.38011
391.226	9.12369
391.436	9.64676
391.647	9.42388
391.858	9.83746
392.068	7.32345
392.279	7.87682
392.489	9.42862
392.7	10.19865
392.91	8.18843
393.121	8.22476
393.331	9.70283
393.542	10.63107
393.752	9.71825
393.963	9.69723
394.173	9.57672
394.384	10.22343
394.594	9.60704
394.804	8.03421
395.015	9.55418
395.225	10.3404
395.436	8.35456
395.646	9.90381
395.856	8.90432
396.067	7.95772
396.277	10.52633
396.487	10.06695
396.697	9.85205
396.908	10.52926
397.118	10.29781
397.328	9.8112
397.538	10.81463
397.749	9.03375
397.959	10.84072
398.169	10.35025
398.379	8.23548
398.589	10.53825
398.8	10.15461
399.01	10.35004
399.22	9.52577
399.43	12.33219
399.64	9.85921
399.85	10.47217
400.06	10.17676
400.27	9.34857
400.48	9.93982
400.69	11.41443
400.9	9.41126
401.11	8.88252
401.32	11.05927
401.53	9.46735
401.74	11.93064
401.95	10.91135
402.16	9.92459
402.37	11.08776
402.58	9.90086
402.79	11.11141
403	11.4967
403.209	9.81971
403.419	11.66471
403.629	9.92592
403.839	11.76327
404.049	11.65726
404.258	10.04794
404.468	9.87789
404.678	11.55569
404.888	11.85631
405.097	10.4703
405.307	10.69963
405.517	11.56084
405.727	11.25553
405.936	10.4255
406.146	11.08076
406.356	12.43604
406.565	10.69123
406.775	10.42511
406.984	10.45544
407.194	13.03163
407.404	10.91823
407.613	11.37525
407.823	11.66075
408.032	12.30745
408.242	12.169
408.451	10.50907
408.661	10.74515
408.87	13.11171
409.08	10.71315
409.289	11.69335
409.499	11.71006
409.708	11.47871
409.918	9.16226
410.127	11.58122
410.336	13.07957
410.546	12.19458
410.755	10.97599
410.964	10.92432
411.174	10.58855
411.383	12.1399
411.592	11.85011
411.802	10.41542
412.011	12.46914
412.22	11.40387
412.429	13.08944
412.639	12.93813
412.848	13.01757
413.057	13.2401
413.266	12.7235
413.475	11.703
413.685	12.41857
413.894	12.70128
414.103	12.93975
414.312	12.67641
414.521	11.68445
414.73	12.39822
414.939	13.96315
415.148	12.60236
415.357	12.40256
415.566	11.93597
415.776	11.92251
415.985	11.87414
416.194	13.08991
416.403	14.28825
416.611	11.16313
416.82	11.90966
417.029	12.68414
417.238	12.02429
417.447	11.92594
417.656	12.34141
417.865	12.20637
418.074	12.60165
418.283	12.6783
418.492	13.75335
418.7	13.50489
418.909	14.37849
419.118	13.06424
419.327	13.36251
419.536	13.06724
419.744	12.59702
419.953	13.92257
420.162	13.90709
420.371	12.5985
420.579	12.42615
420.788	13.6375
420.997	13.61959
421.205	13.51722
421.414	13.22479
421.623	13.26581
421.831	12.82928
422.04	13.54035
422.249	12.73071
422.457	13.44492
422.666	12.91232
422.874	13.95479
423.083	14.19913
423.291	13.90082
423.5	13.69674
423.708	13.61915
423.917	14.27645
424.125	13.56813
424.334	13.34091
424.542	15.30063
424.751	14.32298
424.959	14.11306
425.167	14.55704
425.376	14.42859
425.584	13.74347
425.793	14.04699
426.001	13.03505
426.209	14.26432
426.418	13.02893
426.626	13.26866
426.834	13.0701
427.042	13.66708
427.251	13.14712
427.459	14.44106
427.667	13.91499
427.875	12.62891
428.084	13.14153
428.292	14.90051
428.5	14.44863
428.708	12.78757
428.916	12.94403
429.124	13.94594
429.333	13.70384
429.541	13.70467
429.749	13.99523
429.957	13.92496
430.165	16.24233
430.373	12.80399
430.581	14.1493
430.789	15.24979
430.997	13.51855
431.205	13.37563
431.413	14.27454
431.621	13.74917
431.829	14.87673
432.037	13.94322
432.245	14.49046
432.453	14.68097
432.661	14.19825
432.869	16.1995
433.076	13.60054
433.284	14.23156
433.492	15.00994
433.7	15.65888
433.908	14.03762
434.116	14.45289
434.323	14.60379
434.531	14.34216
434.739	14.97618
434.947	15.14967
435.154	15.1393
435.362	14.42198
435.57	14.1815
435.778	14.01956
435.985	14.87723
436.193	13.99536
436.401	15.72429
436.608	14.4971
436.816	14.34122
437.023	16.18078
437.231	16.32071
437.439	14.81716
437.646	15.38064
437.854	15.22531
438.061	15.42596
438.269	14.65925
438.476	15.52446
438.684	15.109
438.891	14.67997
439.099	14.50194
439.306	13.90772
439.514	14.2532
439.721	15.37942
439.929	14.54034
440.136	15.45886
440.343	15.25084
440.551	14.81799
440.758	16.51807
440.965	15.56988
441.173	15.05765
441.38	14.50135
441.587	15.26597
441.795	14.57065
442.002	15.18879
442.209	15.30641
442.416	15.49724
442.624	15.61862
442.831	15.38544
443.038	14.6029
443.245	14.2598
443.452	14.89725
443.66	15.94442
443.867	14.74596
444.074	14.76606
444.281	14.80156
444.488	15.19595
444.695	15.43894
444.902	15.03415
445.109	16.07381
445.316	15.32372
445.523	15.32612
445.73	14.88859
445.937	15.61903
446.144	15.92026
446.351	15.89559
446.558	14.88962
446.765	16.02884
446.972	16.18412
447.179	15.29786
447.386	16.38808
447.593	15.13463
447.8	16.28363
448.007	15.2229
448.214	15.25415
448.42	14.93771
448.627	16.45411
448.834	15.30946
449.041	15.08417
449.248	15.14126
449.454	16.16066
449.661	17.00939
449.868	15.19112
450.075	14.83453
450.281	13.63082
450.488	14.44583
450.695	14.69791
450.901	14.86352
451.108	15.28148
451.315	16.55111
451.521	15.62659
451.728	16.51785
451.935	15.0255
452.141	15.60042
452.348	15.5437
452.554	15.54659
452.761	15.43727
452.967	17.25714
453.174	15.89103
453.38	16.08084
453.587	14.54678
453.793	15.87939
454	16.37072
454.206	17.70907
454.413	16.77273
454.619	16.46043
454.825	15.13454
455.032	16.34209
455.238	16.58097
455.445	14.61493
455.651	15.89907
455.857	14.23014
456.064	15.55837
456.27	15.47368
456.476	15.58137
456.682	14.66199
456.889	16.24457
457.095	16.31511
457.301	18.06232
457.507	16.17118
457.714	16.11835
457.92	15.94413
458.126	15.50503
458.332	16.21912
458.538	15.69402
458.744	16.0269
458.951	16.06802
459.157	17.74732
459.363	16.38555
459.569	16.10436
459.775	16.87081
459.981	15.65824
460.187	16.00628
460.393	16.73816
460.599	17.17728
460.805	16.35247
461.011	16.14253
461.217	16.94119
461.423	17.11169
461.629	15.974
461.835	16.75676
462.041	16.05039
462.247	17.57783
462.453	15.97933
462.658	16.02789
462.864	16.99342
463.07	16.54064
463.276	16.64489
463.482	16.64278
463.688	17.83648
463.893	15.9281
464.099	16.2933
464.305	18.03803
464.511	16.11763
464.716	16.32418
464.922	17.31253
465.128	15.88198
465.333	18.1257
465.539	17.30356
465.745	16.54039
465.95	16.79676
466.156	19.40767
466.362	17.74951
466.567	16.55109
466.773	16.1885
466.978	18.00893
467.184	15.83124
467.389	14.80938
467.595	17.20886
467.8	15.87225
468.006	17.87313
468.211	17.90885
468.417	15.73503
468.622	17.25926
468.828	17.43857
469.033	17.02977
469.239	19.36877
469.444	16.43768
469.649	17.77237
469.855	16.85181
470.06	16.96688
470.266	16.06775
470.471	17.4967
470.676	17.3207
470.881	15.45982
471.087	18.50915
471.292	18.40122
471.497	15.8325
471.703	16.82683
471.908	16.6092
472.113	17.33945
472.318	17.90407
472.523	16.04769
472.729	17.4733
472.934	17.53835
473.139	16.73588
473.344	17.53774
473.549	18.30003
473.754	16.36887
473.959	18.81373
474.164	16.36575
474.369	17.09471
474.575	17.96008
474.78	17.31104
474.985	16.6838
475.19	15.7716
475.395	16.59038
475.6	17.13943
475.804	18.72899
476.009	17.48951
476.214	17.43854
476.419	17.06907
476.624	15.80552
476.829	16.71886
477.034	17.84469
477.239	16.61341
477.444	17.71799
477.648	17.94995
477.853	18.10316
478.058	17.15491
478.263	16.74283
478.468	16.33174
478.672	16.53934
478.877	18.52174
479.082	19.16886
479.287	17.95639
479.491	17.4597
479.696	16.60974
479.901	18.3382
480.105	18.06219
480.31	16.88607
480.515	17.47643
480.719	19.64968
480.924	17.07851
481.128	16.63498
481.333	17.8353
481.538	17.85227
481.742	17.34089
481.947	18.04205
482.151	18.14193
482.356	17.73533
482.56	19.30772
482.765	21.55052
482.969	25.71179
483.174	29.19236
483.378	33.4511
483.582	34.70023
483.787	36.67486
483.991	37.36003
484.196	37.24511
484.4	36.22965
484.604	35.78108
484.809	32.57081
485.013	30.28717
485.217	27.28925
485.422	24.24729
485.626	22.08234
485.83	20.92631
486.034	20.4893
486.239	21.29811
486.443	22.06582
486.647	22.89145
486.851	24.49352
487.055	26.25832
487.26	26.46706
487.464	27.72701
487.668	27.32192
487.872	27.72431
488.076	27.78443
488.28	26.47603
488.484	24.60096
488.688	23.73459
488.892	22.35605
489.096	20.5817
489.3	18.99535
489.504	17.85712
489.708	18.36711
489.912	18.50811
490.116	18.4785
490.32	17.77444
490.524	18.7115
490.728	19.31675
490.932	20.62733
491.136	21.76261
491.34	23.41109
491.544	23.75941
491.748	23.59823
491.951	23.3725
492.155	22.71564
492.359	21.88899
492.563	19.79309
492.767	18.4244
492.97	17.65115
493.174	17.27858
493.378	17.7741
493.582	17.43907
493.785	18.15757
493.989	18.31885
494.193	18.50004
494.396	17.99699
494.6	19.07773
494.804	18.49079
495.007	18.00033
495.211	17.94916
495.414	18.3275
495.618	18.74916
495.822	19.59667
496.025	18.66577
496.229	19.27792
496.432	18.0254
496.636	18.54368
496.839	18.37722
497.043	19.54623
497.246	18.68426
497.45	18.14511
497.653	18.41895
497.856	18.74669
498.06	17.78959
498.263	18.16879
498.467	18.1479
498.67	19.18411
498.873	18.95277
499.077	18.22983
499.28	18.24616
499.483	18.83451
499.686	19.23577
499.89	18.84179
500.093	19.16888
500.296	17.93653
500.499	19.89426
500.703	18.55742
500.906	18.92221
501.109	20.12032
501.312	18.9095
501.515	18.55394
501.719	19.0804
501.922	19.86778
502.125	19.14391
502.328	18.61704
502.531	17.85322
502.734	18.87002
502.937	17.38447
503.14	19.03642
503.343	18.06116
503.546	18.77329
503.749	18.22678
503.952	19.39974
504.155	18.11227
504.358	19.43762
504.561	18.95899
504.764	17.83324
504.967	18.93183
505.17	19.00485
505.373	20.34366
505.576	18.90523
505.778	19.43679
505.981	18.48473
506.184	20.13259
506.387	17.61217
506.59	20.55231
506.793	20.17224
506.995	19.5159
507.198	17.33759
507.401	19.50713
507.604	19.66425
507.806	18.4588
508.009	18.77085
508.212	19.88403
508.414	18.83268
508.617	18.76686
508.82	19.09854
509.022	20.27767
509.225	19.43788
509.427	17.91259
509.63	20.39221
509.833	19.17605
510.035	18.80244
510.238	17.90273
510.44	20.13306
510.643	17.50653
510.845	21.23511
511.048	19.73539
511.25	18.85549
511.453	19.34193
511.655	19.80337
511.858	19.06966
512.06	20.15165
512.262	19.34648
512.465	20.24308
512.667	18.93818
512.869	18.38767
513.072	19.68095
513.274	20.14537
513.476	19.82139
513.679	20.0557
513.881	18.33051
514.083	20.98262
514.286	18.54252
514.488	18.78562
514.69	18.50119
514.892	18.23
515.094	20.03188
515.297	18.77951
515.499	19.68165
515.701	18.8031
515.903	21.11916
516.105	21.26222
516.307	20.22043
516.509	18.10721
516.711	18.65813
516.913	19.82491
517.116	19.79809
517.318	19.45633
517.52	20.93702
517.722	20.50379
517.924	18.7112
518.126	20.22636
518.328	19.29361
518.529	20.01551
518.731	21.08489
518.933	19.11852
519.135	19.58554
519.337	20.5134
519.539	19.99017
519.741	18.25841
519.943	19.48817
520.145	19.3746
520.346	20.15089
520.548	19.36358
520.75	19.97853
520.952	19.39945
521.153	19.93739
521.355	20.06619
521.557	18.67821
521.759	19.7769
521.96	19.70639
522.162	18.78787
522.364	20.7319
522.565	19.04585
522.767	20.38565
522.969	20.89237
523.17	20.30357
523.372	20.1751
523.573	19.53255
523.775	19.94299
523.977	19.17484
524.178	21.56529
524.38	19.61536
524.581	20.81238
524.783	19.86136
524.984	20.69203
525.186	20.15545
525.387	20.57225
525.589	20.14318
525.79	19.75436
525.991	19.49079
526.193	20.34821
526.394	18.95664
526.596	20.0739
526.797	20.07277
526.998	19.72772
527.2	19.23548
527.401	20.75283
527.602	22.06211
527.803	25.79828
528.005	27.54271
528.206	29.67409
528.407	31.21695
528.608	31.53096
528.81	31.45392
529.011	30.55237
529.212	31.0738
529.413	28.93814
529.614	26.7836
529.815	24.86523
530.017	22.53802
530.218	20.10613
530.419	19.74821
530.62	20.17636
530.821	20.40607
531.022	19.46697
531.223	20.89033
531.424	20.92817
531.625	20.68956
531.826	20.68188
532.027	20.84169
532.228	21.65831
532.429	20.92416
532.63	20.49282
532.831	21.35079
533.032	21.60349
533.233	22.37996
533.433	21.83868
533.634	21.9629
533.835	20.86084
534.036	19.94935
534.237	20.17584
534.438	19.94944
534.638	19.5188
534.839	19.90607
535.04	20.67916
535.241	20.21674
535.441	22.09447
535.642	21.08647
535.843	19.96181
536.043	19.95166
536.244	20.03119
536.445	20.18021
536.645	21.14971
536.846	20.56154
537.047	21.43428
537.247	19.90052
537.448	20.19408
537.648	20.41704
537.849	20.42414
538.049	20.26038
538.25	21.08232
538.451	20.8284
538.651	19.95151
538.851	21.14036
539.052	22.04054
539.252	21.74602
539.453	20.80566
539.653	21.19227
539.854	21.09315
540.054	21.1315
540.254	22.03465
540.455	21.85476
540.655	20.80343
540.855	22.27599
541.056	23.57196
541.256	23.51897
541.456	24.82692
541.657	23.99645
541.857	24.40556
542.057	22.64784
542.257	21.71192
542.458	21.64176
542.658	21.35845
542.858	20.11159
543.058	21.68605
543.258	21.33052
543.458	20.14442
543.659	20.0676
543.859	21.6435
544.059	21.59167
544.259	20.89205
544.459	21.53833
544.659	20.59733
544.859	21.61248
545.059	20.73694
545.259	21.79463
545.459	21.35391
545.659	22.03016
545.859	21.52417
546.059	21.55389
546.259	20.61987
546.459	20.11334
546.659	20.28392
546.859	21.76132
547.059	21.35437
547.258	21.7191
547.458	21.58785
547.658	20.30662
547.858	20.20383
548.058	21.30008
548.258	20.91853
548.457	20.09902
548.657	23.75755
548.857	21.11186
549.057	22.08081
549.256	21.95276
549.456	20.88107
549.656	19.46724
549.855	23.23464
550.055	20.9224
550.255	23.59959
550.454	21.8242
550.654	22.49581
550.853	22.97882
551.053	22.58072
551.253	22.26564
551.452	22.09935
551.652	20.56929
551.851	20.08635
552.051	21.57789
552.25	21.4374
552.45	21.10833
552.649	21.44188
552.849	20.9935
553.048	21.634
553.248	22.21037
553.447	20.62216
553.646	22.45165
553.846	23.15806
554.045	22.63403
554.244	20.35624
554.444	23.57671
554.643	20.9317
554.842	23.4201
555.042	24.10898
555.241	21.03285
555.44	20.50934
555.64	22.35558
555.839	24.21752
556.038	22.6856
556.237	20.89118
556.436	21.81472
556.636	22.14537
556.835	20.90371
557.034	23.71421
557.233	21.77897
557.432	20.11106
557.631	23.40682
557.83	21.62893
558.029	21.17129
558.228	21.1905
558.427	20.80251
558.626	22.28851
558.825	20.94084
559.024	22.128
559.223	24.16827
559.422	21.58512
559.621	22.67532
559.82	19.06809
560.019	22.18456
560.218	21.92232
560.417	19.06709
560.616	21.61509
560.815	26.16008
561.014	20.27449
561.212	23.87289
561.411	22.35891
561.61	20.23004
561.809	21.91498
562.008	23.97372
562.206	21.85022
562.405	22.92359
562.604	21.8377
562.803	22.16463
563.001	21.44275
563.2	20.29987
563.399	22.58558
563.597	20.69508
563.796	22.16197
563.995	20.97988
564.193	23.11516
564.392	21.79618
564.59	24.94499
564.789	20.12973
564.988	22.01205
565.186	22.57438
565.385	22.02765
565.583	22.00399
565.782	21.93805
565.98	21.79686
566.179	22.04536
566.377	21.14103
566.575	21.3103
566.774	23.79802
566.972	23.07584
567.171	24.63024
567.369	23.38525
567.567	22.1896
567.766	22.52253
567.964	19.70805
568.162	22.87808
568.361	23.61227
568.559	22.10971
568.757	23.37176
568.956	22.56446
569.154	22.15246
569.352	23.39302
569.55	22.32858
569.748	22.44506
569.947	21.50238
570.145	21.49928
570.343	21.27761
570.541	23.80071
570.739	21.1721
570.937	22.69424
571.135	23.02259
571.333	24.48754
571.532	24.50536
571.73	22.75606
571.928	23.81728
572.126	22.89833
572.324	21.97259
572.522	23.72435
572.72	25.55829
572.918	22.32652
573.116	22.76407
573.313	22.33048
573.511	22.38257
573.709	21.80964
573.907	23.40599
574.105	22.2351
574.303	20.42763
574.501	20.75503
574.699	22.98943
574.896	23.18836
575.094	23.34009
575.292	21.04949
575.49	23.57352
575.688	22.16288
575.885	24.04464
576.083	25.06813
576.281	23.09922
576.478	21.87661
576.676	23.00667
576.874	21.08116
577.071	22.01429
577.269	25.6495
577.467	22.53808
577.664	22.46247
577.862	23.79501
578.059	21.21592
578.257	23.74482
578.455	22.06354
578.652	22.8388
578.85	19.86187
579.047	22.68646
579.245	22.59548
579.442	22.59941
579.64	22.74759
579.837	20.17223
580.034	26.44948
580.232	22.06016
580.429	20.97772
580.627	23.57593
580.824	24.81757
581.021	23.63094
581.219	21.90378
581.416	21.23
581.613	25.05343
581.811	24.74446
582.008	21.57612
582.205	24.05938
582.402	22.93238
582.6	25.68235
582.797	23.21972
582.994	23.5255
583.191	23.83706
583.388	22.83945
583.586	24.41796
583.783	24.22035
583.98	21.60098
584.177	23.29305
584.374	18.54678
584.571	22.56198
584.768	22.46378
584.965	22.02544
585.162	23.73502
585.359	25.44681
585.556	22.907
585.753	23.43943
585.95	21.00344
586.147	21.52323
586.344	23.84779
586.541	22.4802
586.738	20.95488
586.935	22.34065
587.132	21.89125
587.329	24.56264
587.526	23.02746
587.722	30.49215
587.919	20.65919
588.116	23.75867
588.313	25.33276
588.51	26.54297
588.706	22.58004
588.903	24.3357
589.1	24.77308
589.297	27.53914
589.493	23.25529
589.69	24.03466
589.887	22.45988
590.083	21.61526
590.28	22.07317
590.477	24.60981
590.673	24.46514
590.87	25.43346
591.067	22.67522
591.263	24.16383
591.46	23.6796
591.656	23.03206
591.853	25.06872
592.049	21.73738
592.246	22.49105
592.442	24.92905
592.639	24.72771
592.835	21.48349
593.032	24.02618
593.228	21.4095
593.425	21.11369
593.621	21.18633
593.817	23.90688
594.014	22.08255
594.21	23.55939
594.406	24.97494
594.603	24.33649
594.799	22.39496
594.995	19.98179
595.192	25.33585
595.388	23.05309
595.584	22.94909
595.78	21.17352
595.977	26.67716
596.173	26.19927
596.369	23.40217
596.565	22.27146
596.761	21.61412
596.957	25.24527
597.154	22.42146
597.35	22.67299
597.546	22.18844
597.742	23.94114
597.938	23.54614
598.134	21.61927
598.33	23.62153
598.526	25.48345
598.722	23.61068
598.918	26.14315
599.114	24.23504
599.31	21.65417
599.506	23.66827
599.702	21.74205
599.898	23.73324
600.094	25.00221
600.29	24.76123
600.485	25.25216
600.681	22.44834
600.877	26.77637
601.073	23.82089
601.269	26.73624
601.465	26.21812
601.66	22.68194
601.856	20.68349
602.052	26.29237
602.248	23.52722
602.443	20.83326
602.639	21.9831
602.835	22.37869
603.03	22.67698
603.226	25.49009
603.422	22.74709
603.617	23.28344
603.813	23.21403
604.009	22.87413
604.204	25.38564
604.4	21.28454
604.595	25.0136
604.791	22.01522
604.986	24.16371
605.182	22.41755
605.377	22.75563
605.573	22.61901
605.768	23.29552
605.964	24.33998
606.159	24.43189
606.355	25.31528
606.55	22.55601
606.746	25.38491
606.941	23.22807
607.136	27.2874
607.332	28.83753
607.527	21.75064
607.722	24.29915
607.918	23.7306
608.113	22.99774
608.308	25.54672
608.503	25.32309
608.699	24.72328
608.894	25.09352
609.089	22.76547
609.284	24.49359
609.479	23.29876
609.675	25.04276
609.87	23.24636
610.065	24.90985
610.26	25.36161
610.455	25.09696
610.65	23.52515
610.845	23.82277
611.04	25.5281
611.235	23.76669
611.43	23.05101
611.625	21.76702
611.82	26.41531
612.015	22.33246
612.21	26.60257
612.405	21.22346
612.6	27.37145
612.795	26.15164
612.99	25.16619
613.185	21.80027
613.38	22.83948
613.575	24.53954
613.77	29.61174
613.965	21.38464
614.159	22.77925
614.354	26.76692
614.549	26.00548
614.744	25.91056
614.938	22.22987
615.133	21.43038
615.328	26.84683
615.523	26.39727
615.717	30.03043
615.912	22.8728
616.107	24.58563
616.301	23.47087
616.496	23.28808
616.691	27.21475
616.885	25.58367
617.08	30.45157
617.274	26.58118
617.469	29.0218
617.664	25.76846
617.858	23.11562
618.053	25.33105
618.247	23.85838
618.442	19.97689
618.636	27.19063
618.831	23.09653
619.025	23.32998
619.219	29.84385
619.414	17.88284
619.608	24.61091
619.803	23.1829
619.997	29.17373
620.191	27.40766
620.386	25.74027
620.58	24.4559
620.774	21.14213
620.969	21.33121
621.163	25.11939
621.357	22.33818
621.551	23.75635
621.746	24.65303
621.94	24.17484
622.134	32.14546
622.328	29.54611
622.522	21.00118
622.716	26.60407
622.911	27.05457
623.105	27.00858
623.299	25.84733
623.493	31.86528
623.687	23.42018
623.881	24.03166
624.075	26.09683
624.269	27.6011
624.463	21.19895
624.657	21.48022
624.851	26.14966
625.045	26.94664
625.239	27.33296
625.433	24.28468
625.627	28.44033
625.821	24.43112
626.015	23.6117
626.209	25.74142
626.403	22.59612
626.596	26.1326
626.79	27.17021
626.984	22.57312
627.178	26.46423
627.372	26.02426
627.565	26.59474
627.759	21.63318
627.953	22.33638
628.147	25.50798
628.34	26.0922
628.534	29.6472
628.728	24.84209
628.921	27.25076
629.115	26.61485
629.309	27.57309
629.502	27.25233
629.696	25.90438
629.89	24.98892
630.083	26.25204
630.277	26.30963
630.47	29.43815
630.664	24.55573
630.857	22.02696
631.051	26.90139
631.244	28.15379
631.438	27.47543
631.631	23.93562
631.825	28.81015
632.018	27.35114
632.212	30.33084
632.405	28.40125
632.598	24.01316
632.792	26.53489
632.985	20.49639
633.178	25.39744
633.372	25.84889
633.565	25.74576
633.758	29.13974
633.952	24.09392
634.145	23.6863
634.338	26.02951
634.531	24.43051
634.724	24.50086
634.918	26.05449
635.111	25.49743
635.304	24.41377
635.497	31.23408
635.69	26.35986
635.883	29.09688
636.077	23.04723
636.27	27.14552
636.463	26.03796
636.656	26.86812
636.849	25.60947
637.042	27.21756
637.235	29.96208
637.428	27.99871
637.621	27.15434
637.814	29.79801
638.007	29.98715
638.2	30.542
638.393	32.05909
638.586	22.78099
638.778	25.41904
638.971	25.70333
639.164	31.3455
639.357	27.41542
639.55	30.41328
639.743	29.12132
639.935	28.99951
640.128	31.54245
640.321	29.02175
640.514	27.39066
640.707	33.41948
640.899	28.63964
641.092	22.65774
641.285	47.15273
641.477	20.57319
641.67	33.85934
641.863	31.10735
642.055	28.06428
642.248	27.19918
642.441	25.67656
642.633	28.35584
642.826	31.83394
643.018	31.04825
643.211	32.57641
643.403	31.94769
643.596	34.1671
643.788	34.54524
643.981	26.80149
644.173	30.08723
644.366	27.42528
644.558	22.11249
644.751	30.35305
644.943	23.36842
645.135	32.86979
645.328	32.92047
645.52	29.9099
645.712	31.3764
645.905	37.44364
646.097	24.20896
646.289	28.08632
646.482	33.88923
646.674	25.81166
646.866	31.83977
647.058	29.68453
647.251	24.76669
647.443	26.56382
647.635	28.09001
647.827	24.66835
648.019	25.67407
648.211	28.34326
648.404	28.52398
648.596	32.82711
648.788	29.00308
648.98	29.31164
649.172	29.62859
649.364	29.57986
649.556	23.1109
649.748	37.44238
649.94	24.9419
650.132	30.42758
650.324	25.31862
650.516	26.89759
650.708	32.70296
650.9	23.82752
651.092	23.59043
651.284	24.36231
651.476	25.74209
651.667	31.10381
651.859	32.19186
652.051	28.87657
652.243	28.66952
652.435	27.34444
652.627	29.95788
652.818	30.40286
653.01	23.60802
653.202	25.40911
653.394	26.92333
653.585	30.93145
653.777	44.0924
653.969	33.00758
654.16	32.8353
654.352	25.5916
654.544	28.41159
654.735	32.37034
654.927	29.87287
655.118	34.64564
655.31	32.03517
655.502	32.88706
655.693	27.86001
655.885	31.81777
656.076	33.9235
656.268	30.02241
656.459	34.05617
656.651	33.86645
656.842	27.85847
657.034	26.82421
657.225	32.22153
657.416	34.36256
657.608	34.03363
657.799	29.2358
657.99	33.52352
658.182	28.06817
658.373	27.7501
658.564	31.90408
658.756	29.81593
658.947	28.874
659.138	26.28766
659.33	27.63239
659.521	26.57644
659.712	28.63917
659.903	28.17942
660.094	26.99393
660.286	23.94344
660.477	35.28785
660.668	31.11941
660.859	29.02233
661.05	24.31064
661.241	31.7966
661.432	30.93734
661.623	28.35467
661.814	28.02898
662.006	24.49152
662.197	31.68016
662.388	33.85164
662.579	31.50877
662.77	34.825
662.96	39.7315
663.151	32.86006
663.342	24.17713
663.533	32.13433
663.724	30.50829
663.915	37.22735
664.106	29.74651
664.297	36.9213
664.488	33.93578
664.678	28.91216
664.869	33.71703
665.06	34.77143
665.251	31.51933
665.442	33.39249
665.632	27.35633
665.823	38.39542
666.014	20.48401
666.204	34.11109
666.395	36.81034
666.586	42.418
666.776	34.33418
666.967	38.43485
667.158	32.31801
667.348	37.20338
667.539	27.57182
667.729	34.69654
667.92	28.84547
668.111	35.50306
668.301	33.85754
668.492	30.62454
668.682	32.0748
668.873	31.4945
669.063	27.11961
669.253	32.49275
669.444	34.53941
669.634	31.43498
669.825	39.52432
670.015	35.76296
670.206	28.40687
670.396	39.28214
670.586	31.78929
670.777	34.55506
670.967	24.15763
671.157	30.90988
671.347	29.84478
671.538	37.73477
671.728	34.52067
671.918	40.30746
672.108	37.22416
672.299	32.20083
672.489	34.61858
672.679	29.77697
672.869	34.65035
673.059	40.45525
673.249	34.53276
673.44	28.65495
673.63	32.29135
673.82	37.20244
674.01	29.01239
674.2	34.44567
674.39	45.51104
674.58	35.79123
674.77	33.55398
674.96	32.21631
675.15	50.87182
675.34	38.65964
675.53	33.25334
675.72	32.49395
675.91	27.43629
676.099	41.82672
676.289	42.69063
676.479	38.28543
676.669	32.18622
676.859	35.69475
677.049	29.28204
677.238	33.92694
677.428	43.69279
677.618	35.18052
677.808	37.89047
677.997	36.12866
678.187	28.98078
678.377	33.5698
678.567	32.30928
678.756	32.14628
678.946	32.67256
679.136	27.36194
679.325	30.09032
679.515	29.11644
679.704	28.06718
679.894	35.21223
680.084	33.60084
680.273	37.53177
680.463	29.90399
680.652	29.5242
680.842	32.41539
681.031	36.55187
681.221	29.73138
681.41	35.44088
681.6	31.94869
681.789	36.16439
681.978	39.27341
682.168	34.06208
682.357	34.14888
682.547	36.46005
682.736	34.17762
682.925	38.88473
683.115	38.43333
683.304	38.05252
683.493	36.33321
683.682	37.08317
683.872	35.46217
684.061	40.37051
684.25	37.33114
684.439	43.12343
684.629	38.05652
684.818	50.76387
685.007	34.57379
685.196	33.6555
685.385	42.50603
685.574	37.20406
685.763	38.04036
685.952	36.71239
686.142	29.80483
686.331	42.57044
686.52	27.75344
686.709	42.84441
686.898	42.58473
687.087	39.21855
687.276	44.14866
687.465	39.76286
687.654	35.12653
687.842	43.3133
688.031	30.65863
688.22	41.94825
688.409	37.49354
688.598	36.93937
688.787	49.59476
688.976	36.9272
689.165	44.68626
689.353	34.45748
689.542	39.33315
689.731	39.93492
689.92	46.10511
690.108	41.99934
690.297	34.46585
690.486	37.50411
690.675	41.64389
690.863	45.81509
691.052	46.61416
691.241	40.14485
691.429	38.99272
691.618	46.39476
691.806	32.74429
691.995	36.30964
692.184	38.62075
692.372	36.87723
692.561	39.53552
692.749	38.42743
692.938	52.41249
693.126	41.66451
693.315	36.1347
693.503	42.44667
693.692	42.82957
693.88	44.98583
694.068	51.71724
694.257	39.1759
694.445	42.05378
694.634	27.7956
694.822	45.66998
695.01	46.38469
695.199	47.0349
695.387	49.51885
695.575	46.77807
695.763	39.9912
695.952	37.93585
696.14	32.55871
696.328	37.31067
696.516	40.32624
696.705	42.19525
696.893	40.77046
697.081	30.49884
697.269	42.53523
697.457	33.387
697.645	33.10502
697.833	42.98968
698.021	34.45366
698.21	35.84892
698.398	37.26314
698.586	32.03983
698.774	30.99105
698.962	35.35137
699.15	32.35364
699.338	30.06663
699.526	38.65013
699.714	33.7788
699.901	34.09771
700.089	41.90774
700.277	34.08859
700.465	36.3806
700.653	43.06168
700.841	41.45424
701.029	33.73924
701.217	45.65746
701.404	40.54277
701.592	49.52749
701.78	51.46285
701.968	38.42063
702.155	38.40554
702.343	33.01204
702.531	48.30017
702.718	43.42384
702.906	39.34852
703.094	37.65131
703.281	48.85973
703.469	41.93635
703.657	48.36943
703.844	62.40232
704.032	52.53205
704.219	38.93105
704.407	45.15949
704.595	51.16865
704.782	43.68082
704.97	40.03219
705.157	41.13854
705.345	53.34608
705.532	59.33319
705.719	45.50766
705.907	52.26521
706.094	43.79782
706.282	54.99096
706.469	41.12651
706.656	44.13848
706.844	42.28204
707.031	50.24136
707.218	45.21722
707.406	55.08802
707.593	49.18286
707.78	48.87911
707.968	43.61362
708.155	39.76507
708.342	47.81322
708.529	47.43778
708.716	44.78171
708.904	55.97731
709.091	48.57588
709.278	37.43962
709.465	59.03321
709.652	56.37984
709.839	54.01009
710.026	46.33108
710.213	34.21672
710.4	47.90252
710.587	50.93164
710.774	53.80496
710.961	51.66666
711.148	44.78049
711.335	52.72411
711.522	43.6606
711.709	47.70736
711.896	60.60286
712.083	53.20848
712.27	39.74171
712.457	47.56722
712.644	35.9632
712.831	60.38146
713.017	46.65851
713.204	51.98149
713.391	44.23746
713.578	55.96463
713.765	55.32887
713.951	51.23218
714.138	70.35444
714.325	51.88451
714.512	49.68577
714.698	41.5983
714.885	60.53131
715.072	49.35801
715.258	49.26536
715.445	43.47126
715.631	58.70935
715.818	30.40138
716.005	43.60392
716.191	51.86341
716.378	45.33336
716.564	55.17271
716.751	41.78615
716.937	44.93638
717.124	57.02501
717.31	42.85479
717.497	59.91671
717.683	44.03947
717.869	68.22164
718.056	46.05079
718.242	52.68104
718.429	49.79397
718.615	41.03202
718.801	50.85292
718.988	58.08459
719.174	54.49771
719.36	50.23776
719.547	61.3195
719.733	53.29067
719.919	53.89375
720.105	57.07845
720.291	51.19228
720.478	53.60628
720.664	51.58467
720.85	49.33941
721.036	76.8649
721.222	64.9616
721.408	52.07916
721.595	70.67184
721.781	67.92969
721.967	61.78087
722.153	70.05039
722.339	60.87553
722.525	58.31696
722.711	46.92619
722.897	42.1689
723.083	50.76431
723.269	62.9366
723.455	77.12176
723.641	81.19155
723.827	55.66386
724.012	59.26677
724.198	51.58494
724.384	66.72453
724.57	59.10403
724.756	42.94328
724.942	38.56562
725.127	64.75816
725.313	68.19064
725.499	68.69145
725.685	71.95651
725.87	59.10164
726.056	47.61253
726.242	68.21687
726.428	42.35832
726.613	63.79547
726.799	53.46994
726.985	45.71935
727.17	40.53926
727.356	69.06449
727.541	46.98863
727.727	54.49647
727.913	60.87674
728.098	49.80142
728.284	61.61617
728.469	43.82875
728.655	46.69265
728.84	61.41301
729.026	63.6735
729.211	64.75665
729.397	58.68996
729.582	61.50031
729.767	56.48653
729.953	59.31135
730.138	65.90098
730.323	35.41324
730.509	47.04159
730.694	72.27993
730.879	60.2444
731.065	56.77596
731.25	79.38638
731.435	62.27377
731.621	41.70142
731.806	50.16379
731.991	58.17402
732.176	42.96225
732.361	69.59272
732.547	58.11335
732.732	40.51653
732.917	79.2842
733.102	44.92844
733.287	48.16579
733.472	55.17333
733.657	55.12078
733.842	42.73706
734.027	52.01707
734.212	55.568
734.397	48.55732
734.582	58.68127
734.767	65.47794
734.952	72.06847
735.137	33.59868
735.322	71.79969
735.507	61.83635
735.692	60.8476
735.877	82.42176
736.062	75.31843
736.247	62.49418
736.431	58.08051
736.616	72.73834
736.801	61.80152
736.986	58.94716
737.171	51.35775
737.355	46.2361
737.54	72.78499
737.725	58.82855
737.909	90.48343
738.094	52.9454
738.279	69.79415
738.463	56.88389
738.648	66.17113
738.833	62.98129
739.017	79.2796
739.202	54.65746
739.386	58.19401
739.571	41.29219
739.756	65.85328
739.94	60.1958
740.125	69.24131
740.309	51.17001
740.494	67.52298
740.678	60.49248
740.863	65.34775
741.047	62.53741
741.231	74.25142
741.416	50.81873
741.6	78.36443
741.785	51.88349
741.969	73.06263
742.153	76.55977
742.338	39.8902
742.522	63.5573
742.706	72.72882
742.89	48.04947
743.075	63.29094
743.259	79.74217
743.443	74.45328
743.627	77.90563
743.812	92.93072
743.996	44.37625
744.18	61.64131
744.364	59.22866
744.548	98.99497
744.732	61.19513
744.916	76.39297
745.1	70.97967
745.285	59.97165
745.469	70.90121
745.653	88.85715
745.837	46.38053
746.021	98.65626
746.205	81.96008
746.389	65.61218
746.573	63.429
746.757	86.45703
746.94	60.14544
747.124	79.40227
747.308	50.57666
747.492	83.69573
747.676	57.63634
747.86	97.3864
748.044	59.6024
748.227	44.0532
748.411	112.76436
748.595	67.31003
748.779	52.97963
748.963	71.56386
749.146	67.1482
749.33	54.68456
749.514	51.87758
749.697	79.31937
749.881	55.53132
750.065	53.17111
750.248	66.44941
750.432	97.90343
750.616	64.87019
750.799	48.95204
750.983	94.44966
751.166	107.07445
751.35	48.23997
751.533	81.03366
751.717	80.83581
751.9	86.52636
752.084	61.24627
752.267	53.49637
752.451	56.54957
752.634	67.79996
752.818	76.23909
753.001	77.42279
753.184	79.64348
753.368	73.97922
753.551	26.84523
753.734	54.52081
753.918	94.16591
754.101	58.07646
754.284	77.45687
754.467	60.49757
754.651	56.75342
754.834	55.36068
755.017	82.73158
755.2	80.11844
755.384	52.75233
755.567	78.52322
755.75	83.7516
755.933	64.92096
756.116	72.21123
756.299	60.09433
756.482	54.49063
756.665	76.34547
756.848	66.80977
757.032	76.28186
757.215	48.99031
757.398	59.48895
757.581	55.66403
757.764	107.89726
757.947	64.73957
758.129	87.02617
758.312	33.25247
758.495	68.68742
758.678	66.96648
758.861	64.62224
759.044	94.97691
759.227	55.34803
759.41	58.08889
759.592	75.76803
759.775	67.50211
759.958	80.44885
760.141	52.8872
760.324	103.07281
760.506	89.64802
760.689	83.33607
760.872	105.25742
761.054	76.17281
761.237	66.88619
761.42	73.72295
761.602	83.02
761.785	73.58367
761.968	83.19435
762.15	97.02548
762.333	64.30435
762.515	75.0066
762.698	59.477
762.88	76.6174
763.063	69.23642
763.245	74.88359
763.428	51.87946
763.61	55.48966
763.793	46.84842
763.975	65.11484
764.158	55.82349
764.34	55.05931
764.522	49.89747
764.705	60.07136
764.887	78.68041
765.069	43.37094
765.252	73.48204
765.434	73.45824
765.616	67.10859
765.799	60.41353
765.981	79.94972
766.163	58.16231
766.345	81.94866
766.528	56.51498
766.71	38.4979
766.892	71.38208
767.074	88.32744
767.256	66.90893
767.438	99.69161
767.62	72.20778
767.802	106.04424
767.985	83.36541
768.167	104.18636
768.349	63.09753
768.531	82.19515
768.713	77.57296
768.895	88.17349
769.077	77.76195
769.259	113.87872
769.441	164.06515
769.623	90.92037
769.804	104.58031
769.986	100.97702
770.168	120.0271
770.35	140.82143
770.532	105.82846
770.714	113.09753
770.896	123.17299
771.077	65.20541
771.259	123.68039
771.441	102.07905
771.623	132.62211
771.804	154.33403
771.986	62.33411
772.168	82.78877
772.35	125.76147
772.531	164.13311
772.713	98.1767
772.894	133.39042
773.076	95.15912
773.258	85.41454
773.439	130.25388
773.621	143.85369
773.802	72.48371
773.984	87.38234
774.166	107.91881
774.347	138.1253
774.529	131.12405
774.71	56.85136
774.891	97.09538
775.073	90.41504
775.254	140.69026
775.436	85.50927
775.617	155.57704
775.799	86.61286
775.98	142.16188
776.161	148.33636
776.343	151.13196
776.524	102.64271
776.705	90.90614
776.886	57.1654
777.068	108.59491
777.249	183.3164
777.43	166.19507
777.611	72.69641
777.793	89.68492
777.974	144.7963
778.155	86.97706
778.336	80.92824
778.517	169.04182
778.698	81.14122
778.879	56.41519
779.061	39.98907
779.242	110.61343
779.423	115.2914
779.604	88.33092
779.785	100.07879
779.966	107.46246
780.147	127.66116
780.328	137.86664
780.509	184.40143
780.69	123.26545
780.871	81.86123
781.051	66.55036
781.232	109.40683
781.413	102.41009
781.594	94.42266
781.775	92.47306
781.956	86.71948
782.137	59.11062
782.317	85.1378
782.498	116.05724
782.679	110.04056
782.86	107.36704
783.04	86.46598
783.221	117.56072
783.402	163.96818
783.583	105.75546
783.763	129.03617
783.944	93.07076
784.124	70.1986
784.305	158.58175
784.486	119.90555
784.666	102.19695
784.847	62.66305
785.027	183.60374
785.208	84.87307
785.388	76.59792
785.569	93.4263
785.749	97.27576
785.93	92.72743
786.11	66.07369
786.291	117.24786
786.471	107.88488
786.652	127.50421
786.832	103.26277
787.012	110.83322
787.193	71.47322
787.373	107.52215
787.553	95.45929
787.734	108.17103
787.914	92.7887
788.094	118.20409
788.275	114.69317
788.455	91.52032
788.635	70.51914
788.815	105.15861
788.995	73.98501
789.176	62.91481
789.356	78.16496
789.536	94.0717
789.716	116.91016
789.896	82.09181
790.076	87.32203
790.256	105.84661
790.436	44.85055
790.616	80.33586
790.796	106.04031
790.976	90.06669
791.156	83.93079
791.336	126.59023
791.516	113.33507
791.696	95.83819
791.876	65.57768
792.056	103.26139
792.236	131.81315
792.416	121.81471
792.596	115.43051
792.776	116.4563
792.956	120.2261
793.135	148.265
793.315	77.52088
793.495	138.5702
793.675	117.702
793.854	131.63292
794.034	127.58481
794.214	77.07312
794.394	129.66055
794.573	143.3455
794.753	108.40972
794.933	84.01405
795.112	111.3699
795.292	130.06813
795.472	159.45424
795.651	69.67285
795.831	102.19028
796.01	95.02811
796.19	93.50872
796.369	102.43857
796.549	120.10456
796.728	97.55508
796.908	65.85006
797.087	72.85416
797.267	89.59624
797.446	73.2083
797.626	120.90387
797.805	117.2824
797.984	80.86412
798.164	120.55396
798.343	79.24223
798.522	108.16597
798.702	102.79091
798.881	69.79847
799.06	95.14174
799.239	52.42621
799.419	79.57253
799.598	149.2774
799.777	118.6388
799.956	138.96113
800.136	91.38711
800.315	82.02713
800.494	121.74497
800.673	134.80059
800.852	120.63999
801.031	129.23715
801.21	119.53999
801.389	94.3474
801.568	108.19292
801.747	163.10701
801.926	104.42168
802.105	158.19564
802.284	90.72703
802.463	151.47663
802.642	111.07354
802.821	112.17208
803	146.07653
803.179	131.94817
803.358	143.74213
803.537	88.15212
803.716	101.17413
803.895	85.4441
804.073	105.67465
804.252	85.63296
804.431	119.7782
804.61	103.93611
804.789	143.38461
804.967	93.93047
805.146	87.44566
805.325	169.37394
805.503	115.71842
805.682	64.62078
805.861	190.33569
806.039	145.65545
806.218	90.35184
806.397	112.50112
806.575	105.58502
806.754	119.63304
806.932	78.82933
807.111	156.17277
807.289	135.90472
807.468	106.34304
807.646	141.10279
807.825	124.5319
808.003	109.75341
808.182	131.98742
808.36	112.02068
808.539	85.0458
808.717	159.65614
808.895	81.33284
809.074	116.91
809.252	108.94418
809.43	128.96406
809.609	145.21684
809.787	168.53236
809.965	102.55106
810.144	110.47831
810.322	105.67516
810.5	119.38192
810.678	97.63554
810.856	184.71934
811.035	140.32842
811.213	135.60523
811.391	151.64954
811.569	117.37776
811.747	217.008
811.925	153.0249
812.103	88.03767
812.281	106.28209
812.459	166.91326
812.637	174.74122
812.816	145.55494
812.994	175.13525
813.171	154.05721
813.349	128.23836
813.527	151.76524
813.705	162.19962
813.883	201.85685
814.061	149.31413
814.239	175.73816
814.417	195.24295
814.595	126.28648
814.773	128.08192
814.95	119.60562
815.128	130.06083
815.306	100.33311
815.484	113.55792
815.662	86.49947
815.839	85.62448
816.017	96.3069
816.195	166.99477
816.372	104.83076
816.55	148.66542
816.728	170.7396
816.905	105.98505
817.083	176.06485
817.261	113.82236
817.438	199.43375
817.616	184.18092
817.793	102.38538
817.971	141.11291
818.148	146.97262
818.326	166.92182
818.503	124.60714
818.681	168.37401
818.858	102.31767
819.036	116.12747
819.213	125.85493
819.391	98.54553
819.568	90.74948
819.745	89.14125
819.923	138.2672
820.1	104.46062
820.277	88.05509
820.455	100.04932
820.632	102.62245
820.809	102.53183
820.986	75.48217
821.164	62.9007
821.341	58.31148
821.518	71.07079
821.695	56.84084
821.872	55.56529
822.05	50.15049
822.227	42.71358
822.404	43.38996
822.581	46.20841
822.758	42.79068
822.935	42.25073
823.112	45.86961
823.289	40.29215
823.466	44.99205
823.643	42.80244
823.82	47.43158
823.997	44.57102
824.174	50.42011
824.351	60.57806
824.528	59.79466
824.705	56.77235
824.882	61.52525
825.059	77.46159
825.236	58.9289
825.412	62.01016
825.589	72.97282
825.766	94.84044
825.943	68.67432
826.12	78.66787
826.296	58.42995
826.473	69.71594
826.65	70.66831
826.827	80.09429
827.003	60.62578
827.18	63.16605
827.357	70.06455
827.533	62.58613
827.71	42.68879
827.887	55.60746
828.063	61.70201
828.24	55.4576
828.416	68.53302
828.593	57.92065
828.769	75.33297
828.946	83.34197
829.122	86.10828
829.299	81.23825
829.475	56.81303
829.652	85.90437
829.828	132.94575
830.005	89.45716
830.181	121.75139
830.357	90.17949
830.534	130.40193
830.71	102.00587
830.886	126.20376
831.063	123.74623
831.239	152.98421
831.415	78.77265
831.592	156.90437
831.768	107.02515
831.944	90.22748
832.12	157.34806
832.296	148.10492
832.473	133.24926
832.649	100.06359
832.825	122.48286
833.001	81.56917
833.177	114.45814
833.353	101.00723
833.529	65.59794
833.705	84.50642
833.881	66.23124
834.058	66.00944
834.234	66.95218
834.41	68.37278
834.586	57.3708
834.761	65.22053
834.937	69.38059
835.113	70.158
835.289	65.14792
835.465	76.25086
835.641	68.37305
835.817	77.2463
835.993	126.43963
836.169	72.94489
836.344	103.81048
836.52	113.13681
836.696	111.37732
836.872	90.47074
837.048	208.13908
837.223	99.42203
837.399	180.57647
837.575	145.07224
837.75	141.06281
837.926	182.36377
838.102	298.44887
838.277	224.46861
838.453	293.51033
838.628	270.9948
838.804	133.43909
838.98	270.53501
839.155	149.48213
839.331	189.98106
839.506	148.53249
839.682	136.23543
839.857	176.12337
840.033	197.99625
840.208	111.07106
840.384	61.01365
840.559	111.43809
840.734	155.11799
840.91	214.9656
841.085	134.86205
841.26	132.45627
841.436	118.4457
841.611	119.64714
841.786	171.96699
841.962	223.38324
842.137	145.04819
842.312	101.22617
842.487	130.44155
842.663	109.19798
842.838	132.8776
843.013	425.39215
843.188	214.82495
843.363	166.81582
843.538	377.74647
843.714	364.26919
843.889	379.13058
844.064	385.12048
844.239	343.82711
844.414	439.05976
844.589	264.56665
844.764	526.60881
844.939	467.28422
845.114	568.5069
845.289	574.29377
845.464	580.64783
845.639	452.47078
845.814	212.56766
845.989	284.11665
846.163	307.004
846.338	340.58121
846.513	528.58179
846.688	340.20923
846.863	295.63367
847.038	265.14735
847.212	355.14555
847.387	343.60962
847.562	348.84935
847.737	450.39598
847.911	171.94695
848.086	202.19848
848.261	572.70566
848.435	286.59197
848.61	462.26128
848.785	212.7622
848.959	460.18671
849.134	642.8991
849.308	767.76245
849.483	360.8586
849.658	571.13487
849.832	279.28187
850.007	239.52973
850.181	1031.89518
850.356	283.09867
850.53	825.20077
850.705	221.59759
850.879	163.11607
851.053	310.52384
851.228	288.24761
851.402	438.7616
851.577	517.11137
851.751	750.64476
851.925	335.34941
852.099	182.30857
852.274	217.92743
852.448	307.83737
852.622	481.52932
852.797	328.84062
852.971	338.89906
853.145	347.73912
853.319	1119.95942
853.493	508.28726
853.668	272.39716
853.842	764.99579
854.016	559.77547
854.19	681.5476
854.364	362.30842
854.538	393.92368
854.712	590.99836
854.886	325.59138
855.06	280.50126
855.234	126.17463
855.408	662.94197
855.582	628.94026
855.756	558.59991
855.93	679.75993
856.104	378.80459
856.278	535.31054
856.452	351.01797
856.626	438.74081
856.8	992.06803
856.973	428.43589
857.147	421.93469
857.321	446.81424
857.495	568.17038
857.669	382.61975
857.842	295.02985
858.016	544.41593
858.19	246.13368
858.364	1362.38517
858.537	308.32971
858.711	357.77069
858.885	304.23791
859.058	291.84642
859.232	154.67886
859.405	200.43006
859.579	506.88106
859.753	437.19543
859.926	299.24874
860.1	165.48595
860.273	328.31332
860.447	608.05778
860.62	335.0763
860.794	757.58256
860.967	372.45416
861.141	677.29458
861.314	1077.43923
861.487	484.65312
861.661	666.58215
861.834	717.15838
862.008	515.57789
862.181	409.38782
862.354	389.05689
862.528	431.4846
862.701	328.00547
862.874	194.75931
863.047	316.16761
863.221	322.85909
863.394	171.48715
863.567	609.84313
863.74	128.81404
863.913	499.10331
864.087	492.83916
864.26	599.74339
864.433	327.10446
864.606	950.55853
864.779	320.19994
864.952	180.7443
865.125	287.4458
865.298	335.15909
865.471	336.40455
865.644	861.60199
865.817	573.4235
865.99	572.10042
866.163	749.94349
866.336	321.55526
866.509	302.53764
866.682	293.01542
866.855	645.50367
867.028	203.14838
867.2	462.52211
867.373	133.99469
867.546	378.24928
867.719	856.0612
867.892	482.39374
868.064	300.32135
868.237	415.65126
868.41	395.65193
868.583	205.66476
868.755	238.91926
868.928	321.40732
869.101	953.51271
869.273	567.76934
869.446	442.42378
869.619	672.7379
869.791	348.49406
869.964	545.82467
870.136	541.63444
870.309	445.48864
870.481	354.66014
870.654	193.53499
870.826	458.69458
870.999	280.80529
871.171	445.21896
871.344	275.79096
871.516	339.96112
871.689	251.67009
871.861	429.08744
872.033	246.62174
872.206	303.93046
872.378	498.2079
872.55	313.94057
872.723	207.49634
872.895	345.69593
873.067	537.50736
873.24	548.28999
873.412	295.86777
873.584	325.86632
873.756	307.0099
873.928	358.9159
874.101	391.39182
874.273	445.23162
874.445	160.86593
874.617	205.39453
874.789	364.30538
874.961	316.45144
875.133	429.07777
875.305	359.75919
875.477	227.11551
875.649	184.36719
875.821	214.43615
875.993	640.31568
876.165	222.86927
876.337	369.80814
876.509	333.50898
876.681	355.2432
876.853	402.65337
877.025	397.1863
877.197	241.99293
877.369	223.78817
877.541	481.12206
877.712	142.65479
877.884	218.6864
878.056	408.81894
878.228	222.97806
878.4	425.86296
878.571	231.10473
878.743	155.69291
878.915	353.91165
879.086	219.54487
879.258	253.60257
879.43	224.38851
879.601	212.63665
879.773	214.97679
879.945	70.76536
880.116	95.3826
880.288	67.18789
880.459	71.67082
880.631	60.1808
880.802	67.48768
880.974	63.53825
881.145	49.58585
881.317	59.66476
881.488	49.50278
881.66	53.43428
881.831	49.01587
882.002	59.00999
882.174	48.91721
882.345	56.408
882.517	39.76307
882.688	63.63671
882.859	53.59004
883.03	73.68008
883.202	73.18514
883.373	66.34075
883.544	64.84862
883.715	94.83677
883.887	89.10454
884.058	79.40612
884.229	104.19198
884.4	108.27559
884.571	125.7494
884.742	107.55539
884.914	115.30521
885.085	170.30214
885.256	221.12308
885.427	185.74268
885.598	195.48769
885.769	216.9279
885.94	218.4021
886.111	148.29152
886.282	264.98317
886.453	195.4151
886.624	152.12075
886.795	262.12221
886.966	216.21062
887.136	279.8293
887.307	200.06805
887.478	412.59458
887.649	331.60098
887.82	367.28224
887.991	279.50544
888.161	360.17917
888.332	342.51112
888.503	163.1529
888.674	527.72258
888.844	633.99657
889.015	417.28068
889.186	184.50119
889.356	574.05358
889.527	180.59827
889.698	1117.39044
889.868	304.42825
890.039	397.68625
890.209	328.08056
890.38	431.31682
890.551	378.04622
890.721	494.85491
890.892	486.63004
891.062	309.10845
891.233	342.82918
891.403	311.76604
891.574	241.18586
891.744	339.39704
891.914	385.06045
892.085	331.12867
892.255	135.61727
892.425	640.46133
892.596	431.58283
892.766	436.76664
892.936	453.1311
893.107	424.6824
893.277	236.32699
893.447	200.60768
893.618	142.53673
893.788	286.04834
893.958	155.03469
894.128	160.77158
894.298	179.03838
894.468	212.86332
894.639	118.80127
894.809	88.18273
894.979	120.87483
895.149	139.8783
895.319	112.17601
895.489	150.32825
895.659	190.6497
895.829	125.17658
895.999	128.51649
896.169	102.77988
896.339	122.27998
896.509	249.20499
896.679	270.05203
896.849	272.37162
897.019	400.58698
897.189	306.81853
897.358	273.95659
897.528	400.46085
897.698	159.39361
897.868	350.08911
898.038	970.0393
898.208	769.20941
898.377	174.28618
898.547	854.34925
898.717	1080.69162
898.886	441.44098
899.056	673.53775
899.226	1558.53308
899.395	497.07007
899.565	902.65914
899.735	466.5274
899.904	1134.30894
900.074	1063.95668
900.244	290.91931
900.413	1255.35187
900.583	305.47672
900.752	449.7008
900.922	2221.03644
901.091	89.96209
901.261	701.67651
901.43	715.22341
901.599	631.09999
901.769	7225.1602
901.938	786.44696
902.108	856.83152
902.277	1664.4696
902.446	281.33357
902.616	263.52271
902.785	355.55375
902.954	718.61418
903.124	524.10671
903.293	350.3875
903.462	200.03715
903.631	273.0169
903.801	212.76217
903.97	113.38738
904.139	172.26254
904.308	135.93801
904.477	112.31361
904.646	76.31313
904.816	92.55769
904.985	146.67392
905.154	212.60347
