Data from WindowProjectSample_Transmission__59__00059.txt Node

Date: Sat May 03 16:58:12 EDT 2025
User: jessi
Spectrometer: SR400872
Trigger mode: 0
Integration Time (sec): 5.000010E-1
Scans to average: 6
Electric dark correction enabled: true
Nonlinearity correction enabled: true
Boxcar width: 0
XAxis mode: Wavelengths
Number of Pixels in Spectrum: 3648
>>>>>Begin Spectral Data<<<<<
184.909	173475.35688
185.132	1645.11407
185.355	-2101.94608
185.578	3226.99942
185.801	-644.09789
186.024	6118.02751
186.247	1071.09718
186.47	697.33334
186.693	-308.3949
186.916	214.97391
187.139	10463.46983
187.362	3454.6633
187.585	2597.9058
187.808	-1472.33864
188.031	-2.51799
188.254	7625.46087
188.476	549.99619
188.699	-4101.83446
188.922	-333.65734
189.145	-4230.57778
189.368	-569.06011
189.591	-888.61315
189.813	-2340.51001
190.036	4971.37596
190.259	3684.59311
190.482	2345.9678
190.705	8482.15036
190.927	-1624.20075
191.15	-1587.776
191.373	4865.91755
191.595	-1865.9922
191.818	9070.97014
192.041	-158.52473
192.263	-2359.60607
192.486	-907.17779
192.709	9303.29548
192.931	-2638.60126
193.154	-1985.11237
193.377	4355.70305
193.599	5755.14135
193.822	-1774.16992
194.044	-1749.69817
194.267	684.44797
194.489	-137.1425
194.712	2219.92585
194.934	3486.76827
195.157	-9137.41882
195.379	2043.45256
195.602	5415.86876
195.824	5605.49594
196.047	-8949.18288
196.269	-10269.77407
196.492	-1230.0763
196.714	-4828.51919
196.936	4626.75201
197.159	-2428.21558
197.381	-509.71812
197.604	1195.60101
197.826	-3439.02438
198.048	-1317.573
198.271	-11720.78176
198.493	9618.57966
198.715	-2680.27272
198.938	-754.59215
199.16	-4068.94606
199.382	1788.01808
199.604	-1465.08766
199.827	-1344.366
200.049	-3948.68179
200.271	2620.46805
200.493	-25619.57552
200.715	4864.24167
200.938	12465.5452
201.16	-235456.93881
201.382	-5441.50607
201.604	-998.6705
201.826	-6816.10557
202.048	-7401.59472
202.27	-4638.51614
202.492	-3571.25919
202.715	-1513.51973
202.937	-3377.35423
203.159	1088.77131
203.381	-90255.32795
203.603	-1029.46655
203.825	-1271.59391
204.047	2138.11958
204.269	-953.10436
204.491	6872.73506
204.713	-8971.90394
204.935	36829.66139
205.156	2018.72368
205.378	-7049.01552
205.6	-1679.77823
205.822	6565.38915
206.044	-206.24702
206.266	-2061.40896
206.488	706.35974
206.71	-504381.82527
206.932	-15869.68726
207.153	11308.75887
207.375	-2108.53208
207.597	15450.57136
207.819	1668.29682
208.041	6150.2488
208.262	681.36234
208.484	-866.92832
208.706	-935.17675
208.927	11089.85684
209.149	-7602.5907
209.371	-2797.67802
209.593	-2465.12833
209.814	-4148.21682
210.036	2588.82512
210.258	-711.51991
210.479	2033.6191
210.701	828.67428
210.922	3907.36386
211.144	-1551.33492
211.366	5666.52766
211.587	-633.78102
211.809	-3482.06287
212.03	-2398.6397
212.252	-503.82306
212.473	2713.89452
212.695	-989.09933
212.916	-894.60727
213.138	561.50934
213.359	-1233.10908
213.581	-3765.39178
213.802	-1175.49021
214.024	10969.19932
214.245	-1132.91861
214.466	-143.91724
214.688	-3599.79071
214.909	-720.56851
215.131	9378.21627
215.352	-1316.2629
215.573	-257829.7037
215.795	4359.51963
216.016	-3736.11929
216.237	-650.73958
216.459	-11774.24609
216.68	-1733.71052
216.901	-1668.63165
217.122	1814.94745
217.344	-8576.8505
217.565	-1636.90985
217.786	22607.25473
218.007	949.81018
218.228	-3950.67851
218.45	-5650.75538
218.671	-1336.41862
218.892	908.85734
219.113	1578.87958
219.334	283.01919
219.555	-6212.76692
219.776	31586.22381
219.997	-6548.93331
220.219	-9616.04837
220.44	-4928.59016
220.661	-1345.5615
220.882	12645.73439
221.103	-733.16544
221.324	2264.89304
221.545	-6460.76166
221.766	-1445.11689
221.987	-471.78296
222.208	1881.01367
222.429	6497.65509
222.65	-137.98878
222.87	-700.59552
223.091	39567.25672
223.312	806.37709
223.533	-2283.705
223.754	3487.16415
223.975	1766.46437
224.196	-761.87024
224.417	-29687.26127
224.637	-2368.08452
224.858	550.61039
225.079	3438.88983
225.3	1482.75521
225.521	3569.13748
225.741	-2420.68086
225.962	1588.49898
226.183	707.04205
226.404	1834.113
226.624	1768.22381
226.845	1397.80354
227.066	2328.83044
227.286	595.94331
227.507	373.67129
227.728	425.2333
227.948	543.73392
228.169	120.88141
228.389	121.58695
228.61	57.40033
228.831	87.90865
229.051	11.02657
229.272	45.37799
229.492	62.16327
229.713	24.20793
229.933	47.6156
230.154	41.53225
230.374	69.61476
230.595	52.46712
230.815	33.50823
231.036	55.73002
231.256	-6.26751
231.477	112.00191
231.697	65.39735
231.917	61.37801
232.138	82.79109
232.358	179.01916
232.579	183.97914
232.799	31.16783
233.019	170.6486
233.24	236.89076
233.46	64.77516
233.68	110.39345
233.901	99.89706
234.121	57.2332
234.341	26.37697
234.561	-3.63628
234.782	30.50745
235.002	120.76541
235.222	3.10594
235.442	94.98792
235.662	56.12567
235.883	100.88697
236.103	88.44919
236.323	74.50728
236.543	51.22267
236.763	65.18563
236.983	71.37913
237.203	78.55559
237.423	105.95606
237.643	149.43143
237.864	139.12665
238.084	32.38099
238.304	51.27079
238.524	88.68337
238.744	67.46005
238.964	115.08782
239.184	107.24327
239.404	105.44778
239.624	46.12033
239.843	99.79234
240.063	52.92557
240.283	39.01474
240.503	36.31214
240.723	35.69291
240.943	19.18377
241.163	28.0949
241.383	19.7254
241.603	9.10106
241.822	12.30017
242.042	9.53649
242.262	10.57053
242.482	12.54799
242.702	14.58376
242.921	4.15751
243.141	10.28503
243.361	8.98757
243.581	12.62255
243.8	11.11988
244.02	7.53754
244.24	14.07749
244.459	14.32829
244.679	27.43804
244.899	18.38143
245.118	21.27815
245.338	16.30771
245.558	20.04391
245.777	12.76238
245.997	13.67791
246.216	13.70892
246.436	7.22392
246.655	5.50709
246.875	4.12442
247.094	7.93857
247.314	2.87007
247.533	4.20287
247.753	6.29195
247.972	4.64477
248.192	1.93433
248.411	2.61627
248.631	5.53148
248.85	6.69754
249.07	5.33881
249.289	8.94809
249.508	6.82257
249.728	10.06336
249.947	10.83339
250.166	12.14206
250.386	7.08465
250.605	10.75863
250.824	14.06498
251.044	11.68292
251.263	36.79309
251.482	17.92612
251.701	17.28449
251.921	-0.41155
252.14	5.64219
252.359	6.8454
252.578	14.26547
252.798	5.35423
253.017	12.69552
253.236	6.69214
253.455	8.54633
253.674	15.67251
253.893	7.1323
254.112	10.67316
254.331	17.46371
254.551	13.75568
254.77	7.53952
254.989	20.76424
255.208	18.75527
255.427	21.64275
255.646	20.27724
255.865	32.61525
256.084	13.8313
256.303	13.95443
256.522	19.39524
256.741	4.46766
256.96	5.8573
257.179	12.22673
257.397	16.39363
257.616	8.7122
257.835	7.61578
258.054	22.09348
258.273	12.44815
258.492	16.09752
258.711	9.4504
258.93	3.98219
259.148	5.43559
259.367	5.83664
259.586	7.16487
259.805	3.11616
260.023	6.66957
260.242	5.11258
260.461	3.50464
260.68	2.13368
260.898	5.8995
261.117	2.37823
261.336	1.62089
261.554	5.4731
261.773	5.48841
261.992	0.98137
262.21	5.34702
262.429	6.58883
262.648	10.73653
262.866	11.51203
263.085	7.81213
263.303	6.72382
263.522	12.75772
263.74	12.98038
263.959	21.2466
264.178	11.09568
264.396	9.98167
264.615	6.98343
264.833	16.80959
265.051	14.90926
265.27	13.72772
265.488	14.95949
265.707	9.88455
265.925	15.17664
266.144	6.85017
266.362	8.62233
266.58	9.07894
266.799	6.72705
267.017	8.84013
267.235	7.33438
267.454	4.79163
267.672	2.45557
267.89	6.15811
268.109	6.63281
268.327	5.83242
268.545	1.61036
268.763	5.68414
268.982	2.1789
269.2	7.26204
269.418	4.20649
269.636	3.39942
269.854	6.50828
270.073	4.60593
270.291	2.90764
270.509	2.87193
270.727	6.15992
270.945	9.54548
271.163	10.18219
271.381	2.27592
271.599	3.89028
271.817	7.05167
272.036	2.86326
272.254	4.09911
272.472	3.57995
272.69	3.50581
272.908	3.34602
273.126	6.11498
273.344	7.31633
273.562	2.65318
273.779	3.81484
273.997	4.79463
274.215	5.65447
274.433	4.20404
274.651	6.44526
274.869	6.95059
275.087	4.47165
275.305	6.13081
275.523	3.12397
275.74	4.67677
275.958	7.43782
276.176	11.12332
276.394	3.29468
276.612	4.77716
276.829	4.73088
277.047	3.41451
277.265	4.20042
277.483	5.19551
277.7	5.70139
277.918	5.09031
278.136	8.68236
278.353	4.51409
278.571	2.39942
278.789	7.40027
279.006	1.69546
279.224	3.8386
279.442	7.10619
279.659	4.81544
279.877	3.77695
280.094	7.76008
280.312	1.56726
280.529	4.85974
280.747	1.26041
280.964	3.77839
281.182	9.0205
281.399	4.00116
281.617	5.68211
281.834	3.90197
282.052	2.943
282.269	4.22455
282.487	3.44012
282.704	2.71704
282.921	3.30952
283.139	4.28562
283.356	5.98216
283.574	4.90402
283.791	2.85051
284.008	7.40405
284.226	4.00938
284.443	4.46311
284.66	5.65937
284.877	4.87404
285.095	3.15645
285.312	2.17883
285.529	1.56738
285.746	1.36755
285.964	2.97579
286.181	1.7227
286.398	2.68961
286.615	3.73452
286.832	3.32481
287.05	1.24528
287.267	2.73475
287.484	2.92511
287.701	3.76573
287.918	3.77702
288.135	3.88592
288.352	2.0235
288.569	2.09887
288.786	3.71266
289.003	2.67802
289.22	3.61513
289.437	2.49472
289.654	4.10035
289.871	4.54483
290.088	4.11728
290.305	3.09431
290.522	2.37938
290.739	3.22788
290.956	4.15546
291.173	5.37722
291.39	4.93386
291.607	3.48802
291.824	2.75123
292.04	1.55201
292.257	4.07462
292.474	4.5557
292.691	2.87657
292.908	1.6535
293.125	2.69389
293.341	1.40214
293.558	7.16379
293.775	2.80286
293.992	3.03388
294.208	1.37399
294.425	1.79384
294.642	2.34016
294.858	3.8831
295.075	0.97185
295.292	2.73652
295.508	3.43309
295.725	5.39954
295.942	2.32363
296.158	1.98907
296.375	2.88898
296.591	2.14679
296.808	2.28408
297.024	2.73546
297.241	2.99138
297.458	3.23527
297.674	0.29151
297.891	2.58939
298.107	1.96521
298.323	1.3799
298.54	3.81946
298.756	1.79156
298.973	0.61078
299.189	3.91516
299.406	1.74831
299.622	4.06224
299.838	3.95828
300.055	3.70303
300.271	1.20981
300.487	1.27274
300.704	1.70899
300.92	1.08941
301.136	5.38794
301.353	3.86985
301.569	2.85965
301.785	3.44797
302.001	3.80436
302.218	3.35479
302.434	3.00325
302.65	1.04923
302.866	2.17098
303.083	5.27039
303.299	5.01695
303.515	2.72563
303.731	2.86056
303.947	1.19155
304.163	1.70675
304.379	3.17155
304.595	3.67035
304.812	1.75669
305.028	1.79398
305.244	2.47387
305.46	3.53055
305.676	3.82904
305.892	4.50542
306.108	2.74363
306.324	2.05207
306.54	5.0863
306.756	3.57257
306.972	3.56022
307.187	2.49226
307.403	4.94538
307.619	2.08014
307.835	4.11765
308.051	4.71592
308.267	1.18379
308.483	4.03245
308.699	3.40835
308.914	2.78407
309.13	2.4183
309.346	0.69306
309.562	1.30694
309.778	0.91848
309.993	3.40447
310.209	2.58392
310.425	1.11102
310.641	2.25853
310.856	1.17979
311.072	1.27109
311.288	2.57005
311.503	2.74069
311.719	0.50366
311.935	0.50928
312.15	3.04842
312.366	2.60623
312.581	3.30938
312.797	2.63021
313.013	3.43414
313.228	1.96171
313.444	2.87925
313.659	1.93806
313.875	3.12051
314.09	2.28414
314.306	4.01821
314.521	3.55787
314.737	3.30574
314.952	3.05186
315.168	2.50468
315.383	3.53992
315.599	2.21388
315.814	2.19232
316.029	3.402
316.245	0.91245
316.46	0.95253
316.675	4.22852
316.891	5.14355
317.106	6.32221
317.321	3.72041
317.537	3.28953
317.752	3.6513
317.967	3.60337
318.183	1.85626
318.398	2.26973
318.613	3.95221
318.828	4.74275
319.043	3.6727
319.259	2.24566
319.474	3.46781
319.689	4.10009
319.904	0.72619
320.119	3.76259
320.334	3.19391
320.549	2.44019
320.765	4.4849
320.98	3.11061
321.195	4.11594
321.41	2.31143
321.625	3.99668
321.84	4.88452
322.055	5.33659
322.27	1.87769
322.485	1.57258
322.7	2.96023
322.915	4.10155
323.13	1.69763
323.345	4.58453
323.56	3.19305
323.775	3.65399
323.989	3.52676
324.204	2.8659
324.419	3.92692
324.634	1.31248
324.849	2.60004
325.064	5.90561
325.279	4.04602
325.493	3.7292
325.708	4.07318
325.923	1.73501
326.138	1.87313
326.352	4.75067
326.567	3.8762
326.782	2.452
326.997	1.7405
327.211	3.31699
327.426	3.55451
327.641	2.55434
327.855	0.99432
328.07	3.59303
328.285	5.05812
328.499	2.48393
328.714	3.57023
328.928	4.12436
329.143	2.87748
329.358	4.13165
329.572	4.04082
329.787	4.46918
330.001	5.95528
330.216	0.8644
330.43	4.98003
330.645	4.97683
330.859	4.0471
331.074	2.19205
331.288	3.1414
331.503	4.78773
331.717	1.33173
331.931	2.96348
332.146	2.8918
332.36	4.93008
332.575	3.61586
332.789	3.25506
333.003	2.5993
333.218	3.80448
333.432	2.27773
333.646	3.73815
333.86	4.69079
334.075	4.77683
334.289	2.37672
334.503	1.91366
334.717	3.70149
334.932	3.53492
335.146	4.55505
335.36	2.8499
335.574	3.57649
335.788	3.63641
336.003	4.36774
336.217	3.88746
336.431	3.56909
336.645	2.01749
336.859	1.32468
337.073	2.65657
337.287	3.30885
337.501	1.54934
337.715	2.94697
337.929	3.80736
338.143	1.59303
338.357	2.8009
338.571	1.68904
338.785	3.24067
338.999	2.23618
339.213	2.43497
339.427	1.13656
339.641	4.27277
339.855	2.6069
340.069	2.24397
340.283	4.0083
340.497	5.07665
340.711	3.192
340.924	2.06639
341.138	1.48967
341.352	1.22239
341.566	3.09101
341.78	1.02412
341.993	1.97871
342.207	1.53353
342.421	3.07671
342.635	2.816
342.848	2.00324
343.062	0.4519
343.276	1.88632
343.49	5.37102
343.703	1.85997
343.917	3.47165
344.131	3.80968
344.344	1.87051
344.558	2.13099
344.771	1.68859
344.985	4.35797
345.199	4.44093
345.412	3.00369
345.626	3.07274
345.839	0.88411
346.053	1.30229
346.266	1.48387
346.48	3.6588
346.693	3.10694
346.907	3.3037
347.12	1.64212
347.334	3.20397
347.547	3.19562
347.76	2.69343
347.974	4.02646
348.187	3.12594
348.401	2.27949
348.614	2.21344
348.827	2.56249
349.041	3.55825
349.254	1.06824
349.467	2.5434
349.681	1.24639
349.894	1.88138
350.107	4.09738
350.32	4.3515
350.534	0.78022
350.747	2.24069
350.96	1.72565
351.173	1.92568
351.386	2.32958
351.6	2.01683
351.813	1.87967
352.026	2.6953
352.239	1.3003
352.452	2.02348
352.665	3.31679
352.878	2.22781
353.092	5.13859
353.305	3.10259
353.518	2.90189
353.731	1.73001
353.944	3.98467
354.157	1.56615
354.37	1.56078
354.583	1.29639
354.796	0.78574
355.009	3.9259
355.222	2.499
355.435	2.55177
355.647	3.71746
355.86	1.27949
356.073	2.55611
356.286	1.91518
356.499	3.17894
356.712	2.50269
356.925	2.89419
357.138	3.50957
357.35	1.31125
357.563	1.9108
357.776	2.49653
357.989	2.03729
358.201	2.88943
358.414	2.43279
358.627	3.75304
358.84	1.89504
359.052	1.38898
359.265	1.18742
359.478	3.60494
359.69	-0.39956
359.903	2.80934
360.116	3.19449
360.328	0.58988
360.541	3.2781
360.753	1.30601
360.966	1.44364
361.179	1.71751
361.391	1.63927
361.604	1.07292
361.816	1.55084
362.029	1.49138
362.241	1.3372
362.454	1.5769
362.666	1.21508
362.879	2.19587
363.091	1.97269
363.304	1.27431
363.516	1.85328
363.728	1.01545
363.941	2.6581
364.153	1.66254
364.366	-0.0172
364.578	1.02984
364.79	2.75047
365.003	2.07611
365.215	1.71258
365.427	2.7717
365.639	3.35854
365.852	2.45487
366.064	4.18241
366.276	1.64067
366.488	2.53431
366.701	1.7061
366.913	1.96713
367.125	1.79553
367.337	1.81516
367.549	1.63795
367.762	2.15903
367.974	2.30294
368.186	1.5757
368.398	3.23639
368.61	2.91675
368.822	2.64841
369.034	2.04538
369.246	2.91794
369.458	4.68246
369.67	1.1485
369.882	3.93034
370.094	0.26044
370.306	3.88234
370.518	1.86019
370.73	1.34083
370.942	1.37709
371.154	1.93049
371.366	1.64344
371.578	2.42803
371.79	1.454
372.002	3.39542
372.214	4.02232
372.425	2.22638
372.637	3.50128
372.849	2.37931
373.061	0.06566
373.273	2.6013
373.484	2.71443
373.696	3.18475
373.908	0.02742
374.12	3.18661
374.331	2.76471
374.543	1.41446
374.755	1.26637
374.967	2.15707
375.178	3.15815
375.39	2.28031
375.602	2.23416
375.813	1.10424
376.025	0.99171
376.236	2.16305
376.448	2.32479
376.66	1.8441
376.871	1.90707
377.083	3.20304
377.294	3.70758
377.506	1.82048
377.717	3.37704
377.929	2.34377
378.14	1.59912
378.352	2.91836
378.563	2.92855
378.775	3.63382
378.986	1.40148
379.197	2.24248
379.409	1.71769
379.62	3.23203
379.832	2.70325
380.043	2.14362
380.254	2.57249
380.466	1.18357
380.677	5.05249
380.888	4.36298
381.1	4.89491
381.311	4.69787
381.522	2.67276
381.733	5.27841
381.945	2.20015
382.156	2.35048
382.367	2.14489
382.578	5.37274
382.789	5.54522
383.001	2.0001
383.212	4.12221
383.423	4.39699
383.634	3.58033
383.845	3.29191
384.056	2.09703
384.267	2.60961
384.478	2.55778
384.69	1.46224
384.901	3.32947
385.112	2.99239
385.323	4.48071
385.534	3.16853
385.745	3.14907
385.956	3.02157
386.167	1.7527
386.378	3.39324
386.588	2.00037
386.799	1.92435
387.01	1.38998
387.221	3.75125
387.432	3.01747
387.643	4.67158
387.854	2.90611
388.065	2.64287
388.275	2.72916
388.486	2.36005
388.697	2.7707
388.908	2.73266
389.119	4.14472
389.329	4.49841
389.54	3.00677
389.751	3.54663
389.962	4.30872
390.172	3.06648
390.383	2.9224
390.594	2.44481
390.804	2.32919
391.015	2.77041
391.226	3.33196
391.436	3.91838
391.647	3.70039
391.858	3.97136
392.068	1.84065
392.279	2.42981
392.489	3.74067
392.7	4.24797
392.91	2.68538
393.121	2.82238
393.331	3.91557
393.542	4.51205
393.752	4.04742
393.963	3.95061
394.173	3.76076
394.384	4.21631
394.594	3.71012
394.804	2.54086
395.015	3.54671
395.225	4.1815
395.436	3.01556
395.646	4.3481
395.856	3.24422
396.067	2.60672
396.277	4.58603
396.487	4.25279
396.697	4.25517
396.908	4.6571
397.118	4.27811
397.328	4.01937
397.538	4.61958
397.749	3.29962
397.959	4.89786
398.169	4.58756
398.379	2.56215
398.589	4.22744
398.8	4.55869
399.01	4.26958
399.22	3.91011
399.43	6.09733
399.64	4.07
399.85	4.7501
400.06	4.21192
400.27	3.51018
400.48	3.90881
400.69	5.30393
400.9	3.7915
401.11	3.53695
401.32	4.975
401.53	3.65024
401.74	5.64725
401.95	5.0302
402.16	4.08808
402.37	4.87046
402.58	3.92623
402.79	4.78881
403	5.0364
403.209	3.91007
403.419	5.31069
403.629	3.85142
403.839	5.62467
404.049	5.49713
404.258	4.15246
404.468	4.13164
404.678	5.40925
404.888	5.82482
405.097	4.66583
405.307	4.87052
405.517	5.49876
405.727	5.23773
405.936	4.38661
406.146	5.30429
406.356	6.14766
406.565	4.92361
406.775	4.58373
406.984	4.62353
407.194	6.66727
407.404	5.05211
407.613	5.49215
407.823	5.77432
408.032	6.20117
408.242	5.87683
408.451	4.58817
408.661	5.09657
408.87	6.73349
409.08	4.34212
409.289	5.52637
409.499	5.37009
409.708	5.0802
409.918	3.4127
410.127	5.59897
410.336	6.64093
410.546	6.28165
410.755	4.95103
410.964	4.92456
411.174	4.30894
411.383	5.6164
411.592	5.61529
411.802	4.68792
412.011	6.10176
412.22	5.22787
412.429	6.38048
412.639	6.56232
412.848	6.48244
413.057	7.05475
413.266	6.34595
413.475	5.56396
413.685	6.27537
413.894	6.39833
414.103	6.51729
414.312	6.25272
414.521	5.55223
414.73	5.62493
414.939	7.33738
415.148	6.05245
415.357	5.93639
415.566	5.8265
415.776	5.57396
415.985	5.52765
416.194	6.5768
416.403	7.48381
416.611	4.90171
416.82	5.56643
417.029	6.30396
417.238	5.59075
417.447	5.63967
417.656	6.02527
417.865	5.58088
418.074	6.09386
418.283	6.48625
418.492	7.30721
418.7	7.07966
418.909	7.98382
419.118	6.59416
419.327	7.06576
419.536	6.77398
419.744	6.59731
419.953	7.81399
420.162	7.98701
420.371	6.88156
420.579	7.36439
420.788	8.27873
420.997	8.61727
421.205	8.6163
421.414	8.31705
421.623	8.66229
421.831	7.92761
422.04	8.7236
422.249	7.68145
422.457	8.12155
422.666	7.29406
422.874	8.546
423.083	8.38194
423.291	8.32001
423.5	8.18386
423.708	8.56133
423.917	9.25755
424.125	8.35841
424.334	8.21209
424.542	10.15538
424.751	9.2774
424.959	8.98958
425.167	9.46083
425.376	9.12834
425.584	8.15651
425.793	8.22923
426.001	7.05875
426.209	8.17162
426.418	7.06376
426.626	7.04397
426.834	6.9469
427.042	7.33592
427.251	6.71127
427.459	7.89023
427.667	7.56986
427.875	6.23412
428.084	6.66135
428.292	8.43426
428.5	7.70767
428.708	6.309
428.916	6.61334
429.124	7.0736
429.333	6.90473
429.541	7.1003
429.749	7.18904
429.957	7.16278
430.165	9.04463
430.373	5.9199
430.581	7.03529
430.789	8.20104
430.997	6.91042
431.205	6.17615
431.413	7.44969
431.621	7.03937
431.829	7.81846
432.037	7.00374
432.245	7.55328
432.453	7.84341
432.661	7.22295
432.869	8.75586
433.076	6.67152
433.284	7.27565
433.492	8.32502
433.7	8.33754
433.908	7.28158
434.116	7.69928
434.323	7.99931
434.531	7.70715
434.739	8.06227
434.947	8.19004
435.154	8.55185
435.362	7.64563
435.57	7.46207
435.778	7.11545
435.985	7.76714
436.193	7.18576
436.401	8.5594
436.608	7.66846
436.816	7.22954
437.023	8.82688
437.231	9.0218
437.439	7.87191
437.646	8.44079
437.854	7.92115
438.061	8.34422
438.269	7.6792
438.476	8.43875
438.684	7.78074
438.891	7.46419
439.099	7.59372
439.306	6.94059
439.514	7.11257
439.721	8.30149
439.929	7.41294
440.136	8.31811
440.343	8.04872
440.551	7.90327
440.758	9.67588
440.965	8.51624
441.173	8.10596
441.38	7.82631
441.587	8.34568
441.795	7.88842
442.002	8.12645
442.209	8.35331
442.416	8.38453
442.624	8.47172
442.831	8.42698
443.038	7.71392
443.245	7.30883
443.452	7.71449
443.66	8.48088
443.867	7.64823
444.074	7.54395
444.281	7.49455
444.488	7.63301
444.695	8.00304
444.902	7.54682
445.109	8.50001
445.316	7.86197
445.523	8.04096
445.73	8.07915
445.937	8.83563
446.144	9.43014
446.351	9.90806
446.558	8.61824
446.765	10.56823
446.972	9.85765
447.179	9.33402
447.386	10.10687
447.593	8.61783
447.8	9.53025
448.007	8.23822
448.214	8.35057
448.42	7.98554
448.627	9.28376
448.834	8.25245
449.041	8.06872
449.248	8.11914
449.454	8.88593
449.661	9.6305
449.868	7.90027
450.075	7.65157
450.281	7.0108
450.488	7.49459
450.695	7.26831
450.901	7.44014
451.108	7.68127
451.315	8.90757
451.521	7.82448
451.728	8.80319
451.935	7.51487
452.141	7.86127
452.348	7.99355
452.554	8.10566
452.761	7.55098
452.967	9.45255
453.174	8.30521
453.38	8.32831
453.587	7.21242
453.793	8.20761
454	8.65522
454.206	9.90114
454.413	8.66627
454.619	8.54168
454.825	7.57279
455.032	8.55307
455.238	8.83652
455.445	7.27489
455.651	8.1463
455.857	6.78133
456.064	7.78785
456.27	7.93254
456.476	7.81568
456.682	7.02095
456.889	8.20778
457.095	8.39661
457.301	9.65424
457.507	8.2338
457.714	8.15711
457.92	8.24157
458.126	7.53648
458.332	8.0417
458.538	7.80144
458.744	7.94992
458.951	7.75686
459.157	9.36788
459.363	8.6047
459.569	8.68497
459.775	9.54761
459.981	8.99921
460.187	9.55852
460.393	9.64181
460.599	9.96029
460.805	9.03095
461.011	8.75096
461.217	9.58782
461.423	9.51357
461.629	8.63483
461.835	9.03844
462.041	8.36658
462.247	9.682
462.453	8.29822
462.658	8.21521
462.864	8.98409
463.07	8.61173
463.276	8.54873
463.482	8.38566
463.688	9.65819
463.893	7.62216
464.099	7.9558
464.305	9.35529
464.511	7.95803
464.716	8.12882
464.922	9.03035
465.128	7.72502
465.333	9.25585
465.539	8.97227
465.745	8.41993
465.95	8.37862
466.156	10.72044
466.362	9.34171
466.567	8.4279
466.773	8.1797
466.978	9.71789
467.184	7.73963
467.389	7.08502
467.595	8.69091
467.8	7.78858
468.006	9.56026
468.211	9.29067
468.417	7.4585
468.622	8.88266
468.828	9.0015
469.033	8.81543
469.239	10.76861
469.444	7.79899
469.649	9.02012
469.855	8.4386
470.06	8.35883
470.266	7.64912
470.471	9.0467
470.676	8.81741
470.881	7.12382
471.087	9.86111
471.292	10.07321
471.497	7.39268
471.703	8.33667
471.908	8.09472
472.113	8.44865
472.318	9.03782
472.523	7.9361
472.729	8.61873
472.934	9.01812
473.139	8.46326
473.344	9.02671
473.549	9.53431
473.754	8.02708
473.959	10.53113
474.164	8.16318
474.369	8.34997
474.575	9.22291
474.78	8.68366
474.985	8.30365
475.19	7.18576
475.395	8.12233
475.6	8.3369
475.804	9.87652
476.009	8.56748
476.214	8.48319
476.419	8.28513
476.624	7.55668
476.829	8.05461
477.034	9.26562
477.239	8.28198
477.444	9.24655
477.648	9.22116
477.853	9.38496
478.058	8.5651
478.263	8.21214
478.468	8.23045
478.672	8.29752
478.877	9.99555
479.082	10.23786
479.287	9.21715
479.491	8.86055
479.696	8.22683
479.901	9.55947
480.105	9.38804
480.31	8.37251
480.515	8.79116
480.719	10.57538
480.924	8.32899
481.128	7.94681
481.333	8.95317
481.538	9.31911
481.742	8.60651
481.947	9.4699
482.151	10.31762
482.356	10.98335
482.56	12.87219
482.765	14.4552
482.969	17.46957
483.174	19.65014
483.378	22.76461
483.582	23.59179
483.787	25.35447
483.991	25.74452
484.196	26.31988
484.4	25.44191
484.604	26.01042
484.809	23.32663
485.013	22.48396
485.217	20.01814
485.422	17.80789
485.626	16.03394
485.83	15.1991
486.034	14.49372
486.239	14.69876
486.443	15.08932
486.647	15.48547
486.851	16.86936
487.055	18.21202
487.26	17.98628
487.464	19.07331
487.668	18.34009
487.872	18.84926
488.076	19.46851
488.28	18.33298
488.484	17.10973
488.688	16.77336
488.892	15.69843
489.096	14.68523
489.3	13.63292
489.504	12.60568
489.708	12.219
489.912	11.99924
490.116	11.46485
490.32	11.0944
490.524	12.14183
490.728	13.03548
490.932	13.60568
491.136	14.57224
491.34	15.7076
491.544	16.4899
491.748	16.07149
491.951	16.04225
492.155	15.63017
492.359	15.29631
492.563	13.54068
492.767	12.90887
492.97	11.52112
493.174	10.17593
493.378	9.85373
493.582	9.40151
493.785	9.8263
493.989	9.81169
494.193	9.74252
494.396	9.22846
494.6	9.86897
494.804	9.15616
495.007	8.89981
495.211	9.11648
495.414	8.95234
495.618	9.27009
495.822	10.06646
496.025	9.06594
496.229	9.74214
496.432	8.9672
496.636	9.35799
496.839	9.30898
497.043	10.20334
497.246	9.35087
497.45	9.06591
497.653	9.42824
497.856	9.33954
498.06	9.04664
498.263	9.26804
498.467	9.30043
498.67	9.93032
498.873	9.50858
499.077	9.23098
499.28	9.23864
499.483	9.63584
499.686	10.00808
499.89	9.34032
500.093	9.80827
500.296	8.75162
500.499	10.66811
500.703	9.20535
500.906	9.41934
501.109	10.30495
501.312	9.34628
501.515	9.29347
501.719	9.65304
501.922	9.81836
502.125	9.315
502.328	9.0591
502.531	8.42634
502.734	9.249
502.937	7.94272
503.14	9.31595
503.343	8.72373
503.546	9.08313
503.749	8.84628
503.952	9.7503
504.155	8.77307
504.358	9.72703
504.561	9.59233
504.764	8.33952
504.967	9.32164
505.17	9.21055
505.373	10.48836
505.576	9.20269
505.778	9.79056
505.981	8.5876
506.184	10.02257
506.387	8.05915
506.59	10.84718
506.793	10.11758
506.995	9.48717
507.198	7.78197
507.401	9.60733
507.604	9.7259
507.806	8.51025
508.009	8.77074
508.212	9.90831
508.414	8.77271
508.617	8.92206
508.82	9.20028
509.022	10.39518
509.225	9.6446
509.427	8.40864
509.63	10.42942
509.833	9.34281
510.035	9.10463
510.238	8.53905
510.44	10.37563
510.643	8.27835
510.845	10.82607
511.048	9.88653
511.25	9.13545
511.453	9.23439
511.655	9.69143
511.858	9.13985
512.06	10.0277
512.262	9.56905
512.465	10.04675
512.667	9.31316
512.869	8.66086
513.072	9.89279
513.274	10.37739
513.476	10.02281
513.679	10.20768
513.881	8.65708
514.083	10.50447
514.286	8.95309
514.488	8.92135
514.69	8.80143
514.892	8.37942
515.094	10.01939
515.297	8.86752
515.499	9.52023
515.701	8.75922
515.903	10.7331
516.105	10.63963
516.307	9.76888
516.509	8.18308
516.711	8.7305
516.913	9.59982
517.116	9.45212
517.318	9.15593
517.52	10.25808
517.722	10.05494
517.924	8.71492
518.126	10.01966
518.328	9.169
518.529	9.82842
518.731	10.89789
518.933	9.41604
519.135	9.70767
519.337	10.7345
519.539	10.27076
519.741	8.56806
519.943	9.77103
520.145	9.49708
520.346	10.41706
520.548	9.57272
520.75	9.96047
520.952	9.49875
521.153	9.89157
521.355	10.10736
521.557	8.88869
521.759	9.78924
521.96	9.65737
522.162	8.74156
522.364	10.36967
522.565	9.06541
522.767	10.31645
522.969	10.31795
523.17	9.87795
523.372	9.81224
523.573	9.34279
523.775	9.52085
523.977	8.62148
524.178	10.88637
524.38	9.07991
524.581	10.09137
524.783	9.2522
524.984	10.03536
525.186	9.50862
525.387	9.89381
525.589	9.5781
525.79	9.60742
525.991	9.30563
526.193	10.11761
526.394	9.26577
526.596	10.44151
526.797	10.85089
526.998	10.33139
527.2	10.81739
527.401	12.92706
527.602	13.933
527.803	16.5215
528.005	17.64518
528.206	19.03938
528.407	20.14247
528.608	20.13039
528.81	20.60504
529.011	19.64523
529.212	20.61209
529.413	19.31182
529.614	17.87749
529.815	17.02554
530.017	15.5717
530.218	13.59914
530.419	12.03404
530.62	11.43424
530.821	10.81919
531.022	9.51507
531.223	10.70811
531.424	10.46801
531.625	10.43181
531.826	10.23824
532.027	10.67195
532.228	11.98849
532.429	12.05409
532.63	12.62392
532.831	13.57669
533.032	13.50048
533.233	14.45359
533.433	14.01164
533.634	14.34746
533.835	13.48701
534.036	12.7622
534.237	12.23332
534.438	11.29904
534.638	10.03422
534.839	10.17623
535.04	10.73506
535.241	9.98445
535.441	11.38258
535.642	10.33178
535.843	9.19988
536.043	9.55645
536.244	9.35197
536.445	9.89787
536.645	10.58633
536.846	10.26645
537.047	10.86215
537.247	9.49453
537.448	9.99916
537.648	10.22225
537.849	10.07309
538.049	10.20131
538.25	10.678
538.451	10.58794
538.651	9.48481
538.851	10.30903
539.052	10.96238
539.252	10.72485
539.453	9.82347
539.653	10.09834
539.854	9.71907
540.054	9.9553
540.254	10.85717
540.455	12.10255
540.655	12.20813
540.855	13.70759
541.056	15.18351
541.256	14.96887
541.456	15.99741
541.657	15.15068
541.857	16.10343
542.057	14.50957
542.257	13.69766
542.458	14.08544
542.658	13.35033
542.858	11.47394
543.058	11.97671
543.258	11.00579
543.458	9.69744
543.659	9.56319
543.859	10.7518
544.059	10.80346
544.259	10.25838
544.459	10.85682
544.659	9.63791
544.859	10.3864
545.059	9.54655
545.259	10.62196
545.459	10.12572
545.659	10.68573
545.859	10.11273
546.059	9.89084
546.259	9.50236
546.459	9.04777
546.659	9.23406
546.859	10.75314
547.059	10.11794
547.258	10.54394
547.458	10.55517
547.658	9.55194
547.858	9.35148
548.058	10.13502
548.258	10.09658
548.457	9.44703
548.657	12.03709
548.857	9.66168
549.057	10.82792
549.256	10.33093
549.456	9.36134
549.656	8.11403
549.855	11.56762
550.055	9.39705
550.255	11.27555
550.454	10.05205
550.654	10.3602
550.853	11.08101
551.053	10.48569
551.253	9.89569
551.452	10.18687
551.652	8.76315
551.851	8.45321
552.051	9.52702
552.25	9.29389
552.45	9.21394
552.649	9.44805
552.849	9.11282
553.048	9.612
553.248	10.39422
553.447	9.02578
553.646	10.54473
553.846	11.62294
554.045	10.99986
554.244	8.85442
554.444	11.36822
554.643	9.13779
554.842	11.18875
555.042	11.52961
555.241	9.19192
555.44	8.60684
555.64	10.30422
555.839	11.62117
556.038	10.22012
556.237	8.92498
556.436	9.74622
556.636	10.27872
556.835	8.89119
557.034	11.38147
557.233	9.6145
557.432	8.5977
557.631	11.00054
557.83	9.52754
558.029	9.2901
558.228	8.8878
558.427	8.68842
558.626	9.99399
558.825	8.72015
559.024	9.59995
559.223	11.19112
559.422	9.23619
559.621	9.90755
559.82	6.97069
560.019	9.6007
560.218	9.29788
560.417	6.81894
560.616	8.73317
560.815	12.98885
561.014	8.39509
561.212	11.08474
561.411	9.49921
561.61	8.15292
561.809	9.67525
562.008	10.80999
562.206	9.42143
562.405	10.00529
562.604	9.19988
562.803	10.0675
563.001	9.33203
563.2	8.46126
563.399	10.05176
563.597	8.2616
563.796	9.39121
563.995	8.24801
564.193	10.34514
564.392	9.41465
564.59	11.66311
564.789	7.63274
564.988	9.01528
565.186	10.03045
565.385	9.26425
565.583	9.30465
565.782	9.47058
565.98	9.6837
566.179	9.76554
566.377	8.84295
566.575	8.99658
566.774	11.05491
566.972	10.61083
567.171	11.9263
567.369	11.01731
567.567	10.01363
567.766	10.24794
567.964	7.86381
568.162	10.02057
568.361	10.71269
568.559	9.43754
568.757	10.00355
568.956	9.94517
569.154	9.77635
569.352	10.39125
569.55	9.4001
569.748	9.75677
569.947	8.67041
570.145	8.92558
570.343	8.65881
570.541	10.59793
570.739	8.1608
570.937	9.60778
571.135	10.09593
571.333	11.45616
571.532	11.20566
571.73	9.97355
571.928	10.87095
572.126	10.1714
572.324	9.25082
572.522	11.11832
572.72	12.71434
572.918	10.12074
573.116	10.40557
573.313	9.91857
573.511	10.1066
573.709	9.22731
573.907	10.81216
574.105	9.43906
574.303	8.03061
574.501	8.12801
574.699	10.42801
574.896	10.1807
575.094	10.33328
575.292	8.14508
575.49	10.93214
575.688	9.41212
575.885	11.19741
576.083	11.86729
576.281	10.38256
576.478	8.96052
576.676	10.26614
576.874	7.9427
577.071	9.47921
577.269	12.27074
577.467	9.81754
577.664	9.61636
577.862	10.60721
578.059	8.38436
578.257	10.64276
578.455	9.07476
578.652	9.83145
578.85	7.22536
579.047	9.37394
579.245	9.34049
579.442	9.30333
579.64	9.37097
579.837	7.35585
580.034	12.61226
580.232	9.11504
580.429	8.09001
580.627	9.82775
580.824	11.00053
581.021	10.04795
581.219	8.8391
581.416	8.45914
581.613	11.12723
581.811	10.97103
582.008	8.38284
582.205	10.51472
582.402	9.79596
582.6	11.3401
582.797	9.33564
582.994	9.73998
583.191	10.44109
583.388	9.34981
583.586	10.46387
583.783	10.91838
583.98	8.89335
584.177	9.79849
584.374	5.92172
584.571	9.55269
584.768	9.2304
584.965	8.46006
585.162	10.04772
585.359	11.29736
585.556	9.55364
585.753	9.48045
585.95	7.95597
586.147	8.79527
586.344	10.16814
586.541	8.99112
586.738	7.57758
586.935	8.9309
587.132	8.53942
587.329	10.77631
587.526	9.31754
587.722	15.92269
587.919	8.34249
588.116	10.05959
588.313	11.2441
588.51	12.25201
588.706	9.01909
588.903	10.12323
589.1	10.3202
589.297	12.58253
589.493	9.58558
589.69	10.43472
589.887	8.9639
590.083	8.30852
590.28	8.94418
590.477	10.54239
590.673	10.79622
590.87	11.26514
591.067	9.46347
591.263	10.10513
591.46	9.73323
591.656	9.08412
591.853	10.91608
592.049	8.18521
592.246	9.06947
592.442	11.16279
592.639	10.65648
592.835	8.50881
593.032	10.16677
593.228	7.51095
593.425	7.3641
593.621	7.63112
593.817	9.8251
594.014	8.5163
594.21	9.66614
594.406	10.88082
594.603	10.11983
594.799	8.88313
594.995	6.67968
595.192	11.07714
595.388	8.98612
595.584	9.126
595.78	7.79175
595.977	12.31376
596.173	11.76115
596.369	9.23633
596.565	8.4694
596.761	7.81623
596.957	11.24501
597.154	8.79284
597.35	9.05489
597.546	9.33354
597.742	10.88396
597.938	10.13822
598.134	8.76023
598.33	10.07948
598.526	11.80936
598.722	10.18171
598.918	12.38232
599.114	10.41816
599.31	8.04286
599.506	9.88004
599.702	8.48708
599.898	9.45933
600.094	10.44751
600.29	10.78943
600.485	11.27648
600.681	8.61459
600.877	12.13348
601.073	9.73108
601.269	12.50792
601.465	11.52746
601.66	8.34356
601.856	6.93204
602.052	12.32636
602.248	8.93336
602.443	7.15267
602.639	7.98892
602.835	8.58788
603.03	8.26043
603.226	10.85445
603.422	8.30987
603.617	9.17051
603.813	9.09765
604.009	8.74384
604.204	11.22637
604.4	8.26152
604.595	11.10576
604.791	8.47144
604.986	10.26531
605.182	8.99987
605.377	9.23677
605.573	9.44869
605.768	9.91437
605.964	10.9909
606.159	10.83436
606.355	11.32604
606.55	9.16067
606.746	11.55195
606.941	9.7214
607.136	12.56948
607.332	13.91584
607.527	7.88767
607.722	9.87661
607.918	9.24364
608.113	8.9888
608.308	10.72042
608.503	10.32849
608.699	10.17212
608.894	10.54748
609.089	8.6475
609.284	10.05493
609.479	9.25383
609.675	10.72229
609.87	9.25846
610.065	11.17664
610.26	10.86916
610.455	10.98644
610.65	9.72142
610.845	10.15669
611.04	11.38346
611.235	9.77973
611.43	9.16016
611.625	8.07159
611.82	11.92411
612.015	8.80623
612.21	12.13151
612.405	7.40327
612.6	12.58437
612.795	11.54243
612.99	10.80898
613.185	8.14244
613.38	8.55656
613.575	9.93114
613.77	13.946
613.965	7.76148
614.159	8.45433
614.354	12.00503
614.549	11.78463
614.744	10.97168
614.938	8.53187
615.133	7.38845
615.328	12.62395
615.523	11.18716
615.717	14.87711
615.912	8.31639
616.107	10.21299
616.301	9.0681
616.496	8.88073
616.691	12.55019
616.885	11.1806
617.08	14.65429
617.274	11.28928
617.469	13.88008
617.664	11.05734
617.858	9.18516
618.053	10.58105
618.247	9.97133
618.442	5.70604
618.636	12.53226
618.831	9.16705
619.025	9.40913
619.219	14.98089
619.414	4.14939
619.608	9.67352
619.803	9.18184
619.997	13.24419
620.191	12.3201
620.386	11.21409
620.58	9.61132
620.774	7.37243
620.969	7.21104
621.163	10.08141
621.357	8.32554
621.551	9.537
621.746	10.44183
621.94	9.43246
622.134	16.27615
622.328	13.93516
622.522	7.32862
622.716	11.35605
622.911	11.86269
623.105	11.80801
623.299	11.06533
623.493	15.91088
623.687	8.61962
623.881	9.49555
624.075	10.63885
624.269	12.06908
624.463	6.72253
624.657	7.21278
624.851	11.31749
625.045	11.30346
625.239	11.96536
625.433	9.77679
625.627	12.86203
625.821	9.28176
626.015	8.86899
626.209	10.17848
626.403	8.14515
626.596	10.98387
626.79	11.36955
626.984	8.14044
627.178	11.14543
627.372	10.99299
627.565	11.8639
627.759	7.91429
627.953	8.57207
628.147	11.32414
628.34	11.66435
628.534	13.73301
628.728	10.02995
628.921	11.72966
629.115	11.16913
629.309	12.09003
629.502	12.5194
629.696	10.24404
629.89	10.14218
630.083	10.91154
630.277	10.76107
630.47	13.85513
630.664	9.25273
630.857	7.30408
631.051	11.55673
631.244	12.76667
631.438	12.02263
631.631	8.80063
631.825	13.12439
632.018	11.86151
632.212	13.87908
632.405	13.03694
632.598	9.33367
632.792	10.28992
632.985	6.28648
633.178	9.62146
633.372	10.28187
633.565	10.3079
633.758	13.2658
633.952	8.63148
634.145	8.20722
634.338	10.62946
634.531	9.53975
634.724	9.51721
634.918	10.54722
635.111	9.60801
635.304	9.96517
635.497	15.64502
635.69	10.88519
635.883	12.80682
636.077	8.78481
636.27	11.07001
636.463	11.37866
636.656	11.33459
636.849	9.70472
637.042	11.7718
637.235	14.5633
637.428	12.25867
637.621	12.62211
637.814	13.98396
638.007	14.44366
638.2	13.75445
638.393	15.10902
638.586	8.2761
638.778	10.0354
638.971	11.26104
639.164	14.78679
639.357	11.9177
639.55	14.50986
639.743	12.58393
639.935	12.69226
640.128	15.64064
640.321	12.41479
640.514	12.08501
640.707	17.03256
640.899	12.64645
641.092	7.40216
641.285	29.90021
641.477	6.47602
641.67	17.27611
641.863	14.52435
642.055	12.41786
642.248	10.80978
642.441	10.55086
642.633	12.47402
642.826	13.69096
643.018	14.54843
643.211	16.49243
643.403	16.10066
643.596	17.19249
643.788	15.68797
643.981	10.67553
644.173	14.28542
644.366	11.36023
644.558	6.78591
644.751	13.97554
644.943	8.13018
645.135	16.10821
645.328	16.62425
645.52	13.77434
645.712	14.80912
645.905	19.64688
646.097	9.49225
646.289	12.35579
646.482	17.88279
646.674	11.12992
646.866	14.9408
647.058	13.30514
647.251	9.30972
647.443	10.78672
647.635	11.96711
647.827	9.49142
648.019	10.71223
648.211	11.88352
648.404	12.25392
648.596	16.6763
648.788	12.93999
648.98	12.41386
649.172	13.34078
649.364	13.83655
649.556	7.74135
649.748	19.31977
649.94	9.79051
650.132	13.89641
650.324	9.65303
650.516	11.25666
650.708	15.14265
650.9	8.98946
651.092	10.63965
651.284	8.59116
651.476	9.52905
651.667	13.68252
651.859	16.17568
652.051	11.70021
652.243	12.24835
652.435	11.33316
652.627	14.0399
652.818	13.09197
653.01	8.25182
653.202	9.98308
653.394	11.54253
653.585	13.45328
653.777	24.83172
653.969	16.55082
654.16	15.75179
654.352	9.55946
654.544	12.33853
654.735	15.91727
654.927	13.03947
655.118	17.06052
655.31	14.71185
655.502	15.55695
655.693	11.65913
655.885	14.29187
656.076	16.27395
656.268	12.97804
656.459	16.99069
656.651	16.7129
656.842	12.01763
657.034	10.49998
657.225	15.31037
657.416	16.52123
657.608	16.28485
657.799	12.78888
657.99	16.4202
658.182	11.05542
658.373	11.00746
658.564	14.5668
658.756	13.06599
658.947	12.38447
659.138	10.17711
659.33	11.25573
659.521	10.78436
659.712	12.23434
659.903	12.16836
660.094	11.62585
660.286	8.85394
660.477	17.55674
660.668	14.60206
660.859	13.05787
661.05	8.50259
661.241	14.84096
661.432	14.33658
661.623	12.13576
661.814	12.09665
662.006	8.92294
662.197	13.47499
662.388	16.33183
662.579	13.96942
662.77	17.80878
662.96	22.3103
663.151	16.22914
663.342	9.15014
663.533	14.95641
663.724	13.63444
663.915	19.00283
664.106	13.18651
664.297	18.4962
664.488	15.71938
664.678	11.39374
664.869	16.01579
665.06	16.92276
665.251	14.31813
665.442	15.3428
665.632	10.61477
665.823	20.29423
666.014	5.05509
666.204	16.34339
666.395	17.20023
666.586	22.95283
666.776	16.52597
666.967	20.02911
667.158	13.77037
667.348	18.17422
667.539	10.3322
667.729	17.02415
667.92	11.29169
668.111	16.35674
668.301	16.63173
668.492	13.48146
668.682	14.73004
668.873	13.42431
669.063	10.69494
669.253	14.58228
669.444	17.32817
669.634	13.73856
669.825	20.82479
670.015	17.95447
670.206	11.16997
670.396	21.4036
670.586	13.47166
670.777	15.54797
670.967	7.08456
671.157	13.02892
671.347	11.75822
671.538	20.37857
671.728	16.56614
671.918	20.29323
672.108	17.31917
672.299	13.07523
672.489	15.35591
672.679	12.58741
672.869	16.32971
673.059	21.23166
673.249	16.47756
673.44	11.04304
673.63	14.87294
673.82	18.84254
674.01	12.70927
674.2	15.70898
674.39	24.91909
674.58	18.40453
674.77	15.45832
674.96	15.44379
675.15	30.08308
675.34	20.54468
675.53	15.53549
675.72	13.79876
675.91	9.54785
676.099	22.22578
676.289	24.02618
676.479	19.09224
676.669	12.80005
676.859	16.30824
677.049	11.82005
677.238	14.68259
677.428	21.9994
677.618	17.64083
677.808	19.7624
677.997	16.83565
678.187	10.60157
678.377	14.90504
678.567	14.15517
678.756	13.40092
678.946	14.36768
679.136	10.33219
679.325	11.69388
679.515	11.33205
679.704	10.81186
679.894	16.68506
680.084	16.18726
680.273	18.40357
680.463	12.48236
680.652	12.47996
680.842	14.83062
681.031	17.99164
681.221	12.28544
681.41	16.79081
681.6	14.11307
681.789	18.60004
681.978	19.27972
682.168	15.60553
682.357	15.90422
682.547	18.58032
682.736	15.4921
682.925	20.39924
683.115	20.17413
683.304	19.22172
683.493	17.49751
683.682	17.41471
683.872	17.68297
684.061	21.93102
684.25	17.65426
684.439	24.97955
684.629	19.11589
684.818	29.98061
685.007	16.11231
685.196	15.36449
685.385	23.39254
685.574	17.01334
685.763	18.11529
685.952	17.24006
686.142	12.61714
686.331	22.22393
686.52	8.76338
686.709	23.52273
686.898	23.4591
687.087	20.30931
687.276	23.97297
687.465	21.93245
687.654	16.32632
687.842	23.29992
688.031	12.23014
688.22	22.5585
688.409	17.77001
688.598	18.1599
688.787	28.57527
688.976	17.61955
689.165	26.23228
689.353	15.33882
689.542	20.1155
689.731	21.25434
689.92	26.47611
690.108	21.65301
690.297	15.52444
690.486	18.57414
690.675	22.02037
690.863	26.39319
691.052	25.55361
691.241	20.07948
691.429	17.79989
691.618	24.74755
691.806	12.49192
691.995	15.8484
692.184	18.4116
692.372	15.88953
692.561	20.20612
692.749	19.20666
692.938	30.58993
693.126	20.97489
693.315	19.38837
693.503	22.18268
693.692	22.9141
693.88	24.16005
694.068	29.62455
694.257	18.75473
694.445	22.2956
694.634	9.6846
694.822	24.18724
695.01	25.67886
695.199	27.76085
695.387	27.04807
695.575	24.06424
695.763	19.76269
695.952	17.25846
696.14	12.64303
696.328	16.49027
696.516	20.61587
696.705	19.73416
696.893	20.43709
697.081	11.53208
697.269	22.60059
697.457	14.74322
697.645	14.08176
697.833	21.27906
698.021	15.00273
698.21	15.37017
698.398	17.78476
698.586	13.84383
698.774	13.44146
698.962	17.02811
699.15	14.62522
699.338	12.00935
699.526	19.71314
699.714	15.67564
699.901	15.62234
700.089	22.66838
700.277	14.82786
700.465	18.46512
700.653	22.33867
700.841	21.21362
701.029	16.03814
701.217	25.61264
701.404	20.8074
701.592	26.42288
701.78	30.28077
701.968	18.30401
702.155	19.44286
702.343	12.51267
702.531	25.6469
702.718	23.2595
702.906	20.82109
703.094	17.97991
703.281	28.22619
703.469	21.11566
703.657	26.15684
703.844	37.71973
704.032	30.02819
704.219	17.49067
704.407	23.96354
704.595	28.31879
704.782	22.77429
704.97	18.3656
705.157	20.23453
705.345	30.13729
705.532	37.97831
705.719	24.4354
705.907	29.03885
706.094	22.17799
706.282	32.98172
706.469	19.54184
706.656	23.05302
706.844	20.57884
707.031	26.54106
707.218	24.57438
707.406	30.83045
707.593	26.07165
707.78	26.30165
707.968	22.42761
708.155	18.42068
708.342	26.42406
708.529	26.66561
708.716	24.04615
708.904	34.0011
709.091	26.65327
709.278	15.83893
709.465	33.80195
709.652	32.79616
709.839	30.26637
710.026	25.33179
710.213	15.54845
710.4	23.48486
710.587	28.6098
710.774	30.9853
710.961	29.07233
711.148	23.35715
711.335	29.80724
711.522	21.96978
711.709	25.25616
711.896	35.44246
712.083	29.71374
712.27	18.49497
712.457	24.28491
712.644	16.19418
712.831	36.60329
713.017	24.7004
713.204	27.90805
713.391	20.90782
713.578	31.58216
713.765	34.29863
713.951	29.57015
714.138	44.97324
714.325	28.72309
714.512	24.56483
714.698	19.8212
714.885	36.096
715.072	27.61047
715.258	25.68209
715.445	22.13509
715.631	33.00901
715.818	10.35352
716.005	22.33825
716.191	30.10278
716.378	23.4687
716.564	32.17961
716.751	21.37857
716.937	23.28646
717.124	33.05101
717.31	21.83122
717.497	38.94937
717.683	22.69365
717.869	40.77807
718.056	24.09316
718.242	31.27987
718.429	26.21749
718.615	18.71887
718.801	27.00914
718.988	34.05295
719.174	30.14383
719.36	27.46573
719.547	34.08471
719.733	29.84326
719.919	30.39517
720.105	35.14714
720.291	28.8505
720.478	28.62669
720.664	28.65709
720.85	24.59481
721.036	48.31619
721.222	39.43331
721.408	27.03221
721.595	43.20067
721.781	41.46016
721.967	36.23917
722.153	40.1101
722.339	34.25918
722.525	32.23899
722.711	20.92836
722.897	18.23189
723.083	26.92157
723.269	36.66278
723.455	49.62637
723.641	55.46886
723.827	32.16632
724.012	32.94718
724.198	27.1412
724.384	39.21215
724.57	32.47503
724.756	18.66633
724.942	15.73447
725.127	37.12972
725.313	40.85042
725.499	41.06185
725.685	44.40478
725.87	30.64841
726.056	23.27728
726.242	39.95223
726.428	19.36529
726.613	37.78986
726.799	26.60149
726.985	19.98395
727.17	17.63491
727.356	44.02211
727.541	22.64792
727.727	27.84411
727.913	35.62881
728.098	25.78541
728.284	34.82806
728.469	20.43394
728.655	24.19897
728.84	37.46486
729.026	37.25912
729.211	38.63962
729.397	32.24077
729.582	35.04688
729.767	29.28209
729.953	33.2952
730.138	38.99788
730.323	14.46169
730.509	22.38595
730.694	43.439
730.879	33.84392
731.065	30.38293
731.25	48.44567
731.435	35.15289
731.621	18.71938
731.806	27.07839
731.991	33.11177
732.176	20.07936
732.361	40.82795
732.547	35.42901
732.732	18.20585
732.917	49.24999
733.102	20.81348
733.287	22.91578
733.472	31.63282
733.657	31.604
733.842	18.17387
734.027	27.99502
734.212	28.26196
734.397	24.95781
734.582	31.57562
734.767	39.24122
734.952	43.40059
735.137	12.94564
735.322	44.30923
735.507	35.16815
735.692	32.27491
735.877	52.38778
736.062	47.89341
736.247	33.91558
736.431	30.1564
736.616	42.73457
736.801	35.64171
736.986	33.11205
737.171	26.43506
737.355	19.3762
737.54	35.13672
737.725	34.79147
737.909	58.71371
738.094	26.76899
738.279	38.65526
738.463	30.88507
738.648	38.9316
738.833	37.61174
739.017	52.08388
739.202	31.23097
739.386	30.87521
739.571	25.69255
739.756	40.37391
739.94	33.87326
740.125	40.58538
740.309	27.98362
740.494	38.84446
740.678	34.76041
740.863	36.18009
741.047	36.16507
741.231	46.89071
741.416	26.98579
741.6	48.12645
741.785	24.78595
741.969	42.82233
742.153	46.39183
742.338	14.15626
742.522	33.46574
742.706	44.36549
742.89	19.37153
743.075	38.76099
743.259	47.56369
743.443	44.76906
743.627	48.03102
743.812	59.15057
743.996	12.62877
744.18	33.11736
744.364	29.38716
744.548	63.97827
744.732	33.6576
744.916	46.08077
745.1	43.60717
745.285	35.4018
745.469	42.45294
745.653	55.70156
745.837	20.44206
746.021	61.27111
746.205	46.16131
746.389	40.97147
746.573	33.22721
746.757	54.99014
746.94	30.61873
747.124	50.9604
747.308	23.76242
747.492	47.28431
747.676	32.4281
747.86	64.92331
748.044	31.79506
748.227	19.9276
748.411	80.77324
748.595	41.56231
748.779	26.88648
748.963	42.9659
749.146	38.63333
749.33	28.65397
749.514	24.95443
749.697	46.41707
749.881	28.06482
750.065	24.52986
750.248	35.56095
750.432	63.24215
750.616	39.0927
750.799	22.37868
750.983	59.75865
751.166	68.31093
751.35	17.96481
751.533	42.8005
751.717	54.33644
751.9	55.96917
752.084	33.24911
752.267	23.97745
752.451	30.59005
752.634	38.93329
752.818	43.84006
753.001	47.98329
753.184	50.34996
753.368	41.62472
753.551	1.4243
753.734	30.73223
753.918	60.87703
754.101	29.3734
754.284	46.32954
754.467	34.79324
754.651	30.09207
754.834	27.35727
755.017	51.77332
755.2	50.94297
755.384	22.47816
755.567	49.15562
755.75	52.30433
755.933	35.92421
756.116	42.62669
756.299	32.82073
756.482	29.448
756.665	47.39136
756.848	40.22804
757.032	43.42008
757.215	19.35224
757.398	28.74992
757.581	28.23849
757.764	70.91366
757.947	37.20614
758.129	55.02525
758.312	4.54063
758.495	37.11136
758.678	37.96121
758.861	38.1706
759.044	64.57373
759.227	30.14255
759.41	26.50316
759.592	47.99639
759.775	38.34154
759.958	51.19158
760.141	20.30882
760.324	63.98686
760.506	58.3705
760.689	45.53997
760.872	68.4741
761.054	45.51157
761.237	34.19347
761.42	47.56193
761.602	52.67322
761.785	42.84469
761.968	50.70692
762.15	62.65408
762.333	37.84726
762.515	40.79842
762.698	28.51675
762.88	44.3137
763.063	38.25306
763.245	44.49069
763.428	25.75258
763.61	27.03915
763.793	22.86986
763.975	37.77141
764.158	31.13947
764.34	29.89654
764.522	25.6567
764.705	34.80662
764.887	52.752
765.069	21.67844
765.252	45.54057
765.434	46.20724
765.616	38.0503
765.799	29.11484
765.981	47.41536
766.163	27.81436
766.345	51.32149
766.528	32.86417
766.71	10.48924
766.892	41.43981
767.074	54.91195
767.256	38.63292
767.438	62.13023
767.62	43.96894
767.802	73.97624
767.985	47.4196
768.167	70.0175
768.349	34.53255
768.531	51.60667
768.713	47.83097
768.895	59.75862
769.077	46.02717
769.259	82.23277
769.441	114.14829
769.623	60.95176
769.804	68.61205
769.986	70.74855
770.168	86.33475
770.35	102.40988
770.532	76.53292
770.714	79.85951
770.896	86.84922
771.077	32.23208
771.259	88.80448
771.441	76.55609
771.623	92.66723
771.804	113.60692
771.986	26.19385
772.168	56.62708
772.35	85.01511
772.531	120.90578
772.713	71.39363
772.894	90.44644
773.076	62.1747
773.258	56.9315
773.439	95.51823
773.621	105.95341
773.802	43.01611
773.984	68.57244
774.166	66.48219
774.347	117.90905
774.529	90.39871
774.71	18.96396
774.891	62.2869
775.073	68.28279
775.254	112.30977
775.436	57.01515
775.617	116.6676
775.799	61.40995
775.98	117.84313
776.161	115.91146
776.343	108.3014
776.524	70.22454
776.705	60.99663
776.886	30.13068
777.068	67.74737
777.249	134.58099
777.43	116.30215
777.611	46.74388
777.793	66.41219
777.974	110.64351
778.155	61.88433
778.336	54.48697
778.517	117.33142
778.698	54.03905
778.879	30.00924
779.061	10.53096
779.242	86.44417
779.423	85.33726
779.604	63.60605
779.785	63.63025
779.966	80.68733
780.147	94.47054
780.328	97.62013
780.509	128.60643
780.69	95.85635
780.871	55.54517
781.051	31.15589
781.232	81.0629
781.413	80.58698
781.594	58.4088
781.775	60.9626
781.956	55.01107
782.137	24.56236
782.317	54.51824
782.498	76.16191
782.679	74.04158
782.86	75.58698
783.04	52.66652
783.221	78.05635
783.402	123.52328
783.583	70.35434
783.763	91.67321
783.944	60.16341
784.124	39.67802
784.305	114.37305
784.486	92.26674
784.666	64.03724
784.847	33.08712
785.027	164.25685
785.208	54.07935
785.388	55.47597
785.569	54.22173
785.749	60.02645
785.93	54.88236
786.11	35.66966
786.291	75.61268
786.471	81.41746
786.652	91.77302
786.832	67.90926
787.012	80.90221
787.193	43.64273
787.373	69.23616
787.553	61.64506
787.734	80.55614
787.914	59.87228
788.094	81.31197
788.275	74.00688
788.455	56.48899
788.635	37.16102
788.815	74.25236
788.995	39.40834
789.176	37.15802
789.356	50.2662
789.536	58.37665
789.716	76.72841
789.896	48.301
790.076	61.43992
790.256	72.26888
790.436	13.63317
790.616	45.69931
790.796	78.76389
790.976	55.46784
791.156	55.47128
791.336	84.86456
791.516	72.33998
791.696	63.01966
791.876	31.35529
792.056	73.2969
792.236	92.11734
792.416	91.49289
792.596	87.01992
792.776	79.30228
792.956	86.2634
793.135	107.17874
793.315	42.68464
793.495	106.12665
793.675	84.28494
793.854	94.96168
794.034	93.70722
794.214	34.6891
794.394	89.32687
794.573	101.6501
794.753	71.95683
794.933	51.90252
795.112	70.00657
795.292	91.5504
795.472	113.67992
795.651	41.49418
795.831	72.93596
796.01	57.03923
796.19	57.08227
796.369	62.47253
796.549	80.73595
796.728	63.84973
796.908	40.36751
797.087	42.92444
797.267	72.32841
797.446	37.43884
797.626	77.02529
797.805	73.56746
797.984	50.91252
798.164	78.3986
798.343	45.43076
798.522	73.07115
798.702	70.97003
798.881	42.90865
799.06	63.98614
799.239	23.72225
799.419	41.61939
799.598	104.47423
799.777	83.97927
799.956	98.89935
800.136	55.17457
800.315	50.88943
800.494	81.12235
800.673	94.12852
800.852	89.95003
801.031	105.49476
801.21	86.20165
801.389	52.51243
801.568	77.65422
801.747	123.47554
801.926	67.15398
802.105	105.2862
802.284	66.30436
802.463	104.89641
802.642	81.00625
802.821	79.91184
803	103.71348
803.179	88.72191
803.358	103.92783
803.537	52.2446
803.716	94.23127
803.895	55.97645
804.073	66.20145
804.252	57.7333
804.431	88.85535
804.61	80.4077
804.789	105.18476
804.967	62.0079
805.146	59.89466
805.325	138.45396
805.503	84.69606
805.682	39.3476
805.861	146.31224
806.039	105.87604
806.218	47.96115
806.397	81.7142
806.575	78.45462
806.754	74.34582
806.932	50.33107
807.111	118.89566
807.289	93.8747
807.468	85.38074
807.646	95.21787
807.825	78.54099
808.003	81.36115
808.182	101.53332
808.36	75.88117
808.539	57.20905
808.717	112.50958
808.895	51.62406
809.074	83.24801
809.252	62.25321
809.43	104.41331
809.609	114.90917
809.787	123.02992
809.965	73.14814
810.144	70.21785
810.322	65.37211
810.5	100.42108
810.678	77.89876
810.856	146.89097
811.035	103.68591
811.213	109.27861
811.391	108.05707
811.569	77.94464
811.747	181.53514
811.925	121.11207
812.103	61.14833
812.281	59.95675
812.459	158.92528
812.637	123.49741
812.816	111.37725
812.994	148.03066
813.171	119.70406
813.349	110.07712
813.527	128.19809
813.705	123.6117
813.883	139.34034
814.061	122.72829
814.239	145.20832
814.417	158.92829
814.595	104.39244
814.773	106.6743
814.95	101.28358
815.128	98.874
815.306	74.71738
815.484	84.02933
815.662	65.21529
815.839	51.81075
816.017	65.03999
816.195	118.12458
816.372	80.25793
816.55	130.21417
816.728	133.41019
816.905	81.89149
817.083	124.88139
817.261	91.3222
817.438	183.4421
817.616	148.16059
817.793	77.12466
817.971	99.30283
818.148	101.82923
818.326	129.54134
818.503	96.15868
818.681	134.60296
818.858	67.93941
819.036	90.16345
819.213	90.9987
819.391	57.44819
819.568	55.84
819.745	47.29676
819.923	92.77653
820.1	55.65845
820.277	48.34001
820.455	59.62962
820.632	65.93195
820.809	69.17355
820.986	40.21888
821.164	31.575
821.341	25.89948
821.518	38.55584
821.695	27.7657
821.872	25.42593
822.05	21.11628
822.227	16.63655
822.404	17.88541
822.581	19.94728
822.758	19.37418
822.935	18.4908
823.112	21.94341
823.289	18.13966
823.466	22.71897
823.643	21.42205
823.82	26.9097
823.997	24.33361
824.174	29.46912
824.351	38.48775
824.528	37.83971
824.705	32.55987
824.882	37.08041
825.059	50.29901
825.236	33.43633
825.412	35.68341
825.589	44.68103
825.766	63.25518
825.943	38.32564
826.12	46.7256
826.296	30.07907
826.473	38.47206
826.65	38.59076
826.827	47.44597
827.003	29.27066
827.18	34.69332
827.357	37.73162
827.533	33.12766
827.71	18.52008
827.887	29.72095
828.063	35.33195
828.24	29.80718
828.416	42.35944
828.593	34.46308
828.769	53.68846
828.946	55.43151
829.122	58.93248
829.299	65.12841
829.475	28.08946
829.652	57.26559
829.828	99.02831
830.005	63.78613
830.181	86.30277
830.357	60.69965
830.534	82.48189
830.71	65.12257
830.886	95.62475
831.063	82.27572
831.239	121.50086
831.415	48.94072
831.592	109.83561
831.768	67.83344
831.944	54.99926
832.12	118.80791
832.296	108.87497
832.473	94.97931
832.649	56.59217
832.825	84.32578
833.001	43.43957
833.177	68.82852
833.353	60.15882
833.529	31.66812
833.705	47.71354
833.881	33.22306
834.058	33.62812
834.234	37.17077
834.41	36.87205
834.586	27.23377
834.761	33.77076
834.937	38.48011
835.113	40.95407
835.289	37.03511
835.465	46.51411
835.641	43.75824
835.817	47.9298
835.993	95.4152
836.169	36.74531
836.344	71.22355
836.52	85.76944
836.696	92.80201
836.872	55.77039
837.048	187.58994
837.223	66.08661
837.399	150.33746
837.575	125.17017
837.75	108.2804
837.926	171.11059
838.102	263.22575
838.277	191.64267
838.453	281.98202
838.628	264.68227
838.804	81.36409
838.98	249.19769
839.155	126.40983
839.331	153.97165
839.506	117.05617
839.682	97.36419
839.857	143.08998
840.033	154.29155
840.208	63.49429
840.384	37.85839
840.559	69.13139
840.734	119.40812
840.91	155.79086
841.085	109.06937
841.26	103.6942
841.436	118.02559
841.611	94.38752
841.786	138.59469
841.962	226.91339
842.137	148.57151
842.312	55.98007
842.487	118.20541
842.663	115.93325
842.838	129.52575
843.013	526.41191
843.188	271.37321
843.363	170.28289
843.538	510.31764
843.714	487.95945
843.889	435.35957
844.064	484.6413
844.239	270.69294
844.414	555.90146
844.589	276.98991
844.764	719.64199
844.939	496.8364
845.114	423.85513
845.289	667.65711
845.464	775.98773
845.639	710.40744
845.814	245.02132
845.989	471.04283
846.163	395.31939
846.338	767.84264
846.513	627.74228
846.688	355.84828
846.863	791.02899
847.038	398.54235
847.212	368.67146
847.387	801.36367
847.562	362.38056
847.737	593.04274
847.911	235.67396
848.086	254.36852
848.261	483.11154
848.435	344.8138
848.61	555.43159
848.785	277.5235
848.959	486.18681
849.134	656.75721
849.308	1111.52187
849.483	693.65165
849.658	676.57716
849.832	398.76052
850.007	244.85037
850.181	1065.58522
850.356	553.97419
850.53	954.83476
850.705	383.48317
850.879	259.90186
851.053	491.59735
851.228	409.29597
851.402	837.47937
851.577	644.48388
851.751	846.39744
851.925	441.26109
852.099	256.18461
852.274	293.6058
852.448	401.62824
852.622	1007.27013
852.797	389.41261
852.971	491.94918
853.145	903.91067
853.319	1014.28339
853.493	1098.84907
853.668	496.99551
853.842	1450.83176
854.016	1129.05136
854.19	1644.09195
854.364	610.05726
854.538	621.37192
854.712	732.57163
854.886	407.77022
855.06	379.18638
855.234	148.69264
855.408	825.20682
855.582	569.61136
855.756	945.18901
855.93	535.84709
856.104	679.87212
856.278	789.10842
856.452	385.62909
856.626	637.42167
856.8	1136.14353
856.973	1237.07543
857.147	1103.8214
857.321	1456.70855
857.495	565.50214
857.669	819.41131
857.842	670.07939
858.016	514.74479
858.19	402.75334
858.364	1306.84816
858.537	546.39988
858.711	1170.62256
858.885	920.50394
859.058	274.0105
859.232	265.91096
859.405	420.77993
859.579	757.97563
859.753	686.986
859.926	873.26387
860.1	582.40364
860.273	980.1082
860.447	891.16122
860.62	573.08962
860.794	869.27684
860.967	662.46787
861.141	530.69632
861.314	716.56648
861.487	685.23787
861.661	513.8869
861.834	861.89779
862.008	1115.14798
862.181	848.74325
862.354	1370.74655
862.528	650.02202
862.701	440.49632
862.874	391.91954
863.047	456.78225
863.221	491.12278
863.394	368.68134
863.567	486.23445
863.74	144.13009
863.913	1053.54518
864.087	676.99292
864.26	638.85904
864.433	706.02696
864.606	990.38684
864.779	1548.16122
864.952	342.68364
865.125	1132.37575
865.298	577.787
865.471	594.31626
865.644	1024.91118
865.817	606.29035
865.99	927.30452
866.163	816.58752
866.336	421.59241
866.509	422.17755
866.682	618.00637
866.855	1332.61058
867.028	197.91215
867.2	644.66764
867.373	104.49027
867.546	471.49793
867.719	1272.35429
867.892	646.11205
868.064	400.40061
868.237	455.91735
868.41	514.59721
868.583	281.86593
868.755	312.4273
868.928	619.59261
869.101	913.84022
869.273	1776.49726
869.446	491.12425
869.619	911.71247
869.791	483.81939
869.964	746.86552
870.136	959.38777
870.309	404.01526
870.481	388.30968
870.654	385.77543
870.826	418.50868
870.999	343.29507
871.171	536.73042
871.344	306.61133
871.516	449.54006
871.689	439.79711
871.861	519.08426
872.033	345.64045
872.206	358.47128
872.378	494.19369
872.55	462.67165
872.723	443.72236
872.895	620.87798
873.067	562.0368
873.24	462.73399
873.412	438.83469
873.584	392.41364
873.756	673.55956
873.928	810.29886
874.101	362.37248
874.273	485.71429
874.445	169.6859
874.617	296.52026
874.789	345.78424
874.961	344.08926
875.133	465.91154
875.305	547.24899
875.477	403.13373
875.649	216.63112
875.821	312.48296
875.993	733.06419
876.165	380.63688
876.337	532.15645
876.509	491.11016
876.681	457.42119
876.853	469.29376
877.025	709.55472
877.197	253.38892
877.369	282.28325
877.541	423.43487
877.712	85.65183
877.884	198.22006
878.056	488.59355
878.228	224.87027
878.4	503.06389
878.571	222.93632
878.743	156.67078
878.915	304.9194
879.086	154.15235
879.258	203.93264
879.43	187.41845
879.601	161.29508
879.773	140.37454
879.945	32.17465
880.116	53.41303
880.288	31.03388
880.459	32.50452
880.631	24.52264
880.802	30.71084
880.974	26.80719
881.145	18.16062
881.317	26.01907
881.488	20.61663
881.66	22.91417
881.831	20.40362
882.002	27.64909
882.174	21.6649
882.345	27.23126
882.517	14.49767
882.688	35.66576
882.859	27.28232
883.03	49.1539
883.202	46.20069
883.373	39.18948
883.544	39.12766
883.715	70.79838
883.887	60.83817
884.058	53.36385
884.229	78.94629
884.4	74.81154
884.571	99.17045
884.742	71.50781
884.914	80.02815
885.085	134.54999
885.256	174.11537
885.427	146.72785
885.598	164.76819
885.769	176.68076
885.94	181.44653
886.111	104.65713
886.282	189.47454
886.453	211.5988
886.624	166.20949
886.795	244.23998
886.966	205.48439
887.136	245.45398
887.307	182.06677
887.478	392.26986
887.649	316.80898
887.82	356.52391
887.991	233.44922
888.161	432.20341
888.332	394.61591
888.503	207.91249
888.674	451.09915
888.844	704.43721
889.015	631.87768
889.186	336.74055
889.356	623.20052
889.527	318.45806
889.698	985.76378
889.868	289.34797
890.039	551.79061
890.209	335.76798
890.38	611.31647
890.551	485.6126
890.721	788.63351
890.892	485.46631
891.062	1149.26897
891.233	532.43338
891.403	715.49702
891.574	577.08583
891.744	364.40726
891.914	340.93177
892.085	521.07702
892.255	115.65875
892.425	537.64879
892.596	419.33168
892.766	488.44174
892.936	692.89602
893.107	423.0539
893.277	230.13533
893.447	193.24274
893.618	125.66055
893.788	229.17301
893.958	121.97551
894.128	92.62429
894.298	119.55226
894.468	156.37886
894.639	69.41189
894.809	38.93835
894.979	73.61861
895.149	90.98578
895.319	68.67911
895.489	101.62961
895.659	148.2081
895.829	80.00531
895.999	96.28932
896.169	78.8747
896.339	114.8208
896.509	240.20323
896.679	229.02099
896.849	254.39322
897.019	339.70177
897.189	340.2522
897.358	279.68584
897.528	478.96472
897.698	197.97147
897.868	347.38403
898.038	864.25209
898.208	918.01946
898.377	252.22109
898.547	1833.25233
898.717	3301.3959
898.886	941.42117
899.056	787.2934
899.226	2060.53198
899.395	2263.17149
899.565	2418.54351
899.735	4426.50663
899.904	1607.27816
900.074	5829.94135
900.244	674.50673
900.413	3366.47471
900.583	889.57578
900.752	-1837.17566
900.922	1131.2531
901.091	299.33418
901.261	2158.61636
901.43	1171.3361
901.599	3085.21193
901.769	2817.65308
901.938	2734.29197
902.108	972.28549
902.277	1480.86911
902.446	432.08876
902.616	686.54361
902.785	527.04889
902.954	824.38507
903.124	493.18836
903.293	373.32819
903.462	129.18048
903.631	216.30056
903.801	145.9889
903.97	74.51516
904.139	115.40238
904.308	87.90632
904.477	74.46001
904.646	40.00253
904.816	64.12452
904.985	102.35398
905.154	161.43417
