Data from WindowProjectSample_Transmission__19__00019.txt Node

Date: Sat May 03 15:14:00 EDT 2025
User: jessi
Spectrometer: SR400872
Trigger mode: 0
Integration Time (sec): 5.000010E-1
Scans to average: 6
Electric dark correction enabled: true
Nonlinearity correction enabled: true
Boxcar width: 0
XAxis mode: Wavelengths
Number of Pixels in Spectrum: 3648
>>>>>Begin Spectral Data<<<<<
184.909	18419.27024
185.132	2664.26646
185.355	24333.74022
185.578	-8467.83933
185.801	312.35244
186.024	-1493.63529
186.247	885.43343
186.47	2159.37085
186.693	-33.21578
186.916	-1246.54958
187.139	-2616.46328
187.362	1641.76279
187.585	2983.67123
187.808	-3541.06962
188.031	-1800.71514
188.254	-1387.43454
188.476	-855.08322
188.699	2589.51094
188.922	-1361.87162
189.145	-10131.92088
189.368	-412.96872
189.591	-1242.74625
189.813	-1673.88514
190.036	1314.67132
190.259	1704.88449
190.482	555.49958
190.705	10491.94721
190.927	-1059.26839
191.15	3436.95115
191.373	2360.53409
191.595	-2367.86426
191.818	2446.16558
192.041	-281.42429
192.263	2806.76122
192.486	2390.60262
192.709	-5553.21087
192.931	2960.54205
193.154	-6357.81662
193.377	200414.85241
193.599	1477.44407
193.822	1757.6438
194.044	-2107.99626
194.267	441.83626
194.489	-595.13634
194.712	1404.10428
194.934	3364.03921
195.157	-13586.88522
195.379	746.77051
195.602	2256.90701
195.824	2020.25432
196.047	2172.7662
196.269	2909.11716
196.492	3381.90688
196.714	2706.81239
196.936	1194.65927
197.159	1437.72095
197.381	-2788.95113
197.604	-1191.54727
197.826	6893.1414
198.048	3105.49681
198.271	3870.69674
198.493	2275.17459
198.715	-6215.79771
198.938	-618.25495
199.16	1926.53283
199.382	1423.42911
199.604	-720.24573
199.827	9104.09067
200.049	956.97528
200.271	-2821.9385
200.493	-54056.85638
200.715	2314.84684
200.938	6970.03828
201.16	-7113.23221
201.382	-3027.12902
201.604	-2006.50845
201.826	6828.4535
202.048	882.40274
202.27	-17486.15055
202.492	4940.10034
202.715	-1195.76219
202.937	4627.82606
203.159	-2328.24678
203.381	894.16586
203.603	-3685.23115
203.825	-2893.17338
204.047	3406.36589
204.269	-2138.23333
204.491	2319.19939
204.713	1957.66912
204.935	15461.97936
205.156	1819.5803
205.378	-8058.59832
205.6	-4585.78118
205.822	9092.52579
206.044	-806.44708
206.266	3995.74327
206.488	1155.72115
206.71	29007.29276
206.932	2461.02887
207.153	-5048.33695
207.375	-1999.12817
207.597	8783.17307
207.819	4259.39155
208.041	2166.39697
208.262	-2598.82644
208.484	-1258.73972
208.706	-2729.08942
208.927	31362.79809
209.149	1032.9786
209.371	-6620.85931
209.593	1273.31222
209.814	5193.93306
210.036	-2757.89411
210.258	-5670.39216
210.479	-1364.60083
210.701	1008.86775
210.922	6480.38389
211.144	-1276.65072
211.366	-6109.61769
211.587	-570.16782
211.809	10201.1111
212.03	-1436.41687
212.252	-2559.79988
212.473	769.08041
212.695	-2398.55511
212.916	3225.40604
213.138	3239.79144
213.359	-1798.27288
213.581	6204.31418
213.802	-1814.12853
214.024	17803.60923
214.245	-3461.73166
214.466	-515.79343
214.688	1650.69253
214.909	926.93925
215.131	-102418.41845
215.352	1854.23961
215.573	2493.77578
215.795	3049.66974
216.016	3789.69038
216.237	-527.71628
216.459	7050.0856
216.68	100434.98171
216.901	-81554.44645
217.122	1903.88402
217.344	6165.27536
217.565	-58749.58881
217.786	1612.26184
218.007	1672.82016
218.228	-1221.65045
218.45	-1252.69702
218.671	-1130.01036
218.892	1123.40347
219.113	-19285.20101
219.334	-412.39548
219.555	-5057.53035
219.776	1640.00889
219.997	3514.86162
220.219	1175.70963
220.44	2421.82887
220.661	-3491.84681
220.882	3555.75631
221.103	-1099.73403
221.324	1037.86452
221.545	2364.64714
221.766	-6351.48313
221.987	4010.94185
222.208	-1929.49851
222.429	3540.05335
222.65	-72.42885
222.87	-585.57933
223.091	8161.09129
223.312	2486.99287
223.533	6591.8689
223.754	1841.9826
223.975	1497.672
224.196	-10971.07908
224.417	1057.71786
224.637	976.98285
224.858	-306.60259
225.079	6778.3714
225.3	612.13912
225.521	2071.1041
225.741	1421.45292
225.962	729.14129
226.183	254.79246
226.404	667.53896
226.624	574.51465
226.845	373.26075
227.066	402.77433
227.286	199.9204
227.507	97.21185
227.728	77.48967
227.948	129.60889
228.169	41.70429
228.389	45.06051
228.61	23.47691
228.831	35.66297
229.051	2.02875
229.272	20.0716
229.492	31.09209
229.713	9.45209
229.933	24.696
230.154	20.98186
230.374	33.08786
230.595	23.53702
230.815	13.3583
231.036	23.03705
231.256	-4.26567
231.477	42.10534
231.697	26.0858
231.917	22.83766
232.138	38.1007
232.358	76.6931
232.579	63.49528
232.799	7.34472
233.019	63.87727
233.24	77.14323
233.46	25.79403
233.68	41.61232
233.901	34.2889
234.121	18.84601
234.341	6.73672
234.561	-1.41043
234.782	15.87413
235.002	46.91429
235.222	0.16776
235.442	42.31586
235.662	19.75625
235.883	41.66918
236.103	38.90438
236.323	27.72551
236.543	20.191
236.763	29.95119
236.983	26.29987
237.203	32.24679
237.423	45.17471
237.643	63.41523
237.864	48.80794
238.084	15.04955
238.304	22.2082
238.524	32.01902
238.744	31.90491
238.964	46.79297
239.184	42.79541
239.404	45.1076
239.624	22.74681
239.843	41.64542
240.063	22.77614
240.283	16.57754
240.503	17.10334
240.723	17.17634
240.943	9.38726
241.163	13.89315
241.383	10.02289
241.603	5.4207
241.822	6.14414
242.042	4.48617
242.262	6.05185
242.482	6.59354
242.702	7.91713
242.921	2.74243
243.141	5.54452
243.361	4.83138
243.581	7.18617
243.8	5.91416
244.02	4.25172
244.24	7.69683
244.459	7.04241
244.679	14.23257
244.899	9.88561
245.118	9.9403
245.338	8.83278
245.558	10.93947
245.777	6.18501
245.997	7.55495
246.216	7.92878
246.436	4.40047
246.655	3.30088
246.875	2.76945
247.094	4.75354
247.314	1.59912
247.533	2.71624
247.753	3.64062
247.972	2.84382
248.192	0.93207
248.411	1.6182
248.631	3.39569
248.85	4.04678
249.07	2.72634
249.289	5.28046
249.508	3.75892
249.728	6.63099
249.947	6.36401
250.166	6.98312
250.386	3.61433
250.605	5.59097
250.824	9.21342
251.044	6.52864
251.263	21.02179
251.482	10.833
251.701	9.82057
251.921	0.00193
252.14	3.40419
252.359	3.68178
252.578	7.65178
252.798	3.28038
253.017	7.31579
253.236	4.05937
253.455	4.7693
253.674	9.76137
253.893	4.92972
254.112	6.31508
254.331	10.12503
254.551	7.40449
254.77	4.68493
254.989	11.68633
255.208	9.8312
255.427	13.01191
255.646	10.93256
255.865	18.07218
256.084	7.29151
256.303	9.47585
256.522	11.44391
256.741	2.70798
256.96	2.33158
257.179	8.05438
257.397	8.43053
257.616	4.73133
257.835	5.69083
258.054	11.91589
258.273	8.03123
258.492	9.09234
258.711	5.4411
258.93	2.70772
259.148	3.20884
259.367	3.33812
259.586	4.33297
259.805	2.15167
260.023	4.228
260.242	3.30777
260.461	2.10864
260.68	1.25648
260.898	3.74816
261.117	1.34429
261.336	0.8527
261.554	3.31701
261.773	3.10577
261.992	0.73645
262.21	3.0129
262.429	4.09872
262.648	6.18708
262.866	7.23344
263.085	4.96251
263.303	4.36595
263.522	7.7066
263.74	7.8548
263.959	13.139
264.178	6.3279
264.396	6.2271
264.615	4.93552
264.833	10.15446
265.051	8.56745
265.27	8.74775
265.488	9.12734
265.707	5.57099
265.925	9.21159
266.144	4.16666
266.362	5.23528
266.58	5.32809
266.799	3.75046
267.017	5.61838
267.235	4.57606
267.454	3.13426
267.672	1.91662
267.89	3.99917
268.109	3.89145
268.327	3.73021
268.545	0.80252
268.763	3.73092
268.982	1.59504
269.2	4.6973
269.418	2.61615
269.636	2.10087
269.854	3.47836
270.073	3.04106
270.291	1.42756
270.509	1.52568
270.727	3.86143
270.945	6.32934
271.163	6.14595
271.381	1.84058
271.599	2.48917
271.817	4.5294
272.036	1.68178
272.254	2.61188
272.472	2.1515
272.69	2.24052
272.908	2.2355
273.126	3.81621
273.344	4.54622
273.562	1.71727
273.779	2.23382
273.997	3.27049
274.215	3.64877
274.433	2.72088
274.651	4.04669
274.869	3.98649
275.087	2.46314
275.305	4.03411
275.523	2.1264
275.74	3.1531
275.958	5.05983
276.176	7.18402
276.394	2.21016
276.612	2.79064
276.829	2.89859
277.047	2.09108
277.265	2.74984
277.483	3.59633
277.7	3.60526
277.918	3.28403
278.136	5.80259
278.353	3.07304
278.571	1.54777
278.789	4.32571
279.006	0.72208
279.224	2.65593
279.442	4.4591
279.659	2.81667
279.877	2.29383
280.094	4.94107
280.312	0.99644
280.529	3.0618
280.747	0.95127
280.964	2.19818
281.182	5.28928
281.399	2.50246
281.617	3.53637
281.834	2.31299
282.052	2.04411
282.269	2.69461
282.487	2.34945
282.704	1.67648
282.921	2.15605
283.139	3.01514
283.356	3.73481
283.574	3.21525
283.791	1.95916
284.008	4.79053
284.226	2.53484
284.443	2.90239
284.66	3.50925
284.877	3.00249
285.095	1.93098
285.312	1.29503
285.529	1.00711
285.746	0.88244
285.964	1.88695
286.181	1.20216
286.398	1.77222
286.615	2.56493
286.832	2.35641
287.05	0.82692
287.267	1.53934
287.484	1.83309
287.701	2.41808
287.918	2.50789
288.135	2.52303
288.352	1.12719
288.569	1.4265
288.786	2.17768
289.003	1.76109
289.22	2.58972
289.437	1.61139
289.654	2.8309
289.871	2.92751
290.088	2.72866
290.305	2.06039
290.522	1.62854
290.739	1.93408
290.956	2.77552
291.173	3.4589
291.39	3.37561
291.607	2.35169
291.824	1.71874
292.04	1.10766
292.257	2.72259
292.474	2.88413
292.691	1.90082
292.908	0.91096
293.125	1.63409
293.341	0.908
293.558	4.58533
293.775	1.76829
293.992	1.97353
294.208	0.7742
294.425	0.88358
294.642	1.67267
294.858	2.43047
295.075	0.78308
295.292	1.81694
295.508	2.24738
295.725	3.5486
295.942	1.683
296.158	1.13794
296.375	1.96516
296.591	1.4817
296.808	1.72498
297.024	1.88397
297.241	2.01202
297.458	2.33352
297.674	0.31114
297.891	1.78283
298.107	1.61398
298.323	1.027
298.54	2.80499
298.756	1.39017
298.973	0.88293
299.189	2.99519
299.406	1.4932
299.622	2.82835
299.838	2.87321
300.055	2.59433
300.271	1.09345
300.487	1.26943
300.704	1.60953
300.92	1.244
301.136	4.25551
301.353	2.94578
301.569	2.08137
301.785	2.56058
302.001	2.87901
302.218	2.73247
302.434	2.95351
302.65	1.31525
302.866	1.76783
303.083	4.29476
303.299	4.40856
303.515	2.41267
303.731	2.87943
303.947	1.43173
304.163	2.14336
304.379	2.9619
304.595	2.90488
304.812	2.05444
305.028	1.96687
305.244	2.31474
305.46	3.12133
305.676	3.48385
305.892	3.96448
306.108	3.16598
306.324	2.48786
306.54	4.40229
306.756	3.22197
306.972	3.1631
307.187	2.88742
307.403	3.87944
307.619	2.31118
307.835	3.46238
308.051	3.8112
308.267	1.63382
308.483	3.87812
308.699	3.1417
308.914	2.95897
309.13	2.78264
309.346	1.8415
309.562	2.24181
309.778	1.78289
309.993	3.56047
310.209	3.27252
310.425	1.99438
310.641	3.1571
310.856	2.44727
311.072	2.23972
311.288	3.0162
311.503	3.48567
311.719	1.71776
311.935	1.79807
312.15	3.79992
312.366	3.59106
312.581	3.86146
312.797	3.44399
313.013	3.85677
313.228	2.76952
313.444	2.87692
313.659	2.56983
313.875	3.5282
314.09	2.94588
314.306	4.06107
314.521	3.66649
314.737	3.77459
314.952	3.39652
315.168	3.26145
315.383	3.76881
315.599	2.42573
315.814	2.98844
316.029	3.58139
316.245	2.70016
316.46	1.60719
316.675	4.12668
316.891	4.70248
317.106	5.68842
317.321	3.41545
317.537	3.80641
317.752	3.77662
317.967	3.84995
318.183	2.46478
318.398	2.86731
318.613	4.12819
318.828	4.49167
319.043	3.87232
319.259	2.95579
319.474	3.57047
319.689	4.17042
319.904	1.73833
320.119	4.27316
320.334	3.33218
320.549	3.1965
320.765	4.16008
320.98	3.87777
321.195	3.89609
321.41	3.37779
321.625	4.01205
321.84	4.58519
322.055	4.63058
322.27	2.86282
322.485	2.16406
322.7	3.45881
322.915	4.22667
323.13	3.00787
323.345	5.12531
323.56	4.52798
323.775	4.2716
323.989	4.08083
324.204	3.47207
324.419	4.40849
324.634	2.72638
324.849	3.50797
325.064	6.04399
325.279	4.84209
325.493	4.05718
325.708	4.3343
325.923	2.99496
326.138	3.5295
326.352	4.97219
326.567	4.37447
326.782	3.3057
326.997	3.42838
327.211	4.11666
327.426	4.0518
327.641	3.86995
327.855	2.61954
328.07	4.53485
328.285	5.65497
328.499	3.43613
328.714	4.14726
328.928	4.22598
329.143	4.08155
329.358	4.91132
329.572	4.72378
329.787	5.48532
330.001	6.10859
330.216	2.4916
330.43	6.08968
330.645	5.0519
330.859	4.72607
331.074	2.99545
331.288	3.99501
331.503	5.47145
331.717	2.84875
331.931	3.92484
332.146	4.4532
332.36	5.93031
332.575	4.59253
332.789	4.20195
333.003	4.45777
333.218	4.89982
333.432	4.28016
333.646	5.22117
333.86	6.10079
334.075	5.77495
334.289	3.86891
334.503	3.2025
334.717	4.96403
334.932	4.53216
335.146	5.02958
335.36	3.50991
335.574	4.66589
335.788	4.5203
336.003	5.14301
336.217	5.42713
336.431	5.11453
336.645	4.31985
336.859	3.89496
337.073	4.81389
337.287	5.19806
337.501	3.66184
337.715	5.41712
337.929	5.20072
338.143	3.95292
338.357	4.70529
338.571	4.49313
338.785	5.85191
338.999	4.42948
339.213	4.67169
339.427	4.07398
339.641	5.99815
339.855	4.45726
340.069	4.14549
340.283	5.9407
340.497	6.53451
340.711	5.7902
340.924	5.24376
341.138	4.39127
341.352	4.04802
341.566	5.22989
341.78	4.06947
341.993	4.76682
342.207	4.53698
342.421	5.7732
342.635	5.39671
342.848	5.1255
343.062	3.10357
343.276	4.83767
343.49	7.11397
343.703	4.96167
343.917	6.21995
344.131	6.72605
344.344	4.84187
344.558	5.17246
344.771	4.53993
344.985	6.60989
345.199	7.29839
345.412	6.13992
345.626	6.40572
345.839	4.50246
346.053	4.86563
346.266	5.11452
346.48	6.14497
346.693	6.4033
346.907	6.18396
347.12	5.10659
347.334	5.84166
347.547	6.27713
347.76	5.7855
347.974	6.85851
348.187	5.97967
348.401	6.00202
348.614	4.9269
348.827	5.83844
349.041	6.28966
349.254	4.65369
349.467	5.66177
349.681	5.29518
349.894	5.133
350.107	7.2996
350.32	8.03626
350.534	5.06845
350.747	6.0979
350.96	5.75207
351.173	5.95266
351.386	6.16569
351.6	5.71925
351.813	6.29003
352.026	6.20756
352.239	5.68445
352.452	5.87083
352.665	7.39316
352.878	6.05612
353.092	8.40604
353.305	7.2097
353.518	6.87322
353.731	5.79012
353.944	7.69132
354.157	6.41905
354.37	6.60674
354.583	5.66924
354.796	6.03029
355.009	7.63495
355.222	7.32298
355.435	7.03686
355.647	8.02422
355.86	6.48149
356.073	7.52709
356.286	6.60075
356.499	8.09711
356.712	8.04776
356.925	7.97553
357.138	8.39654
357.35	7.0557
357.563	7.12364
357.776	7.82189
357.989	7.89828
358.201	8.33761
358.414	8.12628
358.627	8.91179
358.84	7.8033
359.052	6.98328
359.265	7.28348
359.478	8.73597
359.69	5.97994
359.903	8.85238
360.116	8.90882
360.328	6.9251
360.541	8.86647
360.753	7.88019
360.966	8.02303
361.179	8.45537
361.391	8.27765
361.604	8.11491
361.816	8.4093
362.029	8.57517
362.241	8.24928
362.454	8.78898
362.666	8.20793
362.879	9.48891
363.091	8.63944
363.304	8.66176
363.516	8.75645
363.728	8.02372
363.941	9.16629
364.153	9.02897
364.366	7.59983
364.578	8.24293
364.79	9.28366
365.003	9.41305
365.215	8.60986
365.427	9.3442
365.639	9.90217
365.852	9.21793
366.064	10.45644
366.276	9.11553
366.488	9.28216
366.701	9.21407
366.913	8.87255
367.125	9.1295
367.337	8.69517
367.549	8.87973
367.762	9.00678
367.974	9.28025
368.186	9.30606
368.398	10.21015
368.61	9.87698
368.822	10.1275
369.034	9.34101
369.246	10.29896
369.458	11.6361
369.67	8.92812
369.882	10.79538
370.094	8.15803
370.306	10.61447
370.518	9.55704
370.73	9.41462
370.942	9.77332
371.154	10.14621
371.366	9.90748
371.578	10.83649
371.79	10.25264
372.002	11.06389
372.214	12.32395
372.425	10.24699
372.637	12.06448
372.849	10.77719
373.061	9.10095
373.273	10.96952
373.484	10.92832
373.696	11.39141
373.908	9.13691
374.12	11.16391
374.331	11.15875
374.543	10.15919
374.755	10.26979
374.967	10.67126
375.178	11.84814
375.39	10.90316
375.602	11.13622
375.813	9.85644
376.025	10.35436
376.236	11.06178
376.448	11.63497
376.66	11.22939
376.871	11.65285
377.083	12.02323
377.294	13.10464
377.506	11.43317
377.717	12.66786
377.929	11.98771
378.14	11.80772
378.352	11.95733
378.563	12.68942
378.775	13.12576
378.986	11.21766
379.197	12.16496
379.409	11.39664
379.62	12.42994
379.832	12.28462
380.043	11.93603
380.254	12.45022
380.466	11.41637
380.677	14.42735
380.888	13.91199
381.1	14.60212
381.311	14.53243
381.522	12.89364
381.733	14.88068
381.945	12.72919
382.156	12.1895
382.367	12.60909
382.578	15.07077
382.789	15.16655
383.001	12.25152
383.212	14.63731
383.423	14.33353
383.634	13.621
383.845	13.8038
384.056	12.86694
384.267	13.37992
384.478	13.41856
384.69	12.56561
384.901	13.87163
385.112	13.53716
385.323	15.06334
385.534	14.13822
385.745	14.26199
385.956	13.95213
386.167	13.15249
386.378	14.60292
386.588	13.63648
386.799	13.20595
387.01	13.10542
387.221	14.76662
387.432	14.2045
387.643	15.15812
387.854	13.84517
388.065	13.86325
388.275	14.45142
388.486	13.77072
388.697	14.46528
388.908	13.98143
389.119	15.35405
389.329	15.51801
389.54	14.71818
389.751	14.77929
389.962	15.25776
390.172	14.60254
390.383	14.68881
390.594	14.0035
390.804	14.0623
391.015	14.28901
391.226	15.04171
391.436	15.24243
391.647	15.29336
391.858	15.51576
392.068	14.21134
392.279	14.59134
392.489	15.75401
392.7	16.0307
392.91	15.0128
393.121	15.17804
393.331	15.83273
393.542	16.20534
393.752	16.19034
393.963	15.97381
394.173	15.88651
394.384	16.09598
394.594	15.81944
394.804	15.01571
395.015	15.76217
395.225	16.14319
395.436	15.33093
395.646	16.46491
395.856	15.95466
396.067	15.08792
396.277	16.78603
396.487	16.2392
396.697	16.46467
396.908	16.6775
397.118	16.31749
397.328	16.2115
397.538	16.90173
397.749	15.70573
397.959	16.7746
398.169	16.6306
398.379	15.22768
398.589	16.42807
398.8	16.76139
399.01	16.68672
399.22	16.18779
399.43	17.88186
399.64	16.59075
399.85	16.97276
400.06	16.85575
400.27	16.37588
400.48	16.5945
400.69	17.25678
400.9	16.39831
401.11	15.85644
401.32	16.91247
401.53	16.31025
401.74	17.48429
401.95	16.89379
402.16	16.58422
402.37	17.00664
402.58	16.37174
402.79	16.89699
403	17.09418
403.209	16.29397
403.419	17.63708
403.629	16.51772
403.839	17.68537
404.049	17.67858
404.258	16.88543
404.468	16.9371
404.678	17.84191
404.888	18.34458
405.097	17.49722
405.307	17.24617
405.517	17.80958
405.727	17.88318
405.936	17.33451
406.146	17.63915
406.356	18.40313
406.565	17.69268
406.775	17.43379
406.984	17.39595
407.194	19.01086
407.404	17.75004
407.613	18.08962
407.823	18.23482
408.032	18.66035
408.242	18.00509
408.451	17.28698
408.661	17.40643
408.87	18.66591
409.08	16.91468
409.289	17.96576
409.499	17.70014
409.708	17.70076
409.918	16.41866
410.127	18.01994
410.336	18.86527
410.546	18.45352
410.755	17.43949
410.964	17.71066
411.174	17.32922
411.383	18.41397
411.592	18.25998
411.802	17.63289
412.011	18.60013
412.22	18.06514
412.429	19.15929
412.639	18.82321
412.848	18.54776
413.057	19.23321
413.266	18.8351
413.475	18.10002
413.685	18.43301
413.894	18.62018
414.103	18.61851
414.312	18.52773
414.521	17.90784
414.73	18.56033
414.939	19.50732
415.148	18.51224
415.357	18.18514
415.566	18.18227
415.776	17.9155
415.985	18.23925
416.194	18.7173
416.403	19.60589
416.611	17.49234
416.82	18.15068
417.029	18.49094
417.238	18.0255
417.447	18.10248
417.656	18.46893
417.865	18.5692
418.074	19.25905
418.283	20.46817
418.492	22.03789
418.7	21.76356
418.909	24.13424
419.118	23.00232
419.327	23.65316
419.536	23.88472
419.744	24.57696
419.953	26.06145
420.162	26.82574
420.371	26.4757
420.579	28.03882
420.788	28.97677
420.997	29.29752
421.205	30.15901
421.414	29.56267
421.623	30.15219
421.831	29.40382
422.04	29.99613
422.249	28.61545
422.457	28.46551
422.666	27.34863
422.874	28.52984
423.083	28.51012
423.291	28.53067
423.5	28.7249
423.708	29.56985
423.917	30.27648
424.125	29.62506
424.334	29.68751
424.542	31.68423
424.751	31.06634
424.959	30.26907
425.167	30.33315
425.376	30.06658
425.584	27.98674
425.793	27.13647
426.001	25.68389
426.209	25.0763
426.418	23.28946
426.626	21.896
426.834	21.1438
427.042	20.61886
427.251	19.82407
427.459	20.65993
427.667	20.30102
427.875	19.23148
428.084	19.5796
428.292	20.70754
428.5	20.40661
428.708	19.31712
428.916	19.41047
429.124	19.88658
429.333	19.65196
429.541	19.75311
429.749	20.10646
429.957	19.70379
430.165	21.45869
430.373	18.95151
430.581	19.9242
430.789	20.84612
430.997	19.72856
431.205	19.27351
431.413	20.26869
431.621	19.59427
431.829	20.35797
432.037	19.71487
432.245	20.17176
432.453	20.32619
432.661	19.96176
432.869	21.55639
433.076	20.81321
433.284	21.49375
433.492	22.49756
433.7	22.78617
433.908	21.89095
434.116	22.31671
434.323	21.67655
434.531	21.83619
434.739	21.37077
434.947	21.28707
435.154	21.30834
435.362	20.6914
435.57	20.5062
435.778	20.43027
435.985	20.86847
436.193	20.38379
436.401	21.1443
436.608	20.5252
436.816	20.41953
437.023	21.34437
437.231	21.60279
437.439	20.72327
437.646	20.84268
437.854	20.85491
438.061	21.00227
438.269	20.78388
438.476	21.19289
438.684	21.07484
438.891	22.00226
439.099	22.20095
439.306	22.2704
439.514	22.53339
439.721	24.82057
439.929	24.49078
440.136	26.0091
440.343	26.50141
440.551	26.39475
440.758	28.56146
440.965	26.53242
441.173	26.59642
441.38	26.08445
441.587	25.26703
441.795	25.10004
442.002	23.82777
442.209	23.4652
442.416	22.57354
442.624	22.25538
442.831	21.71671
443.038	21.03356
443.245	20.57021
443.452	20.93686
443.66	21.67122
443.867	20.78983
444.074	20.62352
444.281	21.47375
444.488	22.02283
444.695	22.6563
444.902	23.37019
445.109	25.51615
445.316	25.75942
445.523	27.08299
445.73	27.65162
445.937	29.23362
446.144	30.02601
446.351	31.1603
446.558	29.41396
446.765	32.71177
446.972	30.956
447.179	30.61125
447.386	31.06988
447.593	28.52033
447.8	29.30551
448.007	27.03564
448.214	25.34205
448.42	24.52237
448.627	24.34051
448.834	23.07372
449.041	22.44087
449.248	21.96419
449.454	22.21304
449.661	22.81741
449.868	21.14346
450.075	21.23394
450.281	20.58197
450.488	20.87924
450.695	20.78074
450.901	20.72675
451.108	21.08143
451.315	21.74464
451.521	20.96657
451.728	21.86433
451.935	20.87125
452.141	21.11989
452.348	21.30482
452.554	21.30676
452.761	21.19357
452.967	22.39605
453.174	21.42416
453.38	21.50266
453.587	20.73269
453.793	21.70683
454	21.94789
454.206	22.83055
454.413	22.25527
454.619	21.94684
454.825	21.01849
455.032	21.7644
455.238	22.37215
455.445	20.70942
455.651	21.6484
455.857	20.55015
456.064	21.68324
456.27	21.4616
456.476	21.13507
456.682	20.83102
456.889	21.37915
457.095	21.83795
457.301	22.4065
457.507	21.3556
457.714	21.36442
457.92	21.40118
458.126	20.66143
458.332	21.00986
458.538	21.39428
458.744	22.50616
458.951	23.87804
459.157	27.42166
459.363	27.50261
459.569	28.50352
459.775	29.23367
459.981	29.90146
460.187	30.52432
460.393	30.35881
460.599	29.82805
460.805	28.25783
461.011	26.34206
461.217	25.66459
461.423	23.4761
461.629	22.72584
461.835	22.93912
462.041	22.45136
462.247	23.48798
462.453	22.26055
462.658	22.42031
462.864	22.61368
463.07	22.28557
463.276	22.02829
463.482	21.88829
463.688	23.017
463.893	21.63659
464.099	21.74591
464.305	23.08994
464.511	21.70448
464.716	21.74749
464.922	22.58335
465.128	21.37594
465.333	22.99068
465.539	22.72632
465.745	22.28859
465.95	22.06613
466.156	24.03462
466.362	22.76808
466.567	22.17234
466.773	21.78799
466.978	23.2539
467.184	21.87988
467.389	21.45858
467.595	22.65196
467.8	21.95185
468.006	23.41908
468.211	23.19451
468.417	21.97076
468.622	22.61356
468.828	22.90615
469.033	22.75179
469.239	24.24919
469.444	21.99406
469.649	22.88903
469.855	22.57137
470.06	22.65057
470.266	21.83836
470.471	22.85414
470.676	22.6897
470.881	21.20859
471.087	23.53734
471.292	23.89124
471.497	21.68162
471.703	22.38161
471.908	22.06012
472.113	22.75712
472.318	22.99857
472.523	21.78699
472.729	22.58122
472.934	22.73999
473.139	22.59562
473.344	22.85291
473.549	23.45725
473.754	22.13977
473.959	24.2695
474.164	22.23351
474.369	22.48104
474.575	23.10123
474.78	22.4932
474.985	21.88653
475.19	21.23769
475.395	22.14885
475.6	22.31126
475.804	23.47074
476.009	22.43106
476.214	22.35011
476.419	22.13193
476.624	21.76849
476.829	22.06183
477.034	23.07181
477.239	22.07204
477.444	22.66194
477.648	23.03827
477.853	23.11076
478.058	22.27489
478.263	22.4492
478.468	21.97134
478.672	22.38776
478.877	23.64152
479.082	24.15744
479.287	23.13701
479.491	22.78964
479.696	22.20465
479.901	23.41004
480.105	23.12321
480.31	22.38267
480.515	22.47663
480.719	24.04086
480.924	22.21622
481.128	22.52823
481.333	24.24128
481.538	24.76737
481.742	26.13872
481.947	28.41562
482.151	30.57984
482.356	33.41009
482.56	38.55407
482.765	43.38609
482.969	50.92701
483.174	57.52837
483.378	66.12277
483.582	69.80819
483.787	73.97647
483.991	76.35132
484.196	76.89176
484.4	75.27033
484.604	75.14681
484.809	69.50744
485.013	65.09607
485.217	59.44608
485.422	53.13412
485.626	48.29183
485.83	45.07102
486.034	43.33784
486.239	43.77331
486.443	45.16208
486.647	46.69595
486.851	49.01493
487.055	52.80755
487.26	53.8004
487.464	56.25302
487.668	56.48937
487.872	57.43828
488.076	57.57094
488.28	55.32234
488.484	52.16422
488.688	50.61169
488.892	47.1785
489.096	43.5724
489.3	40.49509
489.504	37.6511
489.708	35.55611
489.912	34.35735
490.116	33.50871
490.32	33.5577
490.524	35.904
490.728	38.12937
490.932	40.65201
491.136	43.83831
491.34	46.07783
491.544	47.70827
491.748	47.83941
491.951	47.50341
492.155	46.53273
492.359	45.09499
492.563	41.56196
492.767	39.3075
492.97	35.20118
493.174	31.6154
493.378	28.85375
493.582	25.60942
493.785	24.21059
493.989	23.48844
494.193	22.40947
494.396	21.45696
494.6	21.74097
494.804	21.51565
495.007	22.64205
495.211	22.41111
495.414	22.77158
495.618	22.86396
495.822	23.2716
496.025	22.71899
496.229	23.6131
496.432	23.55999
496.636	23.95941
496.839	24.39368
497.043	25.50871
497.246	24.85721
497.45	24.62908
497.653	25.01396
497.856	24.3659
498.06	23.77667
498.263	23.42944
498.467	23.54246
498.67	23.87454
498.873	23.57191
499.077	23.28565
499.28	23.58218
499.483	23.65743
499.686	23.97216
499.89	23.56092
500.093	24.04891
500.296	23.12113
500.499	24.58501
500.703	23.38707
500.906	23.50883
501.109	24.42513
501.312	23.42063
501.515	23.36235
501.719	23.72829
501.922	23.99206
502.125	23.28981
502.328	23.20247
502.531	22.68562
502.734	23.22945
502.937	22.023
503.14	23.1717
503.343	22.70917
503.546	23.00665
503.749	22.67352
503.952	23.62854
504.155	22.84617
504.358	23.63581
504.561	23.49865
504.764	22.53311
504.967	23.3793
505.17	23.34517
505.373	24.50947
505.576	23.13137
505.778	23.93804
505.981	22.6456
506.184	24.09242
506.387	22.29525
506.59	24.34724
506.793	23.8882
506.995	23.44947
507.198	21.82165
507.401	23.20433
507.604	23.17319
507.806	22.24406
508.009	22.63036
508.212	23.43138
508.414	22.74625
508.617	22.86848
508.82	23.12634
509.022	24.41873
509.225	23.60254
509.427	22.51667
509.63	24.22157
509.833	23.41809
510.035	23.19876
510.238	22.58192
510.44	24.3123
510.643	22.31063
510.845	24.39787
511.048	23.64082
511.25	23.01733
511.453	23.16129
511.655	23.52475
511.858	23.26906
512.06	24.10205
512.262	23.40074
512.465	24.05599
512.667	23.35084
512.869	23.00192
513.072	23.86289
513.274	24.07987
513.476	23.93093
513.679	24.22171
513.881	23.14599
514.083	24.49135
514.286	23.0761
514.488	22.99698
514.69	22.97003
514.892	22.8044
515.094	23.93458
515.297	23.07177
515.499	23.33821
515.701	22.71412
515.903	24.22054
516.105	24.38987
516.307	23.46198
516.509	21.87517
516.711	22.13927
516.913	23.02845
517.116	22.79084
517.318	22.50601
517.52	23.28753
517.722	23.25112
517.924	23.02592
518.126	25.03409
518.328	25.08618
518.529	25.97929
518.731	27.20138
518.933	25.21296
519.135	25.57969
519.337	25.99612
519.539	24.86291
519.741	23.28956
519.943	23.82884
520.145	23.88783
520.346	24.47643
520.548	23.82628
520.75	23.91968
520.952	23.58408
521.153	24.30304
521.355	24.05331
521.557	23.16271
521.759	23.57282
521.96	23.36708
522.162	22.91046
522.364	24.16384
522.565	23.04946
522.767	23.75893
522.969	24.04373
523.17	23.53108
523.372	23.44686
523.573	23.08908
523.775	23.23702
523.977	22.52892
524.178	24.19734
524.38	22.59293
524.581	23.39536
524.783	22.83707
524.984	24.62042
525.186	25.35382
525.387	26.72593
525.589	27.11924
525.79	27.54449
525.991	28.08374
526.193	28.83632
526.394	28.23402
526.596	29.50442
526.797	30.44246
526.998	30.01744
527.2	32.03524
527.401	35.90407
527.602	39.07621
527.803	44.73515
528.005	48.542
528.206	52.64908
528.407	55.78663
528.608	56.79472
528.81	57.7966
529.011	56.36501
529.212	57.29025
529.413	54.10752
529.614	50.66902
529.815	47.20952
530.017	43.0647
530.218	38.32099
530.419	34.33104
530.62	32.42259
530.821	30.57804
531.022	27.92094
531.223	28.90044
531.424	28.05509
531.625	28.67177
531.826	28.18421
532.027	29.7903
532.228	32.35837
532.429	33.69479
532.63	35.17136
532.831	37.60283
533.032	38.20966
533.233	40.01659
533.433	39.49667
533.634	39.55693
533.835	38.21099
534.036	36.64829
534.237	34.80674
534.438	32.66767
534.638	29.63039
534.839	27.74901
535.04	26.59384
535.241	25.38615
535.441	26.47163
535.642	25.86134
535.843	25.69701
536.043	26.55744
536.244	27.21074
536.445	28.05314
536.645	28.99759
536.846	28.76264
537.047	28.72301
537.247	26.94782
537.448	26.16459
537.648	25.67944
537.849	24.69311
538.049	24.69588
538.25	24.73046
538.451	25.02319
538.651	23.81844
538.851	24.22666
539.052	24.95946
539.252	24.14267
539.453	23.31492
539.653	23.55326
539.854	23.56823
540.054	25.87233
540.254	29.24621
540.455	32.5882
540.655	34.49859
540.855	38.61492
541.056	41.16201
541.256	41.99593
541.456	43.56949
541.657	43.1121
541.857	43.66126
542.057	41.50623
542.257	39.93823
542.458	39.24327
542.658	36.80546
542.858	33.48741
543.058	32.17028
543.258	30.4122
543.458	27.72009
543.659	26.52733
543.859	26.64296
544.059	26.04863
544.259	24.74247
544.459	25.12181
544.659	24.27168
544.859	24.5868
545.059	24.09618
545.259	24.74841
545.459	24.32846
545.659	24.7526
545.859	24.26028
546.059	24.22469
546.259	23.82238
546.459	23.58096
546.659	23.91833
546.859	25.10159
547.059	24.97109
547.258	25.00834
547.458	25.26374
547.658	24.31298
547.858	24.33254
548.058	25.07941
548.258	24.82887
548.457	24.44304
548.657	26.36185
548.857	24.56561
549.057	25.40195
549.256	25.2964
549.456	24.10167
549.656	23.25307
549.855	25.79296
550.055	24.19903
550.255	25.78631
550.454	24.83252
550.654	24.90495
550.853	25.61187
551.053	25.04363
551.253	24.63706
551.452	24.69263
551.652	23.44391
551.851	23.09594
552.051	24.05836
552.25	23.64387
552.45	23.86962
552.649	24.52083
552.849	23.80042
553.048	24.69271
553.248	25.26621
553.447	24.00405
553.646	25.2888
553.846	26.42002
554.045	25.74218
554.244	23.88559
554.444	26.12803
554.643	24.39604
554.842	26.11224
555.042	26.92497
555.241	24.2907
555.44	24.14239
555.64	25.51057
555.839	26.51113
556.038	25.03404
556.237	24.18757
556.436	24.70411
556.636	25.31999
556.835	24.14588
557.034	26.13731
557.233	24.60941
557.432	23.77742
557.631	25.88663
557.83	24.59643
558.029	24.45039
558.228	24.19031
558.427	24.32778
558.626	25.59139
558.825	24.22389
559.024	24.44596
559.223	26.66393
559.422	24.59321
559.621	24.94252
559.82	22.75466
560.019	24.73547
560.218	24.43782
560.417	22.63307
560.616	24.05889
560.815	27.25329
561.014	23.56168
561.212	26.19566
561.411	24.8449
561.61	23.64401
561.809	24.78477
562.008	25.99439
562.206	24.42101
562.405	25.6283
562.604	24.5964
562.803	25.36085
563.001	24.90957
563.2	23.85701
563.399	25.25902
563.597	23.76636
563.796	24.66706
563.995	24.12088
564.193	25.36
564.392	24.50091
564.59	26.7397
564.789	23.22449
564.988	24.34195
565.186	25.18023
565.385	24.56409
565.583	24.40718
565.782	24.73726
565.98	25.11918
566.179	24.89393
566.377	24.67401
566.575	24.83167
566.774	26.756
566.972	26.17699
567.171	27.3584
567.369	26.65868
567.567	25.95306
567.766	25.74364
567.964	23.82382
568.162	25.90047
568.361	26.38524
568.559	25.13638
568.757	25.63853
568.956	25.54251
569.154	25.0881
569.352	25.59471
569.55	24.99392
569.748	25.3403
569.947	24.86145
570.145	24.43007
570.343	24.48757
570.541	26.13603
570.739	24.25122
570.937	25.13316
571.135	25.73007
571.333	26.8215
571.532	26.53301
571.73	25.69845
571.928	26.525
572.126	26.30822
572.324	25.07363
572.522	27.06207
572.72	28.3581
572.918	26.1151
573.116	26.43955
573.313	25.90475
573.511	26.20281
573.709	25.26286
573.907	26.37791
574.105	25.2952
574.303	24.37903
574.501	24.27311
574.699	25.98158
574.896	26.17323
575.094	26.12934
575.292	24.7177
575.49	26.49347
575.688	25.62271
575.885	26.96382
576.083	27.7963
576.281	26.61729
576.478	25.11745
576.676	26.30345
576.874	24.5821
577.071	25.66677
577.269	28.36545
577.467	25.99754
577.664	25.86707
577.862	27.03373
578.059	24.94406
578.257	26.80454
578.455	25.32977
578.652	26.44277
578.85	23.85224
579.047	25.75171
579.245	25.89151
579.442	25.56599
579.64	25.99659
579.837	24.09566
580.034	28.33814
580.232	25.46744
580.429	24.50823
580.627	26.02006
580.824	27.31933
581.021	26.12089
581.219	25.47173
581.416	24.81576
581.613	27.43065
581.811	27.7422
582.008	24.7666
582.205	26.87956
582.402	26.17381
582.6	28.35131
582.797	26.08466
582.994	25.8739
583.191	26.77077
583.388	25.62472
583.586	26.80324
583.783	26.7455
583.98	24.93451
584.177	26.57646
584.374	23.47225
584.571	25.64889
584.768	25.7927
584.965	25.0479
585.162	26.50143
585.359	27.99517
585.556	26.19969
585.753	25.92827
585.95	24.91584
586.147	25.54157
586.344	26.35526
586.541	25.64074
586.738	24.03411
586.935	25.58812
587.132	25.05182
587.329	26.92564
587.526	25.96147
587.722	30.89284
587.919	24.44729
588.116	26.27515
588.313	26.97816
588.51	27.95296
588.706	25.18261
588.903	26.64779
589.1	27.01506
589.297	28.06657
589.493	26.34763
589.69	26.67178
589.887	25.23349
590.083	25.34498
590.28	25.5345
590.477	26.56294
590.673	27.52442
590.87	27.50592
591.067	26.38257
591.263	27.163
591.46	26.8161
591.656	25.68059
591.853	27.86018
592.049	25.49594
592.246	25.35559
592.442	27.51119
592.639	27.12273
592.835	24.72152
593.032	26.40159
593.228	24.15313
593.425	24.33796
593.621	24.30635
593.817	26.21557
594.014	24.97274
594.21	25.93676
594.406	26.83786
594.603	26.56861
594.799	25.0112
594.995	23.47557
595.192	27.26536
595.388	25.47242
595.584	25.83873
595.78	24.48048
595.977	28.52699
596.173	27.65667
596.369	25.77552
596.565	25.02477
596.761	24.74943
596.957	27.80291
597.154	25.77387
597.35	26.17519
597.546	25.98743
597.742	27.97684
597.938	27.50167
598.134	26.50671
598.33	27.89177
598.526	28.83747
598.722	27.20625
598.918	29.62334
599.114	26.80926
599.31	25.55787
599.506	26.36446
599.702	25.61584
599.898	26.35998
600.094	27.03175
600.29	27.35708
600.485	27.18892
600.681	25.117
600.877	28.4923
601.073	25.7189
601.269	28.59052
601.465	27.26138
601.66	25.15522
601.856	23.42858
602.052	27.88876
602.248	25.40298
602.443	24.21578
602.639	24.83436
602.835	24.84954
603.03	24.60884
603.226	26.93725
603.422	24.55005
603.617	25.91327
603.813	25.7029
604.009	25.85576
604.204	27.588
604.4	25.12794
604.595	27.56672
604.791	25.2329
604.986	27.09469
605.182	26.53981
605.377	26.90824
605.573	27.0901
605.768	27.61798
605.964	28.23163
606.159	28.19134
606.355	28.69203
606.55	26.67949
606.746	28.65996
606.941	27.08667
607.136	29.38509
607.332	30.61004
607.527	25.13583
607.722	26.82386
607.918	25.79372
608.113	25.3107
608.308	27.35692
608.503	26.52903
608.699	26.49469
608.894	27.06871
609.089	25.38903
609.284	26.67192
609.479	26.18379
609.675	27.4778
609.87	26.67557
610.065	27.90725
610.26	28.57233
610.455	28.06065
610.65	27.27243
610.845	27.49276
611.04	28.59543
611.235	26.94334
611.43	26.78746
611.625	25.54398
611.82	28.66839
612.015	26.3567
612.21	28.66279
612.405	25.07163
612.6	29.30031
612.795	28.63874
612.99	27.55911
613.185	25.90679
613.38	25.89517
613.575	26.85092
613.77	30.9536
613.965	24.86547
614.159	25.57333
614.354	28.92415
614.549	27.9244
614.744	28.45096
614.938	24.96512
615.133	24.48976
615.328	28.90422
615.523	27.49961
615.717	31.19462
615.912	25.38786
616.107	27.06572
616.301	26.63632
616.496	26.21484
616.691	28.93802
616.885	28.48902
617.08	31.52427
617.274	27.74529
617.469	29.86295
617.664	27.83375
617.858	26.18383
618.053	27.95247
618.247	26.18269
618.442	23.69456
618.636	29.6388
618.831	25.8598
619.025	26.1329
619.219	31.17702
619.414	22.63025
619.608	26.76246
619.803	26.5438
619.997	30.06866
620.191	28.66449
620.386	27.85625
620.58	27.04147
620.774	24.4287
620.969	24.79502
621.163	26.64055
621.357	25.33978
621.551	26.50153
621.746	27.04163
621.94	26.08287
622.134	31.69791
622.328	30.75346
622.522	24.27818
622.716	27.95213
622.911	28.52773
623.105	28.47334
623.299	27.91718
623.493	32.0862
623.687	25.33799
623.881	25.73438
624.075	27.42124
624.269	29.06903
624.463	24.25869
624.657	24.62651
624.851	27.95116
625.045	27.98374
625.239	28.65442
625.433	26.53665
625.627	28.77722
625.821	25.91439
626.015	25.31468
626.209	27.38547
626.403	25.32016
626.596	27.75743
626.79	28.18463
626.984	25.60762
627.178	27.67391
627.372	28.63609
627.565	28.79617
627.759	25.85798
627.953	26.03438
628.147	28.68635
628.34	28.97479
628.534	31.31759
628.728	27.66342
628.921	28.77472
629.115	28.35074
629.309	29.54683
629.502	29.0205
629.696	27.75577
629.89	27.263
630.083	27.76029
630.277	28.45381
630.47	30.26066
630.664	27.28199
630.857	24.41704
631.051	29.3357
631.244	28.94456
631.438	28.38712
631.631	25.46786
631.825	29.81293
632.018	28.40601
632.212	29.98428
632.405	29.58629
632.598	25.94624
632.792	27.56375
632.985	23.69622
633.178	26.79314
633.372	26.91368
633.565	26.43192
633.758	29.77889
633.952	25.8128
634.145	26.09407
634.338	27.85122
634.531	26.6912
634.724	26.3034
634.918	27.69909
635.111	26.37969
635.304	26.84308
635.497	32.37669
635.69	28.02424
635.883	29.75591
636.077	26.12128
636.27	28.59378
636.463	27.93859
636.656	28.39235
636.849	27.26557
637.042	29.74066
637.235	29.89052
637.428	29.33002
637.621	29.15128
637.814	30.27351
638.007	30.50192
638.2	30.30867
638.393	31.61671
638.586	25.15199
638.778	27.22045
638.971	27.48463
639.164	30.81473
639.357	27.49988
639.55	30.93973
639.743	29.68345
639.935	29.18656
640.128	31.39258
640.321	29.0523
640.514	28.09916
640.707	32.27344
640.899	28.73724
641.092	24.08797
641.285	43.66087
641.477	24.13005
641.67	33.39753
641.863	30.51688
642.055	28.81667
642.248	26.97582
642.441	26.30374
642.633	29.51125
642.826	30.87744
643.018	30.43974
643.211	32.12365
643.403	32.14002
643.596	33.05805
643.788	30.97145
643.981	27.46106
644.173	30.89142
644.366	27.86951
644.558	24.00091
644.751	30.20855
644.943	24.8831
645.135	30.22062
645.328	31.98763
645.52	29.29665
645.712	31.10772
645.905	34.28611
646.097	25.54576
646.289	28.12343
646.482	33.39547
646.674	26.37946
646.866	31.30102
647.058	29.29731
647.251	25.80151
647.443	27.03859
647.635	27.93625
647.827	25.05761
648.019	27.3822
648.211	28.03579
648.404	28.05795
648.596	32.01552
648.788	28.22579
648.98	28.60368
649.172	29.6366
649.364	28.82254
649.556	24.87402
649.748	34.81743
649.94	25.95361
650.132	29.79567
650.324	25.71633
650.516	27.65781
650.708	30.80006
650.9	24.94974
651.092	27.55465
651.284	25.97449
651.476	25.98987
651.667	30.96162
651.859	30.73338
652.051	28.41916
652.243	28.5705
652.435	28.1511
652.627	30.84528
652.818	29.69624
653.01	25.70874
653.202	26.52417
653.394	27.31452
653.585	30.24268
653.777	39.13605
653.969	32.28509
654.16	31.5088
654.352	25.64569
654.544	27.6333
654.735	30.89435
654.927	29.30058
655.118	32.34354
655.31	30.26964
655.502	32.26489
655.693	28.07306
655.885	30.8048
656.076	31.68102
656.268	29.2466
656.459	32.85678
656.651	32.11457
656.842	27.75006
657.034	27.10805
657.225	30.68532
657.416	31.69452
657.608	32.34848
657.799	28.91832
657.99	31.65103
658.182	27.47796
658.373	27.54547
658.564	30.62522
658.756	28.92561
658.947	29.03518
659.138	26.65015
659.33	28.40958
659.521	28.05516
659.712	29.77191
659.903	29.42334
660.094	28.72219
660.286	26.84634
660.477	33.93769
660.668	31.60219
660.859	30.0582
661.05	26.05075
661.241	31.66679
661.432	31.07707
661.623	29.08392
661.814	29.23583
662.006	25.86841
662.197	30.02588
662.388	33.01799
662.579	29.83985
662.77	36.21616
662.96	36.30761
663.151	31.67808
663.342	25.75654
663.533	31.75116
663.724	30.22187
663.915	35.18814
664.106	28.89344
664.297	34.55343
664.488	31.45406
664.678	27.02501
664.869	32.29917
665.06	32.26194
665.251	30.41344
665.442	31.058
665.632	26.43477
665.823	34.20568
666.014	21.4468
666.204	31.24737
666.395	33.08925
666.586	37.98772
666.776	31.91667
666.967	35.17525
667.158	29.59938
667.348	32.92926
667.539	27.44207
667.729	31.692
667.92	27.64604
668.111	32.19414
668.301	32.01633
668.492	29.91997
668.682	29.08024
668.873	30.36732
669.063	27.10297
669.253	31.67571
669.444	32.5472
669.634	29.05607
669.825	36.12645
670.015	34.21214
670.206	27.81821
670.396	35.00992
670.586	30.02779
670.777	32.0157
670.967	24.02507
671.157	28.59854
671.347	27.19721
671.538	35.18862
671.728	31.87302
671.918	36.24366
672.108	32.7686
672.299	30.20725
672.489	31.28924
672.679	28.62248
672.869	30.81577
673.059	36.06247
673.249	32.71713
673.44	26.45314
673.63	31.20808
673.82	33.30793
674.01	27.93572
674.2	31.68975
674.39	38.67777
674.58	33.11805
674.77	30.22518
674.96	29.7036
675.15	42.73859
675.34	34.45187
675.53	30.43862
675.72	30.38926
675.91	25.96947
676.099	35.58326
676.289	38.04537
676.479	33.52635
676.669	29.87373
676.859	32.80279
677.049	28.77656
677.238	29.93565
677.428	36.32075
677.618	32.72572
677.808	35.92629
677.997	32.85017
678.187	26.8271
678.377	31.09163
678.567	28.55645
678.756	28.84957
678.946	30.6671
679.136	26.01795
679.325	28.81931
679.515	27.83716
679.704	27.58862
679.894	32.38884
680.084	32.5581
680.273	34.16271
680.463	30.41305
680.652	29.057
680.842	31.62622
681.031	34.87913
681.221	29.79435
681.41	34.56765
681.6	31.52765
681.789	34.74467
681.978	35.66261
682.168	33.60813
682.357	31.28614
682.547	32.9864
682.736	32.60614
682.925	37.55075
683.115	35.50426
683.304	35.18961
683.493	34.13664
683.682	33.89387
683.872	34.58588
684.061	36.90922
684.25	33.41572
684.439	37.70813
684.629	34.37813
684.818	44.37954
685.007	32.05042
685.196	31.88524
685.385	38.39737
685.574	33.20628
685.763	35.67744
685.952	33.80922
686.142	29.01223
686.331	37.79286
686.52	26.9541
686.709	39.65846
686.898	37.50638
687.087	34.99613
687.276	39.03668
687.465	36.41645
687.654	33.34447
687.842	37.6933
688.031	29.52935
688.22	37.85378
688.409	34.05111
688.598	33.85695
688.787	44.00169
688.976	33.55906
689.165	41.67517
689.353	32.7202
689.542	35.04256
689.731	36.69442
689.92	41.52675
690.108	37.07546
690.297	33.46754
690.486	33.54674
690.675	37.71424
690.863	41.20252
691.052	40.00024
691.241	33.31569
691.429	35.07235
691.618	40.61827
691.806	28.96063
691.995	32.35357
692.184	34.12656
692.372	31.23269
692.561	35.91705
692.749	32.79122
692.938	44.7791
693.126	36.45081
693.315	33.23618
693.503	37.3988
693.692	36.68314
693.88	38.48372
694.068	44.04725
694.257	35.10402
694.445	37.1884
694.634	26.12766
694.822	38.17629
695.01	39.89755
695.199	40.27698
695.387	40.45599
695.575	39.87906
695.763	34.80303
695.952	31.32112
696.14	29.65867
696.328	32.40003
696.516	35.13118
696.705	35.87454
696.893	36.39788
697.081	28.25035
697.269	37.23493
697.457	30.95671
697.645	30.81327
697.833	36.71842
698.021	32.09642
698.21	33.00788
698.398	34.11728
698.586	31.02127
698.774	30.97168
698.962	34.03907
699.15	31.82246
699.338	30.72952
699.526	37.47003
699.714	33.84918
699.901	33.69911
700.089	39.6922
700.277	33.39814
700.465	36.10493
700.653	40.71492
700.841	37.18563
701.029	33.10759
701.217	41.3369
701.404	35.72605
701.592	41.80317
701.78	44.97796
701.968	35.47166
702.155	36.03959
702.343	28.51133
702.531	40.63566
702.718	36.91616
702.906	35.66447
703.094	32.16376
703.281	42.78764
703.469	34.92922
703.657	41.17815
703.844	50.89927
704.032	44.38516
704.219	32.84079
704.407	38.20487
704.595	42.04629
704.782	36.65208
704.97	34.4542
705.157	33.89479
705.345	43.65578
705.532	50.5465
705.719	40.19534
705.907	43.04696
706.094	36.91179
706.282	45.56469
706.469	35.55001
706.656	37.74407
706.844	36.28527
707.031	41.24702
707.218	38.31118
707.406	45.90761
707.593	40.68463
707.78	40.59812
707.968	37.67852
708.155	33.35059
708.342	40.1146
708.529	39.97062
708.716	37.88591
708.904	45.83915
709.091	42.23394
709.278	32.59552
709.465	49.17764
709.652	46.31784
709.839	46.75556
710.026	40.59945
710.213	31.0051
710.4	40.19173
710.587	42.07557
710.774	44.73587
710.961	44.23097
711.148	39.19414
711.335	45.03154
711.522	36.36431
711.709	40.39367
711.896	51.23913
712.083	43.49183
712.27	35.79652
712.457	40.93257
712.644	33.475
712.831	50.32496
713.017	41.14185
713.204	42.89821
713.391	37.26777
713.578	45.09439
713.765	47.76123
713.951	41.4531
714.138	58.33488
714.325	42.49688
714.512	41.37517
714.698	36.02928
714.885	48.90027
715.072	42.16302
715.258	41.5257
715.445	37.5899
715.631	47.4769
715.818	28.93055
716.005	37.75282
716.191	45.02281
716.378	38.71744
716.564	46.90396
716.751	37.29827
716.937	38.20151
717.124	46.86396
717.31	37.33696
717.497	51.06493
717.683	38.8004
717.869	55.77681
718.056	40.39476
718.242	43.74163
718.429	40.65418
718.615	34.71795
718.801	41.61043
718.988	45.52421
719.174	45.97769
719.36	43.17009
719.547	47.60969
719.733	43.59327
719.919	45.54139
720.105	49.30319
720.291	41.33878
720.478	42.65796
720.664	41.11491
720.85	40.31198
721.036	59.71409
721.222	52.00785
721.408	41.91739
721.595	53.99702
721.781	53.58416
721.967	48.75891
722.153	54.84369
722.339	45.67978
722.525	43.99692
722.711	37.91626
722.897	35.15783
723.083	40.09484
723.269	46.71785
723.455	61.61466
723.641	64.41586
723.827	44.70411
724.012	47.83387
724.198	41.50054
724.384	52.49426
724.57	46.57165
724.756	33.98337
724.942	32.40332
725.127	48.82687
725.313	54.3042
725.499	52.02684
725.685	56.68446
725.87	44.43773
726.056	37.10788
726.242	52.49199
726.428	32.22264
726.613	51.46632
726.799	42.61054
726.985	36.21612
727.17	33.54315
727.356	55.70867
727.541	35.86934
727.727	43.52994
727.913	47.36489
728.098	40.13296
728.284	48.29863
728.469	35.88002
728.655	38.5744
728.84	49.71373
729.026	49.77409
729.211	48.34883
729.397	47.06948
729.582	48.84078
729.767	44.55762
729.953	47.23306
730.138	52.61882
730.323	30.00114
730.509	37.2389
730.694	53.80449
730.879	47.72877
731.065	44.89857
731.25	59.8946
731.435	49.29533
731.621	34.82119
731.806	41.28325
731.991	45.34357
732.176	36.06721
732.361	55.36545
732.547	48.97841
732.732	35.37826
732.917	62.99171
733.102	36.33409
733.287	37.97831
733.472	44.79571
733.657	45.19613
733.842	36.08448
734.027	41.57691
734.212	42.52623
734.397	41.12742
734.582	46.00246
734.767	52.69093
734.952	55.42966
735.137	27.83481
735.322	57.65455
735.507	47.73804
735.692	46.40184
735.877	60.1903
736.062	59.12196
736.247	49.97838
736.431	43.23997
736.616	52.84074
736.801	46.8259
736.986	45.32851
737.171	38.26324
737.355	34.44477
737.54	52.74145
737.725	45.80192
737.909	65.79796
738.094	40.92383
738.279	54.22261
738.463	42.72324
738.648	51.3548
738.833	50.02118
739.017	60.82701
739.202	43.52958
739.386	44.10529
739.571	37.71089
739.756	52.56401
739.94	45.21199
740.125	53.81898
740.309	38.66456
740.494	53.38832
740.678	46.55276
740.863	52.78442
741.047	49.43295
741.231	58.25611
741.416	41.58795
741.6	60.09396
741.785	40.07153
741.969	55.67764
742.153	58.47577
742.338	32.3407
742.522	45.91107
742.706	52.50347
742.89	37.90384
743.075	49.68219
743.259	58.24787
743.443	55.97701
743.627	57.30861
743.812	65.50588
743.996	33.11064
744.18	44.69659
744.364	43.47285
744.548	70.8207
744.732	46.44374
744.916	56.68758
745.1	52.12089
745.285	45.03908
745.469	52.35841
745.653	60.62995
745.837	37.55629
746.021	69.45242
746.205	57.90636
746.389	48.44092
746.573	44.64388
746.757	62.88357
746.94	45.17256
747.124	60.15154
747.308	37.2955
747.492	57.90902
747.676	42.12431
747.86	73.61561
748.044	45.29218
748.227	31.75939
748.411	85.05961
748.595	52.23964
748.779	39.51006
748.963	51.46178
749.146	51.12183
749.33	41.42518
749.514	39.43735
749.697	58.15905
749.881	44.90043
750.065	39.32592
750.248	48.04537
750.432	70.13179
750.616	47.84221
750.799	36.36648
750.983	69.777
751.166	78.16348
751.35	36.14209
751.533	51.97973
751.717	63.28436
751.9	62.05001
752.084	46.93166
752.267	36.02676
752.451	45.42526
752.634	48.85387
752.818	56.06286
753.001	58.2573
753.184	61.49276
753.368	52.69563
753.551	20.15304
753.734	41.13994
753.918	69.83684
754.101	43.68456
754.284	54.70916
754.467	45.03861
754.651	44.92967
754.834	42.99416
755.017	61.27273
755.2	60.55255
755.384	38.08659
755.567	56.94122
755.75	59.30471
755.933	47.62794
756.116	49.38217
756.299	44.48268
756.482	42.29329
756.665	56.77295
756.848	49.24213
757.032	59.24463
757.215	34.01526
757.398	42.70174
757.581	39.13308
757.764	78.48866
757.947	46.40422
758.129	64.29416
758.312	22.66023
758.495	47.78609
758.678	51.16262
758.861	44.54616
759.044	70.94914
759.227	40.34328
759.41	41.97481
759.592	58.34656
759.775	49.35753
759.958	61.09095
760.141	39.8963
760.324	76.53887
760.506	64.83831
760.689	61.07099
760.872	74.94699
761.054	56.25742
761.237	45.14959
761.42	54.37124
761.602	59.03552
761.785	53.96764
761.968	63.00186
762.15	70.64655
762.333	47.45886
762.515	52.14728
762.698	45.62313
762.88	57.93255
763.063	50.60048
763.245	57.38107
763.428	40.41481
763.61	45.31153
763.793	37.47129
763.975	51.30522
764.158	44.71589
764.34	46.73102
764.522	43.47016
764.705	48.11381
764.887	62.45762
765.069	37.06713
765.252	57.69423
765.434	57.49931
765.616	52.72753
765.799	45.57177
765.981	58.12095
766.163	44.69404
766.345	61.854
766.528	46.25767
766.71	26.7009
766.892	52.36423
767.074	66.27997
767.256	50.21882
767.438	69.96722
767.62	56.66566
767.802	76.14639
767.985	60.53129
768.167	73.90099
768.349	47.18894
768.531	57.929
768.713	57.59103
768.895	61.62626
769.077	56.83906
769.259	84.11597
769.441	114.64878
769.623	62.70875
769.804	75.01796
769.986	69.46925
770.168	86.8626
770.35	93.20611
770.532	75.55517
770.714	81.44596
770.896	87.26957
771.077	41.72053
771.259	87.41297
771.441	69.33524
771.623	93.87426
771.804	109.74542
771.986	38.08593
772.168	59.49231
772.35	91.70008
772.531	109.58561
772.713	66.65954
772.894	92.85252
773.076	71.90291
773.258	62.31377
773.439	95.44179
773.621	108.77181
773.802	55.5096
773.984	62.1692
774.166	74.27172
774.347	107.23033
774.529	88.82591
774.71	32.52547
774.891	66.01961
775.073	60.71323
775.254	95.06918
775.436	58.25806
775.617	113.07687
775.799	57.36684
775.98	98.26408
776.161	105.75415
776.343	106.30507
776.524	70.85363
776.705	60.02607
776.886	37.89896
777.068	76.16793
777.249	132.10233
777.43	113.97039
777.611	53.19351
777.793	68.18647
777.974	101.25313
778.155	62.62383
778.336	52.02668
778.517	114.48393
778.698	61.81102
778.879	36.36073
779.061	23.13195
779.242	78.12814
779.423	79.5149
779.604	64.03208
779.785	70.92732
779.966	73.77482
780.147	96.50597
780.328	92.03791
780.509	127.06333
780.69	90.37158
780.871	62.62194
781.051	48.60495
781.232	78.03016
781.413	72.46953
781.594	61.98991
781.775	62.14524
781.956	58.95981
782.137	33.69386
782.317	59.49186
782.498	79.90181
782.679	78.5603
782.86	80.46283
783.04	58.25902
783.221	85.08864
783.402	107.40696
783.583	80.53088
783.763	88.10895
783.944	62.29804
784.124	44.06485
784.305	104.68023
784.486	82.88557
784.666	70.17653
784.847	45.11475
785.027	132.67325
785.208	61.33096
785.388	62.39614
785.569	63.05568
785.749	69.66916
785.93	63.92052
786.11	46.47725
786.291	79.88033
786.471	77.25069
786.652	87.26795
786.832	71.98807
787.012	78.26873
787.193	50.81852
787.373	77.82999
787.553	65.19244
787.734	78.6564
787.914	62.7187
788.094	86.72079
788.275	83.75892
788.455	65.31498
788.635	49.25296
788.815	73.18723
788.995	53.64877
789.176	46.59285
789.356	54.63945
789.536	63.78626
789.716	81.7442
789.896	58.86271
790.076	60.78112
790.256	81.3931
790.436	31.38528
790.616	56.94444
790.796	75.65634
790.976	70.33106
791.156	60.95288
791.336	84.85232
791.516	80.37043
791.696	69.57634
791.876	46.18308
792.056	73.07041
792.236	91.83645
792.416	88.12279
792.596	81.31353
792.776	81.99188
792.956	83.35711
793.135	107.81403
793.315	50.35486
793.495	93.26615
793.675	90.79461
793.854	87.19103
794.034	90.84452
794.214	51.62383
794.394	89.39102
794.573	93.5663
794.753	74.13671
794.933	59.6896
795.112	78.41532
795.292	87.34462
795.472	110.74014
795.651	48.05519
795.831	72.53543
796.01	66.97862
796.19	64.17768
796.369	73.68934
796.549	82.94123
796.728	70.40291
796.908	51.73381
797.087	47.49937
797.267	65.52185
797.446	47.31729
797.626	82.60839
797.805	82.01799
797.984	60.13989
798.164	86.15014
798.343	58.26874
798.522	76.62722
798.702	72.57537
798.881	47.52205
799.06	62.1223
799.239	37.67136
799.419	52.90287
799.598	104.28867
799.777	85.42835
799.956	93.82096
800.136	62.5704
800.315	57.75988
800.494	79.84471
800.673	95.65307
800.852	86.43961
801.031	94.32727
801.21	88.08169
801.389	65.59514
801.568	75.51291
801.747	114.28607
801.926	72.52109
802.105	107.31969
802.284	66.59594
802.463	109.86981
802.642	80.1578
802.821	74.30078
803	102.59768
803.179	98.67053
803.358	97.51924
803.537	56.53782
803.716	78.83845
803.895	53.29602
804.073	68.04825
804.252	61.90255
804.431	78.30226
804.61	64.26225
804.789	97.69361
804.967	60.50979
805.146	61.13403
805.325	119.65653
805.503	88.55101
805.682	50.03782
805.861	138.05421
806.039	104.59203
806.218	62.78873
806.397	79.87006
806.575	74.17034
806.754	84.47497
806.932	49.43278
807.111	113.7347
807.289	101.94191
807.468	81.61528
807.646	99.79208
807.825	87.60403
808.003	84.02201
808.182	101.67342
808.36	77.09984
808.539	61.73959
808.717	104.16784
808.895	55.51436
809.074	80.40541
809.252	75.07044
809.43	97.75186
809.609	106.43169
809.787	120.48999
809.965	73.73065
810.144	82.90465
810.322	74.49575
810.5	83.43227
810.678	74.90383
810.856	125.35042
811.035	106.09732
811.213	105.39822
811.391	103.8868
811.569	85.17675
811.747	162.5439
811.925	112.1307
812.103	60.21873
812.281	79.59824
812.459	130.49026
812.637	129.23024
812.816	106.92335
812.994	134.5491
813.171	111.88714
813.349	98.25009
813.527	115.60627
813.705	113.41841
813.883	137.62011
814.061	108.78651
814.239	123.92618
814.417	136.81123
814.595	102.94363
814.773	85.47043
814.95	85.62497
815.128	89.96616
815.306	91.45892
815.484	87.42262
815.662	60.45887
815.839	56.96476
816.017	64.65804
816.195	118.26095
816.372	69.97126
816.55	105.95536
816.728	122.64142
816.905	78.9188
817.083	107.34944
817.261	82.63266
817.438	157.13472
817.616	131.45365
817.793	63.9165
817.971	102.94295
818.148	97.91708
818.326	126.63645
818.503	86.43771
818.681	124.4684
818.858	73.93721
819.036	81.03648
819.213	82.60653
819.391	68.24818
819.568	59.57545
819.745	58.28556
819.923	98.64411
820.1	77.41109
820.277	60.1208
820.455	72.78207
820.632	72.13995
820.809	74.33782
820.986	53.10197
821.164	46.59617
821.341	41.72027
821.518	54.47085
821.695	45.72586
821.872	43.41441
822.05	39.51801
822.227	36.45005
822.404	37.74231
822.581	41.07628
822.758	38.78292
822.935	38.50791
823.112	42.2649
823.289	38.97088
823.466	43.73143
823.643	42.93687
823.82	49.01288
823.997	46.95664
824.174	52.18704
824.351	60.27418
824.528	59.36934
824.705	57.82352
824.882	57.97917
825.059	69.40803
825.236	56.05596
825.412	57.6988
825.589	62.84622
825.766	80.7438
825.943	54.96377
826.12	62.21942
826.296	49.7319
826.473	56.18293
826.65	57.25206
826.827	63.13285
827.003	47.98419
827.18	52.84866
827.357	57.56122
827.533	50.49025
827.71	37.47327
827.887	47.73941
828.063	54.45936
828.24	48.70523
828.416	58.25765
828.593	54.83506
828.769	71.52309
828.946	71.78939
829.122	74.51374
829.299	76.37446
829.475	47.52259
829.652	75.24451
829.828	105.74483
830.005	76.04833
830.181	96.2258
830.357	69.1869
830.534	95.71316
830.71	79.86369
830.886	97.43098
831.063	89.97583
831.239	111.07679
831.415	61.2432
831.592	119.96141
831.768	78.82744
831.944	65.15415
832.12	119.42631
832.296	113.21357
832.473	95.72942
832.649	62.35591
832.825	91.99893
833.001	56.61032
833.177	78.00309
833.353	72.73149
833.529	45.59791
833.705	63.47734
833.881	49.85876
834.058	50.31776
834.234	53.32135
834.41	52.02704
834.586	44.51762
834.761	52.62454
834.937	56.84277
835.113	58.17195
835.289	54.22325
835.465	61.19202
835.641	56.74543
835.817	60.30282
835.993	102.65686
836.169	57.41237
836.344	80.32144
836.52	90.11715
836.696	90.19186
836.872	66.8217
837.048	162.34176
837.223	79.01215
837.399	148.29913
837.575	107.01806
837.75	105.36856
837.926	139.74367
838.102	232.11723
838.277	182.68997
838.453	239.03603
838.628	228.70447
838.804	91.84709
838.98	230.679
839.155	114.56442
839.331	158.05548
839.506	109.71488
839.682	101.44094
839.857	126.80201
840.033	147.66154
840.208	79.15564
840.384	39.67915
840.559	82.31684
840.734	111.06784
840.91	156.6016
841.085	97.68091
841.26	106.17291
841.436	92.70173
841.611	102.52234
841.786	128.63551
841.962	184.77441
842.137	130.52984
842.312	81.54015
842.487	120.44594
842.663	92.65605
842.838	114.93993
843.013	323.11017
843.188	209.11645
843.363	141.36896
843.538	297.02551
843.714	352.36437
843.889	328.22169
844.064	324.39932
844.239	252.58429
844.414	510.07003
844.589	273.85184
844.764	405.33943
844.939	388.69575
845.114	431.61598
845.289	428.9197
845.464	497.93914
845.639	385.27433
845.814	203.05093
845.989	335.45408
846.163	261.03478
846.338	343.88844
846.513	435.78799
846.688	240.47297
846.863	312.87427
847.038	251.48019
847.212	324.96658
847.387	369.86419
847.562	300.02847
847.737	470.1732
847.911	194.50434
848.086	183.69118
848.261	510.75875
848.435	281.59065
848.61	371.66017
848.785	229.61628
848.959	444.76156
849.134	466.5175
849.308	640.26057
849.483	336.82658
849.658	552.58635
849.832	282.86186
850.007	265.40228
850.181	665.05978
850.356	317.35611
850.53	795.00996
850.705	352.19989
850.879	145.02254
851.053	316.03316
851.228	319.68092
851.402	491.21134
851.577	493.81287
851.751	571.18641
851.925	343.53269
852.099	160.35917
852.274	239.77512
852.448	331.30958
852.622	481.1323
852.797	332.51857
852.971	349.58579
853.145	417.43138
853.319	759.65953
853.493	659.20521
853.668	486.48926
853.842	771.23544
854.016	510.59285
854.19	686.70003
854.364	350.31343
854.538	361.64499
854.712	759.43752
854.886	416.45567
855.06	319.66532
855.234	128.34498
855.408	683.40371
855.582	413.94771
855.756	646.72026
855.93	569.48711
856.104	575.67029
856.278	556.5939
856.452	398.8714
856.626	407.40568
856.8	967.80808
856.973	401.923
857.147	477.73422
857.321	482.28452
857.495	520.12664
857.669	339.82826
857.842	433.5169
858.016	624.97858
858.19	258.38188
858.364	776.20198
858.537	380.29814
858.711	559.54936
858.885	443.17706
859.058	271.6732
859.232	186.50266
859.405	148.79333
859.579	496.51912
859.753	528.64768
859.926	230.66529
860.1	226.66719
860.273	385.81154
860.447	496.08155
860.62	374.9106
860.794	622.58029
860.967	368.74549
861.141	522.23424
861.314	799.81112
861.487	442.13629
861.661	459.1252
861.834	520.91708
862.008	666.16269
862.181	434.59872
862.354	513.01152
862.528	494.44797
862.701	322.83187
862.874	185.98152
863.047	315.77146
863.221	289.70128
863.394	167.88323
863.567	443.27984
863.74	169.0032
863.913	513.14836
864.087	523.75401
864.26	463.76484
864.433	360.85953
864.606	603.93115
864.779	382.83568
864.952	176.19263
865.125	371.47383
865.298	320.67286
865.471	343.37736
865.644	759.64893
865.817	511.7729
865.99	489.00644
866.163	478.0263
866.336	251.34539
866.509	327.79334
866.682	588.9106
866.855	702.7903
867.028	206.59086
867.2	390.98065
867.373	145.29056
867.546	377.70425
867.719	660.93618
867.892	448.86004
868.064	264.25968
868.237	340.62033
868.41	372.72136
868.583	196.72404
868.755	225.11516
868.928	456.54333
869.101	807.32117
869.273	523.10884
869.446	518.30082
869.619	591.55422
869.791	388.27582
869.964	488.28116
870.136	851.24122
870.309	363.33208
870.481	419.86912
870.654	223.27045
870.826	335.52157
870.999	205.92164
871.171	445.19271
871.344	245.63134
871.516	280.30925
871.689	244.62742
871.861	340.58904
872.033	272.97673
872.206	263.78979
872.378	350.04628
872.55	359.32012
872.723	201.56175
872.895	333.16412
873.067	454.2625
873.24	393.91731
873.412	349.80599
873.584	357.61409
873.756	344.07792
873.928	483.64471
874.101	359.87078
874.273	414.84995
874.445	134.0476
874.617	270.22982
874.789	330.78166
874.961	342.52939
875.133	362.97722
875.305	399.67116
875.477	315.86028
875.649	185.60384
875.821	176.65396
875.993	621.63259
876.165	296.26875
876.337	390.03146
876.509	305.61093
876.681	418.10025
876.853	359.74049
877.025	338.49619
877.197	248.35693
877.369	161.96617
877.541	352.42781
877.712	112.00376
877.884	185.19424
878.056	360.24803
878.228	188.13837
878.4	401.1504
878.571	182.84647
878.743	126.15179
878.915	285.86612
879.086	139.61903
879.258	188.21516
879.43	183.80725
879.601	147.70928
879.773	155.3067
879.945	43.57044
880.116	68.51809
880.288	44.20983
880.459	45.96494
880.631	43.12612
880.802	48.46208
880.974	46.4461
881.145	35.41202
881.317	45.77669
881.488	38.98882
881.66	42.32499
881.831	40.08288
882.002	47.50738
882.174	42.32745
882.345	48.26238
882.517	35.59037
882.688	55.56501
882.859	49.81677
883.03	70.34045
883.202	67.05019
883.373	61.31504
883.544	62.49273
883.715	91.98318
883.887	81.44879
884.058	70.68654
884.229	99.59168
884.4	94.40459
884.571	115.20108
884.742	96.25438
884.914	110.34287
885.085	134.36037
885.256	185.1358
885.427	162.31949
885.598	185.32634
885.769	181.2218
885.94	195.67621
886.111	133.70092
886.282	209.93626
886.453	182.76101
886.624	127.09723
886.795	246.21205
886.966	198.82483
887.136	256.23023
887.307	165.99237
887.478	334.76289
887.649	291.14317
887.82	282.90723
887.991	242.67401
888.161	367.43474
888.332	361.85001
888.503	155.79496
888.674	395.03008
888.844	557.01625
889.015	355.98075
889.186	217.6029
889.356	515.60259
889.527	219.02751
889.698	670.63974
889.868	257.95057
890.039	407.35155
890.209	309.59794
890.38	404.87186
890.551	350.44538
890.721	421.54317
890.892	460.52906
891.062	447.86747
891.233	540.91088
891.403	418.32492
891.574	300.60552
891.744	258.19529
891.914	351.64824
892.085	426.05627
892.255	131.28464
892.425	465.36718
892.596	344.59716
892.766	393.05553
892.936	418.28471
893.107	417.06896
893.277	174.39803
893.447	187.20513
893.618	114.56294
893.788	208.79965
893.958	131.02733
894.128	110.72888
894.298	133.82597
894.468	164.8403
894.639	79.2724
894.809	64.04634
894.979	82.62898
895.149	106.80183
895.319	81.0399
895.489	117.51545
895.659	153.13325
895.829	99.55253
895.999	103.39032
896.169	89.16005
896.339	111.73448
896.509	216.67821
896.679	225.71005
896.849	258.89126
897.019	302.29049
897.189	267.49848
897.358	255.99546
897.528	367.69523
897.698	230.82536
897.868	333.46487
898.038	677.6302
898.208	642.51727
898.377	245.25447
898.547	994.77489
898.717	1438.37053
898.886	452.39632
899.056	639.52357
899.226	1538.41538
899.395	732.35567
899.565	1211.15716
899.735	806.90195
899.904	931.29265
900.074	1079.97228
900.244	300.25862
900.413	1259.59276
900.583	398.26229
900.752	1271.45823
900.922	1031.11322
901.091	215.07439
901.261	1674.90351
901.43	557.72365
901.599	2277.7098
901.769	1484.23909
901.938	1127.71531
902.108	1614.4172
902.277	812.23896
902.446	390.9932
902.616	385.8373
902.785	584.49734
902.954	700.97662
903.124	500.83936
903.293	279.97811
903.462	149.26569
903.631	216.35962
903.801	153.59139
903.97	72.35659
904.139	125.40359
904.308	98.98841
904.477	82.99857
904.646	51.08182
904.816	74.70423
904.985	121.31858
905.154	166.75054
