Data from WindowProjectSample_Transmission__57__00057__08177316153488021.txt Node

Date: Mon May 05 18:20:21 EDT 2025
User: jessi
Spectrometer: SR400872
Trigger mode: 0
Integration Time (sec): 5.000010E-1
Scans to average: 20
Electric dark correction enabled: true
Nonlinearity correction enabled: true
Boxcar width: 0
XAxis mode: Wavelengths
Number of Pixels in Spectrum: 3648
>>>>>Begin Spectral Data<<<<<
184.909	20381.92104
185.132	-5016.7317
185.355	-2999.7686
185.578	-17387.13044
185.801	1877.81686
186.024	10182.98196
186.247	-1574.28562
186.47	1075.93654
186.693	260.34287
186.916	279.72556
187.139	-3629.71379
187.362	3358.62845
187.585	3987.5237
187.808	3426.11883
188.031	-59.28249
188.254	-53693.28979
188.476	-726.32026
188.699	6229.79778
188.922	503.81422
189.145	-14856.38957
189.368	-697.01829
189.591	-1271.66648
189.813	3074.10264
190.036	-49000.69328
190.259	-804.77844
190.482	-4680.74368
190.705	7197.09422
190.927	-2662.01759
191.15	12747.84788
191.373	3286.1803
191.595	-8475.1496
191.818	-3990.5486
192.041	-7155.17584
192.263	-3408.65544
192.486	-798.28765
192.709	-3901.04147
192.931	7649.2749
193.154	-28027.36816
193.377	-2805.31219
193.599	-2452.84627
193.822	-8644.99391
194.044	-1854.55595
194.267	1253.32107
194.489	313.64554
194.712	-41620.07706
194.934	-31230.01758
195.157	1056.24794
195.379	1355.82479
195.602	-6729.30635
195.824	-1268.34325
196.047	-8505.12667
196.269	2629.21581
196.492	-6326.15484
196.714	28391.97168
196.936	-8393.07532
197.159	-1153.63705
197.381	1243.54661
197.604	479.94922
197.826	11214.68239
198.048	-11257.5782
198.271	-2713.88781
198.493	7224.58355
198.715	2404.60496
198.938	-377.65217
199.16	6951.3502
199.382	-99302.01893
199.604	2775.79012
199.827	-1028.16698
200.049	-2647.7148
200.271	14461.21252
200.493	1163.76402
200.715	-36701.72327
200.938	-5792.54189
201.16	-4095.79535
201.382	20512.4535
201.604	2355.68015
201.826	2228.03001
202.048	-1927.10036
202.27	-1867.44137
202.492	-38213.01795
202.715	2811.00503
202.937	-4513.54342
203.159	-6439.70183
203.381	1406.37818
203.603	6408.29266
203.825	6127.77368
204.047	2167.53287
204.269	-2822.10843
204.491	2217.46306
204.713	5782.58498
204.935	-478750.09829
205.156	1149.72012
205.378	-2730.90143
205.6	1558.7687
205.822	150495.66009
206.044	-887.46489
206.266	1436.37422
206.488	4743.2718
206.71	-5033.89907
206.932	1126.73483
207.153	11810.79439
207.375	-6599.89717
207.597	-37804.5661
207.819	-2645.41596
208.041	2368.21068
208.262	477.03087
208.484	684.57118
208.706	-777.38735
208.927	-744.0649
209.149	523.7493
209.371	-2892.13702
209.593	-243.15914
209.814	-835.11273
210.036	558.49608
210.258	-635.2687
210.479	1722.80038
210.701	1670.68144
210.922	3309.82958
211.144	-3826.12027
211.366	2097.66431
211.587	7675.96727
211.809	-8126.04993
212.03	2379.86272
212.252	529.94679
212.473	2252.69702
212.695	-6647.68557
212.916	2918.63469
213.138	-782.81795
213.359	3592.07206
213.581	5400.11838
213.802	-878.68221
214.024	1079.21769
214.245	1960.16555
214.466	2198.05798
214.688	-3054.30119
214.909	-1172.15564
215.131	-1728.65389
215.352	-3107.02884
215.573	14662.73114
215.795	4937.69172
216.016	5400.34267
216.237	817.95012
216.459	3657.35279
216.68	1736.09087
216.901	5076.66911
217.122	-3172.07249
217.344	-11421.09703
217.565	3397.05787
217.786	8951.72205
218.007	16176.68373
218.228	-757.66549
218.45	5917.87808
218.671	906.40241
218.892	35260.12002
219.113	1552.65246
219.334	-382.08705
219.555	9821.37701
219.776	3107.4322
219.997	21944.98234
220.219	2679.57556
220.44	-11305.96197
220.661	464.8768
220.882	1496.73724
221.103	-1100.02914
221.324	2148.40496
221.545	2172.536
221.766	-8723.75474
221.987	835.16358
222.208	1656.49404
222.429	4194.85252
222.65	350.33918
222.87	19728.42665
223.091	734.71706
223.312	603.99693
223.533	1407.63267
223.754	1473.8101
223.975	1325.3067
224.196	1932.16447
224.417	1293.05884
224.637	614.39584
224.858	115.1161
225.079	1047.88564
225.3	685.83737
225.521	3691.82244
225.741	451.08725
225.962	493.62057
226.183	134.71436
226.404	639.18287
226.624	424.52626
226.845	593.42878
227.066	411.69527
227.286	244.7757
227.507	118.9652
227.728	109.86585
227.948	232.18384
228.169	70.38484
228.389	83.39896
228.61	46.37853
228.831	61.44252
229.051	2.51379
229.272	37.7655
229.492	55.68428
229.713	14.60125
229.933	37.07286
230.154	31.74552
230.374	53.95512
230.595	37.40386
230.815	23.40429
231.036	38.23506
231.256	-8.71403
231.477	64.00417
231.697	37.30975
231.917	40.90822
232.138	55.64345
232.358	103.87798
232.579	99.48755
232.799	18.19476
233.019	99.07934
233.24	110.87942
233.46	36.26637
233.68	62.2315
233.901	42.48094
234.121	26.15307
234.341	11.69725
234.561	-5.01836
234.782	21.12082
235.002	68.35087
235.222	-4.22124
235.442	63.81303
235.662	35.90392
235.883	62.23115
236.103	49.84292
236.323	35.29885
236.543	27.80824
236.763	39.61844
236.983	41.6197
237.203	40.37519
237.423	57.31702
237.643	84.04131
237.864	72.88255
238.084	17.81296
238.304	26.67423
238.524	45.31292
238.744	42.65984
238.964	75.82407
239.184	62.12126
239.404	63.03208
239.624	34.45025
239.843	57.91538
240.063	35.99883
240.283	20.91554
240.503	25.76498
240.723	24.99649
240.943	13.6275
241.163	19.08198
241.383	14.56934
241.603	7.08528
241.822	9.59118
242.042	6.16256
242.262	8.33239
242.482	9.69611
242.702	10.29955
242.921	2.88834
243.141	6.218
243.361	6.09245
243.581	9.33717
243.8	7.19749
244.02	4.98233
244.24	9.30458
244.459	8.82535
244.679	17.81987
244.899	11.04887
245.118	12.05021
245.338	11.84679
245.558	13.32615
245.777	8.16459
245.997	10.30271
246.216	10.35457
246.436	6.54463
246.655	4.51486
246.875	3.13397
247.094	6.2219
247.314	2.04286
247.533	3.42197
247.753	4.30489
247.972	3.29597
248.192	1.13045
248.411	1.7029
248.631	3.47966
248.85	4.52387
249.07	3.81457
249.289	5.66093
249.508	4.93107
249.728	7.53235
249.947	7.03254
250.166	8.54994
250.386	4.03066
250.605	7.04152
250.824	10.7649
251.044	7.17173
251.263	28.11087
251.482	14.07016
251.701	11.66775
251.921	-0.47776
252.14	3.16143
252.359	4.21361
252.578	9.93196
252.798	3.11801
253.017	8.79909
253.236	3.99148
253.455	5.82885
253.674	10.40466
253.893	4.89299
254.112	7.9302
254.331	10.91897
254.551	8.11098
254.77	3.50057
254.989	13.38637
255.208	9.53962
255.427	14.23002
255.646	10.91565
255.865	21.55801
256.084	7.87331
256.303	10.34877
256.522	13.54485
256.741	2.61484
256.96	3.39492
257.179	7.52956
257.397	10.39197
257.616	5.50457
257.835	5.95526
258.054	14.8747
258.273	10.30793
258.492	10.90906
258.711	6.30946
258.93	2.97287
259.148	4.84396
259.367	4.39111
259.586	5.56341
259.805	2.35568
260.023	5.1963
260.242	3.83543
260.461	2.80041
260.68	1.28353
260.898	4.30679
261.117	1.23679
261.336	0.9613
261.554	3.45377
261.773	3.06797
261.992	0.70406
262.21	3.32529
262.429	3.26563
262.648	7.30687
262.866	8.00192
263.085	5.40671
263.303	4.79919
263.522	8.78654
263.74	8.70318
263.959	15.05332
264.178	6.84763
264.396	6.25956
264.615	4.58644
264.833	10.55105
265.051	8.61439
265.27	10.51348
265.488	11.14354
265.707	5.91904
265.925	10.53823
266.144	4.5872
266.362	5.81298
266.58	5.47565
266.799	4.95459
267.017	5.89078
267.235	5.16478
267.454	3.28394
267.672	1.98553
267.89	4.20678
268.109	4.27908
268.327	4.3457
268.545	0.81174
268.763	3.86304
268.982	1.35477
269.2	4.30371
269.418	3.1467
269.636	1.84547
269.854	4.69122
270.073	3.19307
270.291	1.93174
270.509	1.87478
270.727	4.21514
270.945	6.97982
271.163	7.01439
271.381	1.3983
271.599	3.00794
271.817	5.34801
272.036	1.80729
272.254	3.18792
272.472	2.2999
272.69	2.4566
272.908	2.3773
273.126	4.2833
273.344	5.16536
273.562	1.73968
273.779	2.62339
273.997	3.77933
274.215	4.06689
274.433	2.91869
274.651	4.44663
274.869	4.76226
275.087	2.82442
275.305	3.96519
275.523	2.37616
275.74	2.83795
275.958	5.34565
276.176	7.88634
276.394	2.54923
276.612	3.20598
276.829	3.2223
277.047	2.51767
277.265	2.96295
277.483	3.43998
277.7	4.19935
277.918	3.48495
278.136	6.20049
278.353	2.77615
278.571	1.81565
278.789	4.09398
279.006	0.79727
279.224	3.00814
279.442	5.2422
279.659	3.39909
279.877	2.30906
280.094	5.76996
280.312	0.98599
280.529	3.46347
280.747	0.97102
280.964	2.78921
281.182	5.70782
281.399	2.46689
281.617	3.74182
281.834	2.27838
282.052	1.79314
282.269	3.20338
282.487	2.37612
282.704	2.10111
282.921	2.21218
283.139	3.32109
283.356	3.92595
283.574	3.87919
283.791	1.81528
284.008	5.50778
284.226	2.93916
284.443	3.238
284.66	4.17177
284.877	3.25064
285.095	2.06939
285.312	1.67921
285.529	0.91039
285.746	0.86871
285.964	2.08894
286.181	1.34812
286.398	1.96641
286.615	2.52707
286.832	2.44303
287.05	0.53356
287.267	1.75877
287.484	1.85702
287.701	2.63452
287.918	2.60729
288.135	2.63968
288.352	1.24516
288.569	1.39698
288.786	2.35936
289.003	2.06539
289.22	3.05041
289.437	1.58363
289.654	2.83594
289.871	2.9891
290.088	2.88768
290.305	2.2076
290.522	1.70041
290.739	1.96461
290.956	3.06881
291.173	3.49173
291.39	3.45303
291.607	2.3439
291.824	1.72166
292.04	1.34218
292.257	2.78866
292.474	3.2285
292.691	2.04476
292.908	0.96459
293.125	1.68563
293.341	1.11418
293.558	4.98454
293.775	1.8459
293.992	2.08158
294.208	0.93945
294.425	1.33144
294.642	1.92709
294.858	2.61691
295.075	0.58753
295.292	1.90086
295.508	2.30148
295.725	3.97038
295.942	1.66166
296.158	1.20183
296.375	2.02926
296.591	1.54826
296.808	1.72359
297.024	1.91756
297.241	2.21682
297.458	2.36466
297.674	0.24895
297.891	1.82792
298.107	1.49844
298.323	1.06322
298.54	3.08349
298.756	1.30217
298.973	0.64563
299.189	3.16613
299.406	1.27903
299.622	2.78967
299.838	2.69685
300.055	2.68166
300.271	0.68857
300.487	1.13837
300.704	1.31426
300.92	0.79972
301.136	4.23977
301.353	2.57318
301.569	1.91557
301.785	2.13455
302.001	2.72101
302.218	2.27144
302.434	2.35891
302.65	0.85436
302.866	1.55598
303.083	3.9603
303.299	3.85499
303.515	2.10624
303.731	2.24407
303.947	0.74846
304.163	1.46178
304.379	2.15885
304.595	2.55064
304.812	1.40412
305.028	1.38268
305.244	1.82418
305.46	2.60748
305.676	2.85379
305.892	3.21463
306.108	2.46784
306.324	1.55292
306.54	3.80303
306.756	2.34604
306.972	2.51832
307.187	1.83805
307.403	3.37779
307.619	1.63845
307.835	3.11112
308.051	3.59458
308.267	1.12914
308.483	3.09359
308.699	2.62389
308.914	2.08915
309.13	1.92821
309.346	0.86313
309.562	1.16652
309.778	0.81918
309.993	2.50588
310.209	2.07458
310.425	1.00093
310.641	1.92564
310.856	1.17871
311.072	1.06563
311.288	1.97872
311.503	2.1064
311.719	0.5382
311.935	0.39208
312.15	2.47507
312.366	2.04346
312.581	2.42334
312.797	1.89042
313.013	2.81342
313.228	1.48809
313.444	1.91726
313.659	1.47331
313.875	2.54284
314.09	1.93395
314.306	3.20987
314.521	2.85907
314.737	2.72561
314.952	2.09594
315.168	2.04919
315.383	2.40951
315.599	1.91324
315.814	1.87403
316.029	2.79042
316.245	1.10357
316.46	0.65936
316.675	3.15245
316.891	3.67873
317.106	4.65638
317.321	2.38993
317.537	2.75136
317.752	2.82258
317.967	3.08544
318.183	1.37524
318.398	1.919
318.613	3.04318
318.828	3.37218
319.043	2.83831
319.259	1.89992
319.474	2.45054
319.689	3.2543
319.904	0.63503
320.119	2.86604
320.334	2.28987
320.549	1.99337
320.765	3.02537
320.98	2.46033
321.195	2.77457
321.41	2.1312
321.625	2.88817
321.84	3.75424
322.055	3.70401
322.27	1.72445
322.485	1.26522
322.7	2.65606
322.915	2.97991
323.13	1.51726
323.345	3.71744
323.56	2.91618
323.775	2.84204
323.989	2.55356
324.204	2.5357
324.419	3.12463
324.634	1.17047
324.849	2.07739
325.064	5.27573
325.279	3.04468
325.493	2.66336
325.708	3.00546
325.923	1.62891
326.138	1.73818
326.352	3.83254
326.567	3.21817
326.782	1.84842
326.997	1.7174
327.211	2.75709
327.426	2.53539
327.641	1.97022
327.855	0.88387
328.07	2.71498
328.285	3.74557
328.499	1.80901
328.714	2.43884
328.928	2.78301
329.143	2.19562
329.358	3.24243
329.572	3.23609
329.787	3.58877
330.001	4.43191
330.216	1.34603
330.43	4.03224
330.645	3.87135
330.859	3.20371
331.074	1.65381
331.288	2.52001
331.503	3.45703
331.717	1.41184
331.931	2.59923
332.146	2.55848
332.36	3.99408
332.575	2.73536
332.789	2.5457
333.003	2.52096
333.218	2.86681
333.432	1.797
333.646	3.16714
333.86	3.86684
334.075	3.80087
334.289	1.99442
334.503	1.49352
334.717	2.80947
334.932	2.77898
335.146	3.34865
335.36	1.9599
335.574	2.93934
335.788	2.71467
336.003	3.14603
336.217	3.00229
336.431	2.7827
336.645	1.96129
336.859	1.4116
337.073	2.28103
337.287	2.66512
337.501	1.45823
337.715	2.75777
337.929	3.247
338.143	1.485
338.357	2.23166
338.571	1.8337
338.785	2.84583
338.999	2.1265
339.213	1.93434
339.427	1.321
339.641	3.57675
339.855	2.20086
340.069	1.97084
340.283	3.31249
340.497	4.0787
340.711	2.83041
340.924	2.29243
341.138	1.50502
341.352	1.40355
341.566	2.67153
341.78	1.21343
341.993	2.09886
342.207	1.65306
342.421	2.66128
342.635	2.2898
342.848	2.0844
343.062	0.62191
343.276	1.81496
343.49	4.10568
343.703	1.84255
343.917	3.41939
344.131	3.35247
344.344	1.76936
344.558	2.16938
344.771	1.46784
344.985	3.79253
345.199	3.75405
345.412	2.67003
345.626	2.84993
345.839	1.12922
346.053	1.50128
346.266	1.65985
346.48	3.04954
346.693	2.84236
346.907	2.77057
347.12	1.72883
347.334	2.72536
347.547	2.77531
347.76	2.14752
347.974	3.44634
348.187	2.71212
348.401	2.23061
348.614	1.90609
348.827	2.19185
349.041	2.91012
349.254	1.28259
349.467	2.26556
349.681	1.61697
349.894	1.94432
350.107	3.53131
350.32	4.03282
350.534	1.36877
350.747	2.17869
350.96	1.76652
351.173	1.94486
351.386	2.2097
351.6	2.1048
351.813	2.10554
352.026	2.31041
352.239	1.49581
352.452	2.18511
352.665	3.1821
352.878	2.55564
353.092	4.11922
353.305	3.2224
353.518	2.57287
353.731	1.83877
353.944	3.49855
354.157	2.09942
354.37	1.97366
354.583	1.63587
354.796	1.32017
355.009	3.26541
355.222	2.80374
355.435	2.57779
355.647	3.28095
355.86	1.93337
356.073	2.58502
356.286	2.21371
356.499	3.10534
356.712	2.856
356.925	3.02572
357.138	3.1751
357.35	1.8567
357.563	2.24487
357.776	2.63783
357.989	2.3463
358.201	2.96432
358.414	2.80906
358.627	3.64233
358.84	2.44948
359.052	1.59343
359.265	2.05617
359.478	3.40031
359.69	0.84346
359.903	3.13175
360.116	3.33464
360.328	1.44996
360.541	3.26765
360.753	1.93853
360.966	2.28151
361.179	2.34962
361.391	2.23397
361.604	2.05514
361.816	2.32762
362.029	2.14365
362.241	2.00275
362.454	2.21398
362.666	1.93397
362.879	2.79283
363.091	2.29089
363.304	2.06146
363.516	2.47909
363.728	1.85808
363.941	2.95729
364.153	2.53211
364.366	1.22848
364.578	1.80476
364.79	2.838
365.003	2.55525
365.215	2.18719
365.427	3.04248
365.639	3.36392
365.852	2.71959
366.064	4.26585
366.276	2.54422
366.488	2.86562
366.701	2.43363
366.913	2.44343
367.125	2.45691
367.337	1.9723
367.549	2.20596
367.762	2.7965
367.974	2.61187
368.186	2.28422
368.398	3.35072
368.61	3.15903
368.822	3.11709
369.034	2.57252
369.246	3.26355
369.458	4.85119
369.67	2.13765
369.882	4.11285
370.094	1.50042
370.306	3.93102
370.518	2.57745
370.73	2.30178
370.942	2.3279
371.154	2.68718
371.366	2.45784
371.578	3.0422
371.79	2.41663
372.002	3.49992
372.214	4.29689
372.425	2.81047
372.637	3.84065
372.849	3.05243
373.061	1.49331
373.273	3.17778
373.484	2.98779
373.696	3.53126
373.908	1.44823
374.12	3.62441
374.331	3.18237
374.543	2.35684
374.755	2.19366
374.967	3.01451
375.178	3.46518
375.39	2.60696
375.602	2.96535
375.813	1.83104
376.025	2.23001
376.236	2.94932
376.448	3.14481
376.66	2.64115
376.871	2.67287
377.083	3.79656
377.294	3.99032
377.506	2.63209
377.717	3.92333
377.929	3.1234
378.14	2.58496
378.352	3.23312
378.563	3.23617
378.775	3.92015
378.986	2.38073
379.197	3.08831
379.409	2.55207
379.62	3.4842
379.832	3.38135
380.043	2.96621
380.254	3.17572
380.466	2.36519
380.677	5.01681
380.888	4.43046
381.1	4.85135
381.311	4.86767
381.522	3.09124
381.733	5.15876
381.945	3.02175
382.156	3.12633
382.367	2.76267
382.578	5.07248
382.789	5.05346
383.001	2.80596
383.212	4.246
383.423	4.21279
383.634	4.03155
383.845	3.75399
384.056	2.95339
384.267	3.28376
384.478	3.31583
384.69	2.46107
384.901	3.46652
385.112	3.42871
385.323	4.39786
385.534	3.60675
385.745	3.47567
385.956	3.5646
386.167	2.70304
386.378	3.6354
386.588	2.79972
386.799	2.83998
387.01	2.29456
387.221	3.92524
387.432	3.24362
387.643	4.6469
387.854	3.21232
388.065	3.21841
388.275	3.26233
388.486	3.03142
388.697	3.30039
388.908	3.12813
389.119	4.19732
389.329	4.41643
389.54	3.41725
389.751	3.78441
389.962	4.31442
390.172	3.58477
390.383	3.21839
390.594	3.08837
390.804	3.08343
391.015	3.18232
391.226	3.5892
391.436	3.94734
391.647	3.70885
391.858	3.93255
392.068	2.55292
392.279	2.89415
392.489	3.64385
392.7	4.28058
392.91	3.08466
393.121	3.08592
393.331	3.83458
393.542	4.34081
393.752	3.93604
393.963	4.01056
394.173	3.75574
394.384	4.02697
394.594	3.73043
394.804	2.97744
395.015	3.81662
395.225	3.92692
395.436	3.11952
395.646	4.07637
395.856	3.31022
396.067	2.83706
396.277	4.23207
396.487	4.00053
396.697	3.9404
396.908	4.06816
397.118	4.09087
397.328	3.98266
397.538	4.46038
397.749	3.39158
397.959	4.28401
398.169	4.18663
398.379	3.02035
398.589	4.23369
398.8	3.93486
399.01	3.89487
399.22	3.62459
399.43	5.2929
399.64	3.83177
399.85	4.24978
400.06	4.01902
400.27	3.36446
400.48	3.92643
400.69	4.86166
400.9	3.62114
401.11	3.3994
401.32	4.4268
401.53	3.6803
401.74	4.93279
401.95	4.37721
402.16	3.52152
402.37	4.21405
402.58	3.66886
402.79	4.4325
403	4.70346
403.209	3.69717
403.419	4.72342
403.629	3.63702
403.839	4.65562
404.049	4.57382
404.258	3.88913
404.468	3.73588
404.678	4.39908
404.888	4.80488
405.097	3.98692
405.307	4.05243
405.517	4.57488
405.727	4.49309
405.936	4.04927
406.146	4.37038
406.356	5.08207
406.565	4.22552
406.775	3.99941
406.984	3.94687
407.194	5.28256
407.404	4.20425
407.613	4.635
407.823	4.72432
408.032	4.93278
408.242	4.9846
408.451	3.97092
408.661	4.27058
408.87	5.3601
409.08	3.91301
409.289	4.62019
409.499	4.56758
409.708	4.45109
409.918	3.25617
410.127	4.64618
410.336	5.43602
410.546	4.90513
410.755	4.28353
410.964	4.34279
411.174	4.03627
411.383	4.82287
411.592	4.82715
411.802	3.94462
412.011	5.0013
412.22	4.43476
412.429	5.63038
412.639	5.43356
412.848	5.18996
413.057	5.43826
413.266	5.47005
413.475	4.81722
413.685	5.06603
413.894	5.31722
414.103	5.40056
414.312	5.26813
414.521	4.63252
414.73	4.78963
414.939	6.14266
415.148	5.13724
415.357	5.03489
415.566	4.70521
415.776	4.69756
415.985	4.77521
416.194	5.4435
416.403	6.05389
416.611	4.34288
416.82	4.83776
417.029	5.20125
417.238	4.84773
417.447	4.70124
417.656	4.98292
417.865	4.83752
418.074	5.04616
418.283	5.26211
418.492	5.83137
418.7	5.63005
418.909	6.42702
419.118	5.66089
419.327	5.93066
419.536	5.83625
419.744	5.78483
419.953	6.7996
420.162	6.93521
420.371	6.3442
420.579	6.60399
420.788	7.4239
420.997	7.53932
421.205	7.74728
421.414	7.51524
421.623	7.50935
421.831	7.15006
422.04	7.67198
422.249	6.96778
422.457	7.4175
422.666	6.72261
422.874	7.5247
423.083	7.56879
423.291	7.6431
423.5	7.38307
423.708	7.79775
423.917	8.12115
424.125	7.75405
424.334	7.62849
424.542	9.03382
424.751	8.5541
424.959	8.16415
425.167	8.30293
425.376	8.22938
425.584	7.34214
425.793	7.38392
426.001	6.5788
426.209	6.86938
426.418	5.98475
426.626	5.87767
426.834	5.79691
427.042	6.06229
427.251	5.74403
427.459	6.44635
427.667	6.05868
427.875	5.37411
428.084	5.6975
428.292	6.66614
428.5	6.39204
428.708	5.43448
428.916	5.45503
429.124	6.06068
429.333	5.73247
429.541	5.86141
429.749	6.14302
429.957	6.07
430.165	7.506
430.373	5.33867
430.581	6.20227
430.789	6.9457
430.997	5.98113
431.205	5.79414
431.413	6.39794
431.621	6.01076
431.829	6.61723
432.037	6.15598
432.245	6.30757
432.453	6.5497
432.661	6.18371
432.869	7.32753
433.076	6.03079
433.284	6.35005
433.492	6.79062
433.7	7.03825
433.908	6.31536
434.116	6.54425
434.323	6.5873
434.531	6.38685
434.739	6.78645
434.947	6.94257
435.154	6.91348
435.362	6.51953
435.57	6.41665
435.778	6.20321
435.985	6.68957
436.193	6.25936
436.401	7.23788
436.608	6.52651
436.816	6.3249
437.023	7.35991
437.231	7.51228
437.439	6.77685
437.646	7.01876
437.854	6.84523
438.061	7.10665
438.269	6.71194
438.476	7.16997
438.684	6.81288
438.891	6.73866
439.099	6.4625
439.306	6.29322
439.514	6.39737
439.721	7.37335
439.929	6.95121
440.136	7.77142
440.343	7.77574
440.551	7.64489
440.758	9.11582
440.965	8.03529
441.173	7.80357
441.38	7.51045
441.587	7.55878
441.795	7.27925
442.002	7.16335
442.209	7.17093
442.416	7.31105
442.624	7.33921
442.831	7.16012
443.038	6.76336
443.245	6.44266
443.452	6.87157
443.66	7.32807
443.867	6.81092
444.074	6.77781
444.281	6.81551
444.488	6.97727
444.695	7.17791
444.902	6.93126
445.109	7.8971
445.316	7.65927
445.523	7.94866
445.73	8.01333
445.937	8.86732
446.144	9.25421
446.351	9.5105
446.558	8.73163
446.765	10.14587
446.972	9.6823
447.179	9.31267
447.386	9.84143
447.593	8.61282
447.8	9.23278
448.007	8.13433
448.214	7.8211
448.42	7.36028
448.627	7.83567
448.834	7.37022
449.041	7.21408
449.248	7.15296
449.454	7.61166
449.661	8.19658
449.868	7.06861
450.075	7.07685
450.281	6.26036
450.488	6.72892
450.695	6.79249
450.901	6.96384
451.108	6.99042
451.315	7.79492
451.521	7.20224
451.728	7.9504
451.935	6.99831
452.141	7.29547
452.348	7.29791
452.554	7.23091
452.761	7.20077
452.967	8.25164
453.174	7.45756
453.38	7.56955
453.587	6.83178
453.793	7.46744
454	7.91814
454.206	8.4722
454.413	7.94917
454.619	7.76201
454.825	7.12695
455.032	7.75141
455.238	7.86304
455.445	6.87
455.651	7.51103
455.857	6.61233
456.064	7.3152
456.27	7.23361
456.476	7.18667
456.682	6.89508
456.889	7.66302
457.095	7.83676
457.301	8.76764
457.507	7.58056
457.714	7.68107
457.92	7.59392
458.126	7.29005
458.332	7.69081
458.538	7.50428
458.744	7.71725
458.951	7.63969
459.157	9.51685
459.363	8.77296
459.569	9.10374
459.775	9.74191
459.981	9.41135
460.187	9.71237
460.393	9.93891
460.599	10.23042
460.805	9.35019
461.011	8.60495
461.217	8.70903
461.423	8.45774
461.629	7.89615
461.835	8.27008
462.041	7.82832
462.247	8.6842
462.453	7.76832
462.658	7.74911
462.864	8.26909
463.07	7.94352
463.276	8.01985
463.482	7.90897
463.688	8.7088
463.893	7.63679
464.099	7.87535
464.305	8.77253
464.511	7.67284
464.716	8.04948
464.922	8.36799
465.128	7.59508
465.333	8.90981
465.539	8.39344
465.745	8.06027
465.95	7.99537
466.156	9.59908
466.362	8.77156
466.567	8.09314
466.773	7.8623
466.978	8.94314
467.184	7.65823
467.389	7.25501
467.595	8.28931
467.8	7.89877
468.006	8.92184
468.211	8.80025
468.417	7.623
468.622	8.47443
468.828	8.55589
469.033	8.45198
469.239	9.65937
469.444	8.06998
469.649	8.81864
469.855	8.31384
470.06	8.25866
470.266	7.89431
470.471	8.59572
470.676	8.51616
470.881	7.4724
471.087	9.11606
471.292	9.74562
471.497	7.81209
471.703	8.23315
471.908	8.05834
472.113	8.38704
472.318	8.82966
472.523	7.93288
472.729	8.69084
472.934	8.81906
473.139	8.23741
473.344	8.68512
473.549	9.1147
473.754	8.14702
473.959	9.92006
474.164	8.07343
474.369	8.40563
474.575	8.90092
474.78	8.58611
474.985	8.1799
475.19	7.72418
475.395	8.07029
475.6	8.53685
475.804	9.38927
476.009	8.62622
476.214	8.70223
476.419	8.5633
476.624	7.90481
476.829	8.23959
477.034	9.04665
477.239	8.40873
477.444	9.05145
477.648	8.95043
477.853	9.03187
478.058	8.62046
478.263	8.36646
478.468	8.249
478.672	8.23155
478.877	9.52446
479.082	9.55834
479.287	9.10042
479.491	8.73634
479.696	8.34526
479.901	9.22672
480.105	9.22452
480.31	8.56941
480.515	8.88453
480.719	10.07864
480.924	8.73314
481.128	8.46679
481.333	9.17454
481.538	9.19011
481.742	9.38397
481.947	10.36407
482.151	11.27412
482.356	12.13933
482.56	14.2196
482.765	15.74255
482.969	18.62802
483.174	20.96334
483.378	24.17006
483.582	25.2841
483.787	27.2729
483.991	28.03316
484.196	28.51707
484.4	28.11166
484.604	28.54219
484.809	25.99158
485.013	24.75481
485.217	22.47017
485.422	20.24836
485.626	18.45846
485.83	17.34751
486.034	16.64879
486.239	16.82052
486.443	17.08658
486.647	17.47689
486.851	18.52119
487.055	19.92274
487.26	20.06909
487.464	20.9344
487.668	20.59754
487.872	21.24416
488.076	21.42765
488.28	20.73341
488.484	19.41938
488.688	19.08153
488.892	18.12789
489.096	16.88873
489.3	15.5282
489.504	14.62005
489.708	13.86989
489.912	13.50874
490.116	13.19543
490.32	12.7802
490.524	13.82369
490.728	14.61834
490.932	15.35613
491.136	16.40091
491.34	17.50286
491.544	18.03775
491.748	18.04285
491.951	18.18311
492.155	17.65939
492.359	17.24087
492.563	15.92775
492.767	15.0457
492.97	13.63028
493.174	12.30775
493.378	11.22736
493.582	9.94737
493.785	9.55374
493.989	9.65191
494.193	9.55213
494.396	9.46339
494.6	9.91521
494.804	9.5908
495.007	9.20472
495.211	9.42956
495.414	9.40211
495.618	9.7704
495.822	10.27459
496.025	9.67491
496.229	10.04929
496.432	9.34966
496.636	9.77543
496.839	9.6169
497.043	10.37135
497.246	9.8839
497.45	9.59686
497.653	9.78294
497.856	9.83382
498.06	9.39998
498.263	9.63972
498.467	9.52163
498.67	10.15176
498.873	10.00672
499.077	9.69473
499.28	9.68741
499.483	9.87942
499.686	10.08017
499.89	9.92544
500.093	10.2095
500.296	9.40653
500.499	10.50337
500.703	9.69223
500.906	10.04787
501.109	10.57434
501.312	9.84842
501.515	9.75032
501.719	10.02454
501.922	10.38177
502.125	9.96238
502.328	9.80152
502.531	9.41138
502.734	9.84311
502.937	9.09504
503.14	9.91363
503.343	9.5025
503.546	9.83114
503.749	9.5581
503.952	10.32236
504.155	9.57139
504.358	10.11514
504.561	9.98982
504.764	9.47772
504.967	10.05898
505.17	9.96478
505.373	10.66975
505.576	10.00298
505.778	10.34311
505.981	9.59919
506.184	10.55341
506.387	9.13646
506.59	10.99325
506.793	10.59225
506.995	10.32266
507.198	9.13946
507.401	10.39713
507.604	10.35598
507.806	9.69209
508.009	9.78594
508.212	10.60901
508.414	9.86939
508.617	9.94408
508.82	10.26271
509.022	10.98399
509.225	10.24284
509.427	9.52244
509.63	10.82711
509.833	10.17152
510.035	10.06941
510.238	9.5593
510.44	10.81115
510.643	9.34656
510.845	11.1363
511.048	10.45026
511.25	10.00235
511.453	10.20285
511.655	10.45841
511.858	10.08883
512.06	10.65909
512.262	10.33002
512.465	10.58773
512.667	10.06781
512.869	9.7647
513.072	10.50786
513.274	10.69441
513.476	10.54359
513.679	10.66377
513.881	9.97311
514.083	11.10886
514.286	9.97572
514.488	9.99921
514.69	9.91184
514.892	9.79739
515.094	10.64877
515.297	10.03987
515.499	10.39015
515.701	10.01061
515.903	11.21698
516.105	11.21342
516.307	10.66879
516.509	9.62064
516.711	9.93329
516.913	10.48026
517.116	10.55865
517.318	10.33273
517.52	11.13546
517.722	10.83147
517.924	10.1071
518.126	10.81548
518.328	10.48683
518.529	11.19748
518.731	12.00907
518.933	10.67258
519.135	10.8647
519.337	11.46448
519.539	10.86024
519.741	9.9058
519.943	10.40989
520.145	10.48846
520.346	10.91148
520.548	10.41276
520.75	10.66666
520.952	10.43398
521.153	10.72862
521.355	10.83262
521.557	10.18518
521.759	10.69122
521.96	10.53858
522.162	10.05238
522.364	11.2183
522.565	10.34033
522.767	10.93919
522.969	11.13169
523.17	10.95108
523.372	10.86392
523.573	10.58973
523.775	10.60431
523.977	10.42263
524.178	11.71219
524.38	10.6016
524.581	11.1265
524.783	10.84575
524.984	11.20841
525.186	11.02546
525.387	11.63202
525.589	11.72111
525.79	11.89705
525.991	11.98573
526.193	12.58607
526.394	12.00786
526.596	12.98026
526.797	13.35777
526.998	13.0965
527.2	13.75003
527.401	15.75525
527.602	17.03164
527.803	19.60685
528.005	21.06285
528.206	22.76306
528.407	24.20064
528.608	24.5931
528.81	24.98612
529.011	24.6835
529.212	25.44752
529.413	24.03546
529.614	22.60412
529.815	21.21242
530.017	19.65268
530.218	17.5077
530.419	15.65259
530.62	14.96988
530.821	14.14583
531.022	12.64745
531.223	13.29783
531.424	12.94893
531.625	13.02528
531.826	12.70133
532.027	13.35439
532.228	14.66928
532.429	14.98561
532.63	15.47634
532.831	16.58128
533.032	17.02243
533.233	17.84831
533.433	17.52297
533.634	17.79286
533.835	17.07773
534.036	16.35911
534.237	15.79163
534.438	14.79324
534.638	13.43905
534.839	12.78097
535.04	12.40571
535.241	11.58378
535.441	12.35973
535.642	12.02071
535.843	11.55553
536.043	11.81177
536.244	12.22412
536.445	12.46782
536.645	13.20125
536.846	12.93855
537.047	13.27168
537.247	12.18575
537.448	11.92275
537.648	11.68818
537.849	11.34193
538.049	11.38982
538.25	11.51149
538.451	11.55943
538.651	10.95995
538.851	11.69368
539.052	11.96814
539.252	11.84455
539.453	11.49147
539.653	11.68469
539.854	11.55716
540.054	11.76576
540.254	13.50577
540.455	15.01635
540.655	15.41018
540.855	17.21709
541.056	18.4888
541.256	18.71972
541.456	19.73764
541.657	19.55679
541.857	20.08445
542.057	18.82972
542.257	18.07177
542.458	18.18734
542.658	17.54387
542.858	15.55025
543.058	15.211
543.258	14.42544
543.458	13.05361
543.659	12.3858
543.859	12.62506
544.059	12.28569
544.259	11.54737
544.459	12.20399
544.659	11.41973
544.859	11.86739
545.059	11.47894
545.259	11.9584
545.459	11.74182
545.659	12.04729
545.859	11.77963
546.059	11.87897
546.259	11.30585
546.459	11.09438
546.659	11.239
546.859	12.06657
547.059	11.8629
547.258	11.88445
547.458	11.95662
547.658	11.16596
547.858	11.08457
548.058	11.64831
548.258	11.43892
548.457	11.21676
548.657	12.88974
548.857	11.41961
549.057	12.10773
549.256	11.85594
549.456	11.15388
549.656	10.54143
549.855	12.61102
550.055	11.3567
550.255	12.50021
550.454	11.71854
550.654	12.0522
550.853	12.56805
551.053	11.82545
551.253	11.7621
551.452	12.02172
551.652	10.85902
551.851	10.798
552.051	11.4662
552.25	11.41503
552.45	11.2059
552.649	11.47286
552.849	11.20619
553.048	11.67972
553.248	12.06333
553.447	11.07038
553.646	12.1102
553.846	13.15517
554.045	12.46649
554.244	10.94704
554.444	12.45172
554.643	11.10038
554.842	12.41609
555.042	12.73351
555.241	11.14729
555.44	10.96502
555.64	11.99124
555.839	12.53546
556.038	12.04545
556.237	11.29244
556.436	11.74913
556.636	11.84045
556.835	11.21601
557.034	12.69488
557.233	11.63389
557.432	10.63447
557.631	12.18397
557.83	11.4166
558.029	11.35752
558.228	11.25417
558.427	11.02519
558.626	11.93713
558.825	11.20167
559.024	11.53286
559.223	12.88418
559.422	11.62307
559.621	12.04453
559.82	10.17072
560.019	11.61465
560.218	11.48596
560.417	10.26767
560.616	11.39326
560.815	13.8574
561.014	10.88552
561.212	12.83683
561.411	11.65606
561.61	10.90899
561.809	11.49894
562.008	13.00937
562.206	11.62186
562.405	11.98528
562.604	11.51401
562.803	11.92847
563.001	11.53194
563.2	10.94067
563.399	11.98255
563.597	11.16923
563.796	11.72873
563.995	11.01328
564.193	12.30938
564.392	11.42457
564.59	13.18356
564.789	10.85439
564.988	11.60747
565.186	11.96792
565.385	11.94714
565.583	11.6819
565.782	11.99893
565.98	11.89862
566.179	11.68438
566.377	11.37553
566.575	11.47727
566.774	12.89694
566.972	12.49057
567.171	13.19053
567.369	12.85535
567.567	12.19286
567.766	12.16707
567.964	10.62724
568.162	12.40355
568.361	12.80413
568.559	11.79576
568.757	12.12843
568.956	11.94083
569.154	12.02259
569.352	12.42314
569.55	11.99505
569.748	12.03183
569.947	11.51762
570.145	11.22376
570.343	11.35461
570.541	13.08819
570.739	11.28312
570.937	11.97006
571.135	12.38667
571.333	13.6732
571.532	13.52005
571.73	12.28818
571.928	12.85179
572.126	12.47069
572.324	11.88052
572.522	12.82367
572.72	13.85449
572.918	12.02039
573.116	12.47606
573.313	11.91754
573.511	12.10441
573.709	11.79641
573.907	12.84276
574.105	11.84997
574.303	11.25346
574.501	11.1163
574.699	12.57887
574.896	12.36884
575.094	12.57813
575.292	11.39952
575.49	12.79475
575.688	11.94805
575.885	12.94895
576.083	13.82252
576.281	12.47827
576.478	11.6109
576.676	12.44968
576.874	11.05818
577.071	12.0102
577.269	13.64918
577.467	11.89153
577.664	11.90289
577.862	12.6704
578.059	11.18587
578.257	12.61265
578.455	11.82708
578.652	12.01056
578.85	10.54551
579.047	12.13387
579.245	11.70205
579.442	11.93921
579.64	11.82744
579.837	10.89914
580.034	14.04843
580.232	11.66686
580.429	11.12369
580.627	12.2935
580.824	12.8337
581.021	12.4196
581.219	11.56313
581.416	11.57373
581.613	13.23923
581.811	13.09606
582.008	11.44087
582.205	12.63223
582.402	12.27346
582.6	13.28314
582.797	12.12863
582.994	12.2828
583.191	12.65308
583.388	12.00923
583.586	12.80045
583.783	12.71138
583.98	11.14552
584.177	12.086
584.374	10.03166
584.571	11.88528
584.768	11.79818
584.965	11.76352
585.162	12.71944
585.359	13.30064
585.556	12.11464
585.753	12.31546
585.95	11.05962
586.147	11.34114
586.344	12.40521
586.541	11.82113
586.738	11.06244
586.935	11.99834
587.132	11.68242
587.329	12.94621
587.526	12.14339
587.722	16.12455
587.919	11.06065
588.116	12.55358
588.313	13.36534
588.51	13.88394
588.706	11.82114
588.903	12.83497
589.1	13.06332
589.297	14.56124
589.493	12.29231
589.69	12.72049
589.887	11.79821
590.083	11.37458
590.28	11.81373
590.477	13.13814
590.673	12.66727
590.87	13.4164
591.067	11.94679
591.263	12.49791
591.46	12.64248
591.656	12.01301
591.853	13.7184
592.049	11.74355
592.246	12.03531
592.442	13.12792
592.639	13.35553
592.835	11.48988
593.032	12.5081
593.228	11.15723
593.425	11.19824
593.621	11.21135
593.817	12.61808
594.014	11.7104
594.21	12.47084
594.406	13.21806
594.603	12.72294
594.799	11.90596
594.995	10.856
595.192	13.3633
595.388	12.15799
595.584	12.13161
595.78	11.53459
595.977	14.71277
596.173	13.92636
596.369	12.35133
596.565	11.91185
596.761	11.63877
596.957	13.54207
597.154	12.22834
597.35	12.27812
597.546	12.10291
597.742	12.92554
597.938	12.58332
598.134	11.98923
598.33	12.64895
598.526	13.56817
598.722	12.73095
598.918	13.96234
599.114	12.95828
599.31	11.4083
599.506	12.27
599.702	11.4748
599.898	12.58383
600.094	13.23826
600.29	13.09309
600.485	13.12994
600.681	11.71614
600.877	14.0285
601.073	12.49728
601.269	14.43182
601.465	13.85117
601.66	11.62404
601.856	10.87367
602.052	14.39488
602.248	12.4134
602.443	11.01271
602.639	11.72333
602.835	12.10221
603.03	11.96436
603.226	13.62456
603.422	12.09971
603.617	12.64236
603.813	12.63972
604.009	12.31292
604.204	13.86425
604.4	11.80584
604.595	13.75913
604.791	11.97676
604.986	13.1137
605.182	12.25451
605.377	12.4849
605.573	12.47521
605.768	12.60023
605.964	13.12472
606.159	13.259
606.355	13.49298
606.55	12.3028
606.746	13.51104
606.941	12.45354
607.136	14.32073
607.332	15.32351
607.527	11.57065
607.722	12.94729
607.918	12.54034
608.113	11.97325
608.308	13.56952
608.503	13.19965
608.699	13.18488
608.894	13.51852
609.089	12.40941
609.284	13.20998
609.479	12.61087
609.675	13.55403
609.87	12.7427
610.065	13.50522
610.26	13.51546
610.455	13.59768
610.65	12.7161
610.845	13.06366
611.04	13.54986
611.235	12.68596
611.43	12.43307
611.625	11.67478
611.82	14.2173
612.015	12.08355
612.21	14.35205
612.405	11.65827
612.6	14.28364
612.795	14.24666
612.99	13.55832
613.185	11.63212
613.38	12.04582
613.575	12.95849
613.77	15.85072
613.965	11.1402
614.159	12.08295
614.354	14.13582
614.549	13.95188
614.744	13.51309
614.938	11.54032
615.133	11.21446
615.328	14.36214
615.523	13.82328
615.717	16.20213
615.912	12.32093
616.107	12.8829
616.301	12.5539
616.496	12.33692
616.691	14.45782
616.885	13.65865
617.08	15.92063
617.274	13.8107
617.469	15.06459
617.664	13.72195
617.858	12.14446
618.053	13.0983
618.247	12.65104
618.442	10.69972
618.636	14.48577
618.831	12.19552
619.025	12.20275
619.219	16.18183
619.414	9.80917
619.608	12.4775
619.803	12.26486
619.997	15.26388
620.191	14.05361
620.386	13.51575
620.58	12.89748
620.774	11.30674
620.969	11.18553
621.163	13.10346
621.357	11.84368
621.551	12.53455
621.746	13.22594
621.94	12.6608
622.134	16.54426
622.328	15.31611
622.522	11.31412
622.716	14.06901
622.911	14.283
623.105	14.11914
623.299	13.61135
623.493	16.58987
623.687	12.16277
623.881	12.33171
624.075	13.70501
624.269	14.4036
624.463	10.8962
624.657	11.44287
624.851	13.83953
625.045	14.00101
625.239	14.19687
625.433	12.75268
625.627	15.34873
625.821	12.86592
626.015	12.41181
626.209	13.50852
626.403	11.79524
626.596	13.87179
626.79	14.37364
626.984	12.16347
627.178	14.17438
627.372	13.83969
627.565	14.12011
627.759	11.85663
627.953	12.28389
628.147	13.66084
628.34	13.95101
628.534	15.8189
628.728	12.8442
628.921	14.36929
629.115	14.06693
629.309	14.52374
629.502	14.34868
629.696	13.31288
629.89	12.97259
630.083	13.59475
630.277	13.68342
630.47	15.2393
630.664	12.67549
630.857	11.50158
631.051	14.27412
631.244	14.69403
631.438	14.36287
631.631	12.1879
631.825	14.93549
632.018	13.97853
632.212	15.98178
632.405	14.91664
632.598	12.34014
632.792	13.4889
632.985	10.6851
633.178	12.92727
633.372	13.36343
633.565	13.24304
633.758	15.14576
633.952	12.45834
634.145	12.24986
634.338	13.38099
634.531	12.79013
634.724	12.48746
634.918	13.67037
635.111	12.94154
635.304	12.68881
635.497	16.47257
635.69	13.86193
635.883	14.95261
636.077	12.36684
636.27	13.99134
636.463	13.83166
636.656	13.87184
636.849	13.10079
637.042	14.22445
637.235	15.95903
637.428	14.51155
637.621	14.0502
637.814	15.45675
638.007	15.69426
638.2	15.46607
638.393	15.9914
638.586	11.78777
638.778	12.92418
638.971	13.76655
639.164	16.16862
639.357	14.12337
639.55	15.71497
639.743	14.75342
639.935	14.40433
640.128	16.84117
640.321	14.93596
640.514	14.09079
640.707	17.15026
640.899	14.7048
641.092	11.46712
641.285	29.49849
641.477	11.01997
641.67	17.61979
641.863	15.631
642.055	14.35383
642.248	13.70639
642.441	13.803
642.633	14.80869
642.826	15.39967
643.018	16.01513
643.211	16.92772
643.403	17.21563
643.596	17.43745
643.788	16.67467
643.981	13.54362
644.173	15.37699
644.366	13.63957
644.558	11.45173
644.751	15.91721
644.943	12.50231
645.135	16.8562
645.328	17.03988
645.52	15.39162
645.712	16.20375
645.905	18.80773
646.097	12.59994
646.289	14.54983
646.482	17.94674
646.674	12.9306
646.866	16.21421
647.058	15.38622
647.251	12.85822
647.443	13.3104
647.635	14.21278
647.827	12.76773
648.019	13.04145
648.211	14.04866
648.404	14.47834
648.596	17.31251
648.788	14.97437
648.98	14.71375
649.172	15.39149
649.364	15.32167
649.556	11.99515
649.748	19.05919
649.94	13.0765
650.132	15.7506
650.324	13.30879
650.516	13.52631
650.708	16.39817
650.9	12.36759
651.092	12.23342
651.284	12.60892
651.476	12.90307
651.667	15.85893
651.859	17.09689
652.051	14.49374
652.243	14.94841
652.435	14.07072
652.627	15.44437
652.818	15.5133
653.01	12.32716
653.202	13.33685
653.394	13.90147
653.585	15.29791
653.777	22.31072
653.969	17.45932
654.16	16.8001
654.352	12.97699
654.544	14.45033
654.735	16.70592
654.927	14.84561
655.118	17.14635
655.31	15.94874
655.502	16.93864
655.693	14.30624
655.885	15.95179
656.076	17.58243
656.268	15.46611
656.459	17.40948
656.651	17.42717
656.842	14.39358
657.034	13.72114
657.225	16.97902
657.416	17.52512
657.608	17.41334
657.799	15.2614
657.99	17.17357
658.182	14.49725
658.373	14.22978
658.564	17.36982
658.756	16.12458
658.947	15.00227
659.138	14.18453
659.33	14.56783
659.521	14.08172
659.712	14.92611
659.903	14.92303
660.094	14.32714
660.286	12.99835
660.477	18.1904
660.668	16.2747
660.859	15.03323
661.05	12.89346
661.241	16.32618
661.432	15.89283
661.623	14.79181
661.814	14.54865
662.006	12.73749
662.197	15.80829
662.388	17.48669
662.579	15.65683
662.77	17.30399
662.96	20.41117
663.151	17.44384
663.342	12.31018
663.533	16.64962
663.724	15.48488
663.915	18.96915
664.106	15.53181
664.297	19.38202
664.488	16.61638
664.678	14.4233
664.869	17.19205
665.06	17.03307
665.251	16.02281
665.442	16.89894
665.632	13.59742
665.823	19.3651
666.014	10.85579
666.204	17.3094
666.395	18.33858
666.586	20.48828
666.776	17.30747
666.967	19.41063
667.158	16.05272
667.348	18.5761
667.539	14.08984
667.729	17.57063
667.92	14.87912
668.111	17.96343
668.301	17.45761
668.492	15.57006
668.682	16.57907
668.873	15.9472
669.063	13.75318
669.253	16.43046
669.444	18.92964
669.634	16.03182
669.825	19.7719
670.015	18.68872
670.206	14.80783
670.396	19.98357
670.586	15.45588
670.777	17.32807
670.967	12.09622
671.157	15.53018
671.347	14.84519
671.538	19.06078
671.728	17.65802
671.918	20.51714
672.108	18.20589
672.299	16.19688
672.489	16.78731
672.679	14.95227
672.869	18.21421
673.059	21.30603
673.249	17.49442
673.44	14.05203
673.63	16.0689
673.82	18.82095
674.01	14.17701
674.2	17.74166
674.39	22.39925
674.58	18.03452
674.77	16.65469
674.96	16.14067
675.15	25.27692
675.34	18.57573
675.53	16.75015
675.72	15.63447
675.91	13.48367
676.099	20.92337
676.289	21.58038
676.479	19.45654
676.669	15.98195
676.859	18.09864
677.049	15.47479
677.238	16.97869
677.428	20.79903
677.618	18.07245
677.808	21.12682
677.997	18.39265
678.187	15.34978
678.377	16.95304
678.567	15.80138
678.756	16.07092
678.946	17.17143
679.136	14.44299
679.325	15.8461
679.515	15.39785
679.704	14.65461
679.894	19.29148
680.084	18.06305
680.273	19.78795
680.463	15.60086
680.652	15.34741
680.842	17.0822
681.031	19.25521
681.221	15.48665
681.41	18.29859
681.6	16.95546
681.789	18.57982
681.978	19.98275
682.168	17.97322
682.357	17.66152
682.547	18.59808
682.736	17.74259
682.925	20.39375
683.115	20.40054
683.304	19.38742
683.493	18.01056
683.682	18.92897
683.872	18.64058
684.061	20.29005
684.25	18.75447
684.439	23.25806
684.629	19.81059
684.818	25.9313
685.007	18.3
685.196	17.13683
685.385	22.53887
685.574	18.93756
685.763	18.83475
685.952	18.75764
686.142	15.31577
686.331	21.53766
686.52	14.66081
686.709	23.57455
686.898	22.87403
687.087	19.94184
687.276	22.52979
687.465	21.45608
687.654	17.906
687.842	22.21414
688.031	16.08059
688.22	21.88252
688.409	19.10797
688.598	19.01483
688.787	24.96241
688.976	19.08437
689.165	24.0657
689.353	18.09491
689.542	19.84239
689.731	21.34525
689.92	24.84648
690.108	20.82658
690.297	18.45994
690.486	19.47877
690.675	20.7268
690.863	23.61595
691.052	23.2
691.241	19.58114
691.429	20.0007
691.618	22.52572
691.806	16.3057
691.995	18.24132
692.184	19.5334
692.372	18.45823
692.561	19.77026
692.749	20.71019
692.938	28.64515
693.126	21.33688
693.315	18.98088
693.503	21.57281
693.692	22.33209
693.88	22.20363
694.068	25.3489
694.257	20.22408
694.445	22.11077
694.634	14.63617
694.822	22.17481
695.01	23.25658
695.199	25.74408
695.387	24.21166
695.575	23.01198
695.763	19.63171
695.952	18.92855
696.14	16.03493
696.328	18.66205
696.516	20.15476
696.705	20.99112
696.893	20.58101
697.081	15.87927
697.269	22.53024
697.457	17.33686
697.645	16.73488
697.833	22.30274
698.021	17.94402
698.21	18.77386
698.398	19.36451
698.586	17.01248
698.774	16.59953
698.962	19.51529
699.15	17.41062
699.338	16.04558
699.526	21.12436
699.714	17.7864
699.901	17.97897
700.089	21.41028
700.277	17.75399
700.465	19.49862
700.653	21.58986
700.841	20.85365
701.029	17.53978
701.217	24.22771
701.404	19.82588
701.592	24.16616
701.78	27.78046
701.968	19.62034
702.155	19.14069
702.343	16.55935
702.531	24.07373
702.718	21.45901
702.906	18.79946
703.094	19.02381
703.281	24.44652
703.469	20.08936
703.657	24.13468
703.844	31.34117
704.032	26.89236
704.219	19.99281
704.407	22.5457
704.595	25.77938
704.782	22.40736
704.97	21.46904
705.157	21.21059
705.345	27.6478
705.532	33.71256
705.719	25.24473
705.907	28.34871
706.094	24.08993
706.282	30.99307
706.469	25.00711
706.656	25.41556
706.844	24.87017
707.031	29.14505
707.218	27.33768
707.406	31.48083
707.593	29.09061
707.78	29.37786
707.968	27.02586
708.155	24.87464
708.342	29.06896
708.529	29.41795
708.716	28.46129
708.904	33.26341
709.091	29.76356
709.278	24.266
709.465	34.06385
709.652	32.30374
709.839	31.17596
710.026	27.31214
710.213	21.2826
710.4	27.5845
710.587	28.78744
710.774	30.18501
710.961	29.86963
711.148	26.9692
711.335	29.83732
711.522	26.18898
711.709	28.44952
711.896	33.70919
712.083	29.82684
712.27	23.86292
712.457	27.85258
712.644	22.08284
712.831	34.05213
713.017	27.40354
713.204	29.53344
713.391	24.66109
713.578	29.62362
713.765	31.29824
713.951	27.77162
714.138	37.22931
714.325	26.6755
714.512	25.60434
714.698	22.33099
714.885	30.14456
715.072	25.60588
715.258	24.93051
715.445	22.49703
715.631	29.13182
715.818	15.56129
716.005	22.07868
716.191	26.72826
716.378	23.15213
716.564	26.87008
716.751	20.35157
716.937	22.54791
717.124	27.50269
717.31	21.09496
717.497	31.40459
717.683	21.1398
717.869	32.52045
718.056	22.27389
718.242	26.11164
718.429	23.69862
718.615	20.6652
718.801	23.84395
718.988	28.73814
719.174	26.7992
719.36	23.265
719.547	29.55046
719.733	25.49859
719.919	25.42208
720.105	26.40375
720.291	24.87879
720.478	25.96652
720.664	23.83206
720.85	23.18568
721.036	36.40466
721.222	31.46689
721.408	24.59124
721.595	32.21626
721.781	31.09177
721.967	29.43132
722.153	31.67886
722.339	27.81944
722.525	26.81769
722.711	21.41259
722.897	19.83263
723.083	22.89552
723.269	29.58283
723.455	37.76028
723.641	43.29459
723.827	26.15668
724.012	27.26721
724.198	25.78757
724.384	32.14144
724.57	27.05251
724.756	19.69702
724.942	17.73524
725.127	30.72493
725.313	31.25715
725.499	31.07491
725.685	34.33329
725.87	27.90615
726.056	22.77211
726.242	31.7409
726.428	19.72592
726.613	29.27325
726.799	24.33567
726.985	21.02969
727.17	19.15636
727.356	35.56745
727.541	22.20353
727.727	25.92306
727.913	29.29104
728.098	24.31189
728.284	29.27439
728.469	21.27423
728.655	23.22011
728.84	30.55518
729.026	29.99764
729.211	29.73997
729.397	27.81037
729.582	29.1395
729.767	25.53969
729.953	28.0429
730.138	32.20951
730.323	16.64872
730.509	21.43616
730.694	34.31408
730.879	28.94478
731.065	27.15085
731.25	37.31482
731.435	29.3714
731.621	20.5826
731.806	24.18186
731.991	27.579
732.176	21.59176
732.361	33.88832
732.547	28.01254
732.732	20.39563
732.917	37.32501
733.102	22.09606
733.287	23.54007
733.472	26.48839
733.657	25.8568
733.842	20.76944
734.027	23.76523
734.212	25.7769
734.397	23.15081
734.582	27.35255
734.767	30.73638
734.952	33.5334
735.137	16.36154
735.322	33.54813
735.507	29.73351
735.692	27.91057
735.877	37.05393
736.062	35.8783
736.247	29.6411
736.431	26.48506
736.616	32.31788
736.801	28.45825
736.986	27.43273
737.171	23.36837
737.355	21.30128
737.54	33.50505
737.725	27.38723
737.909	40.88246
738.094	25.3692
738.279	31.79487
738.463	26.10262
738.648	30.88014
738.833	30.19589
739.017	38.91063
739.202	26.30816
739.386	26.02819
739.571	23.42505
739.756	31.71872
739.94	27.22887
740.125	30.92083
740.309	24.37614
740.494	31.31954
740.678	29.57905
740.863	29.73345
741.047	28.59156
741.231	35.80566
741.416	24.58238
741.6	35.90032
741.785	24.18245
741.969	32.77089
742.153	35.62263
742.338	17.90145
742.522	28.30394
742.706	31.44935
742.89	21.50483
743.075	27.91614
743.259	34.0025
743.443	34.67473
743.627	35.30437
743.812	40.85532
743.996	20.02727
744.18	26.90971
744.364	26.14059
744.548	42.10377
744.732	26.12168
744.916	34.09957
745.1	32.30896
745.285	26.52618
745.469	32.48164
745.653	37.48257
745.837	23.28323
746.021	42.44469
746.205	35.63914
746.389	29.20284
746.573	26.53817
746.757	37.06708
746.94	26.29074
747.124	36.6222
747.308	23.70684
747.492	35.63409
747.676	24.31007
747.86	44.36424
748.044	25.37616
748.227	20.21117
748.411	52.82904
748.595	29.12295
748.779	25.22885
748.963	31.72018
749.146	28.7996
749.33	24.90903
749.514	24.1922
749.697	35.98923
749.881	25.11933
750.065	22.4919
750.248	30.46166
750.432	43.70939
750.616	29.47725
750.799	23.95272
750.983	44.35476
751.166	44.09615
751.35	20.86046
751.533	33.41817
751.717	39.71327
751.9	39.06902
752.084	28.23949
752.267	24.78794
752.451	25.68642
752.634	29.59057
752.818	33.42415
753.001	35.55456
753.184	36.38499
753.368	33.8437
753.551	12.51471
753.734	25.27797
753.918	43.88363
754.101	26.64155
754.284	34.23025
754.467	27.84639
754.651	26.27308
754.834	25.25679
755.017	36.84248
755.2	37.51484
755.384	23.92112
755.567	35.42264
755.75	35.30471
755.933	28.06679
756.116	34.98873
756.299	26.2408
756.482	24.40323
756.665	32.92329
756.848	29.24842
757.032	31.90212
757.215	21.23661
757.398	24.09185
757.581	25.57503
757.764	48.6079
757.947	29.9214
758.129	35.75378
758.312	13.21805
758.495	28.41555
758.678	29.12501
758.861	27.69868
759.044	42.37038
759.227	24.93709
759.41	25.61504
759.592	35.30112
759.775	28.40554
759.958	36.62255
760.141	22.69262
760.324	46.36186
760.506	39.69526
760.689	35.70926
760.872	44.75571
761.054	33.30308
761.237	30.26303
761.42	31.04096
761.602	36.06446
761.785	32.25251
761.968	38.54928
762.15	42.56133
762.333	28.96928
762.515	33.46131
762.698	28.27817
762.88	36.0472
763.063	32.60474
763.245	37.87964
763.428	24.87422
763.61	27.35348
763.793	23.3251
763.975	32.37844
764.158	27.91704
764.34	26.92418
764.522	24.49661
764.705	29.17893
764.887	40.07455
765.069	20.97846
765.252	34.53953
765.434	34.90578
765.616	30.9006
765.799	25.92723
765.981	35.11234
766.163	26.37571
766.345	38.82822
766.528	26.99194
766.71	18.37665
766.892	31.4581
767.074	39.95775
767.256	29.06832
767.438	42.93289
767.62	31.82591
767.802	48.42669
767.985	35.64182
768.167	42.48812
768.349	28.31033
768.531	34.18838
768.713	34.79076
768.895	36.93056
769.077	33.44166
769.259	51.44036
769.441	67.80653
769.623	36.59317
769.804	43.58702
769.986	41.79082
770.168	47.6569
770.35	60.00126
770.532	45.67894
770.714	49.1349
770.896	47.50977
771.077	23.75225
771.259	50.28302
771.441	44.68666
771.623	52.87432
771.804	64.75411
771.986	25.58366
772.168	36.60827
772.35	50.09819
772.531	65.7495
772.713	42.79723
772.894	55.34771
773.076	43.6363
773.258	37.81213
773.439	57.23545
773.621	62.69673
773.802	32.58158
773.984	37.35291
774.166	45.86867
774.347	59.6418
774.529	53.10592
774.71	23.12247
774.891	41.71531
775.073	37.96674
775.254	55.61849
775.436	37.0507
775.617	69.71746
775.799	38.3198
775.98	57.97427
776.161	63.19056
776.343	64.64185
776.524	43.39484
776.705	40.24268
776.886	24.88346
777.068	46.29252
777.249	93.47417
777.43	66.30491
777.611	30.61987
777.793	39.93257
777.974	63.12961
778.155	36.85971
778.336	32.31508
778.517	72.53876
778.698	35.9352
778.879	23.85736
779.061	16.92721
779.242	49.04677
779.423	49.44815
779.604	37.03865
779.785	40.04532
779.966	47.76059
780.147	57.02558
780.328	56.10766
780.509	75.35937
780.69	55.26713
780.871	36.90183
781.051	30.14627
781.232	44.66938
781.413	44.27927
781.594	40.14679
781.775	39.02868
781.956	35.83191
782.137	22.42968
782.317	38.34835
782.498	45.36816
782.679	44.38285
782.86	46.01286
783.04	37.3406
783.221	45.06786
783.402	68.10958
783.583	43.81391
783.763	53.6554
783.944	38.11379
784.124	28.76219
784.305	64.77729
784.486	52.02797
784.666	41.20016
784.847	28.18547
785.027	88.14423
785.208	38.42297
785.388	36.90518
785.569	36.22014
785.749	42.79382
785.93	38.83234
786.11	27.65835
786.291	49.84145
786.471	47.95183
786.652	53.15672
786.832	41.48029
787.012	46.81864
787.193	31.7008
787.373	45.14783
787.553	39.16639
787.734	47.0838
787.914	38.66108
788.094	56.43566
788.275	45.94783
788.455	39.5481
788.635	29.55799
788.815	46.815
788.995	32.62992
789.176	27.62198
789.356	36.14772
789.536	41.35788
789.716	48.25335
789.896	35.77883
790.076	36.49336
790.256	48.82286
790.436	20.63647
790.616	33.05925
790.796	46.38437
790.976	38.51695
791.156	33.94282
791.336	49.53761
791.516	48.68388
791.696	41.77837
791.876	29.15933
792.056	47.02609
792.236	55.91931
792.416	52.56599
792.596	48.14109
792.776	49.98744
792.956	52.11749
793.135	65.67156
793.315	32.35746
793.495	57.47266
793.675	52.78136
793.854	53.06871
794.034	55.45146
794.214	33.2672
794.394	52.21994
794.573	58.3231
794.753	45.96212
794.933	34.19888
795.112	46.85447
795.292	55.99979
795.472	66.26631
795.651	29.83884
795.831	43.65565
796.01	41.00887
796.19	40.9511
796.369	43.29215
796.549	49.18918
796.728	41.10062
796.908	29.75378
797.087	31.27474
797.267	40.38704
797.446	31.12064
797.626	48.72926
797.805	48.90174
797.984	34.86668
798.164	53.65768
798.343	35.15206
798.522	46.38878
798.702	44.90648
798.881	30.1038
799.06	40.61096
799.239	24.5534
799.419	34.2986
799.598	64.33715
799.777	48.57849
799.956	57.71625
800.136	40.15748
800.315	34.16732
800.494	46.92717
800.673	54.75469
800.852	52.67161
801.031	57.43763
801.21	51.1767
801.389	39.59306
801.568	46.46064
801.747	69.09608
801.926	42.85543
802.105	62.3493
802.284	37.70746
802.463	65.57911
802.642	49.57994
802.821	45.72877
803	61.93885
803.179	54.12448
803.358	56.86636
803.537	36.04243
803.716	42.77483
803.895	37.88743
804.073	41.86734
804.252	34.42485
804.431	49.89576
804.61	42.85449
804.789	54.85563
804.967	37.7864
805.146	38.38076
805.325	74.87616
805.503	48.0971
805.682	29.10351
805.861	87.2762
806.039	62.49113
806.218	39.8316
806.397	46.44026
806.575	43.22666
806.754	49.87077
806.932	31.91506
807.111	56.08257
807.289	55.94173
807.468	43.60018
807.646	58.69511
807.825	51.4978
808.003	55.39483
808.182	56.76593
808.36	44.1301
808.539	35.69669
808.717	64.00632
808.895	39.05769
809.074	48.38684
809.252	44.01653
809.43	52.83128
809.609	60.96006
809.787	68.93343
809.965	43.1455
810.144	45.52153
810.322	43.18665
810.5	50.04579
810.678	39.8015
810.856	75.44181
811.035	58.99326
811.213	57.13763
811.391	66.70229
811.569	48.41624
811.747	97.95171
811.925	60.94486
812.103	37.64642
812.281	47.21592
812.459	70.20269
812.637	70.38758
812.816	57.15077
812.994	75.52627
813.171	64.52632
813.349	55.77006
813.527	62.10552
813.705	64.25548
813.883	82.90245
814.061	59.90676
814.239	71.34637
814.417	78.45759
814.595	57.01228
814.773	51.30093
814.95	49.04451
815.128	54.104
815.306	52.08157
815.484	46.25133
815.662	38.02971
815.839	33.89853
816.017	41.66919
816.195	62.81874
816.372	43.06552
816.55	57.91027
816.728	69.74116
816.905	44.71417
817.083	71.72878
817.261	46.70085
817.438	93.47048
817.616	73.30873
817.793	40.76757
817.971	59.48082
818.148	56.66454
818.326	66.50306
818.503	52.2529
818.681	71.75845
818.858	43.3428
819.036	46.68658
819.213	50.76057
819.391	40.38621
819.568	41.47658
819.745	36.15359
819.923	60.09469
820.1	45.38614
820.277	36.68027
820.455	44.24232
820.632	46.65426
820.809	49.47333
820.986	34.12823
821.164	29.42783
821.341	27.78762
821.518	37.63053
821.695	29.72148
821.872	28.3267
822.05	25.4835
822.227	22.40428
822.404	23.53008
822.581	25.41664
822.758	23.40313
822.935	23.63241
823.112	25.39058
823.289	22.94066
823.466	25.61891
823.643	24.91539
823.82	28.03852
823.997	26.25721
824.174	29.62737
824.351	35.63949
824.528	34.65608
824.705	33.56552
824.882	34.53624
825.059	42.27702
825.236	33.78375
825.412	34.42121
825.589	39.30872
825.766	51.20354
825.943	35.80919
826.12	39.4327
826.296	31.56853
826.473	36.82798
826.65	36.12395
826.827	41.22471
827.003	30.38828
827.18	34.11642
827.357	36.56275
827.533	31.84656
827.71	22.32847
827.887	29.73405
828.063	32.5338
828.24	28.37373
828.416	34.91064
828.593	30.57465
828.769	39.26473
828.946	40.28232
829.122	41.99834
829.299	40.6759
829.475	29.80703
829.652	41.42809
829.828	61.00071
830.005	43.36333
830.181	56.18135
830.357	44.90076
830.534	57.12327
830.71	47.00076
830.886	56.55413
831.063	53.92373
831.239	66.49205
831.415	36.15903
831.592	66.91653
831.768	46.30948
831.944	41.2043
832.12	71.20966
832.296	67.64491
832.473	57.10927
832.649	43.41722
832.825	58.81086
833.001	37.46255
833.177	51.90269
833.353	47.71161
833.529	30.79553
833.705	44.31945
833.881	31.48023
834.058	30.8158
834.234	32.90129
834.41	33.02017
834.586	27.42973
834.761	30.78769
834.937	34.16181
835.113	35.02463
835.289	31.31633
835.465	35.6506
835.641	32.21823
835.817	36.49957
835.993	55.3349
836.169	33.23304
836.344	46.47755
836.52	51.33214
836.696	48.33774
836.872	42.38816
837.048	97.14881
837.223	45.2923
837.399	75.22193
837.575	62.0084
837.75	61.0026
837.926	76.47055
838.102	109.18501
838.277	89.86365
838.453	120.62382
838.628	118.61041
838.804	52.6745
838.98	107.22683
839.155	61.14249
839.331	77.05891
839.506	55.31282
839.682	60.19924
839.857	78.09878
840.033	91.03728
840.208	48.526
840.384	29.8937
840.559	47.68639
840.734	65.95062
840.91	84.75774
841.085	52.33213
841.26	57.40803
841.436	49.25602
841.611	49.62641
841.786	74.69375
841.962	90.52565
842.137	59.57931
842.312	43.69512
842.487	56.95961
842.663	48.50302
842.838	55.88472
843.013	159.46742
843.188	82.62547
843.363	88.19302
843.538	132.85407
843.714	131.56733
843.889	139.27533
844.064	151.53274
844.239	124.73335
844.414	139.05022
844.589	95.06743
844.764	167.86413
844.939	164.62412
845.114	179.09888
845.289	166.62985
845.464	229.6651
845.639	158.2918
845.814	76.86565
845.989	94.06617
846.163	122.37902
846.338	127.06579
846.513	165.77106
846.688	112.79744
846.863	116.27519
847.038	105.24745
847.212	123.1943
847.387	120.26351
847.562	123.40795
847.737	149.60488
847.911	68.5856
848.086	77.09425
848.261	258.6883
848.435	110.99615
848.61	163.56909
848.785	84.29461
848.959	164.71752
849.134	221.26728
849.308	222.88244
849.483	132.13834
849.658	195.13226
849.832	112.4427
850.007	92.07303
850.181	255.70927
850.356	103.61778
850.53	233.52718
850.705	87.09648
850.879	49.86403
851.053	117.66571
851.228	108.3663
851.402	135.61352
851.577	173.66474
851.751	189.75573
851.925	130.85867
852.099	66.6642
852.274	96.27137
852.448	123.1596
852.622	149.19104
852.797	125.2332
852.971	122.05213
853.145	125.98913
853.319	357.49995
853.493	176.99424
853.668	100.62733
853.842	229.22732
854.016	184.93921
854.19	210.97441
854.364	135.62425
854.538	142.4662
854.712	182.22873
854.886	122.91906
855.06	114.51038
855.234	51.35208
855.408	196.65458
855.582	169.72107
855.756	170.01049
855.93	222.78755
856.104	157.94689
856.278	178.30612
856.452	130.00335
856.626	168.40236
856.8	261.5758
856.973	159.81849
857.147	144.49361
857.321	155.96697
857.495	186.83598
857.669	128.28383
857.842	115.06302
858.016	185.46588
858.19	97.31933
858.364	287.96918
858.537	110.33477
858.711	133.52368
858.885	114.52627
859.058	110.03145
859.232	67.2277
859.405	75.43307
859.579	176.90422
859.753	143.81661
859.926	100.36473
860.1	78.89546
860.273	136.27177
860.447	212.47055
860.62	124.20871
860.794	247.43053
860.967	149.34876
861.141	189.71405
861.314	264.13738
861.487	160.06618
861.661	208.58428
861.834	202.40554
862.008	186.7129
862.181	139.2967
862.354	136.67881
862.528	153.75127
862.701	108.54129
862.874	77.77007
863.047	122.47576
863.221	115.50478
863.394	63.82455
863.567	212.25935
863.74	56.22114
863.913	175.47775
864.087	149.46911
864.26	182.57004
864.433	135.13802
864.606	227.4293
864.779	133.5969
864.952	70.84467
865.125	101.67821
865.298	128.47715
865.471	136.16319
865.644	261.96272
865.817	214.90691
865.99	179.03727
866.163	202.9299
866.336	116.42148
866.509	135.78036
866.682	113.9042
866.855	194.78517
867.028	93.32847
867.2	166.96244
867.373	58.17128
867.546	145.58044
867.719	265.28306
867.892	165.73644
868.064	108.63191
868.237	160.00155
868.41	132.00217
868.583	87.89094
868.755	86.83764
868.928	133.67659
869.101	271.00109
869.273	201.76992
869.446	166.75718
869.619	193.0117
869.791	134.98148
869.964	190.60347
870.136	182.84322
870.309	144.44
870.481	141.99344
870.654	73.0891
870.826	149.86401
870.999	119.85754
871.171	186.9169
871.344	116.81598
871.516	127.18188
871.689	98.80301
871.861	140.18803
872.033	104.1501
872.206	117.03574
872.378	187.44254
872.55	124.5669
872.723	86.58851
872.895	128.22834
873.067	194.91885
873.24	209.02802
873.412	116.47292
873.584	128.60057
873.756	113.57968
873.928	153.69151
874.101	163.65404
874.273	163.34698
874.445	67.29544
874.617	81.82515
874.789	150.5205
874.961	119.26807
875.133	167.3396
875.305	140.56712
875.477	98.89559
875.649	77.21106
875.821	104.38574
875.993	232.26469
876.165	94.09254
876.337	160.22763
876.509	125.55339
876.681	156.57039
876.853	153.2707
877.025	151.7596
877.197	102.32041
877.369	92.71199
877.541	184.84213
877.712	59.26934
877.884	93.5288
878.056	168.51207
878.228	93.44295
878.4	163.02334
878.571	94.77132
878.743	70.80011
878.915	149.8773
879.086	89.88893
879.258	113.37251
879.43	101.80419
879.601	89.05353
879.773	94.73584
879.945	29.45772
880.116	46.24632
880.288	31.90664
880.459	33.23562
880.631	27.78729
880.802	32.54355
880.974	31.07396
881.145	24.55381
881.317	29.7419
881.488	24.62906
881.66	27.4844
881.831	25.48563
882.002	31.6547
882.174	25.81511
882.345	31.5707
882.517	21.98995
882.688	35.29922
882.859	32.18527
883.03	45.625
883.202	43.33601
883.373	41.29277
883.544	40.91991
883.715	62.37606
883.887	53.4482
884.058	48.17815
884.229	66.40142
884.4	67.26331
884.571	73.17234
884.742	66.00778
884.914	72.6365
885.085	97.00135
885.256	115.85745
885.427	98.34672
885.598	112.79188
885.769	116.52725
885.94	114.94666
886.111	81.82618
886.282	131.66309
886.453	110.63457
886.624	82.33265
886.795	125.32311
886.966	108.37406
887.136	138.64717
887.307	93.04483
887.478	167.49396
887.649	149.5741
887.82	151.61282
887.991	123.43151
888.161	165.69646
888.332	159.95171
888.503	90.19259
888.674	205.90868
888.844	224.93676
889.015	185.95919
889.186	93.53119
889.356	204.67189
889.527	91.77392
889.698	351.06776
889.868	118.15532
890.039	152.91682
890.209	135.07492
890.38	177.43177
890.551	150.26292
890.721	221.16747
890.892	179.393
891.062	129.18256
891.233	162.79539
891.403	132.44219
891.574	95.91302
891.744	133.16507
891.914	172.76277
892.085	145.27352
892.255	59.79169
892.425	217.9973
892.596	171.96549
892.766	155.02248
892.936	212.26331
893.107	184.16925
893.277	106.88353
893.447	82.44039
893.618	67.6177
893.788	119.542
893.958	64.55075
894.128	72.25784
894.298	78.59445
894.468	102.97886
894.639	52.14394
894.809	39.24378
894.979	59.79643
895.149	66.14535
895.319	53.79871
895.489	68.82597
895.659	90.41299
895.829	61.8973
895.999	67.08215
896.169	52.48597
896.339	62.78401
896.509	119.78798
896.679	136.63823
896.849	132.36079
897.019	180.30443
897.189	140.12861
897.358	128.14476
897.528	182.83
897.698	74.06838
897.868	177.12059
898.038	277.53047
898.208	260.54485
898.377	102.94531
898.547	273.09182
898.717	420.83925
898.886	173.44444
899.056	271.7303
899.226	384.35607
899.395	238.18288
899.565	302.90553
899.735	196.181
899.904	337.48521
900.074	282.35257
900.244	142.7608
900.413	518.38401
900.583	123.04676
900.752	187.30934
900.922	302.58014
901.091	46.80345
901.261	262.63845
901.43	261.22333
901.599	255.63955
901.769	544.05756
901.938	290.54226
902.108	272.55802
902.277	362.79608
902.446	114.97533
902.616	129.85687
902.785	176.05166
902.954	287.433
903.124	193.09922
903.293	159.40602
903.462	96.64081
903.631	121.33201
903.801	91.11046
903.97	52.76228
904.139	83.70336
904.308	65.26211
904.477	55.73307
904.646	37.85339
904.816	51.75812
904.985	72.61414
905.154	105.39056
