Data from WindowProjectSample3_Transmission__11__00011.txt Node

Date: Sun May 04 09:51:02 EDT 2025
User: jessi
Spectrometer: SR400872
Trigger mode: 0
Integration Time (sec): 5.000070E-1
Scans to average: 10
Electric dark correction enabled: true
Nonlinearity correction enabled: true
Boxcar width: 0
XAxis mode: Wavelengths
Number of Pixels in Spectrum: 3648
>>>>>Begin Spectral Data<<<<<
184.909	-5718.11316
185.132	10919.48326
185.355	-8393.13689
185.578	-54284.98298
185.801	2936.1531
186.024	-135233.55536
186.247	-905.7956
186.47	1477.70559
186.693	524.76551
186.916	-515.99078
187.139	-2618306.67066
187.362	-2685.30865
187.585	7376.36267
187.808	2142.54182
188.031	33.8978
188.254	4994.70788
188.476	-1834.12303
188.699	2548.38491
188.922	522.92674
189.145	-6058.9729
189.368	-4168.42073
189.591	1826.89149
189.813	-146723.83606
190.036	8910.83921
190.259	1293.2552
190.482	5400.7493
190.705	16618.92457
190.927	17059.62482
191.15	-4033.76826
191.373	2125.96669
191.595	1454.49605
191.818	17193.37655
192.041	906.11217
192.263	-7815.26138
192.486	-1744.37177
192.709	2949.64852
192.931	-3290.24112
193.154	14285.2211
193.377	2600.38933
193.599	28465.98636
193.822	2330.81707
194.044	2114.84407
194.267	1038.46493
194.489	-130.70257
194.712	3745.81962
194.934	34236.86707
195.157	-530.44012
195.379	9305.60316
195.602	1796.54598
195.824	4886.94891
196.047	5994.80932
196.269	14062.26745
196.492	-11634.8572
196.714	3817.57799
196.936	7055.30925
197.159	11252.27401
197.381	4220.52612
197.604	1833834.55142
197.826	1986.08292
198.048	2105.46442
198.271	9938.56754
198.493	2037.13796
198.715	2862.15089
198.938	9277.91973
199.16	3363.89357
199.382	10206.31168
199.604	10695.17831
199.827	1819.86114
200.049	2937.92447
200.271	21387.6226
200.493	1855.0975
200.715	7669.90083
200.938	7840.03165
201.16	-3834.1656
201.382	32808.39103
201.604	4002.44471
201.826	8244.38569
202.048	4139.31138
202.27	1939.16437
202.492	5852.15283
202.715	19169.12651
202.937	4174.64419
203.159	1542.40954
203.381	2164.43963
203.603	2700.32079
203.825	-1503.16587
204.047	-21918.11545
204.269	3730.82125
204.491	7711.50498
204.713	-1759246.47765
204.935	2306.30507
205.156	3765.43515
205.378	1592.23989
205.6	37747.2327
205.822	4835.29933
206.044	2972.38629
206.266	6376.37769
206.488	1520.5941
206.71	9487.88571
206.932	1385.69119
207.153	30762.50724
207.375	17143.83824
207.597	12616.29492
207.819	36450.93655
208.041	-45710.03215
208.262	1087.7928
208.484	14007.30129
208.706	3984.47212
208.927	2540.50902
209.149	939.19187
209.371	3596.82293
209.593	1002.58962
209.814	11068.87527
210.036	-411965.91896
210.258	1563.0933
210.479	2179.08132
210.701	3498.87887
210.922	-5379.29686
211.144	-3297.63905
211.366	4895.8818
211.587	1967.54091
211.809	5858.65791
212.03	-63597.93388
212.252	500.00148
212.473	876.72691
212.695	710.83533
212.916	1268.52441
213.138	548.05344
213.359	5280.79655
213.581	2839.47492
213.802	848.49205
214.024	7470.06593
214.245	-13568.59763
214.466	482.62479
214.688	3847.52192
214.909	10029.8147
215.131	4252.15493
215.352	2714.14821
215.573	11757.62554
215.795	2112.4265
216.016	2088.60007
216.237	-709654.53426
216.459	1972.19548
216.68	5676.11802
216.901	3114.09484
217.122	728.22704
217.344	3062.89905
217.565	7405.80007
217.786	3609.38851
218.007	979.0779
218.228	2153.58891
218.45	-17593.28801
218.671	44036.07358
218.892	19843.74352
219.113	1776.30642
219.334	8523.7966
219.555	-8764.54062
219.776	1768.48565
219.997	4120.90698
220.219	1159.52043
220.44	1559.91256
220.661	1580.86972
220.882	5836.51783
221.103	1496.30862
221.324	8211.82769
221.545	3147.70415
221.766	2993.38875
221.987	1545.34082
222.208	952.17771
222.429	2281.03466
222.65	227.93736
222.87	869.67319
223.091	1744.62182
223.312	1142.87003
223.533	2015.58727
223.754	1610.64942
223.975	1763.25583
224.196	1062.30939
224.417	5547.32234
224.637	633.59524
224.858	122.28363
225.079	1188.31591
225.3	637.22668
225.521	2303.86463
225.741	637.02767
225.962	633.43551
226.183	172.15595
226.404	991.64505
226.624	575.49802
226.845	592.18179
227.066	466.70462
227.286	309.51132
227.507	199.41141
227.728	161.76898
227.948	276.8507
228.169	99.35669
228.389	105.37471
228.61	57.37056
228.831	84.1852
229.051	8.54265
229.272	51.79788
229.492	73.28607
229.713	21.39333
229.933	53.54348
230.154	45.66454
230.374	75.88337
230.595	57.99172
230.815	35.75328
231.036	61.6138
231.256	-13.58666
231.477	98.69126
231.697	55.87536
231.917	62.10326
232.138	86.28749
232.358	159.09763
232.579	151.0123
232.799	29.45479
233.019	133.46367
233.24	159.38347
233.46	61.61757
233.68	91.09413
233.901	52.6853
234.121	42.58494
234.341	20.7174
234.561	-5.34322
234.782	36.59462
235.002	100.08977
235.222	-0.77419
235.442	88.84944
235.662	43.64378
235.883	88.51373
236.103	79.61707
236.323	50.4772
236.543	40.17072
236.763	58.00296
236.983	64.53204
237.203	61.81996
237.423	89.5075
237.643	127.25883
237.864	112.65083
238.084	32.48403
238.304	42.08027
238.524	71.27467
238.744	57.51128
238.964	98.44741
239.184	88.35261
239.404	96.28301
239.624	48.11808
239.843	82.41176
240.063	49.84806
240.283	35.08329
240.503	38.26891
240.723	36.33201
240.943	22.09521
241.163	27.92411
241.383	20.44859
241.603	9.8877
241.822	13.21818
242.042	9.89158
242.262	12.54098
242.482	13.51879
242.702	15.35204
242.921	5.14656
243.141	11.05811
243.361	9.96145
243.581	14.41944
243.8	11.9634
244.02	8.52715
244.24	15.5909
244.459	14.65257
244.679	28.05686
244.899	18.55604
245.118	21.82267
245.338	18.39869
245.558	20.61208
245.777	13.48452
245.997	14.21819
246.216	14.81723
246.436	9.53563
246.655	6.41732
246.875	4.18202
247.094	8.48464
247.314	3.17255
247.533	5.31367
247.753	6.91394
247.972	5.36239
248.192	2.01683
248.411	3.48761
248.631	5.75781
248.85	7.22791
249.07	6.04899
249.289	10.03481
249.508	6.79509
249.728	10.35435
249.947	11.51833
250.166	12.9603
250.386	7.88682
250.605	9.85287
250.824	17.18545
251.044	12.66305
251.263	36.10313
251.482	20.13193
251.701	17.04366
251.921	0.48122
252.14	6.12375
252.359	6.85964
252.578	15.09797
252.798	5.61684
253.017	13.2549
253.236	6.89573
253.455	9.26199
253.674	18.77746
253.893	8.07663
254.112	12.96247
254.331	17.97854
254.551	15.9839
254.77	6.14445
254.989	22.42618
255.208	17.25982
255.427	23.00716
255.646	19.24246
255.865	32.15035
256.084	13.62786
256.303	15.09556
256.522	20.18589
256.741	4.15121
256.96	5.51173
257.179	12.94102
257.397	16.238
257.616	9.07355
257.835	9.46686
258.054	22.38381
258.273	14.89405
258.492	16.03603
258.711	9.68525
258.93	4.36802
259.148	6.05501
259.367	6.22812
259.586	7.66934
259.805	3.30608
260.023	7.1382
260.242	5.54023
260.461	3.9746
260.68	2.36387
260.898	6.55268
261.117	2.42402
261.336	1.59158
261.554	5.7459
261.773	5.89313
261.992	1.51
262.21	5.6538
262.429	6.8412
262.648	10.80708
262.866	12.39974
263.085	8.78809
263.303	8.14526
263.522	13.144
263.74	13.34728
263.959	22.47148
264.178	12.11701
264.396	10.11026
264.615	7.79937
264.833	17.21174
265.051	13.98491
265.27	14.88883
265.488	15.81665
265.707	10.17874
265.925	16.2324
266.144	7.2617
266.362	8.83277
266.58	8.67659
266.799	7.06704
267.017	8.68985
267.235	7.46268
267.454	4.94928
267.672	2.81982
267.89	7.08222
268.109	7.19333
268.327	6.52159
268.545	1.75198
268.763	6.59941
268.982	3.17477
269.2	7.603
269.418	4.72027
269.636	3.63386
269.854	7.22132
270.073	5.1346
270.291	2.93737
270.509	3.40594
270.727	7.04743
270.945	10.54102
271.163	10.70757
271.381	2.70233
271.599	4.46798
271.817	7.96409
272.036	2.57312
272.254	4.65995
272.472	3.65607
272.69	3.51682
272.908	3.93525
273.126	6.249
273.344	7.95972
273.562	2.93803
273.779	4.09238
273.997	5.93785
274.215	6.53892
274.433	4.72573
274.651	6.95912
274.869	7.34669
275.087	4.55284
275.305	6.34912
275.523	4.2504
275.74	4.89557
275.958	7.96056
276.176	12.12328
276.394	3.97379
276.612	5.24211
276.829	5.10175
277.047	4.79593
277.265	4.65612
277.483	5.6761
277.7	6.56904
277.918	5.24672
278.136	9.40226
278.353	4.97848
278.571	3.00091
278.789	7.44897
279.006	2.25598
279.224	4.23655
279.442	6.98498
279.659	5.24591
279.877	3.69196
280.094	8.42109
280.312	2.10674
280.529	5.31692
280.747	1.37732
280.964	4.09274
281.182	8.78005
281.399	4.27277
281.617	5.63162
281.834	3.87599
282.052	3.05996
282.269	4.92418
282.487	4.03161
282.704	3.65399
282.921	3.58626
283.139	5.20757
283.356	6.28947
283.574	5.59265
283.791	3.11608
284.008	8.02012
284.226	4.42248
284.443	5.26986
284.66	6.22155
284.877	5.09127
285.095	3.25934
285.312	2.49507
285.529	1.50366
285.746	1.2708
285.964	3.06919
286.181	2.1766
286.398	2.88814
286.615	4.3538
286.832	3.84676
287.05	1.18611
287.267	2.88379
287.484	2.9228
287.701	4.2002
287.918	3.96836
288.135	4.16297
288.352	1.99396
288.569	2.22274
288.786	3.8707
289.003	2.85735
289.22	4.3733
289.437	2.49555
289.654	4.43692
289.871	4.53378
290.088	4.31776
290.305	3.54619
290.522	2.74064
290.739	3.18462
290.956	4.55413
291.173	5.67047
291.39	5.16531
291.607	3.72483
291.824	2.95415
292.04	1.98754
292.257	4.43391
292.474	5.05535
292.691	3.31121
292.908	1.67433
293.125	2.65963
293.341	1.94141
293.558	7.539
293.775	3.1143
293.992	3.21725
294.208	1.37898
294.425	1.99496
294.642	2.93231
294.858	4.29042
295.075	1.29026
295.292	3.05149
295.508	3.84877
295.725	5.50199
295.942	2.67372
296.158	1.76878
296.375	3.11312
296.591	2.37922
296.808	2.37058
297.024	2.8145
297.241	3.27579
297.458	3.60457
297.674	0.26906
297.891	2.87641
298.107	2.20328
298.323	1.7687
298.54	4.15655
298.756	2.16719
298.973	0.94801
299.189	4.38203
299.406	1.73299
299.622	4.48575
299.838	4.39404
300.055	3.88995
300.271	1.00821
300.487	1.60738
300.704	1.84443
300.92	0.91156
301.136	5.78211
301.353	4.51397
301.569	2.92459
301.785	3.47936
302.001	3.95604
302.218	3.64123
302.434	3.4338
302.65	1.28275
302.866	2.38546
303.083	5.67731
303.299	5.58861
303.515	2.79024
303.731	3.13102
303.947	1.09382
304.163	2.2404
304.379	3.20865
304.595	3.77241
304.812	2.05975
305.028	1.84225
305.244	2.57437
305.46	4.17915
305.676	4.01335
305.892	4.97715
306.108	3.26377
306.324	2.58123
306.54	5.54542
306.756	3.87851
306.972	3.53851
307.187	2.68714
307.403	5.25951
307.619	2.26048
307.835	4.59321
308.051	4.86354
308.267	1.24754
308.483	4.34005
308.699	3.62875
308.914	3.09878
309.13	2.93843
309.346	0.89649
309.562	1.49514
309.778	1.0399
309.993	3.69749
310.209	2.52437
310.425	1.38878
310.641	2.48756
310.856	1.3303
311.072	1.491
311.288	2.81268
311.503	2.84961
311.719	0.69855
311.935	0.46977
312.15	3.13034
312.366	2.74664
312.581	3.49701
312.797	2.75029
313.013	3.8448
313.228	2.08504
313.444	3.112
313.659	1.98878
313.875	3.52116
314.09	2.70018
314.306	4.75559
314.521	4.1838
314.737	3.80428
314.952	3.40574
315.168	3.02252
315.383	3.59819
315.599	2.63899
315.814	2.1887
316.029	4.00607
316.245	1.19506
316.46	0.90374
316.675	4.77604
316.891	5.51889
317.106	7.19257
317.321	3.73958
317.537	3.42176
317.752	3.91344
317.967	3.99817
318.183	1.90295
318.398	2.76429
318.613	4.42046
318.828	4.85595
319.043	4.32574
319.259	2.68756
319.474	3.50071
319.689	4.73867
319.904	0.74887
320.119	3.95645
320.334	3.68042
320.549	2.69191
320.765	4.63626
320.98	3.52528
321.195	4.31302
321.41	2.94014
321.625	4.02495
321.84	5.60439
322.055	5.50342
322.27	2.0742
322.485	1.87177
322.7	3.6377
322.915	4.53043
323.13	1.70025
323.345	4.98367
323.56	4.04251
323.775	3.98805
323.989	3.68962
324.204	3.44319
324.419	4.29334
324.634	1.45854
324.849	2.84043
325.064	6.11507
325.279	4.24202
325.493	3.89375
325.708	4.4504
325.923	2.20782
326.138	1.97588
326.352	5.20374
326.567	4.67442
326.782	2.48772
326.997	1.9925
327.211	4.0228
327.426	3.82469
327.641	2.72651
327.855	1.00064
328.07	3.80826
328.285	5.4221
328.499	2.57388
328.714	3.55931
328.928	4.32753
329.143	3.26788
329.358	4.41495
329.572	4.71019
329.787	4.64246
330.001	6.51565
330.216	1.30319
330.43	5.23679
330.645	5.25792
330.859	4.3655
331.074	2.20574
331.288	3.44901
331.503	4.56937
331.717	1.74224
331.931	2.82804
332.146	3.4246
332.36	5.85116
332.575	3.90349
332.789	3.57585
333.003	2.70425
333.218	3.81572
333.432	2.12006
333.646	4.05018
333.86	4.89355
334.075	5.4964
334.289	2.35581
334.503	1.98315
334.717	3.82513
334.932	3.69764
335.146	5.05518
335.36	2.97462
335.574	4.47233
335.788	4.03027
336.003	5.00359
336.217	4.43859
336.431	4.20183
336.645	2.40671
336.859	1.73994
337.073	2.9182
337.287	3.3302
337.501	1.81009
337.715	3.31977
337.929	3.8265
338.143	1.51148
338.357	2.93485
338.571	1.82034
338.785	3.63606
338.999	2.36278
339.213	2.45171
339.427	1.44278
339.641	4.86068
339.855	2.82382
340.069	2.4908
340.283	4.5967
340.497	5.28584
340.711	3.65288
340.924	2.60703
341.138	1.90207
341.352	1.45608
341.566	3.34895
341.78	0.82818
341.993	2.49726
342.207	1.61946
342.421	3.34259
342.635	2.89267
342.848	2.24574
343.062	0.54708
343.276	2.18544
343.49	5.84031
343.703	2.24041
343.917	4.08741
344.131	4.09936
344.344	2.22407
344.558	2.31516
344.771	1.76227
344.985	4.56111
345.199	4.88668
345.412	3.30811
345.626	3.42486
345.839	1.0047
346.053	1.64955
346.266	1.72528
346.48	3.90376
346.693	3.37608
346.907	3.5132
347.12	1.99207
347.334	3.32101
347.547	3.44401
347.76	2.72167
347.974	4.59761
348.187	3.44162
348.401	2.41361
348.614	2.26243
348.827	2.40786
349.041	3.77698
349.254	1.0471
349.467	2.60535
349.681	1.34533
349.894	2.24913
350.107	4.39103
350.32	4.81008
350.534	0.96495
350.747	2.48119
350.96	1.77957
351.173	2.04008
351.386	2.36778
351.6	2.34193
351.813	2.10259
352.026	2.94258
352.239	1.12295
352.452	2.53858
352.665	3.80018
352.878	2.64401
353.092	5.33467
353.305	3.64134
353.518	2.84863
353.731	1.8831
353.944	4.18206
354.157	2.1208
354.37	1.60946
354.583	1.66542
354.796	0.84538
355.009	4.30546
355.222	2.79458
355.435	2.87675
355.647	3.98143
355.86	1.41259
356.073	2.61442
356.286	2.16722
356.499	3.39135
356.712	2.95515
356.925	3.16002
357.138	3.86886
357.35	1.48069
357.563	2.13481
357.776	2.79367
357.989	1.98011
358.201	3.2262
358.414	2.61808
358.627	3.82146
358.84	2.16264
359.052	1.29895
359.265	1.36144
359.478	3.85572
359.69	-0.32083
359.903	3.17637
360.116	3.24622
360.328	0.52803
360.541	3.28725
360.753	1.24925
360.966	1.67386
361.179	1.8421
361.391	1.79977
361.604	1.09361
361.816	1.68969
362.029	1.54397
362.241	1.32237
362.454	1.60531
362.666	1.21907
362.879	2.28031
363.091	2.0716
363.304	1.43304
363.516	2.1964
363.728	0.89199
363.941	3.06431
364.153	1.66331
364.366	-0.08547
364.578	1.08424
364.79	2.88756
365.003	2.05224
365.215	1.96736
365.427	2.60366
365.639	3.58688
365.852	2.58828
366.064	4.3345
366.276	1.69047
366.488	2.78209
366.701	1.82261
366.913	2.10294
367.125	2.19572
367.337	1.57575
367.549	1.75118
367.762	2.5709
367.974	2.36955
368.186	1.35741
368.398	3.44318
368.61	2.93893
368.822	2.98136
369.034	2.41269
369.246	2.92566
369.458	4.78142
369.67	1.12791
369.882	4.35743
370.094	0.21042
370.306	4.28197
370.518	1.92919
370.73	1.63846
370.942	1.3367
371.154	1.79779
371.366	1.56604
371.578	2.54275
371.79	1.17407
372.002	3.50473
372.214	4.01421
372.425	2.49205
372.637	3.85132
372.849	2.68047
373.061	0.07658
373.273	2.72284
373.484	2.73732
373.696	3.13804
373.908	-0.19206
374.12	3.38845
374.331	2.8041
374.543	1.3478
374.755	1.10806
374.967	2.19291
375.178	3.01159
375.39	2.01268
375.602	2.26222
375.813	0.86563
376.025	1.05195
376.236	2.01182
376.448	2.321
376.66	1.62593
376.871	1.5348
377.083	3.06904
377.294	3.35408
377.506	1.58807
377.717	3.56294
377.929	2.36161
378.14	1.14916
378.352	2.68015
378.563	2.37899
378.775	3.43289
378.986	1.64922
379.197	2.23695
379.409	1.70421
379.62	3.26194
379.832	2.50703
380.043	1.75287
380.254	2.21706
380.466	0.88918
380.677	5.09653
380.888	4.73493
381.1	4.86719
381.311	4.32824
381.522	2.13344
381.733	5.38798
381.945	1.69804
382.156	2.44694
382.367	1.72044
382.578	5.21364
382.789	4.91539
383.001	1.79609
383.212	3.60389
383.423	3.76599
383.634	3.52817
383.845	2.71538
384.056	1.78101
384.267	2.19374
384.478	1.84989
384.69	1.01188
384.901	2.65966
385.112	2.48059
385.323	3.85755
385.534	2.69325
385.745	2.38667
385.956	2.65385
386.167	1.07512
386.378	2.58301
386.588	0.84668
386.799	1.25877
387.01	0.38384
387.221	2.94087
387.432	1.86449
387.643	4.15831
387.854	2.0308
388.065	1.79075
388.275	2.01279
388.486	1.81697
388.697	2.04864
388.908	1.87648
389.119	3.41225
389.329	3.84328
389.54	2.32702
389.751	2.50086
389.962	3.31866
390.172	2.32375
390.383	1.57787
390.594	1.53782
390.804	1.39373
391.015	1.57694
391.226	2.10724
391.436	2.54296
391.647	2.49498
391.858	2.77712
392.068	0.5505
392.279	0.95487
392.489	2.22032
392.7	3.11619
392.91	1.02422
393.121	1.3917
393.331	2.53146
393.542	3.36065
393.752	2.67163
393.963	2.08901
394.173	2.16473
394.384	2.83338
394.594	2.04586
394.804	1.11515
395.015	2.36249
395.225	2.7972
395.436	1.066
395.646	2.74685
395.856	1.5086
396.067	0.80166
396.277	3.22358
396.487	2.62201
396.697	2.34744
396.908	3.19462
397.118	2.88543
397.328	2.36006
397.538	3.11092
397.749	1.48769
397.959	3.16271
398.169	2.93403
398.379	0.84289
398.589	3.03839
398.8	2.3335
399.01	2.05826
399.22	2.05227
399.43	4.71718
399.64	1.90445
399.85	2.95002
400.06	2.26186
400.27	1.50577
400.48	2.48922
400.69	3.83341
400.9	1.88768
401.11	1.57722
401.32	3.36704
401.53	1.85005
401.74	4.13628
401.95	3.14035
402.16	1.58118
402.37	2.97101
402.58	1.80728
402.79	2.98387
403	3.33613
403.209	1.86238
403.419	3.18468
403.629	1.95993
403.839	3.22596
404.049	3.28654
404.258	1.74088
404.468	1.53578
404.678	2.93135
404.888	3.196
405.097	1.62091
405.307	2.40311
405.517	2.93998
405.727	2.79081
405.936	2.05919
406.146	2.74721
406.356	3.84654
406.565	2.59383
406.775	1.95388
406.984	2.0958
407.194	4.29775
407.404	2.6859
407.613	3.00123
407.823	3.49241
408.032	3.85808
408.242	3.87919
408.451	2.19648
408.661	2.54121
408.87	4.44671
409.08	2.23009
409.289	3.011
409.499	2.81671
409.708	2.77423
409.918	0.85597
410.127	2.71354
410.336	4.33224
410.546	3.40709
410.755	2.31354
410.964	2.35178
411.174	2.01404
411.383	3.17995
411.592	3.26298
411.802	1.90808
412.011	3.75501
412.22	2.8096
412.429	4.37959
412.639	3.9958
412.848	4.08581
413.057	4.35678
413.266	4.01208
413.475	3.00137
413.685	3.67221
413.894	3.88434
414.103	4.16863
414.312	3.59532
414.521	2.88843
414.73	2.99269
414.939	4.97892
415.148	3.37975
415.357	3.33038
415.566	2.66292
415.776	2.39889
415.985	2.39984
416.194	3.76455
416.403	4.4274
416.611	1.73507
416.82	2.3114
417.029	2.91783
417.238	2.21935
417.447	2.04334
417.656	2.34936
417.865	2.11569
418.074	2.42331
418.283	2.67084
418.492	3.41261
418.7	3.28804
418.909	3.9399
419.118	2.82892
419.327	3.1027
419.536	2.82519
419.744	2.24907
419.953	3.52626
420.162	3.50843
420.371	2.28634
420.579	2.20953
420.788	3.39601
420.997	3.37816
421.205	3.42134
421.414	3.05791
421.623	2.99917
421.831	2.58066
422.04	3.4834
422.249	2.52937
422.457	3.13711
422.666	2.47401
422.874	3.60675
423.083	3.69711
423.291	3.51252
423.5	3.20744
423.708	3.33355
423.917	3.89118
424.125	3.27777
424.334	2.91356
424.542	4.95203
424.751	4.0804
424.959	3.73009
425.167	4.16416
425.376	4.04741
425.584	3.16893
425.793	3.62401
426.001	2.63267
426.209	3.80896
426.418	2.70258
426.626	2.98653
426.834	2.66786
427.042	3.43861
427.251	2.87085
427.459	4.15936
427.667	3.67066
427.875	2.43587
428.084	2.9487
428.292	4.42986
428.5	3.8094
428.708	2.61205
428.916	2.69411
429.124	3.59629
429.333	3.17216
429.541	3.08545
429.749	3.3796
429.957	3.3472
430.165	5.30548
430.373	2.40272
430.581	3.51567
430.789	4.53783
430.997	3.1347
431.205	2.90363
431.413	3.46619
431.621	3.20924
431.829	3.98519
432.037	3.05786
432.245	3.9273
432.453	3.53384
432.661	3.02912
432.869	4.97057
433.076	2.55168
433.284	3.08129
433.492	3.88406
433.7	4.43371
433.908	3.01246
434.116	3.39565
434.323	3.48872
434.531	3.45346
434.739	3.91786
434.947	4.23652
435.154	4.07652
435.362	3.69939
435.57	3.32598
435.778	3.0753
435.985	3.88252
436.193	3.10223
436.401	4.60427
436.608	3.60735
436.816	3.28492
437.023	5.07838
437.231	4.92352
437.439	3.75269
437.646	3.97796
437.854	3.93541
438.061	4.19195
438.269	3.30922
438.476	4.10012
438.684	3.6444
438.891	3.2428
439.099	3.04135
439.306	2.42143
439.514	2.76752
439.721	3.85996
439.929	3.00266
440.136	3.80277
440.343	3.71472
440.551	3.25299
440.758	5.11435
440.965	4.09105
441.173	3.60615
441.38	3.16089
441.587	3.86535
441.795	3.27517
442.002	3.95719
442.209	3.84154
442.416	4.23489
442.624	4.11857
442.831	4.07878
443.038	3.37702
443.245	2.94145
443.452	3.37161
443.66	4.38472
443.867	3.19198
444.074	3.16071
444.281	3.09426
444.488	3.40689
444.695	3.42253
444.902	3.1592
445.109	3.95065
445.316	3.33301
445.523	3.22974
445.73	2.84245
445.937	3.57909
446.144	3.94734
446.351	4.05362
446.558	3.01555
446.765	4.48711
446.972	4.50436
447.179	3.61357
447.386	4.6346
447.593	3.32562
447.8	4.49927
448.007	3.5018
448.214	3.71519
448.42	3.23778
448.627	4.67242
448.834	3.68148
449.041	3.43595
449.248	3.54083
449.454	4.5511
449.661	5.4001
449.868	3.60838
450.075	3.39324
450.281	2.10784
450.488	2.79587
450.695	3.09348
450.901	3.23751
451.108	3.34789
451.315	4.66196
451.521	3.79274
451.728	4.44112
451.935	3.14808
452.141	3.66409
452.348	3.66755
452.554	3.59916
452.761	3.39213
452.967	5.04491
453.174	3.88495
453.38	4.03919
453.587	2.71814
453.793	3.83568
454	4.68709
454.206	5.4446
454.413	4.78991
454.619	4.17768
454.825	3.13564
455.032	4.43294
455.238	4.58559
455.445	2.8324
455.651	3.8947
455.857	2.25417
456.064	3.73788
456.27	3.61767
456.476	3.63273
456.682	2.68354
456.889	4.23855
457.095	4.27506
457.301	5.80272
457.507	3.74154
457.714	4.05021
457.92	3.6699
458.126	3.13797
458.332	3.47823
458.538	3.21388
458.744	3.33152
458.951	3.32375
459.157	4.81447
459.363	3.63202
459.569	3.36475
459.775	4.22809
459.981	3.13543
460.187	3.68754
460.393	4.1249
460.599	4.75212
460.805	3.92702
461.011	3.89205
461.217	4.86232
461.423	4.95328
461.629	3.72972
461.835	4.62965
462.041	3.77589
462.247	5.39491
462.453	3.872
462.658	3.97313
462.864	4.65908
463.07	4.27893
463.276	4.30843
463.482	4.26678
463.688	5.19976
463.893	3.48458
464.099	3.7839
464.305	5.33129
464.511	3.62799
464.716	4.03622
464.922	4.62415
465.128	3.3875
465.333	5.6008
465.539	4.45667
465.745	3.82967
465.95	4.3462
466.156	6.33245
466.362	5.11039
466.567	3.98359
466.773	3.8219
466.978	5.38145
467.184	3.24294
467.389	2.27675
467.595	4.59789
467.8	3.26378
468.006	5.32339
468.211	5.0052
468.417	3.32661
468.622	4.48593
468.828	4.78841
469.033	4.22175
469.239	6.66102
469.444	3.66207
469.649	5.00635
469.855	3.91373
470.06	4.23756
470.266	3.22262
470.471	4.71793
470.676	4.38444
470.881	2.8222
471.087	4.54462
471.292	5.91546
471.497	3.19073
471.703	4.0078
471.908	3.59424
472.113	4.1794
472.318	4.9448
472.523	3.45599
472.729	4.41463
472.934	4.54141
473.139	3.98977
473.344	4.60506
473.549	5.24083
473.754	3.64652
473.959	6.03286
474.164	3.53223
474.369	4.01984
474.575	4.99007
474.78	4.23367
474.985	3.82612
475.19	2.72454
475.395	3.39391
475.6	4.17102
475.804	5.16277
476.009	4.0344
476.214	4.15291
476.419	3.69451
476.624	2.75795
476.829	3.35391
477.034	4.5452
477.239	3.42027
477.444	4.15078
477.648	4.42208
477.853	4.57546
478.058	3.70002
478.263	3.492
478.468	3.07866
478.672	3.24466
478.877	4.98467
479.082	5.51329
479.287	4.1707
479.491	4.10486
479.696	3.00347
479.901	4.68412
480.105	4.55596
480.31	3.51231
480.515	3.7568
480.719	5.66585
480.924	3.23118
481.128	2.92012
481.333	3.86546
481.538	3.92532
481.742	3.28421
481.947	3.91367
482.151	3.86599
482.356	3.92823
482.56	4.98432
482.765	5.22138
482.969	6.43452
483.174	7.26598
483.378	8.52016
483.582	8.2876
483.787	9.32198
483.991	9.13656
484.196	9.21229
484.4	8.86724
484.604	9.3648
484.809	7.75679
485.013	7.74343
485.217	6.73725
485.422	5.96783
485.626	5.41252
485.83	5.31472
486.034	5.03148
486.239	5.25378
486.443	5.28296
486.647	5.33262
486.851	6.12311
487.055	6.68123
487.26	5.99655
487.464	6.6528
487.668	5.9032
487.872	5.85348
488.076	6.48679
488.28	5.94738
488.484	5.41794
488.688	5.32381
488.892	5.49811
489.096	5.26538
489.3	4.58174
489.504	4.22909
489.708	4.45038
489.912	4.45666
490.116	4.31523
490.32	3.56297
490.524	4.45213
490.728	4.65094
490.932	4.6792
491.136	4.60829
491.34	5.71008
491.544	5.79305
491.748	5.1812
491.951	5.40061
492.155	4.95647
492.359	5.20793
492.563	4.19447
492.767	3.90212
492.97	3.84863
493.174	3.43964
493.378	3.81608
493.582	3.3046
493.785	3.84807
493.989	4.06229
494.193	4.07096
494.396	3.7412
494.6	4.34076
494.804	3.9166
495.007	3.35382
495.211	3.37696
495.414	3.57892
495.618	3.90085
495.822	4.6486
496.025	3.60044
496.229	4.33415
496.432	3.1134
496.636	3.68905
496.839	3.43418
497.043	4.91042
497.246	3.69552
497.45	3.36619
497.653	3.45559
497.856	3.79652
498.06	2.74761
498.263	3.55059
498.467	3.15225
498.67	4.51615
498.873	3.97654
499.077	3.40104
499.28	3.30273
499.483	3.91424
499.686	4.36306
499.89	3.99535
500.093	4.29922
500.296	3.16618
500.499	4.9773
500.703	3.83143
500.906	3.8958
501.109	5.26243
501.312	3.81711
501.515	3.61594
501.719	4.13226
501.922	5.20772
502.125	4.1264
502.328	3.70767
502.531	2.97641
502.734	3.83518
502.937	2.22426
503.14	3.74929
503.343	2.77423
503.546	3.35504
503.749	3.14346
503.952	4.10555
504.155	3.00998
504.358	4.29429
504.561	3.70152
504.764	2.90568
504.967	3.66166
505.17	3.7724
505.373	4.98788
505.576	3.83562
505.778	4.45629
505.981	3.30181
506.184	4.5547
506.387	2.47559
506.59	5.16107
506.793	4.7521
506.995	3.99646
507.198	2.24041
507.401	3.7414
507.604	3.98289
507.806	2.79491
508.009	2.94496
508.212	3.9658
508.414	3.21179
508.617	2.95233
508.82	3.54164
509.022	4.53017
509.225	3.66484
509.427	2.24794
509.63	4.48483
509.833	3.52633
510.035	3.38021
510.238	2.28679
510.44	4.56337
510.643	1.82138
510.845	5.378
511.048	3.84557
511.25	3.22882
511.453	3.47917
511.655	3.80365
511.858	3.05841
512.06	4.16813
512.262	3.49841
512.465	4.15083
512.667	3.00398
512.869	2.66051
513.072	3.85384
513.274	4.31001
513.476	4.06666
513.679	4.25273
513.881	2.73137
514.083	4.90289
514.286	3.09541
514.488	3.2407
514.69	2.87216
514.892	2.47071
515.094	3.93191
515.297	3.36291
515.499	3.73979
515.701	2.65175
515.903	4.9017
516.105	4.82232
516.307	4.07969
516.509	1.87732
516.711	2.36618
516.913	3.38648
517.116	3.2371
517.318	2.91342
517.52	4.08374
517.722	3.69812
517.924	2.21584
518.126	3.37278
518.328	2.61783
518.529	3.5135
518.731	4.48013
518.933	2.69536
519.135	3.12806
519.337	4.05659
519.539	3.55713
519.741	2.11885
519.943	3.22796
520.145	3.1093
520.346	3.74828
520.548	3.16667
520.75	3.63805
520.952	3.14954
521.153	3.60964
521.355	3.76942
521.557	2.55847
521.759	3.81537
521.96	3.47951
522.162	2.7693
522.364	4.27178
522.565	2.81605
522.767	4.00033
522.969	4.47272
523.17	3.75854
523.372	3.94205
523.573	2.77683
523.775	3.20567
523.977	2.46962
524.178	4.60858
524.38	2.70357
524.581	3.67515
524.783	2.77263
524.984	3.56976
525.186	3.10187
525.387	3.4501
525.589	2.98381
525.79	2.73697
525.991	2.38602
526.193	3.16887
526.394	2.00971
526.596	3.09557
526.797	3.06376
526.998	2.49161
527.2	2.15605
527.401	3.59941
527.602	3.60207
527.803	4.97089
528.005	4.51627
528.206	5.03933
528.407	5.25315
528.608	4.8203
528.81	5.021
529.011	4.22573
529.212	5.34598
529.413	4.65843
529.614	4.17651
529.815	4.22311
530.017	4.03508
530.218	3.52424
530.419	2.86449
530.62	3.29454
530.821	3.4163
531.022	2.38718
531.223	3.69256
531.424	3.51912
531.625	3.32285
531.826	3.23131
532.027	3.07897
532.228	3.85704
532.429	3.31668
532.63	3.1679
532.831	3.55014
533.032	3.44346
533.233	3.94115
533.433	3.7295
533.634	3.9774
533.835	3.32187
534.036	2.87836
534.237	3.16412
534.438	2.83575
534.638	2.47024
534.839	2.6641
535.04	3.57138
535.241	2.94145
535.441	4.24413
535.642	3.40527
535.843	2.34213
536.043	2.43142
536.244	2.61209
536.445	2.71391
536.645	3.60309
536.846	2.98206
537.047	3.97274
537.247	2.48278
537.448	3.00649
537.648	3.16909
537.849	3.23373
538.049	3.22525
538.25	4.04588
538.451	3.54006
538.651	2.71438
538.851	3.77435
539.052	4.34331
539.252	3.94001
539.453	3.24169
539.653	3.25939
539.854	3.08897
540.054	2.9629
540.254	3.56151
540.455	3.73417
540.655	2.90466
540.855	3.63008
541.056	4.19476
541.256	3.47094
541.456	4.59293
541.657	3.57514
541.857	4.64213
542.057	3.13982
542.257	3.0175
542.458	3.79013
542.658	3.93902
542.858	2.55438
543.058	3.94346
543.258	3.54467
543.458	2.49985
543.659	2.32444
543.859	3.75707
544.059	3.65733
544.259	3.02352
544.459	4.15869
544.659	2.86469
544.859	3.71785
545.059	2.86079
545.259	3.76375
545.459	3.65792
545.659	4.08058
545.859	3.29334
546.059	3.5333
546.259	2.6402
546.459	2.0292
546.659	2.59738
546.859	3.87237
547.059	3.67289
547.258	3.77135
547.458	3.6142
547.658	2.58962
547.858	2.67649
548.058	4.04162
548.258	3.51329
548.457	2.90729
548.657	6.27522
548.857	3.65197
549.057	4.68682
549.256	4.38129
549.456	3.878
549.656	2.04615
549.855	5.90021
550.055	4.05961
550.255	5.8796
550.454	4.61746
550.654	5.28001
550.853	5.31874
551.053	5.17333
551.253	4.47224
551.452	4.55629
551.652	2.8429
551.851	2.41708
552.051	3.69271
552.25	3.42823
552.45	2.924
552.649	3.57362
552.849	3.03211
553.048	3.90257
553.248	4.59145
553.447	2.9677
553.646	4.92835
553.846	5.78063
554.045	5.31489
554.244	2.89839
554.444	6.06839
554.643	3.52045
554.842	5.7773
555.042	6.59847
555.241	3.65822
555.44	3.36737
555.64	4.31468
555.839	6.17865
556.038	5.0167
556.237	4.10538
556.436	4.23989
556.636	4.9119
556.835	3.42229
557.034	6.13071
557.233	4.30188
557.432	3.18456
557.631	5.52318
557.83	4.2879
558.029	3.81405
558.228	4.06115
558.427	3.31649
558.626	4.836
558.825	3.70173
559.024	4.69278
559.223	6.66175
559.422	4.42173
559.621	5.37949
559.82	1.89662
560.019	4.68557
560.218	3.99007
560.417	1.47125
560.616	3.89031
560.815	8.05802
561.014	2.56129
561.212	5.37426
561.411	4.5791
561.61	2.77668
561.809	4.111
562.008	6.34075
562.206	4.19631
562.405	5.1518
562.604	4.52402
562.803	4.69438
563.001	4.39183
563.2	2.95182
563.399	5.2178
563.597	3.20299
563.796	4.74907
563.995	3.14729
564.193	5.03092
564.392	3.90436
564.59	7.20831
564.789	2.34035
564.988	4.0162
565.186	4.40521
565.385	3.97213
565.583	3.77737
565.782	4.07785
565.98	3.93284
566.179	4.19775
566.377	2.84959
566.575	3.26759
566.774	5.15911
566.972	5.16122
567.171	6.34758
567.369	5.7886
567.567	4.29429
567.766	4.7137
567.964	2.06563
568.162	5.06709
568.361	5.75704
568.559	4.5926
568.757	5.03853
568.956	4.82724
569.154	4.54341
569.352	5.60821
569.55	4.33194
569.748	4.50891
569.947	3.54994
570.145	3.62786
570.343	3.3622
570.541	5.77183
570.739	2.89519
570.937	4.60577
571.135	4.79419
571.333	6.16077
571.532	6.15199
571.73	4.72045
571.928	5.47045
572.126	4.98514
572.324	3.81394
572.522	5.881
572.72	7.41922
572.918	4.30228
573.116	4.75981
573.313	4.45727
573.511	4.14759
573.709	4.00587
573.907	5.28162
574.105	4.15761
574.303	2.77599
574.501	2.7956
574.699	4.77698
574.896	4.79685
575.094	5.08395
575.292	3.20918
575.49	5.72063
575.688	4.65707
575.885	6.33519
576.083	6.9367
576.281	5.28328
576.478	4.3794
576.676	5.75922
576.874	3.66846
577.071	4.71565
577.269	7.87728
577.467	4.97351
577.664	5.09125
577.862	6.15145
578.059	4.42517
578.257	6.09003
578.455	5.06645
578.652	5.23334
578.85	3.15561
579.047	5.42752
579.245	5.04858
579.442	5.41438
579.64	5.28085
579.837	3.13014
580.034	8.5624
580.232	4.81262
580.429	4.16935
580.627	6.4355
580.824	7.2556
581.021	6.26695
581.219	5.13896
581.416	4.24787
581.613	7.38516
581.811	7.16257
582.008	4.58072
582.205	6.46679
582.402	5.98017
582.6	7.77001
582.797	5.7821
582.994	6.53657
583.191	6.76812
583.388	5.9873
583.586	6.76076
583.783	7.29732
583.98	4.73427
584.177	6.05777
584.374	1.86274
584.571	5.54805
584.768	5.88999
584.965	5.33343
585.162	7.00853
585.359	8.17226
585.556	6.1846
585.753	6.48155
585.95	3.97854
586.147	4.70983
586.344	6.60828
586.541	5.66912
586.738	4.21927
586.935	5.82364
587.132	5.08685
587.329	7.64441
587.526	5.84189
587.722	12.99717
587.919	3.88987
588.116	6.3955
588.313	7.87081
588.51	8.7752
588.706	5.61224
588.903	6.81713
589.1	7.16028
589.297	9.86507
589.493	5.68754
589.69	6.67984
589.887	4.99537
590.083	4.18631
590.28	5.01318
590.477	7.31528
590.673	6.91087
590.87	8.05217
591.067	5.58808
591.263	6.73281
591.46	6.94365
591.656	5.85059
591.853	8.30655
592.049	4.82066
592.246	5.37152
592.442	8.15998
592.639	7.68842
592.835	4.71178
593.032	6.86526
593.228	3.88706
593.425	3.96358
593.621	3.92014
593.817	5.91218
594.014	5.2529
594.21	6.24818
594.406	7.56988
594.603	6.44109
594.799	5.39326
594.995	2.50963
595.192	7.53514
595.388	5.33552
595.584	5.25367
595.78	3.6488
595.977	8.69544
596.173	7.98428
596.369	5.38751
596.565	4.30241
596.761	3.7405
596.957	7.19401
597.154	4.41758
597.35	4.95372
597.546	4.57384
597.742	6.38422
597.938	6.37
598.134	4.28052
598.33	6.48895
598.526	8.45255
598.722	7.28237
598.918	8.7092
599.114	7.2063
599.31	5.17044
599.506	6.8265
599.702	5.34318
599.898	6.84758
600.094	7.96212
600.29	7.68569
600.485	7.71171
600.681	5.86972
600.877	8.93178
601.073	6.93018
601.269	9.78106
601.465	8.62317
601.66	5.25548
601.856	4.04596
602.052	8.85369
602.248	5.70109
602.443	3.23964
602.639	4.37389
602.835	5.07998
603.03	4.80832
603.226	7.24598
603.422	4.62266
603.617	5.45629
603.813	5.04604
604.009	4.70823
604.204	7.00037
604.4	3.50153
604.595	6.91518
604.791	4.43535
604.986	6.0396
605.182	4.40232
605.377	4.96075
605.573	4.98794
605.768	6.15245
605.964	6.83756
606.159	7.37349
606.355	8.61506
606.55	6.01011
606.746	7.88694
606.941	6.60576
607.136	9.84551
607.332	10.9397
607.527	4.6467
607.722	7.116
607.918	6.56994
608.113	5.06236
608.308	7.48353
608.503	7.12875
608.699	6.87127
608.894	6.84372
609.089	4.9546
609.284	6.35191
609.479	5.44849
609.675	6.89851
609.87	5.38661
610.065	7.04675
610.26	7.78518
610.455	7.59254
610.65	6.14276
610.845	6.95148
611.04	8.1643
611.235	6.65982
611.43	6.02616
611.625	4.62463
611.82	9.40014
612.015	5.50563
612.21	9.63357
612.405	4.79978
612.6	10.46838
612.795	9.46206
612.99	8.80084
613.185	5.2663
613.38	5.65839
613.575	8.00534
613.77	12.2464
613.965	4.71544
614.159	5.7025
614.354	9.9193
614.549	9.23916
614.744	8.81449
614.938	5.22754
615.133	4.93644
615.328	9.81221
615.523	9.50252
615.717	12.91158
615.912	6.36292
616.107	7.73769
616.301	6.82782
616.496	5.86751
616.691	10.87944
616.885	8.90852
617.08	12.82576
617.274	10.09921
617.469	11.88591
617.664	8.97377
617.858	6.36874
618.053	8.37258
618.247	7.21477
618.442	3.59535
618.636	10.06756
618.831	6.86748
619.025	6.75069
619.219	13.01185
619.414	1.19824
619.608	7.66364
619.803	5.90649
619.997	12.03028
620.191	10.208
620.386	8.74517
620.58	8.13764
620.774	4.69036
620.969	4.54349
621.163	7.87092
621.357	5.69686
621.551	7.44146
621.746	8.22409
621.94	7.90159
622.134	14.95477
622.328	12.34581
622.522	5.37268
622.716	9.98366
622.911	9.93066
623.105	9.53738
623.299	8.37845
623.493	14.96353
623.687	6.03151
623.881	7.24423
624.075	9.19946
624.269	10.55686
624.463	4.59675
624.657	4.70129
624.851	9.2361
625.045	9.85336
625.239	9.76974
625.433	6.28063
625.627	11.07617
625.821	6.44209
626.015	6.03494
626.209	7.22998
626.403	4.61403
626.596	8.20928
626.79	8.68948
626.984	4.94739
627.178	8.25449
627.372	8.37635
627.565	8.9245
627.759	4.2448
627.953	5.07252
628.147	8.53906
628.34	9.12753
628.534	11.92299
628.728	7.30085
628.921	9.60601
629.115	9.77693
629.309	9.60653
629.502	10.07846
629.696	9.08862
629.89	8.02985
630.083	8.50612
630.277	9.34331
630.47	12.265
630.664	7.60009
630.857	5.18195
631.051	10.11066
631.244	11.0235
631.438	10.50272
631.631	6.42399
631.825	11.35721
632.018	9.87434
632.212	12.75542
632.405	11.20323
632.598	6.83515
632.792	9.09745
632.985	3.64849
633.178	7.23141
633.372	7.8622
633.565	8.418
633.758	11.33578
633.952	6.56902
634.145	6.31997
634.338	8.13735
634.531	8.08999
634.724	6.97051
634.918	8.90442
635.111	7.90388
635.304	7.25109
635.497	13.538
635.69	9.39789
635.883	11.32355
636.077	6.22654
636.27	10.11266
636.463	9.11117
636.656	9.78701
636.849	7.4354
637.042	9.65688
637.235	13.5689
637.428	10.64651
637.621	10.66818
637.814	13.30274
638.007	13.59819
638.2	13.27604
638.393	14.16198
638.586	6.6393
638.778	8.21277
638.971	9.80278
639.164	13.33904
639.357	10.97538
639.55	12.76585
639.743	11.65669
639.935	11.47094
640.128	14.62391
640.321	12.06813
640.514	10.83386
640.707	16.47668
640.899	11.48794
641.092	5.8202
641.285	30.19634
641.477	4.22893
641.67	15.86219
641.863	13.84291
642.055	11.01583
642.248	11.06577
642.441	9.14701
642.633	12.09055
642.826	13.30194
643.018	14.0783
643.211	15.32097
643.403	14.92469
643.596	16.57575
643.788	15.11306
643.981	9.31865
644.173	12.97166
644.366	9.72448
644.558	6.68111
644.751	13.10744
644.943	6.75782
645.135	16.08384
645.328	16.31465
645.52	13.14224
645.712	13.5676
645.905	20.37074
646.097	7.802
646.289	11.62797
646.482	17.10559
646.674	9.58756
646.866	14.41002
647.058	12.57948
647.251	7.90407
647.443	9.07744
647.635	10.5933
647.827	8.82189
648.019	8.23306
648.211	11.3032
648.404	11.55008
648.596	15.69089
648.788	12.00532
648.98	12.18147
649.172	12.30494
649.364	13.12224
649.556	6.27541
649.748	18.02527
649.94	8.38594
650.132	12.46511
650.324	8.65224
650.516	8.82879
650.708	14.23088
650.9	7.1296
651.092	9.40798
651.284	6.4703
651.476	8.1916
651.667	12.71461
651.859	14.91199
652.051	10.78999
652.243	11.6041
652.435	9.66443
652.627	12.61964
652.818	12.61355
653.01	6.271
653.202	8.97175
653.394	10.83783
653.585	13.00038
653.777	25.02465
653.969	15.65874
654.16	15.36039
654.352	8.38457
654.544	11.16717
654.735	15.10737
654.927	11.96112
655.118	16.58653
655.31	14.8217
655.502	14.71812
655.693	9.74017
655.885	13.55068
656.076	16.41362
656.268	12.56891
656.459	16.1502
656.651	15.86523
656.842	10.15922
657.034	9.60098
657.225	13.94975
657.416	16.4055
657.608	15.85224
657.799	10.99484
657.99	13.82362
658.182	8.55808
658.373	8.74814
658.564	13.38452
658.756	10.95591
658.947	10.18885
659.138	7.58395
659.33	9.31155
659.521	8.50711
659.712	10.11965
659.903	9.8642
660.094	9.14334
660.286	6.61381
660.477	17.26289
660.668	12.83506
660.859	11.46219
661.05	7.29396
661.241	13.67503
661.432	13.88061
661.623	11.41704
661.814	11.04276
662.006	7.00414
662.197	13.51604
662.388	16.35119
662.579	13.14947
662.77	17.58463
662.96	21.84301
663.151	15.64175
663.342	7.2594
663.533	13.67655
663.724	12.06783
663.915	18.03625
664.106	12.85783
664.297	19.37898
664.488	15.74761
664.678	11.3346
664.869	14.91208
665.06	15.55522
665.251	13.8323
665.442	14.78955
665.632	9.51631
665.823	20.70525
666.014	3.24267
666.204	15.44237
666.395	18.34106
666.586	24.57262
666.776	16.59191
666.967	20.44163
667.158	13.81936
667.348	19.3689
667.539	9.65614
667.729	16.65177
667.92	10.0185
668.111	17.33928
668.301	15.69762
668.492	11.73315
668.682	12.77817
668.873	12.08013
669.063	9.24691
669.253	13.6758
669.444	17.79414
669.634	12.6027
669.825	20.58366
670.015	17.04885
670.206	10.72131
670.396	22.82834
670.586	12.77823
670.777	15.66559
670.967	6.1048
671.157	13.2226
671.347	11.17296
671.538	19.98875
671.728	15.38054
671.918	21.23822
672.108	18.28677
672.299	14.66513
672.489	15.54429
672.679	12.86107
672.869	16.91269
673.059	20.93235
673.249	17.55442
673.44	11.78274
673.63	14.05744
673.82	19.18744
674.01	10.96492
674.2	16.43098
674.39	26.23531
674.58	16.30657
674.77	15.47204
674.96	14.7595
675.15	31.31728
675.34	19.68739
675.53	14.69351
675.72	12.59944
675.91	9.25734
676.099	21.99974
676.289	24.06029
676.479	19.05638
676.669	13.46328
676.859	17.37563
677.049	10.72425
677.238	15.11836
677.428	21.64959
677.618	16.04672
677.808	19.46503
677.997	16.3299
678.187	10.3299
678.377	13.71325
678.567	12.01071
678.756	13.2985
678.946	12.92036
679.136	9.08131
679.325	11.01668
679.515	10.84785
679.704	8.52724
679.894	16.11614
680.084	14.32611
680.273	18.74265
680.463	9.64564
680.652	10.25887
680.842	13.6658
681.031	17.16515
681.221	10.16788
681.41	16.33702
681.6	13.46018
681.789	17.15221
681.978	19.26263
682.168	15.17594
682.357	16.29098
682.547	18.47887
682.736	15.87404
682.925	20.47365
683.115	21.06111
683.304	18.63922
683.493	17.54941
683.682	17.73126
683.872	16.83348
684.061	20.4387
684.25	18.42214
684.439	24.64788
684.629	18.43902
684.818	30.6661
685.007	15.86173
685.196	14.65758
685.385	23.7823
685.574	18.76351
685.763	18.06083
685.952	17.58221
686.142	11.00223
686.331	23.29061
686.52	8.53166
686.709	24.72479
686.898	23.30503
687.087	19.83085
687.276	23.76321
687.465	20.33226
687.654	14.34559
687.842	23.89164
688.031	10.51769
688.22	22.85018
688.409	17.14246
688.598	17.11742
688.787	28.65313
688.976	17.81319
689.165	26.12593
689.353	14.88679
689.542	19.2137
689.731	21.3487
689.92	26.72385
690.108	23.41793
690.297	16.41778
690.486	18.73058
690.675	21.57776
690.863	26.2777
691.052	26.21767
691.241	20.04579
691.429	20.13713
691.618	26.20365
691.806	12.25698
691.995	17.87819
692.184	18.89754
692.372	15.94388
692.561	18.88844
692.749	19.12599
692.938	31.35941
693.126	22.00922
693.315	16.13268
693.503	21.9518
693.692	22.53197
693.88	24.74527
694.068	30.93396
694.257	19.39083
694.445	20.90799
694.634	9.88677
694.822	25.81565
695.01	27.12271
695.199	27.20358
695.387	27.86843
695.575	26.27343
695.763	19.79224
695.952	18.31299
696.14	12.42884
696.328	16.61502
696.516	20.34476
696.705	20.10611
696.893	20.26474
697.081	9.8689
697.269	21.85776
697.457	12.95868
697.645	11.47563
697.833	20.98006
698.021	12.55882
698.21	14.32304
698.398	15.63961
698.586	11.01064
698.774	10.72971
698.962	14.96384
699.15	11.69001
699.338	9.40479
699.526	18.70003
699.714	13.74229
699.901	14.40376
700.089	22.49821
700.277	13.77782
700.465	16.65455
700.653	22.44412
700.841	20.69932
701.029	15.06008
701.217	25.77719
701.404	20.46342
701.592	27.03244
701.78	31.19156
701.968	18.05366
702.155	18.04395
702.343	13.2966
702.531	27.31047
702.718	22.43117
702.906	19.13685
703.094	16.30058
703.281	28.96313
703.469	18.27102
703.657	27.5851
703.844	39.69368
704.032	31.46778
704.219	17.26435
704.407	23.32613
704.595	29.83095
704.782	22.40033
704.97	18.62611
705.157	18.07115
705.345	31.77616
705.532	37.2661
705.719	23.86857
705.907	30.0902
706.094	22.73836
706.282	32.97554
706.469	20.63701
706.656	22.75319
706.844	20.66549
707.031	27.98592
707.218	23.35398
707.406	32.24801
707.593	26.53284
707.78	25.45221
707.968	22.05916
708.155	16.27716
708.342	26.04965
708.529	26.09012
708.716	23.6574
708.904	33.57552
709.091	28.47447
709.278	16.11634
709.465	34.50207
709.652	34.74395
709.839	31.6562
710.026	24.32605
710.213	13.31758
710.4	26.04517
710.587	28.46042
710.774	31.7755
710.961	30.94804
711.148	23.23128
711.335	31.21316
711.522	23.45539
711.709	26.32063
711.896	37.92384
712.083	30.10272
712.27	18.30188
712.457	25.12512
712.644	15.70579
712.831	38.02358
713.017	25.803
713.204	28.75749
713.391	19.78809
713.578	32.74777
713.765	33.34919
713.951	28.71104
714.138	46.55254
714.325	29.9634
714.512	25.16675
714.698	20.89149
714.885	35.92221
715.072	27.64457
715.258	26.76514
715.445	22.39748
715.631	33.90425
715.818	9.14868
716.005	21.77293
716.191	28.40798
716.378	23.62179
716.564	31.94004
716.751	20.0864
716.937	22.46628
717.124	35.37538
717.31	20.64361
717.497	37.7797
717.683	20.40874
717.869	44.39753
718.056	23.27419
718.242	31.63732
718.429	26.51534
718.615	19.2755
718.801	28.71468
718.988	35.08048
719.174	31.49955
719.36	26.68661
719.547	38.80662
719.733	30.28664
719.919	31.4757
720.105	33.78143
720.291	27.75248
720.478	29.74475
720.664	28.71235
720.85	24.99198
721.036	52.02026
721.222	40.96814
721.408	28.52887
721.595	46.2594
721.781	43.74462
721.967	37.99713
722.153	42.75137
722.339	35.41935
722.525	33.26139
722.711	20.78225
722.897	18.33628
723.083	26.86066
723.269	38.52564
723.455	50.25455
723.641	56.10923
723.827	32.74888
724.012	34.31205
724.198	29.76053
724.384	43.02602
724.57	33.26496
724.756	18.48448
724.942	15.39027
725.127	39.77051
725.313	43.13138
725.499	41.93211
725.685	47.65581
725.87	34.94477
726.056	24.75857
726.242	42.31917
726.428	19.511
726.613	39.25484
726.799	28.66078
726.985	22.31573
727.17	19.44582
727.356	46.25588
727.541	24.09107
727.727	30.13498
727.913	36.86643
728.098	26.0316
728.284	37.7851
728.469	20.29817
728.655	23.63227
728.84	38.8723
729.026	37.34511
729.211	38.88262
729.397	34.16529
729.582	38.58979
729.767	30.07953
729.953	33.46452
730.138	40.12379
730.323	12.49005
730.509	21.57578
730.694	45.00622
730.879	36.49701
731.065	32.98205
731.25	50.84793
731.435	37.09636
731.621	18.62877
731.806	25.83593
731.991	33.43655
732.176	21.86359
732.361	42.51033
732.547	32.14422
732.732	18.86197
732.917	52.98849
733.102	21.46099
733.287	25.53328
733.472	32.54617
733.657	33.10038
733.842	19.83897
734.027	29.7507
734.212	32.7302
734.397	26.66302
734.582	34.39728
734.767	40.65145
734.952	47.5713
735.137	10.54992
735.322	47.28652
735.507	37.5964
735.692	36.04677
735.877	54.75852
736.062	49.71775
736.247	38.58496
736.431	34.30079
736.616	45.44583
736.801	38.33802
736.986	34.80624
737.171	25.71113
737.355	21.05108
737.54	46.72258
737.725	34.80888
737.909	61.39561
738.094	30.07393
738.279	43.03655
738.463	31.77975
738.648	39.91166
738.833	36.6739
739.017	53.99686
739.202	31.43029
739.386	33.6035
739.571	25.55762
739.756	42.07576
739.94	35.40889
740.125	45.29342
740.309	28.50349
740.494	44.47706
740.678	37.8845
740.863	41.14233
741.047	36.28274
741.231	48.32134
741.416	28.4849
741.6	52.32527
741.785	29.79468
741.969	43.90587
742.153	49.58652
742.338	14.75241
742.522	37.53543
742.706	46.19974
742.89	22.50445
743.075	38.24422
743.259	54.59372
743.443	46.74701
743.627	47.93123
743.812	62.34306
743.996	19.51527
744.18	34.05433
744.364	33.17286
744.548	66.12029
744.732	36.10617
744.916	44.17506
745.1	43.20452
745.285	34.43208
745.469	41.27511
745.653	58.91013
745.837	24.97132
746.021	63.27818
746.205	52.03879
746.389	42.88957
746.573	34.29898
746.757	57.37114
746.94	30.96228
747.124	49.16206
747.308	25.34135
747.492	52.69652
747.676	30.57032
747.86	66.08795
748.044	33.85914
748.227	19.97526
748.411	79.86867
748.595	39.62033
748.779	27.75511
748.963	45.01759
749.146	38.49256
749.33	29.57108
749.514	26.47446
749.697	54.0815
749.881	31.53836
750.065	27.58653
750.248	38.9709
750.432	69.53592
750.616	39.60699
750.799	22.65831
750.983	64.30269
751.166	72.905
751.35	21.77732
751.533	46.53789
751.717	54.26642
751.9	57.55798
752.084	36.0277
752.267	27.40914
752.451	30.41239
752.634	40.04339
752.818	43.38306
753.001	49.70653
753.184	51.39943
753.368	43.77627
753.551	4.31472
753.734	29.63793
753.918	63.13868
754.101	31.26401
754.284	47.98137
754.467	35.34733
754.651	31.28831
754.834	31.74757
755.017	54.4491
755.2	50.11546
755.384	27.71102
755.567	46.62968
755.75	54.39079
755.933	35.16738
756.116	44.89776
756.299	34.37049
756.482	28.39988
756.665	47.4123
756.848	41.55391
757.032	45.30135
757.215	24.43275
757.398	30.55333
757.581	28.23631
757.764	74.53383
757.947	40.05495
758.129	55.39651
758.312	10.95194
758.495	37.5901
758.678	36.81561
758.861	38.24414
759.044	64.90935
759.227	29.33084
759.41	26.97625
759.592	49.07693
759.775	38.43518
759.958	53.41043
760.141	25.77758
760.324	70.56214
760.506	61.38714
760.689	52.48257
760.872	73.10657
761.054	50.03685
761.237	37.31849
761.42	46.87988
761.602	51.64357
761.785	47.32275
761.968	51.56396
762.15	64.50899
762.333	39.71531
762.515	45.36677
762.698	31.93447
762.88	47.32936
763.063	41.40927
763.245	46.81053
763.428	27.56239
763.61	30.814
763.793	22.53549
763.975	40.13515
764.158	32.65524
764.34	31.04378
764.522	25.40223
764.705	35.73388
764.887	56.31216
765.069	21.85233
765.252	47.92902
765.434	51.95069
765.616	43.0382
765.799	33.65041
765.981	50.13228
766.163	31.25689
766.345	56.06028
766.528	34.4222
766.71	9.86608
766.892	43.36433
767.074	56.4972
767.256	35.62774
767.438	66.02065
767.62	47.49494
767.802	75.81377
767.985	56.21949
768.167	72.78432
768.349	34.94277
768.531	54.35069
768.713	47.47057
768.895	57.59548
769.077	50.12824
769.259	82.59698
769.441	116.51855
769.623	57.49967
769.804	69.83139
769.986	65.22716
770.168	86.52188
770.35	100.92927
770.532	72.86959
770.714	82.0547
770.896	82.11873
771.077	32.35695
771.259	81.5602
771.441	71.17766
771.623	89.59548
771.804	113.26252
771.986	29.52435
772.168	48.66338
772.35	87.86899
772.531	120.56568
772.713	65.50847
772.894	92.65668
773.076	59.45308
773.258	54.49486
773.439	93.17727
773.621	104.03658
773.802	39.6276
773.984	56.05944
774.166	70.79846
774.347	100.35691
774.529	87.87378
774.71	23.85748
774.891	60.9024
775.073	50.38707
775.254	100.74178
775.436	54.18576
775.617	106.39388
775.799	57.34275
775.98	105.09193
776.161	105.59872
776.343	103.9794
776.524	60.41523
776.705	55.9378
776.886	32.76346
777.068	72.02932
777.249	127.6109
777.43	114.80981
777.611	45.54082
777.793	60.93755
777.974	103.74805
778.155	59.33325
778.336	48.28648
778.517	118.56024
778.698	52.80738
778.879	26.7771
779.061	8.28722
779.242	77.2758
779.423	76.53277
779.604	52.96418
779.785	63.43691
779.966	69.5458
780.147	92.34233
780.328	94.03736
780.509	132.93613
780.69	82.52713
780.871	49.60163
781.051	36.64426
781.232	69.99221
781.413	72.98291
781.594	61.09335
781.775	53.69844
781.956	52.49199
782.137	25.03155
782.317	52.29146
782.498	75.65058
782.679	67.95263
782.86	68.81505
783.04	49.26278
783.221	76.35094
783.402	116.00697
783.583	71.88346
783.763	84.4656
783.944	59.94176
784.124	35.84038
784.305	104.09775
784.486	79.00444
784.666	60.92974
784.847	35.68131
785.027	133.93865
785.208	50.67034
785.388	52.68043
785.569	53.78525
785.749	58.97634
785.93	54.25741
786.11	34.48901
786.291	78.90225
786.471	71.47375
786.652	86.25111
786.832	65.22699
787.012	76.84652
787.193	39.65029
787.373	68.22103
787.553	56.45573
787.734	70.23467
787.914	55.79114
788.094	79.16885
788.275	71.58295
788.455	58.53701
788.635	39.75288
788.815	72.69934
788.995	45.395
789.176	36.41284
789.356	50.40756
789.536	62.51673
789.716	77.87462
789.896	52.41553
790.076	56.78347
790.256	70.16517
790.436	18.87849
790.616	49.56842
790.796	74.04438
790.976	56.8279
791.156	47.9756
791.336	85.65501
791.516	75.74906
791.696	61.74268
791.876	32.0416
792.056	71.99472
792.236	86.19294
792.416	83.61692
792.596	76.42635
792.776	75.87146
792.956	81.23514
793.135	101.17306
793.315	39.67339
793.495	95.54509
793.675	80.36155
793.854	84.44216
794.034	87.07235
794.214	41.46698
794.394	86.5492
794.573	92.26497
794.753	72.07595
794.933	47.16611
795.112	69.15341
795.292	86.65497
795.472	111.60886
795.651	38.29558
795.831	63.38674
796.01	59.01248
796.19	61.82987
796.369	63.15968
796.549	76.50783
796.728	63.37369
796.908	38.54664
797.087	45.37167
797.267	57.31325
797.446	39.44392
797.626	78.14039
797.805	80.967
797.984	48.22007
798.164	80.20575
798.343	46.71959
798.522	70.89796
798.702	70.07778
798.881	36.52683
799.06	62.28745
799.239	23.74671
799.419	45.79137
799.598	101.3907
799.777	83.82955
799.956	93.38345
800.136	59.003
800.315	51.83706
800.494	72.69582
800.673	94.82103
800.852	82.20724
801.031	92.47826
801.21	82.02074
801.389	57.43817
801.568	71.20111
801.747	114.62054
801.926	65.55115
802.105	105.42567
802.284	55.60835
802.463	106.44051
802.642	73.27375
802.821	73.77837
803	100.54438
803.179	88.57306
803.358	96.26051
803.537	51.12004
803.716	73.34198
803.895	50.62224
804.073	61.96652
804.252	55.96313
804.431	75.05045
804.61	68.30047
804.789	92.58499
804.967	55.39016
805.146	50.22297
805.325	118.81594
805.503	81.44866
805.682	34.8938
805.861	133.59212
806.039	102.18971
806.218	51.17038
806.397	75.17331
806.575	71.78096
806.754	73.24621
806.932	44.8722
807.111	107.58713
807.289	90.37287
807.468	70.87943
807.646	93.83323
807.825	86.09546
808.003	73.54598
808.182	93.18031
808.36	73.04394
808.539	51.14236
808.717	108.0074
808.895	53.43486
809.074	78.13783
809.252	63.43384
809.43	94.51115
809.609	98.96924
809.787	120.71692
809.965	69.35637
810.144	72.60643
810.322	62.33432
810.5	82.69104
810.678	64.84773
810.856	126.57013
811.035	100.75345
811.213	87.26472
811.391	99.47015
811.569	75.89752
811.747	147.68454
811.925	106.69385
812.103	57.28928
812.281	64.08135
812.459	124.42738
812.637	122.30797
812.816	97.50696
812.994	127.22786
813.171	103.86325
813.349	89.90126
813.527	101.71098
813.705	113.97605
813.883	139.40068
814.061	99.14762
814.239	128.82587
814.417	129.591
814.595	88.06245
814.773	82.9148
814.95	84.0464
815.128	94.38033
815.306	71.165
815.484	66.16589
815.662	59.95125
815.839	51.9986
816.017	57.82707
816.195	103.30157
816.372	66.26306
816.55	96.19577
816.728	114.71569
816.905	70.55751
817.083	129.57663
817.261	77.91301
817.438	140.31943
817.616	127.58886
817.793	62.90769
817.971	95.11785
818.148	92.78261
818.326	111.78379
818.503	88.11076
818.681	111.9922
818.858	63.34363
819.036	77.51804
819.213	81.72801
819.391	56.65551
819.568	50.11961
819.745	50.88917
819.923	92.88458
820.1	58.73075
820.277	51.97959
820.455	62.32545
820.632	63.13892
820.809	65.7534
820.986	40.01331
821.164	30.0464
821.341	27.03366
821.518	38.28525
821.695	25.72225
821.872	23.97402
822.05	19.73199
822.227	14.07447
822.404	15.22894
822.581	20.03941
822.758	15.31436
822.935	15.75841
823.112	19.37857
823.289	14.48794
823.466	19.99999
823.643	18.18826
823.82	24.95165
823.997	21.63343
824.174	27.75078
824.351	40.73506
824.528	38.63104
824.705	33.64761
824.882	39.32889
825.059	51.71093
825.236	33.38185
825.412	35.4077
825.589	44.49362
825.766	64.57826
825.943	39.05316
826.12	45.92397
826.296	28.79826
826.473	37.39655
826.65	37.03774
826.827	47.04647
827.003	29.86333
827.18	32.57722
827.357	38.96014
827.533	33.60915
827.71	16.66099
827.887	28.91977
828.063	36.41894
828.24	29.69856
828.416	45.97754
828.593	36.09155
828.769	56.0485
828.946	64.24621
829.122	65.85443
829.299	59.44138
829.475	32.4029
829.652	56.71343
829.828	103.23276
830.005	63.95402
830.181	86.00298
830.357	57.36806
830.534	87.86925
830.71	62.01032
830.886	88.70345
831.063	80.69544
831.239	103.19797
831.415	46.40813
831.592	109.9579
831.768	64.62059
831.944	51.42666
832.12	107.47314
832.296	97.50274
832.473	85.71199
832.649	59.64111
832.825	80.41817
833.001	43.65688
833.177	67.24846
833.353	61.11052
833.529	33.95044
833.705	49.6467
833.881	35.36713
834.058	34.40871
834.234	38.05722
834.41	38.63037
834.586	29.42364
834.761	39.23873
834.937	44.43064
835.113	47.50571
835.289	43.35209
835.465	54.15798
835.641	47.05175
835.817	54.47164
835.993	100.09185
836.169	44.80574
836.344	69.4249
836.52	84.47908
836.696	76.94784
836.872	54.22826
837.048	166.39293
837.223	62.21841
837.399	137.36137
837.575	108.52119
837.75	97.97093
837.926	131.57405
838.102	205.0931
838.277	161.29156
838.453	195.7903
838.628	188.61857
838.804	87.12438
838.98	194.08548
839.155	85.31937
839.331	115.88706
839.506	87.93007
839.682	84.5989
839.857	110.17667
840.033	129.19934
840.208	64.33286
840.384	29.5219
840.559	69.62135
840.734	108.15407
840.91	148.02263
841.085	94.1961
841.26	89.88417
841.436	82.86936
841.611	82.97209
841.786	139.84924
841.962	162.96016
842.137	104.94813
842.312	59.59085
842.487	88.60531
842.663	71.05905
842.838	90.00381
843.013	271.11374
843.188	140.34879
843.363	114.78586
843.538	262.5663
843.714	258.10937
843.889	247.47359
844.064	259.20762
844.239	218.58435
844.414	263.61185
844.589	180.11711
844.764	295.01319
844.939	279.72241
845.114	368.64246
845.289	326.93989
845.464	355.24256
845.639	282.1534
845.814	171.54824
845.989	177.24443
846.163	181.19232
846.338	222.6365
846.513	315.45903
846.688	211.09193
846.863	219.60347
847.038	176.43121
847.212	221.89977
847.387	226.1079
847.562	213.73471
847.737	242.2029
847.911	109.61002
848.086	135.94982
848.261	404.36635
848.435	193.65911
848.61	317.51008
848.785	140.44042
848.959	268.04124
849.134	367.14823
849.308	495.15999
849.483	212.87087
849.658	325.19932
849.832	202.61778
850.007	159.9756
850.181	412.40548
850.356	166.57803
850.53	380.33626
850.705	144.5666
850.879	83.94889
851.053	233.86541
851.228	179.09932
851.402	256.05801
851.577	330.94294
851.751	322.47338
851.925	227.61211
852.099	93.4057
852.274	162.54796
852.448	218.40585
852.622	274.56034
852.797	236.04765
852.971	221.65749
853.145	265.15178
853.319	457.06872
853.493	343.57487
853.668	207.92312
853.842	387.19329
854.016	318.01208
854.19	414.19274
854.364	266.90104
854.538	263.97052
854.712	325.93467
854.886	227.11967
855.06	180.74097
855.234	78.62173
855.408	366.27185
855.582	326.66944
855.756	316.33973
855.93	384.43765
856.104	281.41906
856.278	310.33799
856.452	226.51643
856.626	279.45148
856.8	461.99482
856.973	298.80154
857.147	264.82965
857.321	263.04746
857.495	333.10149
857.669	228.09601
857.842	224.3965
858.016	365.05532
858.19	141.95069
858.364	554.63884
858.537	214.8677
858.711	241.23416
858.885	194.73278
859.058	173.904
859.232	114.66507
859.405	109.78652
859.579	328.60226
859.753	280.77831
859.926	184.28678
860.1	127.44472
860.273	219.86613
860.447	403.43098
860.62	208.92615
860.794	428.16369
860.967	245.28154
861.141	348.02224
861.314	473.72338
861.487	287.9001
861.661	356.26246
861.834	419.39829
862.008	320.3139
862.181	244.86152
862.354	258.30657
862.528	279.74129
862.701	183.42627
862.874	126.80919
863.047	193.68186
863.221	213.05396
863.394	94.39732
863.567	320.60766
863.74	81.4263
863.913	334.90121
864.087	270.25884
864.26	303.38545
864.433	209.08949
864.606	468.42701
864.779	237.65678
864.952	104.2851
865.125	194.36423
865.298	231.43224
865.471	244.76076
865.644	401.43046
865.817	325.79159
865.99	307.74177
866.163	376.57847
866.336	183.93381
866.509	214.59579
866.682	185.51062
866.855	340.10362
867.028	125.2639
867.2	303.02162
867.373	75.13181
867.546	240.69992
867.719	432.76804
867.892	246.35128
868.064	164.168
868.237	246.72222
868.41	246.17049
868.583	128.94827
868.755	129.75048
868.928	197.99969
869.101	444.51377
869.273	324.49231
869.446	263.49302
869.619	353.21008
869.791	206.01268
869.964	330.96846
870.136	306.59418
870.309	237.30525
870.481	246.66062
870.654	119.97164
870.826	240.75481
870.999	205.26188
871.171	290.59026
871.344	188.0744
871.516	222.4822
871.689	158.85103
871.861	248.97822
872.033	182.0373
872.206	213.10985
872.378	311.16319
872.55	201.91289
872.723	141.78748
872.895	197.76224
873.067	337.47372
873.24	296.35495
873.412	186.11369
873.584	211.23787
873.756	196.07358
873.928	260.28621
874.101	249.94422
874.273	257.36315
874.445	94.16606
874.617	137.08551
874.789	217.99707
874.961	195.40286
875.133	266.41445
875.305	232.65419
875.477	150.32112
875.649	122.84118
875.821	146.82262
875.993	347.15185
876.165	154.49458
876.337	228.61331
876.509	209.75899
876.681	236.86679
876.853	245.66798
877.025	247.20259
877.197	168.12886
877.369	139.81453
877.541	269.48568
877.712	75.40504
877.884	123.32734
878.056	233.38509
878.228	132.79123
878.4	254.90076
878.571	137.86031
878.743	90.84328
878.915	196.53536
879.086	126.91523
879.258	155.9334
879.43	127.68964
879.601	115.07075
879.773	122.27136
879.945	26.69444
880.116	47.63908
880.288	29.05235
880.459	34.68707
880.631	22.84541
880.802	28.93588
880.974	27.056
881.145	17.75452
881.317	24.59167
881.488	17.78269
881.66	20.21394
881.831	18.5029
882.002	28.32929
882.174	18.13735
882.345	27.0732
882.517	11.09925
882.688	37.06671
882.859	27.32416
883.03	51.92551
883.202	50.6114
883.373	39.99247
883.544	42.53928
883.715	75.04025
883.887	63.05216
884.058	52.33944
884.229	74.75424
884.4	76.66043
884.571	92.04766
884.742	69.94621
884.914	76.9875
885.085	115.18168
885.256	152.03405
885.427	124.77181
885.598	140.82802
885.769	147.39708
885.94	149.25079
886.111	88.49293
886.282	175.45967
886.453	127.70456
886.624	99.66639
886.795	180.4276
886.966	136.32425
887.136	184.08607
887.307	124.08958
887.478	246.80218
887.649	211.47931
887.82	216.34751
887.991	169.28367
888.161	248.47145
888.332	204.50214
888.503	123.10132
888.674	290.35853
888.844	335.16034
889.015	254.91203
889.186	124.45951
889.356	320.71955
889.527	111.29842
889.698	470.28898
889.868	165.50088
890.039	246.13351
890.209	186.115
890.38	258.76783
890.551	211.56466
890.721	302.13499
890.892	274.19874
891.062	188.59011
891.233	229.05585
891.403	183.58543
891.574	128.84664
891.744	200.07723
891.914	206.28533
892.085	185.34698
892.255	59.22407
892.425	292.10069
892.596	209.7912
892.766	229.27635
892.936	284.07241
893.107	242.10803
893.277	126.33357
893.447	105.64474
893.618	78.36004
893.788	149.0913
893.958	88.52797
894.128	75.76757
894.298	87.99703
894.468	120.34704
894.639	55.78268
894.809	35.74352
894.979	61.66101
895.149	78.82474
895.319	57.51894
895.489	87.44038
895.659	125.14563
895.829	82.76814
895.999	87.66653
896.169	71.87894
896.339	89.73527
896.509	188.1564
896.679	193.5527
896.849	192.77016
897.019	268.24999
897.189	198.68761
897.358	174.22803
897.528	259.52345
897.698	100.42224
897.868	226.08305
898.038	393.67012
898.208	366.27848
898.377	107.75196
898.547	336.11512
898.717	482.34615
898.886	225.95636
899.056	401.62676
899.226	465.87091
899.395	286.31887
899.565	446.97971
899.735	318.09321
899.904	480.51666
900.074	390.46375
900.244	167.02808
900.413	610.50049
900.583	137.22534
900.752	280.93867
900.922	413.20921
901.091	36.26717
901.261	335.73257
901.43	341.19013
901.599	335.71109
901.769	704.4347
901.938	463.43308
902.108	362.4543
902.277	450.81428
902.446	127.694
902.616	156.46865
902.785	197.4163
902.954	365.61436
903.124	216.72275
903.293	165.72441
903.462	92.55749
903.631	139.42272
903.801	99.77552
903.97	53.07828
904.139	89.74407
904.308	68.52415
904.477	59.5861
904.646	35.08777
904.816	55.88529
904.985	89.33582
905.154	142.08796
