Data from WindowProjectSample3_Transmission__61__00061.txt Node

Date: Sun May 04 11:38:16 EDT 2025
User: jessi
Spectrometer: SR400872
Trigger mode: 0
Integration Time (sec): 5.000050E-1
Scans to average: 20
Electric dark correction enabled: true
Nonlinearity correction enabled: true
Boxcar width: 0
XAxis mode: Wavelengths
Number of Pixels in Spectrum: 3648
>>>>>Begin Spectral Data<<<<<
184.909	-1396.20549
185.132	-1287.51721
185.355	-1566.48158
185.578	-1548.97357
185.801	1260.68507
186.024	-1293.3055
186.247	-24715.02209
186.47	-2431.08077
186.693	-5067.99334
186.916	-667.92562
187.139	-980.72816
187.362	-1290.54011
187.585	-1096.13193
187.808	-1158.79224
188.031	671.71779
188.254	-1212.36299
188.476	-900.95201
188.699	-1032.0387
188.922	313.18371
189.145	-1012.87487
189.368	7055.30024
189.591	3271.81575
189.813	-4492.79266
190.036	-1476.38887
190.259	-7761.27885
190.482	-3524.24662
190.705	-2800.31865
190.927	-1929.52056
191.15	-1324.61293
191.373	-3467.28465
191.595	31490.7846
191.818	-3133.41032
192.041	-1045.83766
192.263	-1548.60395
192.486	-1037.51894
192.709	-1900.67656
192.931	-4819.2337
193.154	-1334.86408
193.377	-1591.32116
193.599	1210.76677
193.822	8917.19753
194.044	-9902.25542
194.267	-3854.7739
194.489	-20.34296
194.712	-1877.8698
194.934	-2675.25874
195.157	-562.25912
195.379	-5262.3449
195.602	-1646.38806
195.824	-2426.06365
196.047	2658.83145
196.269	-1284.87209
196.492	-1373.21688
196.714	-930.0283
196.936	-2151.30395
197.159	-3892.40866
197.381	-1278.88994
197.604	-7422.16387
197.826	-2315.80791
198.048	-2240.54822
198.271	-1477.15067
198.493	-2396.44227
198.715	-3326.66559
198.938	-7685.04171
199.16	-4535.32764
199.382	-1515.589
199.604	-1530.76404
199.827	-3803.6904
200.049	-19142.44528
200.271	-1134.5986
200.493	-4503.30853
200.715	-1136.05198
200.938	-929.4123
201.16	-938.01845
201.382	-2848.20161
201.604	-3809.79941
201.826	-1196.64928
202.048	-1734.83071
202.27	-1124.30987
202.492	-1518.99927
202.715	-1788.35338
202.937	-4443.6138
203.159	-4880.52295
203.381	5961.39423
203.603	-1416.99872
203.825	5753.42455
204.047	-2682.2839
204.269	3735.14201
204.491	-2340.85585
204.713	-1504.96194
204.935	-1055.87574
205.156	-3993.99437
205.378	-2743.87265
205.6	-1548.20741
205.822	-1596.84859
206.044	1345.09158
206.266	-19192.88254
206.488	-1483.54665
206.71	-3004.73129
206.932	25480.50674
207.153	-1321.2181
207.375	-2802.15576
207.597	-1306.83259
207.819	-1558.19647
208.041	-1295.28112
208.262	-1553.10559
208.484	-1971.30838
208.706	-9571.2472
208.927	-1934.47886
209.149	-10049.49485
209.371	-1358.74379
209.593	1237.8813
209.814	-2542.74044
210.036	474.7911
210.258	-1320.1619
210.479	-2911.84775
210.701	-6207.81163
210.922	-2632.48452
211.144	4143.03713
211.366	-2056.57483
211.587	1738.10397
211.809	-2330.41324
212.03	171985.79901
212.252	452.4417
212.473	-36133.64296
212.695	3235.54987
212.916	-2975.9309
213.138	702.32045
213.359	-1206.20895
213.581	-9002.61109
213.802	-1334.79756
214.024	-5684.13726
214.245	3198.81085
214.466	468.57215
214.688	-2200.62614
214.909	-1794.09589
215.131	-3316.41975
215.352	17006.60356
215.573	-1622.83986
215.795	-4452.23163
216.016	-1919.30338
216.237	1247.29467
216.459	10403.58818
216.68	-1545.05069
216.901	-3709.78201
217.122	19381.73256
217.344	-1742.05991
217.565	-1872.09696
217.786	-2364.12238
218.007	4653.41098
218.228	5808.8893
218.45	-2968.90686
218.671	20243.29172
218.892	-3179.93063
219.113	-7067.76911
219.334	-54.93033
219.555	-14752.18084
219.776	-2206.39792
219.997	-2424.97528
220.219	-2668.89609
220.44	7736.82013
220.661	8935.76115
220.882	-4956.28219
221.103	2585.98432
221.324	7431.49024
221.545	-9640.09205
221.766	-2338.68528
221.987	1057.30293
222.208	1707.50137
222.429	-1565.51097
222.65	186.08651
222.87	787.8185
223.091	3451.95373
223.312	551.86129
223.533	6083.7625
223.754	-4944.92426
223.975	1717.09369
224.196	1158.69232
224.417	6361.68315
224.637	730.79558
224.858	73.40444
225.079	752.4529
225.3	477.52014
225.521	-2092.5133
225.741	598.72221
225.962	599.74887
226.183	115.87577
226.404	1323.99228
226.624	459.17002
226.845	692.75173
227.066	497.72101
227.286	265.55066
227.507	119.14667
227.728	106.24949
227.948	202.32703
228.169	61.51264
228.389	70.56493
228.61	42.42208
228.831	55.17124
229.051	5.09622
229.272	31.73858
229.492	47.25709
229.713	15.4233
229.933	33.6525
230.154	28.06296
230.374	47.72535
230.595	37.00637
230.815	23.19416
231.036	35.98648
231.256	-2.90244
231.477	63.053
231.697	36.03941
231.917	41.14326
232.138	55.19798
232.358	112.26759
232.579	91.13109
232.799	17.14166
233.019	83.14673
233.24	98.86195
233.46	36.3819
233.68	54.06505
233.901	33.94926
234.121	24.00239
234.341	9.853
234.561	-3.34678
234.782	16.96844
235.002	60.01608
235.222	0.30605
235.442	52.6882
235.662	27.60783
235.883	51.84036
236.103	40.76024
236.323	29.90496
236.543	23.12428
236.763	35.34613
236.983	35.55316
237.203	33.34236
237.423	49.52691
237.643	74.65885
237.864	62.45667
238.084	17.43332
238.304	21.79391
238.524	39.47465
238.744	32.81449
238.964	56.87835
239.184	48.04266
239.404	53.33752
239.624	28.49964
239.843	46.37631
240.063	28.6386
240.283	18.38081
240.503	21.76056
240.723	20.72954
240.943	13.13333
241.163	16.11405
241.383	12.36675
241.603	6.66257
241.822	7.67648
242.042	5.3753
242.262	7.12563
242.482	7.69314
242.702	8.99677
242.921	2.92053
243.141	6.01953
243.361	5.9164
243.581	8.08482
243.8	7.36166
244.02	4.60521
244.24	8.62626
244.459	7.6017
244.679	15.76289
244.899	10.01265
245.118	11.82415
245.338	10.91575
245.558	11.77712
245.777	7.19357
245.997	8.39455
246.216	8.80161
246.436	5.09211
246.655	3.7884
246.875	2.96705
247.094	5.62664
247.314	2.01787
247.533	3.57967
247.753	3.90278
247.972	3.22967
248.192	1.14076
248.411	2.04072
248.631	3.15683
248.85	4.06449
249.07	4.0711
249.289	5.66813
249.508	4.10425
249.728	6.68273
249.947	6.23369
250.166	8.12926
250.386	4.13523
250.605	6.36067
250.824	10.21569
251.044	6.98035
251.263	19.51197
251.482	12.18703
251.701	9.77063
251.921	0.36413
252.14	3.09774
252.359	3.57357
252.578	8.49353
252.798	3.3437
253.017	7.39918
253.236	3.98443
253.455	5.16291
253.674	10.07604
253.893	4.51559
254.112	7.28479
254.331	10.43198
254.551	7.99346
254.77	4.59607
254.989	11.10077
255.208	8.4638
255.427	13.03048
255.646	11.10653
255.865	17.51962
256.084	7.65546
256.303	9.68564
256.522	11.11834
256.741	3.0281
256.96	3.12379
257.179	7.14715
257.397	9.29303
257.616	4.766
257.835	5.31461
258.054	13.01527
258.273	9.14161
258.492	9.03543
258.711	5.66927
258.93	2.64545
259.148	3.85158
259.367	3.8186
259.586	4.68489
259.805	2.24027
260.023	4.13931
260.242	3.19444
260.461	2.49093
260.68	1.23483
260.898	3.67778
261.117	1.35372
261.336	0.94453
261.554	3.20887
261.773	3.34964
261.992	0.89825
262.21	3.1398
262.429	3.65425
262.648	5.88433
262.866	6.89426
263.085	4.88284
263.303	4.04424
263.522	7.73412
263.74	7.37066
263.959	12.59536
264.178	6.7406
264.396	5.64159
264.615	4.17952
264.833	9.46868
265.051	7.99062
265.27	9.44987
265.488	9.09691
265.707	5.56131
265.925	8.90845
266.144	4.51682
266.362	4.96281
266.58	5.08561
266.799	4.29783
267.017	5.18242
267.235	4.54418
267.454	3.25762
267.672	1.75966
267.89	3.77456
268.109	4.07184
268.327	3.92901
268.545	0.94063
268.763	3.65322
268.982	1.78933
269.2	4.10783
269.418	2.8852
269.636	2.30489
269.854	4.20582
270.073	2.81907
270.291	1.65556
270.509	1.62719
270.727	3.97411
270.945	6.07234
271.163	6.08207
271.381	1.5742
271.599	2.70501
271.817	4.22832
272.036	1.63486
272.254	2.99704
272.472	2.23774
272.69	2.1077
272.908	2.32269
273.126	3.52609
273.344	4.50578
273.562	1.60382
273.779	2.41437
273.997	3.84968
274.215	3.46757
274.433	2.62911
274.651	3.96301
274.869	3.94035
275.087	2.46569
275.305	3.70563
275.523	2.34522
275.74	2.70656
275.958	4.74113
276.176	6.67804
276.394	2.33507
276.612	2.85323
276.829	2.84284
277.047	2.56178
277.265	2.79441
277.483	3.11269
277.7	3.48659
277.918	2.85476
278.136	5.44111
278.353	2.53428
278.571	1.63672
278.789	4.18
279.006	1.10846
279.224	2.56678
279.442	4.43749
279.659	3.15813
279.877	1.97985
280.094	4.54104
280.312	1.19974
280.529	3.02127
280.747	1.21904
280.964	2.56657
281.182	4.46805
281.399	2.54751
281.617	3.10929
281.834	2.18072
282.052	1.68103
282.269	2.75813
282.487	2.1473
282.704	2.09056
282.921	1.92652
283.139	2.90597
283.356	3.7341
283.574	3.42117
283.791	1.67332
284.008	4.43074
284.226	2.64065
284.443	2.92243
284.66	3.69492
284.877	3.28312
285.095	1.96644
285.312	1.54304
285.529	0.94335
285.746	0.73906
285.964	1.87942
286.181	1.35737
286.398	1.77078
286.615	2.39515
286.832	2.38119
287.05	0.59521
287.267	1.67126
287.484	1.74745
287.701	2.35707
287.918	2.29083
288.135	2.38111
288.352	1.06787
288.569	1.39792
288.786	2.29816
289.003	1.67765
289.22	2.73544
289.437	1.57942
289.654	2.49539
289.871	2.54656
290.088	2.50328
290.305	2.03338
290.522	1.7054
290.739	1.75564
290.956	2.62282
291.173	3.0786
291.39	2.97359
291.607	2.0347
291.824	1.70622
292.04	1.36577
292.257	2.55694
292.474	2.89421
292.691	1.91034
292.908	1.06242
293.125	1.60178
293.341	1.09397
293.558	4.30967
293.775	1.96415
293.992	2.2249
294.208	0.89332
294.425	1.56489
294.642	1.83022
294.858	2.76849
295.075	0.90672
295.292	2.01601
295.508	2.48428
295.725	3.40843
295.942	2.13801
296.158	1.83238
296.375	2.50849
296.591	2.17685
296.808	2.31511
297.024	2.74818
297.241	2.95985
297.458	3.0975
297.674	1.53172
297.891	2.83396
298.107	2.72623
298.323	2.3166
298.54	3.83518
298.756	2.8211
298.973	2.17394
299.189	4.19425
299.406	3.06078
299.622	4.27002
299.838	4.36786
300.055	4.07294
300.271	2.62164
300.487	2.93373
300.704	3.24496
300.92	2.87582
301.136	5.59841
301.353	4.69095
301.569	4.05151
301.785	4.18282
302.001	4.58845
302.218	4.42958
302.434	4.78144
302.65	3.43594
302.866	3.92149
303.083	6.16484
303.299	6.25775
303.515	4.53887
303.731	4.99735
303.947	3.64316
304.163	4.39105
304.379	4.81335
304.595	5.01682
304.812	4.25089
305.028	4.26419
305.244	4.49335
305.46	5.40116
305.676	5.52574
305.892	6.044
306.108	5.68692
306.324	4.83604
306.54	6.52668
306.756	5.48852
306.972	5.20972
307.187	5.2281
307.403	6.07638
307.619	4.69061
307.835	6.00916
308.051	6.15421
308.267	4.5202
308.483	6.32218
308.699	5.62445
308.914	5.42771
309.13	5.39318
309.346	4.50087
309.562	4.86357
309.778	4.58495
309.993	5.9831
310.209	5.86188
310.425	4.79222
310.641	5.68973
310.856	5.16254
311.072	5.1273
311.288	5.7246
311.503	6.18106
311.719	4.67451
311.935	4.84812
312.15	6.36727
312.366	6.28939
312.581	6.41991
312.797	6.17252
313.013	6.65523
313.228	5.62604
313.444	5.89159
313.659	5.26694
313.875	6.15946
314.09	5.81619
314.306	6.90565
314.521	6.54605
314.737	6.48552
314.952	6.17873
315.168	6.21615
315.383	6.23435
315.599	5.70575
315.814	5.93522
316.029	6.74768
316.245	5.40057
316.46	4.61344
316.675	6.88742
316.891	7.37802
317.106	8.26966
317.321	6.42501
317.537	6.60599
317.752	6.87466
317.967	6.8886
318.183	5.59241
318.398	5.87423
318.613	6.82709
318.828	7.22095
319.043	6.66081
319.259	5.92883
319.474	6.32788
319.689	7.16196
319.904	4.82901
320.119	7.23303
320.334	6.33826
320.549	6.11038
320.765	7.18952
320.98	6.58393
321.195	6.67281
321.41	6.30329
321.625	6.82693
321.84	7.6361
322.055	7.5687
322.27	5.61938
322.485	5.30098
322.7	6.76896
322.915	6.97159
323.13	6.05868
323.345	7.69805
323.56	7.18209
323.775	7.07768
323.989	6.99903
324.204	6.66005
324.419	7.24045
324.634	5.70052
324.849	6.63654
325.064	8.17778
325.279	7.451
325.493	7.06566
325.708	7.3232
325.923	6.08611
326.138	6.56699
326.352	7.892
326.567	7.33446
326.782	6.4363
326.997	6.43644
327.211	7.30982
327.426	7.05545
327.641	6.62016
327.855	5.68037
328.07	7.30492
328.285	8.33344
328.499	6.56725
328.714	6.88957
328.928	7.09508
329.143	6.78069
329.358	7.72639
329.572	7.53417
329.787	7.94545
330.001	9.00614
330.216	5.66422
330.43	8.50795
330.645	7.99996
330.859	7.56368
331.074	6.05808
331.288	6.77209
331.503	8.3366
331.717	6.06151
331.931	6.85325
332.146	7.28125
332.36	8.61378
332.575	7.30064
332.789	6.97167
333.003	7.09307
333.218	7.30211
333.432	6.60613
333.646	7.77477
333.86	8.35769
334.075	8.46165
334.289	6.62583
334.503	5.97297
334.717	7.79386
334.932	7.22921
335.146	7.74479
335.36	6.62723
335.574	7.82925
335.788	7.66626
336.003	8.04952
336.217	7.97693
336.431	7.27968
336.645	6.6728
336.859	6.24452
337.073	7.05376
337.287	7.2383
337.501	6.16593
337.715	7.58668
337.929	7.60641
338.143	6.54316
338.357	7.09509
338.571	6.91117
338.785	8.13221
338.999	7.02504
339.213	7.06023
339.427	6.57295
339.641	8.34322
339.855	7.12796
340.069	6.69391
340.283	8.16979
340.497	8.4402
340.711	7.95624
340.924	7.48702
341.138	6.72643
341.352	6.43495
341.566	7.50941
341.78	6.34676
341.993	6.9918
342.207	6.8955
342.421	7.74661
342.635	7.39307
342.848	7.18436
343.062	5.71688
343.276	7.13204
343.49	8.96466
343.703	7.08777
343.917	8.26903
344.131	8.4279
344.344	7.00145
344.558	7.24728
344.771	6.73633
344.985	8.41074
345.199	8.93494
345.412	7.93003
345.626	8.0851
345.839	6.54716
346.053	6.93638
346.266	7.10075
346.48	8.06756
346.693	8.04677
346.907	7.93077
347.12	7.02552
347.334	7.71253
347.547	7.97989
347.76	7.55061
347.974	8.3163
348.187	7.75381
348.401	7.45656
348.614	6.99564
348.827	7.59429
349.041	7.80994
349.254	6.47641
349.467	7.38607
349.681	7.13072
349.894	7.14073
350.107	8.51672
350.32	9.19949
350.534	6.71926
350.747	7.50172
350.96	7.1157
351.173	7.25078
351.386	7.53552
351.6	7.32968
351.813	7.47347
352.026	7.65266
352.239	7.11466
352.452	7.40155
352.665	8.60151
352.878	7.51861
353.092	9.33941
353.305	8.31047
353.518	7.84721
353.731	7.14063
353.944	8.49295
354.157	7.48633
354.37	7.46609
354.583	7.07955
354.796	7.03024
355.009	8.60065
355.222	8.16003
355.435	7.96488
355.647	8.75805
355.86	7.49824
356.073	8.08068
356.286	7.69924
356.499	8.68987
356.712	8.52331
356.925	8.37518
357.138	8.71636
357.35	7.61887
357.563	7.88741
357.776	8.31045
357.989	8.34279
358.201	8.60615
358.414	8.49351
358.627	8.96126
358.84	8.14556
359.052	7.49963
359.265	7.72229
359.478	8.83003
359.69	6.65878
359.903	8.94142
360.116	8.89554
360.328	7.46742
360.541	8.8485
360.753	7.96523
360.966	8.16837
361.179	8.24153
361.391	8.26447
361.604	8.50953
361.816	8.86893
362.029	8.93157
362.241	8.51742
362.454	8.70605
362.666	8.22329
362.879	8.84792
363.091	8.46092
363.304	8.26084
363.516	8.38631
363.728	7.78164
363.941	8.85132
364.153	8.54689
364.366	7.22291
364.578	7.84109
364.79	8.67928
365.003	8.66573
365.215	8.12277
365.427	8.89677
365.639	9.13278
365.852	8.57658
366.064	9.32038
366.276	8.26477
366.488	8.62344
366.701	8.33717
366.913	8.35017
367.125	8.50964
367.337	8.33664
367.549	8.29516
367.762	8.4064
367.974	8.33477
368.186	8.35631
368.398	9.1697
368.61	8.72647
368.822	8.95106
369.034	8.25969
369.246	9.0086
369.458	10.13774
369.67	8.03324
369.882	9.45438
370.094	7.35824
370.306	9.34379
370.518	8.37419
370.73	8.27264
370.942	8.2254
371.154	8.53212
371.366	8.49733
371.578	9.06216
371.79	8.59146
372.002	9.27825
372.214	10.01214
372.425	8.68209
372.637	9.78242
372.849	8.99006
373.061	7.43672
373.273	9.03487
373.484	9.00644
373.696	9.18098
373.908	7.44538
374.12	9.2664
374.331	9.03806
374.543	8.22545
374.755	8.14889
374.967	8.64735
375.178	9.42468
375.39	8.48103
375.602	8.7749
375.813	7.81056
376.025	8.14482
376.236	8.81311
376.448	8.97498
376.66	8.78945
376.871	8.69886
377.083	9.22704
377.294	9.88075
377.506	8.68096
377.717	9.8592
377.929	9.09181
378.14	8.72695
378.352	9.33756
378.563	9.36617
378.775	9.78669
378.986	8.43747
379.197	9.18069
379.409	8.50995
379.62	9.27631
379.832	9.02876
380.043	8.76636
380.254	9.17223
380.466	8.15999
380.677	10.58675
380.888	10.25072
381.1	10.74683
381.311	10.65576
381.522	9.14414
381.733	10.75247
381.945	9.08681
382.156	8.81637
382.367	8.65921
382.578	10.5859
382.789	10.82507
383.001	8.54093
383.212	10.20164
383.423	10.15516
383.634	9.713
383.845	9.51325
384.056	8.8756
384.267	9.18483
384.478	9.17533
384.69	8.58074
384.901	9.4944
385.112	9.32212
385.323	10.40353
385.534	9.35648
385.745	9.5301
385.956	9.55711
386.167	8.81471
386.378	9.61335
386.588	8.86062
386.799	8.78532
387.01	8.37733
387.221	9.78636
387.432	9.36248
387.643	10.33726
387.854	9.04514
388.065	9.08811
388.275	9.2252
388.486	9.0274
388.697	9.41112
388.908	9.10893
389.119	9.97016
389.329	10.14355
389.54	9.46314
389.751	9.5071
389.962	10.15936
390.172	9.4707
390.383	9.27904
390.594	9.02846
390.804	9.01589
391.015	9.06084
391.226	9.57614
391.436	9.85243
391.647	9.66067
391.858	9.89493
392.068	8.60239
392.279	8.93802
392.489	9.72994
392.7	10.03726
392.91	9.13048
393.121	9.13385
393.331	9.77309
393.542	10.18189
393.752	9.79816
393.963	9.7212
394.173	9.67543
394.384	9.98561
394.594	9.60841
394.804	8.96334
395.015	9.66564
395.225	10.06895
395.436	9.0901
395.646	9.80492
395.856	9.40599
396.067	8.83028
396.277	10.21448
396.487	9.83034
396.697	9.80681
396.908	9.95783
397.118	9.96492
397.328	9.62647
397.538	10.26113
397.749	9.27585
397.959	10.18307
398.169	9.88491
398.379	8.84772
398.589	9.97291
398.8	9.76575
399.01	9.84382
399.22	9.39421
399.43	10.79023
399.64	9.6505
399.85	10.00112
400.06	9.76349
400.27	9.37485
400.48	9.6121
400.69	10.3374
400.9	9.4614
401.11	9.16822
401.32	10.16201
401.53	9.41004
401.74	10.54087
401.95	9.9191
402.16	9.46947
402.37	10.07259
402.58	9.39923
402.79	10.0092
403	10.2086
403.209	9.3392
403.419	10.29091
403.629	9.39989
403.839	10.30644
404.049	10.36898
404.258	9.61313
404.468	9.44999
404.678	10.32529
404.888	10.5361
405.097	9.80189
405.307	9.81926
405.517	10.32741
405.727	10.18911
405.936	9.90825
406.146	10.1405
406.356	10.70775
406.565	10.01393
406.775	9.79092
406.984	9.75338
407.194	11.00787
407.404	10.05618
407.613	10.31045
407.823	10.34727
408.032	10.73346
408.242	10.47863
408.451	9.73319
408.661	9.89144
408.87	10.98589
409.08	9.62815
409.289	10.19383
409.499	10.17639
409.708	10.02159
409.918	9.05752
410.127	10.16853
410.336	10.88853
410.546	10.53702
410.755	9.9467
410.964	9.86257
411.174	9.66751
411.383	10.52004
411.592	10.35341
411.802	9.71542
412.011	10.6535
412.22	10.31203
412.429	11.02769
412.639	10.99377
412.848	10.73536
413.057	11.13641
413.266	10.81864
413.475	10.2626
413.685	10.66097
413.894	10.82754
414.103	10.81949
414.312	10.65824
414.521	10.11451
414.73	10.56128
414.939	11.23827
415.148	10.68292
415.357	10.50358
415.566	10.27667
415.776	10.19116
415.985	10.29252
416.194	10.91202
416.403	11.59057
416.611	9.99153
416.82	10.54672
417.029	11.17083
417.238	11.24387
417.447	11.41949
417.656	12.26856
417.865	12.51899
418.074	12.82906
418.283	13.95683
418.492	15.06675
418.7	14.77039
418.909	16.68638
419.118	15.56983
419.327	16.0578
419.536	16.14316
419.744	16.22694
419.953	17.84065
420.162	18.21627
420.371	17.73231
420.579	18.64444
420.788	19.66361
420.997	19.77215
421.205	20.38191
421.414	19.87741
421.623	20.0461
421.831	19.45402
422.04	20.1225
422.249	18.93314
422.457	19.12091
422.666	18.08676
422.874	19.1964
423.083	19.25623
423.291	19.2374
423.5	19.44754
423.708	20.0729
423.917	20.61744
424.125	20.05668
424.334	19.93686
424.542	21.95909
424.751	21.24831
424.959	20.66385
425.167	20.39465
425.376	20.27687
425.584	18.35663
425.793	18.1696
426.001	16.9484
426.209	16.85786
426.418	15.35833
426.626	14.53819
426.834	13.93568
427.042	13.63496
427.251	13.05803
427.459	13.66349
427.667	12.35479
427.875	11.35241
428.084	11.62736
428.292	11.98735
428.5	11.76164
428.708	10.83907
428.916	10.94264
429.124	11.28604
429.333	11.23383
429.541	11.19506
429.749	11.46869
429.957	11.5217
430.165	12.57534
430.373	10.7287
430.581	11.49692
430.789	12.11825
430.997	11.26504
431.205	11.22315
431.413	11.89109
431.621	11.72283
431.829	12.48269
432.037	12.88415
432.245	13.06854
432.453	13.50549
432.661	13.69481
432.869	15.26353
433.076	14.1715
433.284	14.86056
433.492	15.7521
433.7	15.94408
433.908	15.05391
434.116	15.38745
434.323	14.74774
434.531	14.75294
434.739	14.42946
434.947	14.07867
435.154	13.83375
435.362	12.89636
435.57	12.64382
435.778	12.48151
435.985	12.65733
436.193	12.31002
436.401	13.47734
436.608	12.52617
436.816	12.03196
437.023	13.7276
437.231	13.66042
437.439	13.57421
437.646	13.77949
437.854	13.61257
438.061	13.79454
438.269	14.19929
438.476	14.61493
438.684	14.67554
438.891	15.33491
439.099	15.25705
439.306	15.22938
439.514	15.55293
439.721	17.26921
439.929	17.09118
440.136	18.22964
440.343	18.41144
440.551	18.17387
440.758	19.78672
440.965	18.4397
441.173	18.15688
441.38	17.89182
441.587	17.28197
441.795	17.05773
442.002	16.40009
442.209	16.08085
442.416	15.64247
442.624	15.18399
442.831	14.68676
443.038	14.03473
443.245	13.64774
443.452	13.49403
443.66	14.63086
443.867	14.10188
444.074	14.24233
444.281	14.84622
444.488	15.55517
444.695	15.97153
444.902	16.48136
445.109	18.07815
445.316	18.21248
445.523	19.02009
445.73	19.40195
445.937	20.51532
446.144	21.21176
446.351	21.75983
446.558	20.33261
446.765	22.92026
446.972	21.58259
447.179	21.05723
447.386	21.57666
447.593	19.43073
447.8	20.4051
448.007	18.32008
448.214	17.49013
448.42	16.70245
448.627	16.81634
448.834	15.87738
449.041	15.41913
449.248	14.76471
449.454	14.51668
449.661	14.71861
449.868	13.09201
450.075	12.93309
450.281	11.82954
450.488	11.96684
450.695	11.94283
450.901	12.13349
451.108	12.34003
451.315	12.91667
451.521	12.43497
451.728	13.58995
451.935	12.59232
452.141	13.0634
452.348	13.40722
452.554	13.09088
452.761	13.32057
452.967	14.32121
453.174	13.68577
453.38	13.43253
453.587	12.51789
453.793	13.25156
454	13.1385
454.206	13.74852
454.413	13.05546
454.619	12.6993
454.825	12.15061
455.032	12.70256
455.238	12.86765
455.445	11.95568
455.651	12.47194
455.857	11.68787
456.064	12.42713
456.27	12.32437
456.476	12.34089
456.682	11.87605
456.889	12.6237
457.095	12.70883
457.301	13.38266
457.507	12.48095
457.714	12.71886
457.92	13.00506
458.126	13.18679
458.332	14.44867
458.538	15.03654
458.744	16.09741
458.951	17.16517
459.157	19.69604
459.363	19.762
459.569	20.16779
459.775	20.95326
459.981	20.57046
460.187	21.22188
460.393	21.1623
460.599	20.87003
460.805	19.61893
461.011	18.29282
461.217	17.6974
461.423	16.19724
461.629	14.95378
461.835	14.5868
462.041	13.33341
462.247	13.66915
462.453	12.68052
462.658	12.79024
462.864	13.11519
463.07	12.72701
463.276	12.85706
463.482	12.8177
463.688	13.36876
463.893	12.46447
464.099	12.6306
464.305	13.45668
464.511	12.60508
464.716	12.82901
464.922	13.17335
465.128	12.42144
465.333	13.73772
465.539	13.14977
465.745	12.87341
465.95	12.87709
466.156	14.24274
466.362	13.43148
466.567	12.94989
466.773	12.63795
466.978	13.7662
467.184	12.56772
467.389	12.11316
467.595	13.17496
467.8	12.65711
468.006	13.62522
468.211	13.575
468.417	12.51943
468.622	13.32326
468.828	13.3519
469.033	13.14279
469.239	14.33582
469.444	12.82291
469.649	13.52001
469.855	12.97394
470.06	13.09494
470.266	12.58502
470.471	13.37684
470.676	13.26451
470.881	12.24245
471.087	13.6372
471.292	13.88581
471.497	12.42104
471.703	12.98023
471.908	12.78087
472.113	13.22845
472.318	13.50025
472.523	12.61085
472.729	13.32386
472.934	13.32895
473.139	13.04471
473.344	13.41897
473.549	13.78321
473.754	12.86619
473.959	14.16069
474.164	12.86618
474.369	13.16838
474.575	13.54697
474.78	13.33063
474.985	12.87162
475.19	12.46988
475.395	12.90874
475.6	13.18199
475.804	13.75612
476.009	13.19624
476.214	13.02717
476.419	13.02794
476.624	12.5096
476.829	12.89492
477.034	13.73682
477.239	13.32255
477.444	13.8353
477.648	14.28402
477.853	14.32352
478.058	13.90218
478.263	13.89902
478.468	13.58838
478.672	13.60166
478.877	14.8791
479.082	14.66625
479.287	14.31313
479.491	13.83762
479.696	13.43287
479.901	14.46756
480.105	14.75003
480.31	14.23378
480.515	14.89848
480.719	16.72689
480.924	15.91837
481.128	16.19355
481.333	17.5742
481.538	18.13952
481.742	19.02247
481.947	20.76408
482.151	22.56617
482.356	24.48662
482.56	28.60381
482.765	32.16244
482.969	38.06177
483.174	43.15409
483.378	49.18697
483.582	51.40381
483.787	54.31721
483.991	55.68543
484.196	55.45575
484.4	54.11369
484.604	53.19164
484.809	48.91405
485.013	45.30647
485.217	40.94015
485.422	36.37316
485.626	33.13045
485.83	31.33335
486.034	30.55258
486.239	31.39943
486.443	32.64152
486.647	33.89651
486.851	36.06428
487.055	38.55441
487.26	39.25643
487.464	40.97498
487.668	40.68643
487.872	41.42121
488.076	41.23857
488.28	39.46687
488.484	37.02103
488.688	35.46156
488.892	33.38076
489.096	30.75052
489.3	28.28755
489.504	26.47264
489.708	25.25505
489.912	24.57707
490.116	24.1554
490.32	24.19875
490.524	26.55542
490.728	28.17552
490.932	30.25591
491.136	32.16035
491.34	34.3459
491.544	34.87201
491.748	34.82798
491.951	34.52555
492.155	33.61274
492.359	32.33226
492.563	29.45588
492.767	27.42877
492.97	24.59033
493.174	21.87824
493.378	19.9137
493.582	17.89472
493.785	17.12676
493.989	16.60219
494.193	15.84482
494.396	15.10438
494.6	15.35435
494.804	14.89472
495.007	14.6705
495.211	14.77692
495.414	15.11626
495.618	15.86728
495.822	16.70438
496.025	16.73367
496.229	17.64114
496.432	17.33736
496.636	17.88135
496.839	18.07001
497.043	19.1457
497.246	18.42006
497.45	18.17229
497.653	18.18111
497.856	17.92601
498.06	17.24257
498.263	16.89022
498.467	16.46135
498.67	16.9678
498.873	16.43349
499.077	15.60832
499.28	15.32273
499.483	15.47014
499.686	15.43
499.89	14.98682
500.093	14.67085
500.296	13.87361
500.499	14.67814
500.703	13.83631
500.906	13.98035
501.109	14.60955
501.312	13.82246
501.515	13.87106
501.719	14.05107
501.922	14.47782
502.125	13.93525
502.328	13.84552
502.531	13.37769
502.734	13.86598
502.937	13.05088
503.14	13.8981
503.343	13.52126
503.546	13.83405
503.749	13.7201
503.952	14.33041
504.155	13.71238
504.358	14.25928
504.561	14.09307
504.764	13.42711
504.967	14.09847
505.17	14.08673
505.373	14.73631
505.576	14.07186
505.778	14.32844
505.981	13.72349
506.184	14.63313
506.387	13.27872
506.59	14.83021
506.793	14.48974
506.995	14.2951
507.198	13.18854
507.401	14.31
507.604	14.75061
507.806	14.50008
508.009	14.77296
508.212	15.60255
508.414	15.3196
508.617	15.59257
508.82	15.85265
509.022	16.7062
509.225	16.00656
509.427	15.37674
509.63	16.37399
509.833	15.64321
510.035	15.58751
510.238	14.63297
510.44	16.01056
510.643	14.3813
510.845	16.21399
511.048	15.52949
511.25	15.12687
511.453	15.23827
511.655	15.59083
511.858	15.30989
512.06	15.83663
512.262	15.29892
512.465	15.83665
512.667	14.89352
512.869	14.41359
513.072	14.96777
513.274	14.86622
513.476	14.56057
513.679	14.47449
513.881	13.76402
514.083	14.85986
514.286	13.88278
514.488	13.92303
514.69	13.73306
514.892	13.47908
515.094	14.46299
515.297	13.88676
515.499	14.1648
515.701	13.90544
515.903	14.92812
516.105	14.8659
516.307	14.4689
516.509	13.37773
516.711	13.62875
516.913	14.48075
517.116	15.2671
517.318	15.71502
517.52	17.35923
517.722	18.08509
517.924	17.77183
518.126	19.32734
518.328	19.2324
518.529	20.1327
518.731	20.821
518.933	19.27282
519.135	19.37414
519.337	19.72173
519.539	18.60706
519.741	16.90857
519.943	16.67144
520.145	15.93635
520.346	15.99759
520.548	14.69355
520.75	14.87215
520.952	14.20441
521.153	14.54191
521.355	14.55061
521.557	13.79898
521.759	14.40076
521.96	14.37025
522.162	13.71862
522.364	14.74642
522.565	13.91768
522.767	14.55089
522.969	14.86924
523.17	14.44634
523.372	14.45408
523.573	14.0024
523.775	14.18576
523.977	14.14868
524.178	15.72571
524.38	15.5402
524.581	17.17049
524.783	17.62772
524.984	19.16854
525.186	19.77489
525.387	20.82095
525.589	21.04238
525.79	21.30765
525.991	21.34852
526.193	22.08832
526.394	21.42941
526.596	22.47404
526.797	23.00123
526.998	23.11992
527.2	24.38087
527.401	27.98745
527.602	30.7001
527.803	35.4251
528.005	38.17943
528.206	41.28491
528.407	43.32551
528.608	43.78548
528.81	43.90044
529.011	42.80757
529.212	43.22849
529.413	40.45234
529.614	37.6769
529.815	34.72521
530.017	31.5899
530.218	28.08337
530.419	25.16104
530.62	23.95618
530.821	22.73694
531.022	21.00306
531.223	21.79874
531.424	21.37205
531.625	21.82059
531.826	21.80032
532.027	22.90702
532.228	25.18822
532.429	26.14875
532.63	27.40448
532.831	29.19286
533.032	29.84195
533.233	30.78681
533.433	30.14835
533.634	30.24148
533.835	28.85271
534.036	27.64521
534.237	26.08528
534.438	24.22948
534.638	21.96681
534.839	20.49948
535.04	19.95274
535.241	19.18184
535.441	20.20143
535.642	19.95405
535.843	19.89062
536.043	20.4349
536.244	21.1279
536.445	21.48295
536.645	22.556
536.846	21.98074
537.047	22.07093
537.247	20.64945
537.448	20.00912
537.648	19.19427
537.849	17.97762
538.049	17.02784
538.25	16.31936
538.451	15.84616
538.651	14.8171
538.851	15.37628
539.052	15.78791
539.252	15.91042
539.453	16.19673
539.653	17.19338
539.854	18.50135
540.054	20.39618
540.254	23.34115
540.455	25.96424
540.655	27.39513
540.855	30.37997
541.056	32.13134
541.256	32.25446
541.456	33.53
541.657	32.96129
541.857	33.20183
542.057	31.24409
542.257	29.89195
542.458	29.35656
542.658	27.55895
542.858	24.9085
543.058	24.24927
543.258	23.0334
543.458	20.9373
543.659	19.95288
543.859	20.36485
544.059	19.72856
544.259	18.43205
544.459	18.31617
544.659	17.1264
544.859	17.28513
545.059	16.47902
545.259	17.18427
545.459	16.74383
545.659	17.66728
545.859	17.3524
546.059	17.97006
546.259	17.54527
546.459	17.44136
546.659	17.45681
546.859	17.89372
547.059	17.7111
547.258	17.23547
547.458	16.64364
547.658	15.28771
547.858	14.48856
548.058	14.99794
548.258	14.80431
548.457	14.40459
548.657	16.15867
548.857	14.78498
549.057	15.09269
549.256	15.14873
549.456	14.53899
549.656	13.76949
549.855	15.61724
550.055	14.58779
550.255	15.7523
550.454	15.01578
550.654	15.19588
550.853	15.48749
551.053	15.24932
551.253	14.95855
551.452	14.84283
551.652	14.10401
551.851	13.79526
552.051	14.54223
552.25	14.42026
552.45	14.35244
552.649	14.64006
552.849	14.23488
553.048	14.76333
553.248	15.16665
553.447	14.30371
553.646	15.2541
553.846	15.6955
554.045	15.56476
554.244	14.24421
554.444	15.98453
554.643	14.55549
554.842	15.74829
555.042	16.08752
555.241	14.49496
555.44	14.23026
555.64	15.19545
555.839	16.10755
556.038	15.21385
556.237	14.47058
556.436	14.94059
556.636	15.02006
556.835	14.39781
557.034	15.81107
557.233	14.7579
557.432	14.02893
557.631	15.58292
557.83	14.71546
558.029	14.38512
558.228	14.50917
558.427	14.24613
558.626	15.11148
558.825	14.30241
559.024	14.83059
559.223	15.84257
559.422	14.70117
559.621	15.11072
559.82	13.26354
560.019	14.7938
560.218	14.6626
560.417	13.2891
560.616	14.53933
560.815	16.91791
561.014	13.85262
561.212	15.75835
561.411	14.97354
561.61	13.9305
561.809	14.63399
562.008	15.72952
562.206	14.65726
562.405	15.32262
562.604	14.65423
562.803	14.86483
563.001	14.61128
563.2	13.95744
563.399	15.10557
563.597	14.19703
563.796	14.82503
563.995	14.13441
564.193	15.12849
564.392	14.49852
564.59	15.99324
564.789	13.65127
564.988	14.43713
565.186	14.90994
565.385	14.61631
565.583	14.47494
565.782	14.68608
565.98	14.70478
566.179	14.78977
566.377	14.27423
566.575	14.45684
566.774	15.72343
566.972	15.34001
567.171	16.23799
567.369	15.67173
567.567	15.17266
567.766	15.32942
567.964	13.87791
568.162	15.25386
568.361	15.49065
568.559	14.85517
568.757	15.3408
568.956	14.92274
569.154	14.83711
569.352	15.30605
569.55	14.93385
569.748	14.80763
569.947	14.41486
570.145	14.35525
570.343	14.1666
570.541	15.48884
570.739	14.13312
570.937	14.89524
571.135	15.14521
571.333	15.81544
571.532	15.78675
571.73	14.99202
571.928	15.60135
572.126	15.23253
572.324	14.7928
572.522	15.75754
572.72	16.70374
572.918	15.08691
573.116	15.34076
573.313	15.06006
573.511	15.06037
573.709	14.82317
573.907	15.58163
574.105	14.82664
574.303	14.05579
574.501	14.08072
574.699	15.37291
574.896	15.22638
575.094	15.39094
575.292	14.37098
575.49	15.57507
575.688	14.91466
575.885	15.98766
576.083	16.39108
576.281	15.57752
576.478	14.93343
576.676	15.5837
576.874	14.35228
577.071	15.08987
577.269	16.82578
577.467	15.1476
577.664	14.98858
577.862	15.91955
578.059	14.53408
578.257	15.98983
578.455	14.91305
578.652	15.20705
578.85	13.91722
579.047	15.27804
579.245	15.12492
579.442	15.00754
579.64	15.06085
579.837	13.89373
580.034	16.91147
580.232	14.89057
580.429	14.22911
580.627	15.33067
580.824	16.09753
581.021	15.59991
581.219	14.8427
581.416	14.53223
581.613	16.27361
581.811	16.10728
582.008	14.57761
582.205	15.75632
582.402	15.30153
582.6	16.72929
582.797	15.16354
582.994	15.52449
583.191	15.64622
583.388	15.11448
583.586	15.99958
583.783	15.93179
583.98	14.64911
584.177	15.35978
584.374	13.15703
584.571	14.9303
584.768	14.89997
584.965	14.93661
585.162	15.75549
585.359	16.44456
585.556	15.11624
585.753	15.24777
585.95	14.05605
586.147	14.53088
586.344	15.58294
586.541	14.82787
586.738	14.30994
586.935	15.03282
587.132	14.48784
587.329	15.81299
587.526	15.04894
587.722	18.84201
587.919	14.10599
588.116	15.49334
588.313	16.24849
588.51	16.84305
588.706	14.91045
588.903	15.65312
589.1	15.9744
589.297	17.2134
589.493	15.26855
589.69	15.85686
589.887	14.88114
590.083	14.45256
590.28	14.62038
590.477	15.99827
590.673	16.01914
590.87	16.4887
591.067	15.17807
591.263	15.8048
591.46	15.61608
591.656	15.12066
591.853	16.23265
592.049	14.67857
592.246	14.87337
592.442	16.1925
592.639	16.00194
592.835	14.41599
593.032	15.53443
593.228	14.27124
593.425	14.07981
593.621	13.9334
593.817	15.2478
594.014	14.58464
594.21	15.31107
594.406	15.93721
594.603	15.91388
594.799	14.87108
594.995	13.533
595.192	16.28466
595.388	14.97302
595.584	14.90573
595.78	14.00017
595.977	16.54516
596.173	16.51758
596.369	15.03875
596.565	14.622
596.761	14.19572
596.957	16.33893
597.154	14.84983
597.35	15.01463
597.546	14.76804
597.742	15.92856
597.938	15.67515
598.134	14.90172
598.33	15.681
598.526	16.77026
598.722	15.8661
598.918	16.97032
599.114	15.91353
599.31	14.55017
599.506	15.53178
599.702	14.5985
599.898	15.51363
600.094	16.27885
600.29	15.95752
600.485	16.2056
600.681	14.83722
600.877	16.75315
601.073	15.25456
601.269	16.81137
601.465	16.34128
601.66	14.72803
601.856	13.8519
602.052	16.41128
602.248	14.99836
602.443	13.77392
602.639	14.3213
602.835	14.615
603.03	14.73742
603.226	15.97992
603.422	14.48883
603.617	15.05122
603.813	14.95228
604.009	14.93578
604.204	16.15769
604.4	14.18485
604.595	16.09276
604.791	14.72866
604.986	15.75383
605.182	15.03434
605.377	15.40134
605.573	15.25746
605.768	15.76332
605.964	16.08962
606.159	16.10649
606.355	16.70731
606.55	15.30311
606.746	16.53956
606.941	15.39289
607.136	17.43233
607.332	17.88605
607.527	14.33585
607.722	15.64919
607.918	15.50222
608.113	14.68272
608.308	15.99796
608.503	15.66818
608.699	15.72634
608.894	15.82797
609.089	14.9279
609.284	15.5819
609.479	15.15227
609.675	16.1111
609.87	15.23502
610.065	16.24354
610.26	16.59363
610.455	16.43955
610.65	15.5944
610.845	15.94389
611.04	16.67486
611.235	15.59349
611.43	15.23003
611.625	14.7106
611.82	17.13583
612.015	14.90638
612.21	16.93205
612.405	14.20177
612.6	17.24956
612.795	16.61624
612.99	16.07767
613.185	14.44921
613.38	14.91398
613.575	15.73834
613.77	18.0858
613.965	14.25255
614.159	14.79415
614.354	16.93038
614.549	16.38662
614.744	16.23339
614.938	14.57833
615.133	14.27839
615.328	16.88815
615.523	16.705
615.717	18.50665
615.912	14.89309
616.107	15.90738
616.301	15.25848
616.496	15.18071
616.691	17.21067
616.885	16.28582
617.08	18.55473
617.274	16.58963
617.469	17.88626
617.664	16.50077
617.858	15.16126
618.053	16.11439
618.247	15.60992
618.442	13.55308
618.636	17.33342
618.831	15.25293
619.025	15.20845
619.219	18.25323
619.414	12.42065
619.608	15.68293
619.803	15.06077
619.997	17.87466
620.191	16.88693
620.386	16.36555
620.58	15.841
620.774	14.17167
620.969	14.18768
621.163	16.08748
621.357	14.63849
621.551	15.17893
621.746	15.98529
621.94	15.47312
622.134	19.40848
622.328	18.09017
622.522	13.84089
622.716	16.84597
622.911	17.06362
623.105	17.00037
623.299	16.48719
623.493	18.97618
623.687	15.22854
623.881	15.34926
624.075	16.24181
624.269	17.3792
624.463	13.77574
624.657	14.24644
624.851	16.1817
625.045	16.79904
625.239	16.93375
625.433	15.36419
625.627	17.2954
625.821	15.27764
626.015	15.0422
626.209	16.00381
626.403	14.72089
626.596	16.29169
626.79	16.83572
626.984	14.75519
627.178	16.45403
627.372	16.66103
627.565	16.83637
627.759	14.64821
627.953	14.90085
628.147	16.55857
628.34	16.87121
628.534	18.61212
628.728	15.92696
628.921	17.06286
629.115	16.83913
629.309	17.38967
629.502	17.15548
629.696	16.19504
629.89	15.75797
630.083	16.32614
630.277	16.58274
630.47	18.2215
630.664	15.79818
630.857	14.53332
631.051	16.80325
631.244	17.33348
631.438	17.11625
631.631	15.28465
631.825	17.65276
632.018	16.91417
632.212	18.46486
632.405	17.40166
632.598	15.26752
632.792	16.04252
632.985	13.53467
633.178	15.81583
633.372	16.01836
633.565	16.11605
633.758	17.78047
633.952	15.29567
634.145	15.29987
634.338	15.64682
634.531	15.75679
634.724	15.38846
634.918	16.40509
635.111	16.21603
635.304	16.09315
635.497	18.94119
635.69	16.47945
635.883	17.60618
636.077	14.77517
636.27	16.77747
636.463	16.30131
636.656	16.6967
636.849	16.04315
637.042	16.83966
637.235	18.00375
637.428	17.18681
637.621	16.85659
637.814	17.90197
638.007	18.20634
638.2	18.28741
638.393	19.11496
638.586	14.88095
638.778	15.74797
638.971	16.26541
639.164	18.3747
639.357	16.80503
639.55	18.31103
639.743	17.40946
639.935	17.06565
640.128	18.81689
640.321	17.21722
640.514	16.8065
640.707	19.75229
640.899	17.23383
641.092	14.37368
641.285	25.92012
641.477	13.7312
641.67	19.6777
641.863	18.4171
642.055	16.73459
642.248	16.22846
642.441	16.13109
642.633	17.02177
642.826	18.21063
643.018	18.50105
643.211	19.43331
643.403	19.09129
643.596	19.77232
643.788	19.28168
643.981	16.14731
644.173	17.98619
644.366	16.43073
644.558	14.42233
644.751	18.32841
644.943	14.77785
645.135	19.31326
645.328	19.13346
645.52	17.80057
645.712	18.3643
645.905	21.53651
646.097	15.22879
646.289	17.0183
646.482	20.00834
646.674	16.25544
646.866	19.03759
647.058	17.81516
647.251	15.3346
647.443	16.25645
647.635	16.77676
647.827	14.98804
648.019	15.75672
648.211	16.87189
648.404	17.09632
648.596	19.59115
648.788	17.45862
648.98	17.39841
649.172	17.81195
649.364	17.80397
649.556	14.2966
649.748	21.70903
649.94	15.66858
650.132	17.85481
650.324	15.60478
650.516	16.24555
650.708	18.98236
650.9	15.22235
651.092	14.76002
651.284	15.0623
651.476	15.65268
651.667	18.02907
651.859	18.93389
652.051	17.2898
652.243	17.24189
652.435	16.48027
652.627	17.92784
652.818	18.32829
653.01	14.59246
653.202	15.83493
653.394	16.76023
653.585	18.14122
653.777	24.30333
653.969	19.28246
654.16	19.1915
654.352	15.69129
654.544	17.07646
654.735	18.86163
654.927	17.9516
655.118	19.75043
655.31	18.71542
655.502	19.24452
655.693	16.74889
655.885	18.50308
656.076	19.54917
656.268	17.75162
656.459	19.73119
656.651	19.61024
656.842	16.45048
657.034	16.42007
657.225	18.8121
657.416	19.76103
657.608	19.65249
657.799	17.32206
657.99	19.53999
658.182	16.56147
658.373	16.50311
658.564	18.50587
658.756	17.7745
658.947	17.39144
659.138	16.23881
659.33	16.74458
659.521	16.6816
659.712	17.60693
659.903	17.38142
660.094	16.78196
660.286	15.47851
660.477	20.90074
660.668	18.98265
660.859	17.85563
661.05	15.66924
661.241	18.7379
661.432	18.80714
661.623	17.09072
661.814	16.83695
662.006	15.13416
662.197	18.45917
662.388	19.90163
662.579	18.38748
662.77	20.4271
662.96	22.49043
663.151	19.23329
663.342	14.89441
663.533	19.36212
663.724	18.29077
663.915	20.98236
664.106	17.78372
664.297	21.14263
664.488	19.39018
664.678	17.20412
664.869	19.54397
665.06	19.50289
665.251	18.60194
665.442	18.85565
665.632	16.2451
665.823	21.59015
666.014	12.97094
666.204	19.2248
666.395	20.72311
666.586	22.88553
666.776	19.68231
666.967	21.63829
667.158	18.30621
667.348	20.85919
667.539	16.1976
667.729	19.71641
667.92	17.07831
668.111	20.13663
668.301	19.40249
668.492	18.04249
668.682	18.4545
668.873	18.40058
669.063	16.1717
669.253	19.10313
669.444	19.57272
669.634	18.38863
669.825	22.16085
670.015	20.75988
670.206	16.84519
670.396	22.43387
670.586	18.11744
670.777	19.30437
670.967	14.84169
671.157	18.09
671.347	17.4775
671.538	21.47463
671.728	19.48234
671.918	22.37359
672.108	21.00062
672.299	18.80886
672.489	19.35319
672.679	17.57451
672.869	19.54914
673.059	22.21147
673.249	19.53769
673.44	16.89559
673.63	18.4015
673.82	20.77316
674.01	17.04055
674.2	19.59359
674.39	24.94872
674.58	20.06559
674.77	19.48589
674.96	18.74371
675.15	27.36681
675.34	21.33732
675.53	18.86287
675.72	18.60762
675.91	16.20434
676.099	22.64962
676.289	23.31596
676.479	21.24729
676.669	18.31102
676.859	19.98884
677.049	17.29317
677.238	19.14001
677.428	23.07639
677.618	19.69481
677.808	20.96425
677.997	20.41183
678.187	16.95215
678.377	19.11887
678.567	18.36884
678.756	18.20605
678.946	18.90651
679.136	16.35027
679.325	17.61192
679.515	17.24699
679.704	16.81429
679.894	19.95346
680.084	19.47708
680.273	21.5149
680.463	17.89001
680.652	17.6928
680.842	19.11824
681.031	20.95309
681.221	17.91669
681.41	20.83838
681.6	19.05116
681.789	21.07268
681.978	22.50365
682.168	19.75803
682.357	20.45891
682.547	20.98164
682.736	20.2307
682.925	22.46773
683.115	22.30266
683.304	21.37468
683.493	20.9696
683.682	20.62647
683.872	20.77263
684.061	22.72218
684.25	21.44181
684.439	23.80186
684.629	21.71751
684.818	27.53618
685.007	20.15033
685.196	19.40489
685.385	23.67875
685.574	21.23315
685.763	21.89515
685.952	20.55355
686.142	17.58089
686.331	23.56625
686.52	16.6995
686.709	24.0923
686.898	23.57801
687.087	22.3857
687.276	24.58779
687.465	22.69244
687.654	20.59118
687.842	24.38377
688.031	18.28091
688.22	23.8317
688.409	21.26229
688.598	21.664
688.787	26.66916
688.976	20.97538
689.165	24.71054
689.353	19.90799
689.542	21.70938
689.731	22.45756
689.92	25.52382
690.108	23.29671
690.297	20.28471
690.486	21.45477
690.675	23.46877
690.863	25.1324
691.052	24.94582
691.241	22.21179
691.429	22.39972
691.618	25.2994
691.806	18.74281
691.995	20.06276
692.184	21.63439
692.372	20.08644
692.561	22.32281
692.749	21.28467
692.938	27.53057
693.126	22.70375
693.315	20.33948
693.503	23.1762
693.692	22.85428
693.88	24.59605
694.068	27.66793
694.257	21.59511
694.445	22.88628
694.634	16.54021
694.822	24.39295
695.01	24.81536
695.199	24.48665
695.387	26.30486
695.575	25.12912
695.763	21.92767
695.952	20.7055
696.14	18.36979
696.328	20.59327
696.516	21.31244
696.705	22.76124
696.893	22.59797
697.081	17.36102
697.269	23.11442
697.457	19.17684
697.645	18.54272
697.833	23.43127
698.021	19.64184
698.21	19.93944
698.398	21.23683
698.586	18.92913
698.774	18.5707
698.962	20.74264
699.15	19.45968
699.338	18.32502
699.526	22.83182
699.714	20.21171
699.901	20.68361
700.089	24.42942
700.277	20.26694
700.465	21.72265
700.653	24.20396
700.841	23.66961
701.029	20.26758
701.217	25.29608
701.404	22.43682
701.592	27.21402
701.78	27.2646
701.968	21.4192
702.155	21.408
702.343	19.05371
702.531	26.06306
702.718	23.56601
702.906	21.57452
703.094	20.86538
703.281	25.65629
703.469	22.487
703.657	25.73554
703.844	32.09276
704.032	27.42038
704.219	20.88505
704.407	23.50508
704.595	26.16658
704.782	23.10789
704.97	21.84462
705.157	21.86162
705.345	27.31497
705.532	30.6069
705.719	24.09223
705.907	27.37618
706.094	23.39314
706.282	27.94171
706.469	21.97243
706.656	23.62824
706.844	22.59937
707.031	26.28533
707.218	24.23018
707.406	28.49587
707.593	25.74448
707.78	25.64986
707.968	23.06401
708.155	21.18487
708.342	25.22543
708.529	24.81949
708.716	24.32669
708.904	28.93223
709.091	26.81421
709.278	20.33866
709.465	31.40353
709.652	29.371
709.839	28.13563
710.026	24.61099
710.213	19.2457
710.4	25.39494
710.587	26.52801
710.774	28.29221
710.961	27.4012
711.148	24.72282
711.335	27.95458
711.522	23.44383
711.709	25.14265
711.896	31.96106
712.083	27.71006
712.27	21.81427
712.457	25.62227
712.644	19.99093
712.831	31.09505
713.017	25.40293
713.204	26.99788
713.391	22.94731
713.578	28.69415
713.765	28.54471
713.951	26.37425
714.138	35.7537
714.325	27.49259
714.512	25.27287
714.698	22.57567
714.885	30.59392
715.072	26.52674
715.258	25.80714
715.445	23.30857
715.631	30.23104
715.818	17.40134
716.005	23.03199
716.191	27.97849
716.378	24.87897
716.564	29.28215
716.751	22.37587
716.937	23.80715
717.124	29.50818
717.31	23.11599
717.497	30.59649
717.683	23.50983
717.869	35.22399
718.056	24.11439
718.242	27.47613
718.429	25.96322
718.615	22.53005
718.801	26.42343
718.988	29.46646
719.174	27.64673
719.36	26.3146
719.547	31.08034
719.733	27.34018
719.919	28.7654
720.105	29.15044
720.291	25.81127
720.478	26.97638
720.664	25.83192
720.85	25.13496
721.036	38.14279
721.222	32.0454
721.408	26.49342
721.595	34.40134
721.781	33.20132
721.967	30.23295
722.153	33.64606
722.339	29.01242
722.525	28.4416
722.711	23.04152
722.897	22.3373
723.083	25.43284
723.269	31.32274
723.455	37.54986
723.641	38.29079
723.827	27.5596
724.012	29.25183
724.198	25.18295
724.384	32.68325
724.57	30.15829
724.756	21.59957
724.942	20.4209
725.127	30.57543
725.313	33.15664
725.499	32.74641
725.685	34.45454
725.87	28.9301
726.056	23.95651
726.242	33.97414
726.428	21.22769
726.613	31.10831
726.799	25.87062
726.985	23.17093
727.17	21.50697
727.356	33.46564
727.541	23.85372
727.727	26.79284
727.913	30.49966
728.098	25.42907
728.284	30.88123
728.469	22.55067
728.655	23.93094
728.84	30.35262
729.026	31.95843
729.211	31.1818
729.397	29.17696
729.582	30.00993
729.767	28.62194
729.953	29.22252
730.138	31.41503
730.323	19.49716
730.509	23.22683
730.694	35.04449
730.879	30.10873
731.065	28.61855
731.25	37.49986
731.435	31.21769
731.621	21.68106
731.806	25.0882
731.991	29.41021
732.176	22.194
732.361	34.0348
732.547	28.7779
732.732	21.92202
732.917	37.95267
733.102	23.66695
733.287	25.29331
733.472	28.72882
733.657	27.96969
733.842	22.35724
734.027	27.48622
734.212	28.2435
734.397	25.47006
734.582	29.14172
734.767	32.28708
734.952	35.22753
735.137	18.16935
735.322	34.79389
735.507	30.49477
735.692	29.62082
735.877	38.12006
736.062	35.26946
736.247	30.92205
736.431	27.91707
736.616	33.19562
736.801	28.97023
736.986	28.21972
737.171	24.94644
737.355	23.95974
737.54	34.13214
737.725	28.62578
737.909	41.6286
738.094	26.3775
738.279	34.21735
738.463	27.33368
738.648	32.41936
738.833	30.91146
739.017	36.61604
739.202	26.7815
739.386	29.12794
739.571	22.35222
739.756	31.43519
739.94	28.72412
740.125	33.32987
740.309	25.31983
740.494	33.33846
740.678	29.7868
740.863	31.48622
741.047	30.72651
741.231	34.82303
741.416	25.3758
741.6	37.58199
741.785	26.84977
741.969	33.44111
742.153	35.70623
742.338	20.37464
742.522	30.00213
742.706	32.58325
742.89	23.99438
743.075	30.35068
743.259	36.41592
743.443	33.10287
743.627	36.2727
743.812	41.42964
743.996	22.09205
744.18	28.66442
744.364	27.4201
744.548	42.39414
744.732	28.59783
744.916	33.2636
745.1	32.55871
745.285	28.11907
745.469	32.34249
745.653	38.01329
745.837	22.66756
746.021	43.15569
746.205	36.3797
746.389	30.12568
746.573	28.96562
746.757	38.7814
746.94	29.36405
747.124	35.76659
747.308	24.60464
747.492	36.88377
747.676	27.22336
747.86	43.51939
748.044	27.17106
748.227	20.95069
748.411	49.30927
748.595	31.74395
748.779	25.90011
748.963	32.78781
749.146	31.42188
749.33	26.40385
749.514	25.18823
749.697	36.70845
749.881	27.00457
750.065	25.53675
750.248	30.49074
750.432	43.63182
750.616	30.21023
750.799	24.11316
750.983	41.2294
751.166	44.81668
751.35	23.10978
751.533	33.17261
751.717	36.2036
751.9	39.65058
752.084	28.00238
752.267	25.1408
752.451	27.26225
752.634	31.61853
752.818	34.16395
753.001	34.75916
753.184	36.84672
753.368	33.40072
753.551	14.29231
753.734	27.03676
753.918	41.13572
754.101	26.96435
754.284	34.64208
754.467	28.08637
754.651	26.378
754.834	26.26956
755.017	37.62072
755.2	36.22895
755.384	25.63367
755.567	35.90995
755.75	37.24325
755.933	29.82699
756.116	32.57482
756.299	29.13129
756.482	26.21758
756.665	34.22747
756.848	30.51893
757.032	33.92162
757.215	22.56698
757.398	26.17514
757.581	27.03595
757.764	47.83722
757.947	29.84521
758.129	38.90219
758.312	16.72769
758.495	29.5826
758.678	31.48318
758.861	29.5821
759.044	41.85353
759.227	27.09655
759.41	27.04754
759.592	33.88396
759.775	30.5692
759.958	37.79913
760.141	25.31961
760.324	45.30806
760.506	40.37796
760.689	37.65547
760.872	45.80111
761.054	34.61992
761.237	30.396
761.42	34.28559
761.602	37.23447
761.785	33.8873
761.968	37.13811
762.15	42.76852
762.333	30.12846
762.515	33.34377
762.698	28.63028
762.88	35.5824
763.063	35.0138
763.245	34.73448
763.428	25.32994
763.61	27.84291
763.793	23.91024
763.975	32.16432
764.158	28.17746
764.34	27.89789
764.522	26.22183
764.705	30.03787
764.887	37.70911
765.069	23.34483
765.252	35.10119
765.434	36.03387
765.616	31.80498
765.799	28.29431
765.981	35.90499
766.163	27.12258
766.345	37.63434
766.528	27.0581
766.71	18.92581
766.892	32.11238
767.074	39.05899
767.256	30.9895
767.438	42.76713
767.62	33.6282
767.802	45.3541
767.985	36.83738
768.167	46.56043
768.349	28.96913
768.531	35.83035
768.713	35.2749
768.895	38.75487
769.077	35.10921
769.259	48.0756
769.441	66.60548
769.623	39.02036
769.804	43.53203
769.986	42.25392
770.168	50.18503
770.35	57.77134
770.532	42.65255
770.714	47.32104
770.896	49.52079
771.077	27.66843
771.259	50.94709
771.441	40.92338
771.623	53.77374
771.804	63.4277
771.986	26.29055
772.168	35.06874
772.35	51.02033
772.531	65.87487
772.713	41.67395
772.894	54.00425
773.076	41.09096
773.258	37.04544
773.439	52.58007
773.621	58.51655
773.802	32.62031
773.984	37.18103
774.166	44.55303
774.347	55.27108
774.529	53.58031
774.71	25.92221
774.891	41.79364
775.073	38.32541
775.254	56.02044
775.436	35.68808
775.617	61.04024
775.799	36.93287
775.98	55.97608
776.161	59.0439
776.343	59.50346
776.524	41.83106
776.705	38.13504
776.886	26.84731
777.068	43.45247
777.249	67.69711
777.43	63.55782
777.611	30.57599
777.793	38.91197
777.974	57.28276
778.155	37.18404
778.336	35.35249
778.517	66.60471
778.698	34.85019
778.879	25.20999
779.061	19.09226
779.242	46.46369
779.423	47.35529
779.604	38.61057
779.785	40.9209
779.966	44.07705
780.147	52.62926
780.328	55.05533
780.509	74.76487
780.69	50.59087
780.871	35.67381
781.051	30.93396
781.232	46.55411
781.413	44.60507
781.594	40.29426
781.775	39.1561
781.956	36.63893
782.137	24.7298
782.317	35.69062
782.498	47.13067
782.679	44.16789
782.86	44.52419
783.04	37.39115
783.221	48.1321
783.402	62.25031
783.583	43.83041
783.763	49.27558
783.944	38.40823
784.124	29.24401
784.305	61.06142
784.486	47.42101
784.666	42.5268
784.847	28.20984
785.027	69.88528
785.208	36.58723
785.388	36.94768
785.569	37.39114
785.749	40.5339
785.93	38.60981
786.11	28.44699
786.291	50.55497
786.471	44.26607
786.652	52.0878
786.832	42.15824
787.012	45.80407
787.193	32.42014
787.373	44.0623
787.553	39.12947
787.734	46.36521
787.914	39.65974
788.094	48.75732
788.275	46.55864
788.455	40.02548
788.635	30.86118
788.815	45.70574
788.995	31.45292
789.176	28.63196
789.356	34.69921
789.536	40.36611
789.716	49.20932
789.896	35.35386
790.076	37.05652
790.256	45.26757
790.436	22.33614
790.616	34.86042
790.796	44.73985
790.976	38.32892
791.156	34.69075
791.336	50.73698
791.516	46.32916
791.696	39.71671
791.876	28.99779
792.056	43.54067
792.236	51.96552
792.416	49.66724
792.596	45.44234
792.776	46.79747
792.956	49.62131
793.135	58.09804
793.315	32.8082
793.495	53.95423
793.675	49.8956
793.854	49.76081
794.034	52.77595
794.214	32.46122
794.394	48.80765
794.573	54.85625
794.753	43.98887
794.933	34.47708
795.112	45.97719
795.292	51.2644
795.472	62.36206
795.651	30.19362
795.831	42.44831
796.01	38.81268
796.19	41.69096
796.369	42.63023
796.549	47.71683
796.728	40.94221
796.908	29.18671
797.087	32.73586
797.267	39.23814
797.446	32.00176
797.626	49.70194
797.805	47.55565
797.984	34.64005
798.164	50.08512
798.343	33.70193
798.522	46.27412
798.702	43.47544
798.881	30.69202
799.06	39.99809
799.239	24.16615
799.419	33.89005
799.598	59.59377
799.777	47.22957
799.956	56.64662
800.136	37.64494
800.315	35.77343
800.494	47.5203
800.673	56.61185
800.852	50.01133
801.031	52.7406
801.21	48.65044
801.389	38.5334
801.568	43.2347
801.747	61.50888
801.926	44.26306
802.105	59.88456
802.284	38.66821
802.463	58.79714
802.642	44.0159
802.821	45.80522
803	57.08244
803.179	52.24862
803.358	57.45965
803.537	36.62921
803.716	41.11031
803.895	36.07415
804.073	40.99908
804.252	36.95716
804.431	47.17043
804.61	41.20129
804.789	53.96958
804.967	37.51489
805.146	36.83916
805.325	63.98875
805.503	49.94881
805.682	28.48172
805.861	71.99014
806.039	56.19841
806.218	38.76548
806.397	47.115
806.575	44.32394
806.754	46.49519
806.932	33.39126
807.111	61.31313
807.289	52.27369
807.468	44.4398
807.646	55.06963
807.825	53.94842
808.003	47.0754
808.182	53.88829
808.36	46.14847
808.539	35.79791
808.717	60.51006
808.895	35.49072
809.074	50.17665
809.252	44.04041
809.43	51.84562
809.609	55.83344
809.787	61.83378
809.965	43.14157
810.144	47.09168
810.322	43.96861
810.5	50.43546
810.678	40.53128
810.856	71.57733
811.035	57.70146
811.213	53.07655
811.391	62.58609
811.569	47.47773
811.747	78.74435
811.925	59.95876
812.103	35.99961
812.281	46.23195
812.459	65.66026
812.637	69.54395
812.816	57.62018
812.994	69.48751
813.171	59.72267
813.349	52.52611
813.527	58.80635
813.705	64.48558
813.883	78.04548
814.061	58.42191
814.239	71.08264
814.417	74.8081
814.595	51.30157
814.773	50.53172
814.95	48.35687
815.128	51.03698
815.306	43.17132
815.484	43.89746
815.662	39.1171
815.839	33.51398
816.017	38.32352
816.195	63.24212
816.372	43.35307
816.55	53.81378
816.728	65.02768
816.905	45.97366
817.083	66.47209
817.261	47.03939
817.438	71.64935
817.616	67.87163
817.793	41.64495
817.971	56.68859
818.148	54.52749
818.326	62.67518
818.503	52.52415
818.681	62.99639
818.858	40.68157
819.036	46.50395
819.213	48.67176
819.391	39.06372
819.568	37.62526
819.745	36.05597
819.923	55.51139
820.1	41.82884
820.277	36.22598
820.455	42.17982
820.632	42.92582
820.809	42.44371
820.986	32.55411
821.164	28.34184
821.341	26.54894
821.518	32.42649
821.695	26.75293
821.872	26.48788
822.05	24.74668
822.227	22.11701
822.404	23.11809
822.581	25.01369
822.758	23.35732
822.935	23.52046
823.112	25.54444
823.289	23.19784
823.466	26.53042
823.643	25.78888
823.82	29.14158
823.997	27.58403
824.174	30.67134
824.351	35.54758
824.528	34.47975
824.705	32.70134
824.882	34.83952
825.059	40.83572
825.236	31.55231
825.412	32.7378
825.589	37.01633
825.766	45.66897
825.943	33.6527
826.12	37.05014
826.296	28.88099
826.473	32.58782
826.65	33.59561
826.827	37.81896
827.003	28.9759
827.18	31.46938
827.357	34.55856
827.533	32.14748
827.71	22.69589
827.887	29.30151
828.063	32.13416
828.24	30.33349
828.416	37.20751
828.593	32.36467
828.769	41.32123
828.946	43.8834
829.122	45.59919
829.299	42.20866
829.475	29.77996
829.652	42.44756
829.828	62.52555
830.005	43.16823
830.181	53.61333
830.357	40.75382
830.534	56.0662
830.71	44.90145
830.886	53.16736
831.063	54.25865
831.239	62.3734
831.415	35.52473
831.592	62.07965
831.768	42.98228
831.944	39.79836
832.12	61.8008
832.296	55.57547
832.473	52.7021
832.649	40.22866
832.825	48.89575
833.001	32.9004
833.177	47.41957
833.353	42.91235
833.529	29.00221
833.705	37.23976
833.881	30.60187
834.058	31.29736
834.234	32.89111
834.41	32.97558
834.586	28.02796
834.761	33.14711
834.937	34.51638
835.113	35.83996
835.289	33.39376
835.465	38.30895
835.641	34.12353
835.817	37.56797
835.993	58.14019
836.169	34.68432
836.344	46.14375
836.52	51.25573
836.696	48.55563
836.872	40.03336
837.048	85.39082
837.223	43.79366
837.399	72.20029
837.575	59.92529
837.75	57.81017
837.926	73.16391
838.102	107.48917
838.277	88.37737
838.453	103.36305
838.628	103.52637
838.804	51.23775
838.98	97.88815
839.155	54.98193
839.331	71.44975
839.506	51.96088
839.682	55.15321
839.857	64.61456
840.033	72.81039
840.208	44.56866
840.384	28.1642
840.559	44.31802
840.734	61.28523
840.91	83.08986
841.085	54.22307
841.26	50.94746
841.436	51.38605
841.611	48.97976
841.786	70.71369
841.962	86.5099
842.137	60.60771
842.312	43.42161
842.487	52.74659
842.663	41.76698
842.838	54.37508
843.013	148.03742
843.188	78.70117
843.363	65.34663
843.538	132.58496
843.714	124.57471
843.889	133.53797
844.064	127.54552
844.239	112.12214
844.414	140.65207
844.589	89.45686
844.764	145.01617
844.939	147.29955
845.114	176.21748
845.289	171.04826
845.464	182.91718
845.639	146.26853
845.814	77.68503
845.989	99.25452
846.163	107.34013
846.338	124.43692
846.513	163.45738
846.688	109.8979
846.863	110.12618
847.038	102.18177
847.212	113.57809
847.387	115.97311
847.562	120.55752
847.737	148.21609
847.911	68.72618
848.086	77.7868
848.261	243.2183
848.435	102.22133
848.61	151.25122
848.785	83.23963
848.959	145.45774
849.134	192.84732
849.308	231.60032
849.483	118.48278
849.658	173.61204
849.832	99.92207
850.007	93.28182
850.181	237.39797
850.356	91.00934
850.53	209.45151
850.705	72.39846
850.879	55.80752
851.053	110.66046
851.228	97.08532
851.402	139.69904
851.577	172.55427
851.751	171.00942
851.925	124.30159
852.099	66.54578
852.274	89.40403
852.448	108.34953
852.622	153.93263
852.797	114.04054
852.971	115.04367
853.145	125.34081
853.319	251.88992
853.493	186.98943
853.668	101.03971
853.842	212.20012
854.016	167.88696
854.19	200.83255
854.364	127.30851
854.538	136.66574
854.712	172.18793
854.886	118.70883
855.06	99.80439
855.234	51.61354
855.408	192.34566
855.582	168.48445
855.756	179.91246
855.93	207.39057
856.104	130.62716
856.278	165.75441
856.452	113.8901
856.626	140.61077
856.8	240.24567
856.973	146.28813
857.147	131.39829
857.321	149.48518
857.495	167.95927
857.669	118.65937
857.842	110.9636
858.016	169.57998
858.19	90.35121
858.364	304.59066
858.537	106.695
858.711	134.12236
858.885	111.34585
859.058	103.77297
859.232	63.57647
859.405	71.65577
859.579	156.84549
859.753	140.63507
859.926	89.01219
860.1	62.71687
860.273	112.44569
860.447	190.60888
860.62	118.02317
860.794	218.30296
860.967	134.87303
861.141	191.92562
861.314	253.32044
861.487	135.65247
861.661	176.519
861.834	207.0236
862.008	165.21593
862.181	124.41589
862.354	127.94853
862.528	144.27784
862.701	103.71764
862.874	77.88701
863.047	110.20396
863.221	102.70157
863.394	61.79082
863.567	178.54527
863.74	51.58054
863.913	167.2185
864.087	143.89913
864.26	157.63204
864.433	113.62917
864.606	219.52195
864.779	124.42471
864.952	64.94001
865.125	102.13899
865.298	123.60604
865.471	126.80347
865.644	200.53963
865.817	169.33643
865.99	163.26259
866.163	200.05357
866.336	106.83018
866.509	114.06145
866.682	96.02016
866.855	180.46509
867.028	81.75293
867.2	140.6903
867.373	55.79819
867.546	125.24339
867.719	214.97867
867.892	135.71995
868.064	91.93664
868.237	144.99192
868.41	126.57804
868.583	73.90964
868.755	80.33909
868.928	111.92205
869.101	239.99692
869.273	169.54622
869.446	138.0786
869.619	171.15267
869.791	118.20519
869.964	169.11266
870.136	160.43748
870.309	134.01886
870.481	122.29617
870.654	70.22268
870.826	140.88236
870.999	102.38419
871.171	144.10954
871.344	94.39343
871.516	110.52893
871.689	83.022
871.861	130.43343
872.033	87.6973
872.206	107.36782
872.378	166.31515
872.55	104.93012
872.723	73.86393
872.895	113.34854
873.067	164.07896
873.24	168.67302
873.412	93.75219
873.584	115.45832
873.756	102.17075
873.928	130.75876
874.101	133.7188
874.273	139.99456
874.445	59.99432
874.617	75.61282
874.789	126.44112
874.961	101.33467
875.133	138.05075
875.305	115.97328
875.477	85.76394
875.649	70.23837
875.821	83.01054
875.993	176.58504
876.165	78.36689
876.337	130.84252
876.509	112.04436
876.681	122.81085
876.853	124.6879
877.025	122.24061
877.197	86.64577
877.369	79.0232
877.541	146.19818
877.712	45.94711
877.884	73.17279
878.056	123.46317
878.228	70.60818
878.4	130.13771
878.571	74.84672
878.743	56.51152
878.915	105.3301
879.086	75.27939
879.258	85.28872
879.43	73.31341
879.601	66.41125
879.773	72.94434
879.945	27.70906
880.116	35.89382
880.288	26.65544
880.459	29.07095
880.631	25.45181
880.802	28.70147
880.974	27.33077
881.145	22.69424
881.317	27.5125
881.488	23.28607
881.66	25.42938
881.831	24.26288
882.002	29.64501
882.174	25.09678
882.345	29.12713
882.517	21.53106
882.688	33.85731
882.859	29.25663
883.03	40.30421
883.202	39.74165
883.373	35.6103
883.544	34.93994
883.715	49.59421
883.887	43.43257
884.058	39.9165
884.229	49.70015
884.4	51.91982
884.571	56.78644
884.742	48.28447
884.914	51.0542
885.085	69.87251
885.256	87.81187
885.427	73.27345
885.598	82.69616
885.769	82.92539
885.94	82.65895
886.111	63.76937
886.282	97.74205
886.453	77.00325
886.624	63.94445
886.795	94.70295
886.966	82.18047
887.136	106.7166
887.307	78.35335
887.478	138.81764
887.649	109.63233
887.82	122.86961
887.991	102.38358
888.161	138.07438
888.332	123.44753
888.503	68.5594
888.674	167.75239
888.844	185.20788
889.015	141.75122
889.186	75.26873
889.356	181.30328
889.527	73.95833
889.698	241.05482
889.868	94.19871
890.039	132.82363
890.209	107.64905
890.38	139.92158
890.551	124.34063
890.721	176.83827
890.892	148.07626
891.062	102.66233
891.233	134.34593
891.403	100.01604
891.574	88.10477
891.744	105.91411
891.914	121.9972
892.085	114.77997
892.255	52.17364
892.425	165.91619
892.596	127.89057
892.766	126.73712
892.936	139.15004
893.107	138.68163
893.277	80.40991
893.447	66.2745
893.618	48.32627
893.788	88.00669
893.958	53.20953
894.128	51.7717
894.298	58.90171
894.468	75.30266
894.639	41.14783
894.809	33.40243
894.979	43.43
895.149	52.55795
895.319	44.94854
895.489	59.41392
895.659	70.7595
895.829	50.53324
895.999	55.83596
896.169	44.07754
896.339	51.47546
896.509	93.51576
896.679	107.03341
896.849	108.87396
897.019	139.44294
897.189	109.20755
897.358	100.39221
897.528	147.33729
897.698	58.24473
897.868	130.0188
898.038	216.36479
898.208	222.1047
898.377	70.96468
898.547	210.47813
898.717	262.23244
898.886	138.32482
899.056	214.14321
899.226	283.42605
899.395	171.64598
899.565	248.04306
899.735	174.1153
899.904	260.5168
900.074	234.22996
900.244	102.60489
900.413	361.61267
900.583	95.19466
900.752	150.81217
900.922	274.68023
901.091	35.61741
901.261	203.93295
901.43	198.87443
901.599	184.46196
901.769	436.37471
901.938	255.24208
902.108	198.37502
902.277	296.98558
902.446	85.34664
902.616	102.38426
902.785	111.76427
902.954	201.15351
903.124	130.66977
903.293	103.57161
903.462	62.57829
903.631	86.0987
903.801	67.95962
903.97	41.46052
904.139	59.15565
904.308	48.00893
904.477	42.25741
904.646	29.50136
904.816	36.11811
904.985	57.40659
905.154	82.52611
