Data from WindowProjectSample_Transmission__85__00085.txt Node

Date: Sat May 03 18:10:03 EDT 2025
User: jessi
Spectrometer: SR400872
Trigger mode: 0
Integration Time (sec): 5.000010E-1
Scans to average: 6
Electric dark correction enabled: true
Nonlinearity correction enabled: true
Boxcar width: 0
XAxis mode: Wavelengths
Number of Pixels in Spectrum: 3648
>>>>>Begin Spectral Data<<<<<
184.909	3265.31476
185.132	4183.00609
185.355	-4273.76253
185.578	4226.86967
185.801	-391.04887
186.024	-4931.14299
186.247	1496.56261
186.47	572.58495
186.693	-100.44155
186.916	3822.23817
187.139	3155.01919
187.362	-1984.36204
187.585	6325.27688
187.808	24509.11969
188.031	93.87029
188.254	-4738.33456
188.476	745.33608
188.699	3349.70855
188.922	-245.64207
189.145	-6685.99296
189.368	-392.41204
189.591	-631.29127
189.813	-2954.16011
190.036	943.07726
190.259	-8919.55725
190.482	1288.72237
190.705	3879.70995
190.927	-1954.68792
191.15	-6471.62231
191.373	5887.87845
191.595	-1193.79823
191.818	2085.17599
192.041	-680.48319
192.263	2082.11001
192.486	-2398.07496
192.709	-23423.28532
192.931	1714.29658
193.154	-3708.8084
193.377	-2411.25705
193.599	4765.31283
193.822	1953.42692
194.044	5068.35221
194.267	859.76691
194.489	-656.05175
194.712	2471.81988
194.934	8285.81073
195.157	-26476.9681
195.379	2024.25001
195.602	1607.43326
195.824	1357.23973
196.047	43013.41007
196.269	3186.23536
196.492	-1823.30477
196.714	-1237.69077
196.936	1781.85925
197.159	-11966.6319
197.381	-360.94329
197.604	-3240.43002
197.826	-17031.40226
198.048	10179.02667
198.271	-7977.95936
198.493	4499.37624
198.715	3585.52566
198.938	-606.58582
199.16	-15557.99184
199.382	1199.38463
199.604	-1732.49705
199.827	-3636.39886
200.049	2205.53277
200.271	-7705.88638
200.493	-47430.77809
200.715	3512.49822
200.938	-2936.43048
201.16	-2556.59167
201.382	-1665.40892
201.604	-3074.45877
201.826	3277.76695
202.048	3247.77169
202.27	-1169.42725
202.492	-3270.37065
202.715	-1129.64452
202.937	-16934.59674
203.159	2552.38099
203.381	2218.12888
203.603	-3076.06411
203.825	-865.37825
204.047	53671.73248
204.269	-1352.56013
204.491	-1199.05414
204.713	66084.75859
204.935	-3187.40608
205.156	-919.33086
205.378	-4348.99428
205.6	-1162.53183
205.822	2348.38406
206.044	-304.55656
206.266	6762.60011
206.488	899.51459
206.71	3242.06278
206.932	1577.52741
207.153	-1555.31798
207.375	-2699.76941
207.597	4010.29758
207.819	27888.6589
208.041	4179.36706
208.262	-1433.5783
208.484	-1045.59466
208.706	-1520.43542
208.927	2844.75355
209.149	4523.28821
209.371	-5214.75017
209.593	411.90602
209.814	-29628.22992
210.036	2155.20159
210.258	-813.31864
210.479	3826.51641
210.701	-3528.2333
210.922	-11595.72316
211.144	-855.82056
211.366	4957.58576
211.587	-1528.51058
211.809	-5021.37106
212.03	-916.38391
212.252	-564.57622
212.473	3057.84453
212.695	-664.40753
212.916	-896.58855
213.138	621.95324
213.359	-1422.54465
213.581	11706.5996
213.802	-1794.98578
214.024	-2288.52487
214.245	-5797.35889
214.466	-374.04766
214.688	-2787.47744
214.909	-20150.59716
215.131	-4749.093
215.352	-1999.5557
215.573	11318.54797
215.795	1649.93616
216.016	6550.15182
216.237	-534.17552
216.459	6152.24315
216.68	-3246.49334
216.901	-2780.64617
217.122	-1607.25619
217.344	-7237.8969
217.565	-3002.4773
217.786	2240.44805
218.007	1846.40592
218.228	-610.49828
218.45	-4335.10995
218.671	1491.59832
218.892	4012.2192
219.113	1623.15728
219.334	306.01248
219.555	-7549.9527
219.776	11756.84902
219.997	3973.30812
220.219	1923.25662
220.44	1083.4282
220.661	864.77388
220.882	-2581.61911
221.103	-1071.52227
221.324	2301.82211
221.545	3166.47999
221.766	-3320.30005
221.987	-530.5241
222.208	-9884.63546
222.429	172207.2087
222.65	-378.29582
222.87	-7794.5035
223.091	2627.88346
223.312	-1216.18838
223.533	2298.17606
223.754	2103.15531
223.975	2875.60117
224.196	-5791.44102
224.417	-2653.19837
224.637	6599.98059
224.858	1520.37861
225.079	1316.18253
225.3	1175.42964
225.521	4775.87706
225.741	916.92694
225.962	1146.73404
226.183	-508.86529
226.404	1423.48737
226.624	1176.60134
226.845	1609.45092
227.066	902.41469
227.286	579.81523
227.507	209.78761
227.728	183.99238
227.948	279.52781
228.169	83.90031
228.389	97.23325
228.61	44.59618
228.831	66.66315
229.051	7.05047
229.272	39.9757
229.492	50.23338
229.713	16.92135
229.933	38.33034
230.154	33.09954
230.374	53.32662
230.595	38.10005
230.815	26.23655
231.036	37.90896
231.256	-9.67097
231.477	76.48729
231.697	40.26033
231.917	47.59859
232.138	65.15212
232.358	126.73538
232.579	126.46455
232.799	20.69783
233.019	107.05493
233.24	138.86507
233.46	42.04276
233.68	74.43279
233.901	58.40723
234.121	34.75867
234.341	10.49875
234.561	-7.41866
234.782	23.54211
235.002	80.90543
235.222	-7.68445
235.442	69.14857
235.662	32.04579
235.883	74.50948
236.103	66.76766
236.323	43.51456
236.543	29.86413
236.763	52.05333
236.983	51.03324
237.203	49.29817
237.423	74.47827
237.643	101.74529
237.864	86.95334
238.084	20.76922
238.304	35.01807
238.524	55.71312
238.744	47.78502
238.964	73.87472
239.184	68.50764
239.404	73.10419
239.624	38.11676
239.843	65.83034
240.063	37.45724
240.283	25.49855
240.503	27.18544
240.723	27.8501
240.943	13.17103
241.163	20.3606
241.383	14.26247
241.603	7.91859
241.822	9.6468
242.042	8.12972
242.262	8.6025
242.482	9.50179
242.702	11.42081
242.921	3.57087
243.141	8.02278
243.361	6.27081
243.581	10.24783
243.8	8.97559
244.02	5.62338
244.24	10.11536
244.459	10.42251
244.679	20.30973
244.899	12.28136
245.118	15.42227
245.338	12.61082
245.558	16.39477
245.777	8.39931
245.997	10.96166
246.216	11.03205
246.436	5.93061
246.655	4.42702
246.875	3.49918
247.094	5.9978
247.314	2.11693
247.533	3.66302
247.753	5.1091
247.972	3.66238
248.192	1.43768
248.411	2.18237
248.631	4.374
248.85	5.20626
249.07	3.72235
249.289	7.30183
249.508	5.45445
249.728	8.26216
249.947	8.133
250.166	8.84588
250.386	5.291
250.605	8.82695
250.824	12.03427
251.044	8.87151
251.263	27.65657
251.482	14.07612
251.701	13.83693
251.921	-0.0715
252.14	4.31245
252.359	4.60433
252.578	10.90312
252.798	4.37796
253.017	9.81682
253.236	5.36563
253.455	6.39795
253.674	13.63382
253.893	5.2825
254.112	9.24128
254.331	12.54277
254.551	9.96481
254.77	3.94367
254.989	16.31611
255.208	13.4362
255.427	17.24865
255.646	15.78227
255.865	23.90565
256.084	8.45527
256.303	11.33279
256.522	14.49362
256.741	3.19837
256.96	5.16914
257.179	10.01248
257.397	11.70032
257.616	6.63408
257.835	6.7212
258.054	16.65854
258.273	10.4321
258.492	11.55895
258.711	6.85246
258.93	3.61537
259.148	4.37153
259.367	4.57547
259.586	5.85333
259.805	2.83754
260.023	5.22955
260.242	4.22514
260.461	2.94892
260.68	1.64242
260.898	4.92365
261.117	1.50001
261.336	1.1455
261.554	4.1414
261.773	4.19214
261.992	0.70072
262.21	3.53388
262.429	4.55689
262.648	8.37632
262.866	9.43326
263.085	5.50806
263.303	5.93945
263.522	9.51654
263.74	10.19983
263.959	16.34625
264.178	8.87707
264.396	7.13147
264.615	5.35135
264.833	12.45942
265.051	11.12344
265.27	11.07217
265.488	12.11541
265.707	7.72577
265.925	11.83373
266.144	5.26544
266.362	6.91904
266.58	6.85443
266.799	5.48763
267.017	6.76743
267.235	5.58111
267.454	3.87625
267.672	2.28617
267.89	4.73426
268.109	5.04946
268.327	5.25207
268.545	1.14817
268.763	4.70928
268.982	2.07719
269.2	5.55551
269.418	3.218
269.636	2.69225
269.854	4.16577
270.073	3.8299
270.291	1.90982
270.509	2.1037
270.727	5.16433
270.945	8.13988
271.163	8.03964
271.381	2.2407
271.599	2.92141
271.817	5.73826
272.036	1.93705
272.254	3.23052
272.472	2.80986
272.69	2.70668
272.908	2.79985
273.126	4.80978
273.344	5.77304
273.562	2.28984
273.779	2.87406
273.997	4.15947
274.215	4.95131
274.433	3.55965
274.651	5.00288
274.869	5.14221
275.087	3.039
275.305	4.81527
275.523	2.37293
275.74	3.8809
275.958	6.06599
276.176	8.73435
276.394	2.90862
276.612	3.60021
276.829	3.69222
277.047	2.63141
277.265	3.72488
277.483	4.49231
277.7	4.66458
277.918	4.03941
278.136	6.95291
278.353	3.61612
278.571	1.66607
278.789	5.83496
279.006	1.35553
279.224	3.29369
279.442	5.59968
279.659	3.76814
279.877	2.5833
280.094	6.21102
280.312	1.12236
280.529	4.26292
280.747	1.33296
280.964	2.99305
281.182	6.71821
281.399	3.21074
281.617	4.28429
281.834	2.7637
282.052	2.55941
282.269	3.35801
282.487	2.80954
282.704	2.09177
282.921	2.5925
283.139	3.50763
283.356	4.86017
283.574	3.94692
283.791	1.97626
284.008	5.91856
284.226	3.09824
284.443	3.72383
284.66	4.66081
284.877	3.83169
285.095	2.54578
285.312	1.71459
285.529	1.32466
285.746	1.03679
285.964	2.40962
286.181	1.47665
286.398	2.33362
286.615	2.97776
286.832	2.77641
287.05	0.90674
287.267	1.98513
287.484	2.21817
287.701	3.0754
287.918	2.8273
288.135	3.05023
288.352	1.51021
288.569	1.63751
288.786	2.7559
289.003	2.08491
289.22	3.14109
289.437	2.03897
289.654	3.26289
289.871	3.4864
290.088	3.21177
290.305	2.48819
290.522	2.00957
290.739	2.49073
290.956	3.44778
291.173	4.32172
291.39	3.93829
291.607	2.80065
291.824	2.18014
292.04	1.40603
292.257	3.33891
292.474	3.65458
292.691	2.37228
292.908	1.31458
293.125	2.29999
293.341	1.39345
293.558	5.73371
293.775	2.28487
293.992	2.31182
294.208	1.09865
294.425	1.41342
294.642	2.1245
294.858	3.37701
295.075	0.74372
295.292	2.05116
295.508	2.69581
295.725	3.96704
295.942	1.95289
296.158	1.36003
296.375	2.26301
296.591	1.87786
296.808	2.09603
297.024	2.02005
297.241	2.45238
297.458	2.59192
297.674	0.19017
297.891	2.12327
298.107	1.49397
298.323	1.19079
298.54	3.03192
298.756	1.35704
298.973	0.58236
299.189	3.23692
299.406	1.29038
299.622	3.34728
299.838	3.14072
300.055	2.88018
300.271	0.71965
300.487	0.98382
300.704	1.16771
300.92	0.95275
301.136	4.45126
301.353	2.87586
301.569	2.41066
301.785	2.50915
302.001	2.9933
302.218	2.5421
302.434	2.66696
302.65	0.84588
302.866	1.81412
303.083	4.39605
303.299	4.10942
303.515	2.14202
303.731	2.19944
303.947	1.0987
304.163	1.27588
304.379	2.44268
304.595	2.69712
304.812	1.77809
305.028	1.29319
305.244	1.82286
305.46	3.15313
305.676	3.19084
305.892	3.76426
306.108	2.27295
306.324	1.76441
306.54	4.29731
306.756	2.47565
306.972	2.78783
307.187	2.0455
307.403	3.64038
307.619	1.62068
307.835	3.2624
308.051	3.69751
308.267	0.96859
308.483	3.12829
308.699	2.69378
308.914	2.27334
309.13	2.08225
309.346	0.67461
309.562	1.26066
309.778	0.50302
309.993	2.67235
310.209	1.93204
310.425	0.84848
310.641	1.88392
310.856	0.96353
311.072	1.062
311.288	1.8938
311.503	2.2372
311.719	0.29728
311.935	0.24499
312.15	2.31644
312.366	1.99543
312.581	2.71381
312.797	1.96333
313.013	2.7016
313.228	1.77483
313.444	2.16975
313.659	1.56537
313.875	2.54611
314.09	1.92566
314.306	3.39032
314.521	2.97261
314.737	2.73587
314.952	2.36292
315.168	1.9867
315.383	2.80886
315.599	1.78978
315.814	1.79098
316.029	2.91716
316.245	0.64106
316.46	0.77232
316.675	3.4021
316.891	4.33833
317.106	5.16678
317.321	2.60531
317.537	2.59732
317.752	2.91273
317.967	2.98922
318.183	1.39715
318.398	1.99386
318.613	3.0479
318.828	3.83703
319.043	3.12275
319.259	1.78979
319.474	2.69183
319.689	3.25886
319.904	0.63788
320.119	2.91918
320.334	2.55504
320.549	1.99648
320.765	3.3713
320.98	2.44293
321.195	3.43363
321.41	2.18588
321.625	2.98808
321.84	4.20553
322.055	4.28249
322.27	1.41439
322.485	1.2421
322.7	2.5154
322.915	3.5041
323.13	1.32501
323.345	3.5194
323.56	2.80059
323.775	2.9185
323.989	2.67842
324.204	2.30821
324.419	2.9593
324.634	0.8027
324.849	2.00428
325.064	4.49426
325.279	3.42046
325.493	2.72799
325.708	3.21393
325.923	1.45798
326.138	1.46907
326.352	3.88326
326.567	3.14749
326.782	1.79417
326.997	1.33568
327.211	2.51604
327.426	2.61702
327.641	1.82955
327.855	0.6146
328.07	2.71292
328.285	4.10828
328.499	1.83285
328.714	2.93703
328.928	2.94315
329.143	2.48861
329.358	3.08169
329.572	3.29999
329.787	3.48292
330.001	4.97108
330.216	0.82085
330.43	3.85183
330.645	4.01577
330.859	3.17268
331.074	1.72534
331.288	2.51736
331.503	3.67732
331.717	1.23169
331.931	2.21927
332.146	2.19893
332.36	4.15152
332.575	2.9244
332.789	2.62059
333.003	2.20141
333.218	2.93932
333.432	1.8366
333.646	2.96599
333.86	3.53753
334.075	3.90641
334.289	1.71979
334.503	1.35838
334.717	2.98143
334.932	2.91716
335.146	3.73205
335.36	2.07028
335.574	3.19997
335.788	2.77115
336.003	3.73856
336.217	3.10495
336.431	2.92818
336.645	1.58924
336.859	1.0509
337.073	2.04767
337.287	2.5611
337.501	1.36031
337.715	2.42819
337.929	2.89873
338.143	1.25806
338.357	2.17248
338.571	1.27827
338.785	2.66336
338.999	1.82032
339.213	2.02153
339.427	0.78035
339.641	3.376
339.855	2.17076
340.069	1.63864
340.283	3.3225
340.497	3.95159
340.711	2.70974
340.924	1.72445
341.138	1.11684
341.352	1.02317
341.566	2.37428
341.78	0.81697
341.993	1.82532
342.207	1.10095
342.421	2.49895
342.635	2.35629
342.848	1.64838
343.062	0.26396
343.276	1.6437
343.49	4.38539
343.703	1.6813
343.917	3.02295
344.131	2.94949
344.344	1.5026
344.558	1.5855
344.771	1.4415
344.985	3.53032
345.199	3.72939
345.412	2.31675
345.626	2.41439
345.839	0.76004
346.053	1.13739
346.266	1.27567
346.48	2.93931
346.693	2.28519
346.907	2.68543
347.12	1.56161
347.334	2.52486
347.547	2.36043
347.76	1.93605
347.974	3.14187
348.187	2.45996
348.401	1.94397
348.614	1.82892
348.827	1.86388
349.041	2.61173
349.254	0.69312
349.467	1.98601
349.681	0.87448
349.894	1.62291
350.107	3.22831
350.32	3.22242
350.534	0.55059
350.747	1.61887
350.96	1.35693
351.173	1.36755
351.386	1.99439
351.6	1.59799
351.813	1.37872
352.026	2.27136
352.239	0.98758
352.452	1.79859
352.665	2.8515
352.878	1.88019
353.092	4.21147
353.305	2.47661
353.518	2.31866
353.731	1.263
353.944	3.42256
354.157	1.25566
354.37	1.13867
354.583	1.03207
354.796	0.56877
355.009	3.03222
355.222	1.84182
355.435	1.95358
355.647	2.92773
355.86	0.97285
356.073	1.79891
356.286	1.48513
356.499	2.60421
356.712	2.07459
356.925	2.1691
357.138	2.82868
357.35	1.13495
357.563	1.4545
357.776	1.92731
357.989	1.53196
358.201	2.41931
358.414	1.64873
358.627	2.73841
358.84	1.56804
359.052	0.9327
359.265	0.85858
359.478	2.84266
359.69	-0.41658
359.903	2.32708
360.116	2.53331
360.328	0.37448
360.541	2.51781
360.753	0.90245
360.966	1.23381
361.179	1.34589
361.391	1.33818
361.604	0.79487
361.816	1.17549
362.029	1.03146
362.241	0.94636
362.454	1.12466
362.666	0.89018
362.879	1.48468
363.091	1.39807
363.304	0.84099
363.516	1.62674
363.728	0.70215
363.941	2.15776
364.153	1.03865
364.366	-0.00825
364.578	0.80283
364.79	2.05645
365.003	1.57253
365.215	1.32622
365.427	1.96077
365.639	2.57982
365.852	1.93286
366.064	3.24009
366.276	1.21655
366.488	2.14336
366.701	1.2405
366.913	1.48724
367.125	1.51012
367.337	1.10187
367.549	1.37273
367.762	1.58166
367.974	1.78049
368.186	0.86655
368.398	2.57946
368.61	2.23608
368.822	2.22066
369.034	1.61256
369.246	2.17686
369.458	3.39006
369.67	0.89097
369.882	3.0793
370.094	0.01225
370.306	3.01254
370.518	1.22287
370.73	0.92005
370.942	0.92693
371.154	1.27281
371.366	1.13495
371.578	1.82694
371.79	0.75872
372.002	2.616
372.214	2.86548
372.425	1.88888
372.637	2.40888
372.849	1.58147
373.061	0.01733
373.273	1.92526
373.484	2.08628
373.696	2.38922
373.908	0.04883
374.12	2.35381
374.331	1.88492
374.543	0.9235
374.755	0.73581
374.967	1.69982
375.178	2.14066
375.39	1.47453
375.602	1.69975
375.813	0.62552
376.025	0.35727
376.236	1.62818
376.448	1.61883
376.66	1.19349
376.871	1.18583
377.083	2.2977
377.294	2.45093
377.506	1.12275
377.717	2.48983
377.929	1.49493
378.14	0.67165
378.352	2.00119
378.563	1.87613
378.775	2.51934
378.986	0.95354
379.197	1.46979
379.409	1.23699
379.62	2.18158
379.832	1.71594
380.043	1.22773
380.254	1.58423
380.466	0.43273
380.677	3.68453
380.888	3.24975
381.1	3.40184
381.311	3.1792
381.522	1.4184
381.733	3.70786
381.945	1.29069
382.156	1.71759
382.367	1.20908
382.578	3.76883
382.789	3.60033
383.001	1.35759
383.212	2.44975
383.423	2.70154
383.634	2.47081
383.845	1.79284
384.056	1.11333
384.267	1.50264
384.478	1.41618
384.69	0.5599
384.901	1.8446
385.112	1.8426
385.323	2.59836
385.534	1.85456
385.745	1.96215
385.956	1.88112
386.167	0.73758
386.378	1.94956
386.588	0.7252
386.799	0.84174
387.01	0.30293
387.221	2.15606
387.432	1.38263
387.643	3.05805
387.854	1.52296
388.065	1.3138
388.275	1.35063
388.486	1.27906
388.697	1.39769
388.908	1.29887
389.119	2.41163
389.329	2.70883
389.54	1.51497
389.751	1.98011
389.962	2.3735
390.172	1.84133
390.383	1.1787
390.594	1.25694
390.804	1.04219
391.015	1.08092
391.226	1.60799
391.436	1.92468
391.647	1.81089
391.858	1.98578
392.068	0.33738
392.279	0.76043
392.489	1.71487
392.7	2.40552
392.91	0.99564
393.121	1.07474
393.331	2.00445
393.542	2.4055
393.752	2.14686
393.963	1.89302
394.173	1.77388
394.384	2.16757
394.594	1.58266
394.804	0.8289
395.015	1.66249
395.225	2.11587
395.436	0.91154
395.646	2.16607
395.856	1.40132
396.067	0.80397
396.277	2.43882
396.487	1.8818
396.697	1.76152
396.908	2.5211
397.118	2.33599
397.328	2.01405
397.538	2.45913
397.749	1.31998
397.959	2.51029
398.169	2.26747
398.379	0.87411
398.589	2.20915
398.8	2.05578
399.01	1.82514
399.22	1.76482
399.43	3.54843
399.64	1.78212
399.85	2.48463
400.06	1.90359
400.27	1.55413
400.48	1.90775
400.69	2.99737
400.9	1.67014
401.11	1.37498
401.32	2.60211
401.53	1.55591
401.74	2.93902
401.95	2.61194
402.16	1.49776
402.37	2.37735
402.58	1.67209
402.79	2.47127
403	2.57477
403.209	1.67666
403.419	2.74976
403.629	1.61766
403.839	2.7792
404.049	2.8183
404.258	1.64415
404.468	1.63438
404.678	2.63967
404.888	2.87918
405.097	1.86691
405.307	2.14378
405.517	2.76798
405.727	2.53257
405.936	2.04671
406.146	2.51777
406.356	3.31365
406.565	2.31366
406.775	2.0225
406.984	1.98153
407.194	3.76385
407.404	2.4936
407.613	2.6263
407.823	3.0255
408.032	3.40339
408.242	3.09041
408.451	2.00094
408.661	2.34309
408.87	3.64407
409.08	2.03461
409.289	2.81694
409.499	2.6091
409.708	2.57454
409.918	1.15228
410.127	2.69212
410.336	3.75374
410.546	3.13887
410.755	2.30404
410.964	2.31804
411.174	1.87085
411.383	2.89258
411.592	2.81567
411.802	1.97168
412.011	3.34916
412.22	2.50838
412.429	3.65466
412.639	3.62725
412.848	3.38676
413.057	3.83261
413.266	3.51046
413.475	2.77053
413.685	3.32212
413.894	3.26946
414.103	3.54371
414.312	3.27364
414.521	2.59341
414.73	3.12694
414.939	4.15192
415.148	3.13321
415.357	3.03874
415.566	2.80039
415.776	2.64663
415.985	2.66009
416.194	3.37273
416.403	4.16755
416.611	2.03965
416.82	2.60413
417.029	3.19327
417.238	2.53654
417.447	2.51234
417.656	2.81959
417.865	2.50125
418.074	3.05242
418.283	3.21184
418.492	4.22823
418.7	3.92598
418.909	5.13413
419.118	3.84577
419.327	4.50873
419.536	4.13112
419.744	3.82591
419.953	5.17128
420.162	5.1716
420.371	4.10754
420.579	4.39962
420.788	5.41735
420.997	5.65262
421.205	5.49101
421.414	5.29682
421.623	5.4948
421.831	4.95986
422.04	5.57399
422.249	4.71813
422.457	5.22523
422.666	4.67309
422.874	5.67821
423.083	5.59119
423.291	5.39054
423.5	5.12823
423.708	5.62621
423.917	6.20152
424.125	5.41258
424.334	5.02047
424.542	7.19511
424.751	6.35513
424.959	6.00792
425.167	6.51479
425.376	6.27312
425.584	5.3332
425.793	5.52426
426.001	4.50181
426.209	5.23242
426.418	4.03585
426.626	3.78848
426.834	3.46388
427.042	3.82357
427.251	3.43827
427.459	4.29995
427.667	3.69755
427.875	2.85977
428.084	3.15101
428.292	4.39552
428.5	4.00204
428.708	2.94433
428.916	3.1251
429.124	3.74757
429.333	3.46318
429.541	3.54585
429.749	3.76173
429.957	3.74556
430.165	5.14858
430.373	2.8101
430.581	3.61666
430.789	4.50428
430.997	3.4342
431.205	3.21938
431.413	3.81701
431.621	3.47055
431.829	4.07488
432.037	3.48101
432.245	3.72794
432.453	4.06226
432.661	3.65648
432.869	5.09238
433.076	3.55022
433.284	4.07781
433.492	4.78373
433.7	5.11138
433.908	4.07108
434.116	4.45085
434.323	4.35148
434.531	4.29922
434.739	4.49001
434.947	4.43254
435.154	4.54835
435.362	4.01562
435.57	3.76508
435.778	3.6188
435.985	4.13965
436.193	3.55742
436.401	4.64762
436.608	3.90142
436.816	3.64053
437.023	4.85739
437.231	5.10294
437.439	4.15245
437.646	4.3065
437.854	4.30473
438.061	4.59189
438.269	4.08938
438.476	4.48149
438.684	4.27852
438.891	4.19604
439.099	4.15935
439.306	3.78964
439.514	3.97241
439.721	5.38965
439.929	4.62335
440.136	5.56247
440.343	5.55575
440.551	5.19594
440.758	6.99986
440.965	5.78231
441.173	5.47805
441.38	4.96114
441.587	5.4114
441.795	4.95676
442.002	4.83015
442.209	4.98282
442.416	4.911
442.624	4.80445
442.831	4.5548
443.038	3.95452
443.245	3.71377
443.452	3.90095
443.66	4.64562
443.867	4.01169
444.074	3.73396
444.281	3.9774
444.488	4.28323
444.695	4.67977
444.902	4.56556
445.109	5.5815
445.316	5.16561
445.523	5.27401
445.73	5.09403
445.937	5.99835
446.144	6.37566
446.351	6.80227
446.558	5.69703
446.765	7.28556
446.972	7.00237
447.179	6.49456
447.386	7.21163
447.593	5.71717
447.8	6.61185
448.007	5.52019
448.214	5.21347
448.42	4.76721
448.627	5.57956
448.834	4.67847
449.041	4.42683
449.248	4.32684
449.454	4.74623
449.661	5.3372
449.868	3.97122
450.075	3.9217
450.281	3.23156
450.488	3.58625
450.695	3.75368
450.901	3.77144
451.108	3.87263
451.315	4.84538
451.521	4.14112
451.728	4.85057
451.935	3.80782
452.141	4.10659
452.348	4.18895
452.554	4.19996
452.761	3.90925
452.967	5.21297
453.174	4.48588
453.38	4.28577
453.587	3.39241
453.793	4.39343
454	4.57379
454.206	5.50713
454.413	4.77759
454.619	4.638
454.825	3.85769
455.032	4.60286
455.238	4.71478
455.445	3.44593
455.651	4.28436
455.857	3.13404
456.064	4.2104
456.27	4.08328
456.476	4.01325
456.682	3.46868
456.889	4.42587
457.095	4.63143
457.301	5.63439
457.507	4.33625
457.714	4.25679
457.92	4.26196
458.126	3.68093
458.332	4.30475
458.538	4.20898
458.744	4.61175
458.951	4.72625
459.157	6.68566
459.363	5.69605
459.569	5.90809
459.775	6.6418
459.981	6.01165
460.187	6.48388
460.393	6.86285
460.599	7.12179
460.805	6.10096
461.011	5.6145
461.217	5.98268
461.423	5.4701
461.629	4.67292
461.835	4.88748
462.041	4.40282
462.247	5.50739
462.453	4.29481
462.658	4.27555
462.864	4.64607
463.07	4.75307
463.276	4.60882
463.482	4.55079
463.688	5.52806
463.893	3.90865
464.099	4.32275
464.305	5.3832
464.511	4.03027
464.716	4.41997
464.922	5.13083
465.128	3.86538
465.333	5.42551
465.539	5.0174
465.745	4.53748
465.95	4.52696
466.156	6.21057
466.362	5.11564
466.567	4.45786
466.773	4.29052
466.978	5.47594
467.184	4.00591
467.389	3.41846
467.595	4.8678
467.8	4.01078
468.006	5.30385
468.211	5.26557
468.417	3.88355
468.622	4.85656
468.828	4.93336
469.033	4.65138
469.239	6.37977
469.444	4.12842
469.649	5.0742
469.855	4.43128
470.06	4.76292
470.266	3.91716
470.471	5.05291
470.676	4.81486
470.881	3.36825
471.087	5.45597
471.292	5.63657
471.497	3.71261
471.703	4.41361
471.908	4.39529
472.113	4.56483
472.318	5.0347
472.523	4.00285
472.729	4.93415
472.934	4.89285
473.139	4.45458
473.344	4.98797
473.549	5.53035
473.754	4.29925
473.959	6.03691
474.164	4.26447
474.369	4.4685
474.575	5.06803
474.78	4.87454
474.985	4.32388
475.19	3.57425
475.395	4.21031
475.6	4.68135
475.804	5.50995
476.009	4.66562
476.214	4.59968
476.419	4.46751
476.624	3.69052
476.829	4.20114
477.034	5.0416
477.239	4.41119
477.444	4.70302
477.648	5.07917
477.853	5.10018
478.058	4.3846
478.263	4.29259
478.468	4.10655
478.672	4.18488
478.877	5.59579
479.082	5.79078
479.287	4.96726
479.491	4.75692
479.696	4.17796
479.901	5.38847
480.105	5.3166
480.31	4.32729
480.515	4.82218
480.719	6.32205
480.924	4.61871
481.128	4.47445
481.333	5.55539
481.538	5.71522
481.742	5.59682
481.947	6.84514
482.151	7.24651
482.356	7.59915
482.56	9.15345
482.765	10.07292
482.969	12.13259
483.174	13.72054
483.378	16.27708
483.582	16.51571
483.787	18.00317
483.991	18.02755
484.196	18.48206
484.4	18.10124
484.604	18.51402
484.809	16.43691
485.013	15.81564
485.217	14.33817
485.422	12.60367
485.626	11.53291
485.83	10.76188
486.034	10.18316
486.239	10.59998
486.443	10.72814
486.647	10.76396
486.851	11.9179
487.055	13.10126
487.26	12.68658
487.464	13.37475
487.668	12.71837
487.872	13.01703
488.076	13.69445
488.28	12.80133
488.484	11.9028
488.688	11.56922
488.892	11.23471
489.096	10.3501
489.3	9.58652
489.504	8.94227
489.708	8.73576
489.912	8.56833
490.116	8.26597
490.32	7.66628
490.524	8.73464
490.728	9.27057
490.932	9.57163
491.136	10.15324
491.34	11.32373
491.544	11.6637
491.748	11.20171
491.951	11.34396
492.155	10.95892
492.359	10.74951
492.563	9.35481
492.767	9.12394
492.97	8.14048
493.174	7.18539
493.378	6.71055
493.582	5.76633
493.785	5.75108
493.989	5.60128
494.193	5.20254
494.396	4.70002
494.6	5.14404
494.804	4.57936
495.007	4.33785
495.211	4.74343
495.414	4.6933
495.618	5.13114
495.822	5.90444
496.025	5.27591
496.229	5.86889
496.432	5.26458
496.636	5.53493
496.839	5.66647
497.043	6.61685
497.246	5.8485
497.45	5.50887
497.653	5.81926
497.856	5.72337
498.06	5.16992
498.263	5.29205
498.467	5.30722
498.67	5.79469
498.873	5.37417
499.077	4.91065
499.28	5.09126
499.483	5.22952
499.686	5.47558
499.89	5.22782
500.093	5.6683
500.296	4.7255
500.499	6.11793
500.703	5.15571
500.906	5.18564
501.109	6.01648
501.312	5.23539
501.515	4.94032
501.719	5.34139
501.922	5.70553
502.125	5.23707
502.328	5.03126
502.531	4.59539
502.734	5.13892
502.937	4.06945
503.14	5.13238
503.343	4.54659
503.546	4.90302
503.749	4.68633
503.952	5.35762
504.155	4.53036
504.358	5.43908
504.561	5.27766
504.764	4.45474
504.967	5.17207
505.17	5.10519
505.373	6.08436
505.576	5.10303
505.778	5.49616
505.981	4.71844
506.184	5.90485
506.387	4.22035
506.59	6.11251
506.793	5.877
506.995	5.28292
507.198	3.92931
507.401	5.39973
507.604	5.3512
507.806	4.56104
508.009	4.71433
508.212	5.5362
508.414	4.78834
508.617	4.77823
508.82	5.22908
509.022	5.93081
509.225	5.30792
509.427	4.2406
509.63	5.84699
509.833	5.2261
510.035	4.9437
510.238	4.37418
510.44	5.86943
510.643	4.11224
510.845	6.27925
511.048	5.32175
511.25	4.80441
511.453	5.12868
511.655	5.34154
511.858	4.91748
512.06	5.59785
512.262	5.2641
512.465	5.78849
512.667	5.08814
512.869	4.44178
513.072	5.55985
513.274	5.78855
513.476	5.55535
513.679	5.68704
513.881	4.56053
514.083	6.0567
514.286	4.58794
514.488	4.84758
514.69	4.73057
514.892	4.44556
515.094	5.60962
515.297	4.84871
515.499	5.07214
515.701	4.63464
515.903	6.29417
516.105	6.15871
516.307	5.67517
516.509	4.07662
516.711	4.50729
516.913	5.07258
517.116	5.15205
517.318	4.96579
517.52	5.98323
517.722	5.95169
517.924	5.41273
518.126	6.41107
518.328	5.85648
518.529	6.53509
518.731	7.381
518.933	5.95114
519.135	6.24654
519.337	6.86236
519.539	6.26189
519.741	4.66063
519.943	5.18143
520.145	4.94566
520.346	5.83499
520.548	5.10868
520.75	5.3704
520.952	5.01527
521.153	5.45012
521.355	5.54056
521.557	4.64085
521.759	5.31058
521.96	5.08471
522.162	4.55834
522.364	5.91202
522.565	4.76587
522.767	5.63166
522.969	5.84367
523.17	5.46582
523.372	5.35729
523.573	4.99124
523.775	5.22115
523.977	4.53055
524.178	6.18889
524.38	4.80915
524.581	5.77357
524.783	5.32073
524.984	6.45826
525.186	6.15928
525.387	6.79354
525.589	6.64337
525.79	6.50908
525.991	6.4113
526.193	7.23466
526.394	6.35441
526.596	7.27748
526.797	7.65332
526.998	7.34682
527.2	7.16276
527.401	9.27091
527.602	9.95454
527.803	11.97368
528.005	12.41443
528.206	13.43431
528.407	14.44655
528.608	14.35092
528.81	14.64767
529.011	13.86464
529.212	14.83348
529.413	13.56207
529.614	12.77691
529.815	12.31977
530.017	11.22511
530.218	9.72221
530.419	8.57568
530.62	8.07053
530.821	7.74568
531.022	6.4517
531.223	7.58361
531.424	7.4169
531.625	7.53917
531.826	7.12675
532.027	7.59937
532.228	8.95172
532.429	8.66194
532.63	8.91972
532.831	9.59913
533.032	9.48981
533.233	10.32424
533.433	10.03092
533.634	10.32786
533.835	9.56581
534.036	9.06573
534.237	8.76564
534.438	8.17869
534.638	6.92454
534.839	6.89209
535.04	6.96037
535.241	6.12737
535.441	7.53109
535.642	6.73988
535.843	5.91514
536.043	6.38178
536.244	6.54359
536.445	6.88766
536.645	7.59453
536.846	7.3057
537.047	7.78866
537.247	6.34817
537.448	6.43967
537.648	6.41675
537.849	5.87743
538.049	5.54061
538.25	5.82583
538.451	5.92367
538.651	5.05697
538.851	5.70329
539.052	6.37781
539.252	6.0914
539.453	5.39569
539.653	5.84306
539.854	6.08116
540.054	6.5713
540.254	7.96717
540.455	8.92489
540.655	8.50696
540.855	9.93148
541.056	11.06836
541.256	10.48837
541.456	11.76576
541.657	10.77606
541.857	11.764
542.057	9.98649
542.257	9.67542
542.458	10.30369
542.658	9.65528
542.858	8.05011
543.058	8.83486
543.258	8.0073
543.458	6.42753
543.659	6.2086
543.859	7.06783
544.059	6.91722
544.259	6.02766
544.459	6.50411
544.659	5.48584
544.859	5.9136
545.059	5.27231
545.259	6.02704
545.459	5.58176
545.659	6.23171
545.859	5.7714
546.059	5.95233
546.259	5.336
546.459	5.15068
546.659	5.25815
546.859	6.1725
547.059	5.86877
547.258	5.80702
547.458	5.88232
547.658	4.98583
547.858	4.94922
548.058	5.67374
548.258	5.43644
548.457	4.92345
548.657	7.13537
548.857	5.27431
549.057	5.89902
549.256	5.85523
549.456	5.1751
549.656	3.84506
549.855	6.88869
550.055	5.05965
550.255	6.71385
550.454	5.87619
550.654	6.1726
550.853	6.4864
551.053	6.08712
551.253	5.71598
551.452	5.77952
551.652	4.65692
551.851	4.55055
552.051	5.35508
552.25	5.01442
552.45	4.91832
552.649	5.19337
552.849	4.87234
553.048	5.39901
553.248	5.81484
553.447	4.95395
553.646	5.98308
553.846	6.78193
554.045	6.21628
554.244	4.68759
554.444	6.63121
554.643	4.67914
554.842	6.52501
555.042	7.19639
555.241	4.78423
555.44	4.67616
555.64	5.79628
555.839	6.87309
556.038	5.8803
556.237	4.88659
556.436	5.53833
556.636	5.80799
556.835	5.04543
557.034	6.76299
557.233	5.49674
557.432	4.36946
557.631	6.42659
557.83	5.6261
558.029	5.25411
558.228	4.9846
558.427	4.71181
558.626	5.59231
558.825	4.85976
559.024	5.61669
559.223	6.88654
559.422	5.43626
559.621	5.91581
559.82	3.63825
560.019	5.34357
560.218	5.20702
560.417	3.15413
560.616	4.79587
560.815	8.14976
561.014	4.2913
561.212	6.56693
561.411	5.6028
561.61	4.10161
561.809	5.31651
562.008	6.47901
562.206	5.44614
562.405	5.90657
562.604	5.19848
562.803	5.65754
563.001	5.36877
563.2	4.37139
563.399	5.96281
563.597	4.44248
563.796	5.50733
563.995	4.36612
564.193	5.77548
564.392	5.2488
564.59	7.27474
564.789	4.01312
564.988	4.88543
565.186	5.46756
565.385	5.22357
565.583	5.00478
565.782	5.32951
565.98	5.19153
566.179	5.23591
566.377	4.53111
566.575	4.67123
566.774	6.32377
566.972	6.04374
567.171	7.04662
567.369	6.19413
567.567	5.48276
567.766	5.63507
567.964	3.87567
568.162	5.65448
568.361	6.27918
568.559	5.22119
568.757	5.75848
568.956	5.47129
569.154	5.31137
569.352	5.88349
569.55	5.39852
569.748	5.39905
569.947	4.7339
570.145	4.61684
570.343	4.64755
570.541	6.09058
570.739	4.30241
570.937	5.28386
571.135	5.66257
571.333	6.79855
571.532	6.61356
571.73	5.70653
571.928	6.31664
572.126	5.8067
572.324	4.86691
572.522	6.59158
572.72	7.71853
572.918	5.59021
573.116	5.68547
573.313	5.44857
573.511	5.46578
573.709	4.81569
573.907	6.07504
574.105	5.24259
574.303	4.12882
574.501	4.02515
574.699	5.80174
574.896	5.70364
575.094	5.85673
575.292	4.10249
575.49	6.18601
575.688	5.26742
575.885	6.31422
576.083	7.0541
576.281	5.85488
576.478	4.78762
576.676	5.84137
576.874	4.26582
577.071	5.2724
577.269	7.43133
577.467	5.32882
577.664	5.38591
577.862	6.39634
578.059	4.60141
578.257	6.18508
578.455	4.91602
578.652	5.58075
578.85	3.77141
579.047	5.58506
579.245	5.20043
579.442	5.34927
579.64	5.41257
579.837	3.76713
580.034	7.70835
580.232	5.22404
580.429	4.31448
580.627	5.91165
580.824	6.65038
581.021	5.5095
581.219	5.0281
581.416	4.70433
581.613	6.59653
581.811	6.8535
582.008	4.59262
582.205	6.08225
582.402	5.76853
582.6	7.4609
582.797	5.62241
582.994	5.8404
583.191	5.96316
583.388	5.34033
583.586	6.44332
583.783	6.51862
583.98	4.8505
584.177	5.83381
584.374	2.5663
584.571	5.68803
584.768	5.45712
584.965	4.98238
585.162	6.18624
585.359	7.36662
585.556	5.72638
585.753	5.81876
585.95	4.33074
586.147	4.81117
586.344	6.1493
586.541	5.22236
586.738	4.26935
586.935	5.44465
587.132	4.80437
587.329	6.56706
587.526	5.70625
587.722	10.44849
587.919	4.1393
588.116	5.83286
588.313	6.9971
588.51	8.03815
588.706	5.06464
588.903	6.01915
589.1	6.64652
589.297	8.05758
589.493	5.60652
589.69	6.11232
589.887	5.09649
590.083	4.77867
590.28	5.00371
590.477	6.38745
590.673	6.24174
590.87	6.89964
591.067	5.33926
591.263	5.82793
591.46	5.93116
591.656	5.23845
591.853	6.77263
592.049	4.60025
592.246	5.16584
592.442	6.83433
592.639	6.63606
592.835	4.45016
593.032	6.10983
593.228	4.16867
593.425	3.88916
593.621	3.9346
593.817	5.8291
594.014	4.67111
594.21	5.62358
594.406	6.44452
594.603	5.79801
594.799	4.78434
594.995	3.14358
595.192	6.43499
595.388	4.96541
595.584	5.35556
595.78	4.12851
595.977	7.78274
596.173	7.08839
596.369	5.14872
596.565	4.45649
596.761	4.12406
596.957	6.70614
597.154	4.85881
597.35	4.90681
597.546	4.68268
597.742	6.37377
597.938	5.43458
598.134	4.85131
598.33	5.8181
598.526	6.95779
598.722	5.83223
598.918	7.57159
599.114	5.83498
599.31	4.59316
599.506	5.90277
599.702	5.01656
599.898	5.50827
600.094	6.62988
600.29	6.49806
600.485	6.30703
600.681	5.04035
600.877	7.64575
601.073	5.68999
601.269	7.87975
601.465	7.21346
601.66	4.62945
601.856	3.52313
602.052	7.30974
602.248	5.14021
602.443	3.41072
602.639	4.19922
602.835	4.66995
603.03	4.52211
603.226	6.39758
603.422	4.40997
603.617	5.07316
603.813	5.07475
604.009	4.97502
604.204	6.53941
604.4	4.01333
604.595	6.37595
604.791	4.50721
604.986	5.68607
605.182	4.78159
605.377	4.91158
605.573	4.88404
605.768	5.54853
605.964	6.1223
606.159	6.27888
606.355	6.79247
606.55	5.32619
606.746	6.92153
606.941	5.27584
607.136	8.03797
607.332	9.08954
607.527	3.97474
607.722	5.96227
607.918	5.19023
608.113	4.99242
608.308	6.54721
608.503	6.11188
608.699	5.89255
608.894	6.35206
609.089	4.75569
609.284	5.71766
609.479	5.14769
609.675	6.33361
609.87	5.06013
610.065	6.34809
610.26	6.66095
610.455	6.31657
610.65	5.47319
610.845	5.85634
611.04	6.65719
611.235	5.56531
611.43	5.25289
611.625	4.17582
611.82	7.53656
612.015	4.95284
612.21	7.5499
612.405	4.01578
612.6	7.93486
612.795	7.04631
612.99	6.61895
613.185	4.63769
613.38	4.75715
613.575	5.91353
613.77	9.36698
613.965	4.43217
614.159	4.81663
614.354	7.68169
614.549	7.4217
614.744	6.94826
614.938	4.78303
615.133	4.16565
615.328	7.67935
615.523	6.54359
615.717	9.69191
615.912	4.93054
616.107	6.16521
616.301	5.29311
616.496	5.18383
616.691	7.98576
616.885	7.00431
617.08	9.53304
617.274	7.15792
617.469	8.90884
617.664	6.89398
617.858	5.42121
618.053	6.753
618.247	5.76841
618.442	2.78528
618.636	8.12176
618.831	5.4071
619.025	5.18848
619.219	9.64014
619.414	2.06983
619.608	5.92871
619.803	5.07177
619.997	9.0337
620.191	7.7888
620.386	6.4673
620.58	6.13075
620.774	3.91321
620.969	4.11985
621.163	6.5896
621.357	4.32331
621.551	5.54839
621.746	6.23602
621.94	5.65264
622.134	11.0412
622.328	9.44621
622.522	3.75704
622.716	7.26774
622.911	7.71332
623.105	7.32722
623.299	6.98227
623.493	10.71215
623.687	4.73854
623.881	5.45985
624.075	6.73056
624.269	7.79581
624.463	3.53884
624.657	3.88782
624.851	6.92152
625.045	7.37845
625.239	7.72214
625.433	5.35476
625.627	8.03375
625.821	5.34792
626.015	5.04226
626.209	6.31209
626.403	4.0826
626.596	6.64665
626.79	6.9962
626.984	4.18156
627.178	6.58546
627.372	6.73759
627.565	7.11446
627.759	4.32214
627.953	4.4872
628.147	6.72061
628.34	6.9693
628.534	8.77099
628.728	5.98043
628.921	7.38707
629.115	7.04936
629.309	7.52079
629.502	7.56958
629.696	6.47945
629.89	5.9556
630.083	6.62488
630.277	6.98527
630.47	9.16303
630.664	6.05398
630.857	4.06695
631.051	7.59409
631.244	8.22385
631.438	7.90263
631.631	5.41914
631.825	8.48322
632.018	7.63653
632.212	8.9071
632.405	8.19137
632.598	5.40358
632.792	6.32949
632.985	2.88472
633.178	5.61761
633.372	6.21324
633.565	6.338
633.758	8.71306
633.952	4.76343
634.145	5.00625
634.338	5.56394
634.531	5.38912
634.724	5.64404
634.918	6.46021
635.111	6.04641
635.304	5.35698
635.497	10.05976
635.69	6.79284
635.883	8.28548
636.077	4.82026
636.27	7.24735
636.463	6.73729
636.656	7.02133
636.849	5.8578
637.042	7.38842
637.235	9.35294
637.428	7.87207
637.621	8.03924
637.814	8.88302
638.007	9.45484
638.2	9.16082
638.393	10.14928
638.586	4.84457
638.778	6.37911
638.971	6.54983
639.164	10.04616
639.357	7.10917
639.55	9.35348
639.743	7.97608
639.935	8.018
640.128	10.8245
640.321	8.21781
640.514	7.44837
640.707	11.91714
640.899	8.09049
641.092	3.9437
641.285	20.49542
641.477	3.54379
641.67	11.43814
641.863	9.78984
642.055	7.73024
642.248	7.57068
642.441	6.02514
642.633	8.12121
642.826	9.41019
643.018	10.06557
643.211	10.91444
643.403	10.38451
643.596	11.79951
643.788	11.21252
643.981	7.0633
644.173	9.28895
644.366	6.96261
644.558	4.42221
644.751	9.47661
644.943	4.83469
645.135	10.54976
645.328	11.2241
645.52	8.78807
645.712	10.04997
645.905	13.62899
646.097	5.05946
646.289	8.19395
646.482	12.05381
646.674	6.68696
646.866	10.06287
647.058	8.42824
647.251	5.81571
647.443	6.39075
647.635	7.44857
647.827	5.67295
648.019	6.96216
648.211	7.63392
648.404	7.64364
648.596	10.92754
648.788	8.35281
648.98	8.20147
649.172	8.63767
649.364	8.68949
649.556	4.76454
649.748	13.0233
649.94	5.82186
650.132	8.62763
650.324	5.70897
650.516	6.6237
650.708	10.12142
650.9	5.03503
651.092	6.41135
651.284	4.75306
651.476	5.56984
651.667	9.33411
651.859	10.29643
652.051	7.58595
652.243	8.05021
652.435	6.86501
652.627	8.86606
652.818	8.29768
653.01	4.9566
653.202	5.8587
653.394	6.76606
653.585	9.00954
653.777	17.1815
653.969	10.92113
654.16	10.26795
654.352	5.7752
654.544	7.51634
654.735	10.47485
654.927	8.64672
655.118	11.59375
655.31	9.20873
655.502	10.11109
655.693	7.21018
655.885	9.65506
656.076	11.50738
656.268	8.14497
656.459	11.27433
656.651	10.75857
656.842	7.30933
657.034	6.63587
657.225	10.38966
657.416	11.26401
657.608	10.74519
657.799	8.14161
657.99	10.264
658.182	6.62554
658.373	6.8448
658.564	9.31454
658.756	7.87609
658.947	7.8824
659.138	5.96935
659.33	6.63297
659.521	6.38156
659.712	7.36009
659.903	7.60762
660.094	6.77453
660.286	4.62805
660.477	11.71969
660.668	9.46429
660.859	7.80105
661.05	4.83988
661.241	9.64568
661.432	9.72992
661.623	7.38458
661.814	7.92447
662.006	5.20908
662.197	8.69688
662.388	11.31972
662.579	8.91945
662.77	14.90299
662.96	15.12834
663.151	10.52285
663.342	5.04086
663.533	9.49502
663.724	8.59174
663.915	13.04195
664.106	8.16784
664.297	13.14802
664.488	10.77929
664.678	7.99041
664.869	10.73511
665.06	11.78436
665.251	9.73912
665.442	9.84375
665.632	6.4554
665.823	14.00321
666.014	2.42567
666.204	10.66094
666.395	12.13728
666.586	16.08804
666.776	11.21636
666.967	13.40637
667.158	9.58948
667.348	12.85906
667.539	7.25137
667.729	11.00251
667.92	6.7984
668.111	11.78024
668.301	10.18567
668.492	8.80745
668.682	9.7452
668.873	8.85585
669.063	6.49692
669.253	9.48046
669.444	11.43891
669.634	8.04828
669.825	14.60478
670.015	12.2341
670.206	7.35395
670.396	15.02739
670.586	9.12888
670.777	10.98008
670.967	4.20027
671.157	9.34959
671.347	7.46061
671.538	13.08555
671.728	11.1356
671.918	14.61833
672.108	11.60172
672.299	9.32115
672.489	10.84338
672.679	7.91436
672.869	10.67988
673.059	14.15302
673.249	11.32016
673.44	6.5624
673.63	8.77181
673.82	12.64045
674.01	6.92212
674.2	11.65454
674.39	17.1571
674.58	12.63928
674.77	9.73946
674.96	9.66637
675.15	21.28332
675.34	13.15832
675.53	10.24659
675.72	8.74901
675.91	6.5483
676.099	15.18194
676.289	16.57134
676.479	12.32708
676.669	8.90154
676.859	11.55608
677.049	7.67792
677.238	9.92263
677.428	15.53323
677.618	11.24515
677.808	13.06083
677.997	12.93907
678.187	6.92874
678.377	9.75232
678.567	9.24635
678.756	8.8277
678.946	9.13973
679.136	6.46122
679.325	8.0951
679.515	7.23697
679.704	6.59875
679.894	11.31435
680.084	10.51829
680.273	12.12461
680.463	7.80312
680.652	7.5678
680.842	9.46771
681.031	12.00001
681.221	7.71731
681.41	11.21066
681.6	9.51349
681.789	12.26141
681.978	13.35296
682.168	11.09482
682.357	11.23805
682.547	12.23759
682.736	10.7449
682.925	13.22698
683.115	13.12885
683.304	13.01959
683.493	11.60728
683.682	11.74636
683.872	11.57997
684.061	14.19118
684.25	12.20123
684.439	16.41832
684.629	13.1964
684.818	21.22403
685.007	10.91381
685.196	9.85952
685.385	16.07537
685.574	12.27434
685.763	12.72811
685.952	12.08711
686.142	7.87918
686.331	15.3699
686.52	5.54324
686.709	16.05138
686.898	15.9009
687.087	13.67515
687.276	17.12914
687.465	15.43032
687.654	10.90668
687.842	16.87636
688.031	7.95299
688.22	16.23762
688.409	12.24156
688.598	11.90529
688.787	20.17116
688.976	12.31772
689.165	17.83962
689.353	11.07083
689.542	14.17243
689.731	14.6963
689.92	18.01327
690.108	15.02954
690.297	10.52786
690.486	12.84274
690.675	15.04169
690.863	18.38377
691.052	17.87023
691.241	13.21941
691.429	13.59609
691.618	17.38427
691.806	8.60353
691.995	11.54982
692.184	12.46524
692.372	10.84187
692.561	13.86285
692.749	13.0625
692.938	21.67244
693.126	15.42209
693.315	13.28195
693.503	14.57906
693.692	14.89083
693.88	17.13418
694.068	20.95949
694.257	12.62759
694.445	15.10422
694.634	4.94212
694.822	17.45569
695.01	18.319
695.199	18.40031
695.387	18.4539
695.575	17.81645
695.763	13.13754
695.952	10.33552
696.14	8.19604
696.328	11.68062
696.516	13.67458
696.705	14.00047
696.893	13.89934
697.081	7.0927
697.269	15.79964
697.457	9.55664
697.645	8.96594
697.833	15.14708
698.021	9.93868
698.21	10.90788
698.398	11.79107
698.586	9.16028
698.774	8.46941
698.962	11.14528
699.15	8.67096
699.338	7.72458
699.526	12.97792
699.714	10.63128
699.901	10.44754
700.089	15.50826
700.277	9.95012
700.465	11.87643
700.653	15.66966
700.841	14.31686
701.029	10.25105
701.217	17.4018
701.404	14.95707
701.592	18.64442
701.78	20.90495
701.968	12.42307
702.155	13.47508
702.343	7.67038
702.531	17.94095
702.718	14.99145
702.906	12.97395
703.094	11.3862
703.281	18.74329
703.469	13.6156
703.657	19.25806
703.844	27.28103
704.032	21.30547
704.219	12.17631
704.407	16.33527
704.595	19.82191
704.782	14.53577
704.97	12.30172
705.157	13.06684
705.345	20.3862
705.532	25.09682
705.719	16.98548
705.907	20.15708
706.094	16.01168
706.282	22.22795
706.469	13.99062
706.656	15.31861
706.844	13.93157
707.031	18.71849
707.218	16.45265
707.406	21.58682
707.593	19.39074
707.78	18.36299
707.968	14.66665
708.155	12.03032
708.342	19.35938
708.529	17.84906
708.716	15.51284
708.904	23.69391
709.091	17.85321
709.278	11.24297
709.465	23.82655
709.652	23.38614
709.839	21.64222
710.026	17.46715
710.213	10.27117
710.4	17.69767
710.587	21.30188
710.774	20.57033
710.961	20.17966
711.148	16.69666
711.335	21.58346
711.522	14.90647
711.709	18.08028
711.896	25.53246
712.083	20.69574
712.27	12.877
712.457	17.47497
712.644	10.67478
712.831	26.00182
713.017	17.15457
713.204	20.57675
713.391	14.70389
713.578	22.19527
713.765	23.89984
713.951	19.53575
714.138	31.47496
714.325	20.56411
714.512	17.14241
714.698	13.91039
714.885	24.64043
715.072	19.77455
715.258	18.25538
715.445	14.74044
715.631	23.78254
715.818	6.87455
716.005	15.48834
716.191	20.31255
716.378	15.88262
716.564	22.46628
716.751	14.98886
716.937	16.70473
717.124	24.28813
717.31	14.31446
717.497	25.59091
717.683	15.91062
717.869	28.60283
718.056	16.70923
718.242	20.97746
718.429	18.19883
718.615	13.51461
718.801	19.00931
718.988	22.95053
719.174	20.94485
719.36	18.99578
719.547	23.68834
719.733	20.96536
719.919	21.22811
720.105	22.67577
720.291	19.24477
720.478	20.84381
720.664	18.20451
720.85	17.14219
721.036	34.50317
721.222	27.86445
721.408	19.9898
721.595	31.33558
721.781	28.50171
721.967	26.0853
722.153	28.59222
722.339	23.3731
722.525	22.47948
722.711	15.22879
722.897	13.25078
723.083	18.22188
723.269	26.244
723.455	34.35906
723.641	36.07765
723.827	21.54882
724.012	23.40324
724.198	19.64033
724.384	28.67465
724.57	23.21954
724.756	12.74296
724.942	9.4401
725.127	25.98629
725.313	29.02686
725.499	28.29342
725.685	30.64134
725.87	23.265
726.056	17.68503
726.242	29.55588
726.428	13.93862
726.613	26.87161
726.799	18.38634
726.985	15.83097
727.17	13.20152
727.356	31.33409
727.541	15.44625
727.727	21.27705
727.913	25.89448
728.098	18.25012
728.284	24.823
728.469	13.90707
728.655	16.11827
728.84	26.22126
729.026	25.92262
729.211	26.57273
729.397	24.76174
729.582	24.43222
729.767	20.65297
729.953	23.46444
730.138	27.04282
730.323	8.85929
730.509	14.73643
730.694	31.9619
730.879	24.22647
731.065	22.8955
731.25	34.87278
731.435	25.60546
731.621	14.07845
731.806	18.70392
731.991	23.1797
732.176	14.06315
732.361	29.91475
732.547	24.71083
732.732	12.52539
732.917	35.72419
733.102	14.86561
733.287	17.10971
733.472	21.1847
733.657	22.25776
733.842	13.77166
734.027	18.74604
734.212	22.30626
734.397	17.29973
734.582	22.30623
734.767	26.57093
734.952	30.52147
735.137	7.16586
735.322	30.47729
735.507	21.81195
735.692	22.97577
735.877	35.41029
736.062	33.73406
736.247	24.81883
736.431	21.16367
736.616	30.76655
736.801	24.18946
736.986	22.50508
737.171	17.72041
737.355	13.4783
737.54	29.94569
737.725	23.16873
737.909	41.76456
738.094	20.37428
738.279	27.27761
738.463	21.14193
738.648	27.84692
738.833	24.82575
739.017	36.70572
739.202	21.42208
739.386	21.50972
739.571	16.31382
739.756	28.74447
739.94	22.82063
740.125	29.35545
740.309	17.39708
740.494	27.55034
740.678	24.14305
740.863	27.9071
741.047	24.86863
741.231	33.0509
741.416	18.20617
741.6	33.2969
741.785	17.11372
741.969	31.27048
742.153	32.39747
742.338	10.75171
742.522	24.14165
742.706	29.82407
742.89	16.06583
743.075	27.12362
743.259	35.1946
743.443	31.18105
743.627	33.36437
743.812	40.63655
743.996	8.60045
744.18	23.12895
744.364	21.23325
744.548	42.82795
744.732	24.02495
744.916	28.26275
745.1	28.39329
745.285	22.57521
745.469	30.31572
745.653	35.91104
745.837	15.48217
746.021	41.17175
746.205	35.76061
746.389	26.78539
746.573	23.36508
746.757	38.4385
746.94	23.2604
747.124	32.23036
747.308	16.98259
747.492	33.1388
747.676	19.39228
747.86	43.45555
748.044	23.13611
748.227	12.66108
748.411	53.53677
748.595	26.95198
748.779	19.30377
748.963	28.29452
749.146	26.45616
749.33	19.19101
749.514	18.68408
749.697	34.48525
749.881	21.01262
750.065	16.57737
750.248	26.67277
750.432	45.94083
750.616	26.22667
750.799	15.8607
750.983	41.86963
751.166	49.10262
751.35	13.0862
751.533	30.37876
751.717	37.47497
751.9	38.89037
752.084	23.18626
752.267	15.94196
752.451	20.23638
752.634	26.4309
752.818	29.72213
753.001	33.15956
753.184	33.7071
753.368	28.81741
753.551	0.94194
753.734	19.00236
753.918	42.45918
754.101	21.25062
754.284	32.08952
754.467	21.9759
754.651	22.87811
754.834	19.67237
755.017	37.9058
755.2	33.82644
755.384	17.21428
755.567	31.77741
755.75	36.30527
755.933	23.3801
756.116	26.96343
756.299	20.31367
756.482	19.35893
756.665	31.15019
756.848	27.99403
757.032	31.13161
757.215	13.51811
757.398	21.55178
757.581	19.93208
757.764	49.39392
757.947	26.92586
758.129	35.52032
758.312	2.52161
758.495	25.10713
758.678	24.51438
758.861	24.76769
759.044	44.48599
759.227	19.968
759.41	20.45044
759.592	31.46866
759.775	26.25349
759.958	36.78413
760.141	15.45187
760.324	44.08179
760.506	39.55439
760.689	34.33975
760.872	48.32034
761.054	31.56683
761.237	24.34003
761.42	30.81219
761.602	33.11381
761.785	30.27546
761.968	35.83825
762.15	41.40777
762.333	23.98085
762.515	30.56135
762.698	21.77288
762.88	32.26763
763.063	29.19609
763.245	32.67271
763.428	19.55853
763.61	20.19585
763.793	17.25045
763.975	27.87567
764.158	22.99264
764.34	22.42019
764.522	18.65836
764.705	25.71714
764.887	36.45198
765.069	15.62686
765.252	30.86471
765.434	33.19682
765.616	27.41737
765.799	22.00727
765.981	32.51635
766.163	20.87208
766.345	34.00718
766.528	22.04803
766.71	8.17876
766.892	27.10142
767.074	39.00264
767.256	28.57153
767.438	41.97235
767.62	29.50384
767.802	49.65052
767.985	33.87127
768.167	45.54243
768.349	23.79629
768.531	34.47714
768.713	29.48435
768.895	36.23779
769.077	31.52459
769.259	54.23852
769.441	80.50178
769.623	39.23288
769.804	44.94736
769.986	44.62001
770.168	57.23034
770.35	68.14665
770.532	46.39506
770.714	51.95607
770.896	53.11145
771.077	18.76939
771.259	56.26487
771.441	48.99047
771.623	62.53811
771.804	80.15902
771.986	20.5756
772.168	38.75914
772.35	59.55112
772.531	75.12016
772.713	49.80051
772.894	57.90658
773.076	45.43129
773.258	31.68489
773.439	63.16396
773.621	66.81584
773.802	26.50733
773.984	41.59339
774.166	48.09594
774.347	71.49911
774.529	59.59718
774.71	14.50169
774.891	41.1096
775.073	42.4484
775.254	68.40951
775.436	35.51598
775.617	72.20477
775.799	37.05979
775.98	72.60595
776.161	72.43691
776.343	68.37684
776.524	46.60352
776.705	39.38418
776.886	21.70115
777.068	49.95537
777.249	87.88041
777.43	81.18486
777.611	25.29992
777.793	46.61692
777.974	71.04607
778.155	41.35207
778.336	33.29365
778.517	76.26136
778.698	36.66085
778.879	17.9458
779.061	5.5005
779.242	52.977
779.423	54.56747
779.604	36.13964
779.785	41.38079
779.966	48.07219
780.147	59.8813
780.328	62.62165
780.509	86.5679
780.69	58.52354
780.871	35.43719
781.051	23.22601
781.232	49.58232
781.413	47.04504
781.594	38.46649
781.775	36.56409
781.956	35.57872
782.137	20.83955
782.317	33.37451
782.498	51.76157
782.679	46.35079
782.86	48.57931
783.04	34.54571
783.221	50.00423
783.402	81.02486
783.583	46.37613
783.763	59.87216
783.944	39.96244
784.124	21.48176
784.305	75.10874
784.486	57.29838
784.666	41.62088
784.847	20.11421
785.027	89.8241
785.208	31.76435
785.388	37.89856
785.569	37.23044
785.749	41.77486
785.93	37.55236
786.11	22.78452
786.291	52.44193
786.471	49.64673
786.652	58.07593
786.832	42.29384
787.012	55.44479
787.193	24.49489
787.373	46.61852
787.553	42.45374
787.734	49.71352
787.914	40.46291
788.094	55.56697
788.275	51.11282
788.455	37.33795
788.635	26.41068
788.815	49.06542
788.995	26.99743
789.176	23.39444
789.356	31.63656
789.536	41.22335
789.716	53.59317
789.896	32.51364
790.076	37.87475
790.256	48.92686
790.436	10.91041
790.616	30.11814
790.796	51.16434
790.976	39.30724
791.156	34.79175
791.336	60.13812
791.516	46.0778
791.696	42.04984
791.876	25.68365
792.056	47.16789
792.236	60.87068
792.416	59.64409
792.596	56.48367
792.776	52.23735
792.956	53.27704
793.135	73.22731
793.315	26.47594
793.495	65.52951
793.675	53.88506
793.854	56.91396
794.034	60.12882
794.214	29.31223
794.394	58.30176
794.573	64.49081
794.753	45.24564
794.933	30.05171
795.112	49.49331
795.292	58.99276
795.472	75.72203
795.651	27.31608
795.831	46.85212
796.01	38.69161
796.19	40.54239
796.369	41.92919
796.549	53.0047
796.728	42.66581
796.908	29.37495
797.087	27.94501
797.267	39.6179
797.446	26.80335
797.626	52.51777
797.805	53.26659
797.984	35.22994
798.164	53.09555
798.343	31.53362
798.522	49.53945
798.702	47.89518
798.881	26.81649
799.06	40.80604
799.239	16.76074
799.419	31.15605
799.598	71.48158
799.777	54.3527
799.956	64.96542
800.136	37.18204
800.315	32.35174
800.494	51.38293
800.673	60.48356
800.852	56.17902
801.031	67.13659
801.21	56.61412
801.389	34.94934
801.568	47.13719
801.747	78.86151
801.926	42.79242
802.105	69.01882
802.284	40.09703
802.463	74.32121
802.642	50.59215
802.821	52.12274
803	70.71923
803.179	57.96367
803.358	67.13221
803.537	38.38897
803.716	54.45096
803.895	32.52205
804.073	46.28363
804.252	36.85958
804.431	53.51279
804.61	45.22515
804.789	65.2063
804.967	36.44642
805.146	39.6006
805.325	84.52181
805.503	54.74131
805.682	28.69895
805.861	93.2787
806.039	68.028
806.218	37.60732
806.397	48.61235
806.575	46.2063
806.754	55.7443
806.932	31.58219
807.111	70.97422
807.289	62.34144
807.468	47.04344
807.646	64.05869
807.825	54.5488
808.003	50.9007
808.182	64.43538
808.36	46.95453
808.539	35.69772
808.717	75.30575
808.895	32.87497
809.074	55.68789
809.252	43.79764
809.43	62.96534
809.609	75.31896
809.787	79.33938
809.965	46.39498
810.144	53.58567
810.322	43.95373
810.5	58.05776
810.678	46.96244
810.856	89.35143
811.035	67.8267
811.213	67.39408
811.391	65.54143
811.569	53.38724
811.747	113.39927
811.925	68.34712
812.103	39.74639
812.281	43.89451
812.459	93.07762
812.637	90.07049
812.816	68.94843
812.994	91.97831
813.171	69.73689
813.349	67.33479
813.527	77.28521
813.705	71.61285
813.883	101.37336
814.061	73.56055
814.239	91.82537
814.417	107.85836
814.595	62.46693
814.773	61.1874
814.95	58.53935
815.128	64.44139
815.306	54.28591
815.484	50.43007
815.662	39.24238
815.839	31.92533
816.017	42.52323
816.195	79.25816
816.372	49.41651
816.55	71.32521
816.728	82.37954
816.905	53.80217
817.083	78.93782
817.261	57.66257
817.438	106.32195
817.616	92.24537
817.793	42.54179
817.971	71.27066
818.148	64.98519
818.326	81.81646
818.503	62.88065
818.681	79.40297
818.858	45.40405
819.036	51.87123
819.213	53.62395
819.391	40.13231
819.568	37.80565
819.745	36.12848
819.923	66.66387
820.1	42.3838
820.277	38.90405
820.455	41.19455
820.632	48.74054
820.809	51.1168
820.986	32.03616
821.164	24.43778
821.341	23.52266
821.518	31.33857
821.695	23.86089
821.872	23.2485
822.05	20.34364
822.227	17.22485
822.404	18.14239
822.581	20.49613
822.758	18.51451
822.935	18.81318
823.112	22.18737
823.289	18.70403
823.466	23.14602
823.643	21.67867
823.82	25.6736
823.997	24.25731
824.174	28.90036
824.351	35.22133
824.528	34.63708
824.705	32.67455
824.882	36.60147
825.059	44.01735
825.236	32.39002
825.412	31.56803
825.589	37.80955
825.766	50.22792
825.943	32.22074
826.12	39.29736
826.296	26.86773
826.473	32.6199
826.65	33.59473
826.827	38.82899
827.003	26.99226
827.18	30.24958
827.357	33.32589
827.533	30.27992
827.71	17.6994
827.887	26.72426
828.063	30.79312
828.24	26.7004
828.416	35.29359
828.593	29.46103
828.769	41.62135
828.946	46.77644
829.122	50.12687
829.299	48.20137
829.475	25.09291
829.652	46.36313
829.828	72.3674
830.005	46.38567
830.181	62.71522
830.357	43.33576
830.534	69.17309
830.71	48.31171
830.886	64.7432
831.063	57.23752
831.239	73.66916
831.415	34.5983
831.592	78.35856
831.768	51.18221
831.944	39.47249
832.12	81.50765
832.296	71.55911
832.473	61.40173
832.649	41.78101
832.825	59.61988
833.001	34.15631
833.177	53.34389
833.353	46.55834
833.529	24.46508
833.705	40.41318
833.881	28.9922
834.058	28.22778
834.234	31.13856
834.41	31.4997
834.586	25.55001
834.761	29.10286
834.937	32.6441
835.113	33.14801
835.289	32.28686
835.465	38.41991
835.641	33.5388
835.817	37.99529
835.993	67.26916
836.169	32.51176
836.344	48.82422
836.52	56.31
836.696	54.76566
836.872	42.53157
837.048	117.05063
837.223	43.35031
837.399	101.2206
837.575	74.86271
837.75	67.878
837.926	98.69445
838.102	156.66917
838.277	115.22805
838.453	161.04346
838.628	157.60428
838.804	54.48199
838.98	151.26158
839.155	71.28159
839.331	95.18436
839.506	70.02768
839.682	71.88936
839.857	80.75658
840.033	96.12824
840.208	46.06208
840.384	21.1865
840.559	48.98859
840.734	73.85971
840.91	107.03266
841.085	67.59072
841.26	61.92214
841.436	56.87369
841.611	52.70673
841.786	97.24699
841.962	123.49616
842.137	88.4354
842.312	39.34241
842.487	70.90032
842.663	62.37225
842.838	73.76967
843.013	267.64524
843.188	126.8163
843.363	121.69664
843.538	237.33826
843.714	225.29099
843.889	231.72862
844.064	189.67114
844.239	154.56038
844.414	229.64623
844.589	163.18023
844.764	263.90834
844.939	272.35254
845.114	259.0252
845.289	315.16948
845.464	350.54724
845.639	260.69882
845.814	134.22201
845.989	187.88849
846.163	200.15536
846.338	235.66164
846.513	300.9191
846.688	202.69921
846.863	234.32505
847.038	147.17756
847.212	202.37429
847.387	225.55859
847.562	235.9151
847.737	293.689
847.911	122.45971
848.086	146.44395
848.261	340.93728
848.435	187.6801
848.61	283.92392
848.785	165.57565
848.959	311.92912
849.134	291.59836
849.308	630.9606
849.483	241.15079
849.658	354.93944
849.832	193.61719
850.007	123.9524
850.181	476.14022
850.356	230.81649
850.53	417.87449
850.705	118.55434
850.879	105.78203
851.053	183.48
851.228	219.81059
851.402	322.91572
851.577	287.2162
851.751	386.36805
851.925	200.67962
852.099	80.90821
852.274	171.73103
852.448	206.64611
852.622	278.28983
852.797	208.89636
852.971	230.38375
853.145	266.90633
853.319	459.52282
853.493	435.93876
853.668	231.8648
853.842	520.40661
854.016	358.69982
854.19	467.78606
854.364	225.60056
854.538	314.21929
854.712	336.76586
854.886	198.96679
855.06	203.41429
855.234	70.88841
855.408	375.06957
855.582	333.20781
855.756	500.50167
855.93	384.10781
856.104	323.04634
856.278	346.2408
856.452	221.66018
856.626	245.7156
856.8	471.43884
856.973	364.99474
857.147	362.92162
857.321	307.05178
857.495	335.75131
857.669	282.26482
857.842	260.87631
858.016	402.61396
858.19	153.59739
858.364	518.0302
858.537	242.70003
858.711	317.89336
858.885	229.67204
859.058	169.17819
859.232	138.09634
859.405	123.41286
859.579	325.79923
859.753	392.30038
859.926	175.75745
860.1	144.64594
860.273	302.62191
860.447	397.392
860.62	216.52921
860.794	502.4547
860.967	254.19209
861.141	295.80847
861.314	479.37086
861.487	300.26608
861.661	360.30335
861.834	554.96362
862.008	336.58682
862.181	333.74559
862.354	261.24189
862.528	422.05889
862.701	244.43084
862.874	133.2275
863.047	226.03668
863.221	193.76207
863.394	101.84634
863.567	296.40732
863.74	94.73686
863.913	350.43795
864.087	304.77341
864.26	349.00326
864.433	254.17746
864.606	490.36423
864.779	323.30627
864.952	107.96811
865.125	273.96649
865.298	291.04429
865.471	287.23628
865.644	451.86177
865.817	345.3331
865.99	369.90351
866.163	405.71196
866.336	190.75752
866.509	301.49676
866.682	284.86673
866.855	448.18921
867.028	121.77891
867.2	259.5441
867.373	73.62984
867.546	262.80524
867.719	499.5126
867.892	338.94831
868.064	177.83346
868.237	252.53106
868.41	260.42236
868.583	178.65726
868.755	179.14358
868.928	226.98555
869.101	537.04843
869.273	408.58907
869.446	278.92053
869.619	416.88125
869.791	342.31459
869.964	396.03644
870.136	418.37312
870.309	193.50863
870.481	280.81267
870.654	115.89577
870.826	248.6778
870.999	191.0679
871.171	377.62897
871.344	172.35589
871.516	217.99787
871.689	169.3417
871.861	278.72275
872.033	182.37839
872.206	215.9806
872.378	284.08955
872.55	258.20154
872.723	155.89306
872.895	221.30077
873.067	349.84384
873.24	285.02074
873.412	199.55525
873.584	228.83189
873.756	233.70826
873.928	256.05187
874.101	228.84228
874.273	277.39252
874.445	93.5539
874.617	136.47042
874.789	202.43781
874.961	220.62435
875.133	266.9345
875.305	245.11172
875.477	147.14009
875.649	116.23736
875.821	157.81187
875.993	328.94348
876.165	211.11869
876.337	250.87298
876.509	210.57241
876.681	239.76671
876.853	224.64958
877.025	256.51603
877.197	167.05569
877.369	142.43121
877.541	273.10722
877.712	64.40412
877.884	126.43406
878.056	245.5722
878.228	133.52188
878.4	275.32547
878.571	117.83193
878.743	85.75353
878.915	180.69473
879.086	107.9391
879.258	135.42266
879.43	114.88635
879.601	102.44393
879.773	106.62063
879.945	24.48933
880.116	41.08856
880.288	28.28197
880.459	30.7181
880.631	25.58194
880.802	28.82474
880.974	29.06715
881.145	21.47867
881.317	27.60756
881.488	22.79794
881.66	25.87826
881.831	23.21478
882.002	30.13557
882.174	25.63852
882.345	29.7536
882.517	19.74557
882.688	36.32646
882.859	29.40856
883.03	46.89077
883.202	46.42548
883.373	42.7553
883.544	41.97319
883.715	64.27923
883.887	58.0785
884.058	49.78483
884.229	72.04794
884.4	71.49165
884.571	79.08981
884.742	68.68148
884.914	70.16286
885.085	99.79865
885.256	136.64993
885.427	105.23896
885.598	137.21575
885.769	128.17139
885.94	132.77532
886.111	85.27981
886.282	148.21926
886.453	127.53165
886.624	103.8537
886.795	159.93148
886.966	129.43188
887.136	160.7854
887.307	149.12187
887.478	212.49732
887.649	189.54704
887.82	197.66031
887.991	149.22839
888.161	244.29429
888.332	216.76199
888.503	118.59324
888.674	299.47759
888.844	347.04888
889.015	365.00299
889.186	157.15529
889.356	330.28711
889.527	135.62373
889.698	528.54828
889.868	209.5137
890.039	324.54148
890.209	215.07217
890.38	276.5156
890.551	255.95081
890.721	359.35806
890.892	330.11158
891.062	298.96659
891.233	376.86323
891.403	274.68098
891.574	181.68442
891.744	185.77774
891.914	260.95617
892.085	341.598
892.255	81.05902
892.425	318.15018
892.596	205.41464
892.766	273.77884
892.936	402.97241
893.107	246.5014
893.277	128.85573
893.447	110.92664
893.618	68.49743
893.788	161.1679
893.958	85.04765
894.128	70.14105
894.298	84.5219
894.468	109.02981
894.639	51.62525
894.809	34.48352
894.979	60.15419
895.149	71.71535
895.319	50.12611
895.489	80.93427
895.659	100.56511
895.829	64.61814
895.999	69.81595
896.169	65.53721
896.339	71.88554
896.509	138.07348
896.679	161.46611
896.849	184.52036
897.019	265.94579
897.189	243.59438
897.358	177.5469
897.528	290.14502
897.698	133.0535
897.868	275.20639
898.038	535.41639
898.208	485.91736
898.377	146.52086
898.547	798.97145
898.717	826.21895
898.886	331.69988
899.056	574.46262
899.226	907.89032
899.395	693.24026
899.565	730.7613
899.735	437.51644
899.904	646.33952
900.074	878.45032
900.244	242.92383
900.413	1746.12839
900.583	314.37955
900.752	3549.71856
900.922	637.52517
901.091	30.26061
901.261	690.59135
901.43	559.15739
901.599	647.04835
901.769	1427.58294
901.938	735.85091
902.108	638.82792
902.277	728.8556
902.446	240.50892
902.616	293.56609
902.785	426.05711
902.954	540.77925
903.124	293.61995
903.293	226.73418
903.462	92.55913
903.631	151.72039
903.801	102.90173
903.97	52.29496
904.139	88.54516
904.308	68.44328
904.477	52.73458
904.646	32.24529
904.816	55.37089
904.985	76.98936
905.154	111.86176
