Data from WindowProjectSample_Transmission__45__00045__07269552173137898.txt Node

Date: Mon May 05 18:01:45 EDT 2025
User: jessi
Spectrometer: SR400872
Trigger mode: 0
Integration Time (sec): 5.000010E-1
Scans to average: 20
Electric dark correction enabled: true
Nonlinearity correction enabled: true
Boxcar width: 0
XAxis mode: Wavelengths
Number of Pixels in Spectrum: 3648
>>>>>Begin Spectral Data<<<<<
184.909	21127.90748
185.132	-5361.51344
185.355	-3102.57886
185.578	-18825.4902
185.801	1888.04522
186.024	10763.20528
186.247	-1802.14265
186.47	1081.44814
186.693	381.3444
186.916	361.20468
187.139	-3790.22134
187.362	3622.09039
187.585	4478.51725
187.808	3614.60914
188.031	-11.16191
188.254	-51493.10827
188.476	-544.92686
188.699	6344.69528
188.922	682.81588
189.145	-15686.94306
189.368	-635.40295
189.591	-1750.20145
189.813	3357.30793
190.036	-50108.68209
190.259	-977.3161
190.482	-4230.97163
190.705	7399.31553
190.927	-2552.73767
191.15	13595.7282
191.373	3565.7044
191.595	-9176.86444
191.818	-4287.99688
192.041	-6782.05879
192.263	-3503.86867
192.486	-905.67408
192.709	-4112.6617
192.931	8146.14382
193.154	-29616.70096
193.377	-3047.52359
193.599	-2651.9588
193.822	-10167.29255
194.044	-1936.78729
194.267	1130.26466
194.489	447.13234
194.712	-45563.89684
194.934	-33130.41622
195.157	1194.7286
195.379	1377.00289
195.602	-7147.51248
195.824	-1411.96317
196.047	-8945.20755
196.269	2748.71967
196.492	-6505.24952
196.714	30936.4901
196.936	-9004.81918
197.159	-1228.05764
197.381	1280.93993
197.604	536.77932
197.826	12478.42372
198.048	-11243.96217
198.271	-2917.54616
198.493	7823.74126
198.715	2421.81638
198.938	-575.31282
199.16	7446.06897
199.382	-106037.93842
199.604	2842.09339
199.827	-1162.6075
200.049	-2924.63011
200.271	15611.40256
200.493	1297.07726
200.715	-39904.91816
200.938	-6341.87512
201.16	-4365.86475
201.382	21575.96013
201.604	2450.7568
201.826	2332.73932
202.048	-1987.96491
202.27	-1983.29327
202.492	-37523.86308
202.715	2900.16986
202.937	-4731.45671
203.159	-6443.31753
203.381	1564.66462
203.603	7264.25328
203.825	7214.83586
204.047	2298.03567
204.269	-2887.95973
204.491	2342.69419
204.713	6028.69583
204.935	-509340.27795
205.156	1182.50499
205.378	-3072.86334
205.6	1749.18109
205.822	161866.17552
206.044	-877.50744
206.266	1661.00012
206.488	4879.32703
206.71	-5488.87705
206.932	1084.20863
207.153	12944.12463
207.375	-7141.51502
207.597	-39485.23956
207.819	-2854.04094
208.041	2559.56031
208.262	504.50415
208.484	737.08522
208.706	-893.28355
208.927	-868.62922
209.149	602.76343
209.371	-2936.70002
209.593	-311.95406
209.814	-866.88644
210.036	593.9995
210.258	-663.1972
210.479	1897.36448
210.701	1638.78036
210.922	3567.02595
211.144	-4155.15105
211.366	2209.40569
211.587	8115.72037
211.809	-8314.88026
212.03	2555.58061
212.252	486.69609
212.473	2183.70485
212.695	-5752.49168
212.916	2968.4717
213.138	-748.7322
213.359	3818.56881
213.581	5493.00088
213.802	-937.76684
214.024	1208.93398
214.245	2105.80877
214.466	3529.35624
214.688	-3124.47934
214.909	-1283.35548
215.131	-1818.55279
215.352	-3365.15702
215.573	15515.78171
215.795	5262.70581
216.016	5595.17132
216.237	902.86738
216.459	3570.24426
216.68	1859.68439
216.901	5184.41979
217.122	-3168.07323
217.344	-12397.34253
217.565	3606.73141
217.786	9023.10259
218.007	16452.73068
218.228	-790.89118
218.45	5806.71637
218.671	833.82499
218.892	39233.51423
219.113	1688.25068
219.334	-345.32513
219.555	9375.67679
219.776	3151.94023
219.997	23058.67798
220.219	2836.2904
220.44	-11745.05395
220.661	465.97768
220.882	1510.40839
221.103	-1133.37496
221.324	2278.11276
221.545	2357.6919
221.766	-9492.53601
221.987	948.22669
222.208	1749.07766
222.429	4379.48313
222.65	234.3572
222.87	19018.76889
223.091	727.88339
223.312	637.82624
223.533	1435.9526
223.754	1537.74653
223.975	1466.86364
224.196	1953.8625
224.417	1354.06182
224.637	627.32253
224.858	89.51992
225.079	1097.59453
225.3	683.9779
225.521	3832.16087
225.741	485.76417
225.962	523.85618
226.183	136.78802
226.404	689.03594
226.624	440.6219
226.845	698.17845
227.066	414.82867
227.286	270.27377
227.507	131.40864
227.728	118.5241
227.948	245.49471
228.169	78.1684
228.389	85.93704
228.61	49.41945
228.831	66.33078
229.051	1.49875
229.272	40.20782
229.492	58.88908
229.713	15.10868
229.933	39.87274
230.154	33.5207
230.374	56.52272
230.595	39.63378
230.815	23.81822
231.036	39.09585
231.256	-7.50287
231.477	72.8321
231.697	39.67955
231.917	42.02814
232.138	57.61845
232.358	110.57445
232.579	106.92267
232.799	18.92355
233.019	99.04312
233.24	115.03481
233.46	43.04117
233.68	65.45717
233.901	45.28136
234.121	24.03409
234.341	13.99566
234.561	-3.74624
234.782	23.71078
235.002	68.78867
235.222	-2.18322
235.442	69.25042
235.662	31.65095
235.883	65.27649
236.103	53.18406
236.323	40.06053
236.543	30.23758
236.763	41.47953
236.983	45.74549
237.203	40.58673
237.423	65.18563
237.643	91.33392
237.864	76.8977
238.084	19.66531
238.304	29.44393
238.524	42.70013
238.744	41.24812
238.964	76.17521
239.184	62.57713
239.404	64.70672
239.624	34.94608
239.843	63.70613
240.063	37.05247
240.283	24.08085
240.503	25.94344
240.723	24.78736
240.943	14.97784
241.163	21.18704
241.383	14.60148
241.603	7.25636
241.822	10.33014
242.042	6.55504
242.262	8.84815
242.482	9.96135
242.702	11.25989
242.921	2.85179
243.141	7.00802
243.361	6.46927
243.581	9.48482
243.8	8.04602
244.02	5.15192
244.24	9.59304
244.459	8.97518
244.679	18.2467
244.899	11.75233
245.118	13.82764
245.338	12.53978
245.558	13.95515
245.777	8.5746
245.997	10.75259
246.216	11.25813
246.436	6.2205
246.655	4.83388
246.875	3.32248
247.094	6.49557
247.314	2.15133
247.533	3.6399
247.753	4.50572
247.972	3.50998
248.192	1.2256
248.411	2.0097
248.631	3.73626
248.85	4.53621
249.07	4.00766
249.289	6.05647
249.508	5.21579
249.728	7.92368
249.947	7.22942
250.166	9.40606
250.386	4.68526
250.605	7.29149
250.824	11.48416
251.044	8.04609
251.263	29.50115
251.482	15.49503
251.701	12.4077
251.921	-0.42017
252.14	3.57479
252.359	3.9609
252.578	10.31819
252.798	3.51547
253.017	9.28782
253.236	4.173
253.455	5.71368
253.674	10.87131
253.893	4.84581
254.112	8.3002
254.331	11.9736
254.551	9.01652
254.77	3.83054
254.989	14.21447
255.208	10.92276
255.427	15.34902
255.646	12.94958
255.865	22.8799
256.084	9.54063
256.303	10.92825
256.522	14.8045
256.741	2.96179
256.96	4.2165
257.179	7.47636
257.397	10.83569
257.616	5.91212
257.835	6.22663
258.054	15.82929
258.273	11.13814
258.492	11.20931
258.711	6.73464
258.93	3.25038
259.148	4.97555
259.367	4.73583
259.586	5.73263
259.805	2.50697
260.023	5.30846
260.242	3.98514
260.461	2.92293
260.68	1.46663
260.898	4.76921
261.117	1.50593
261.336	1.09101
261.554	3.37903
261.773	3.54298
261.992	0.71299
262.21	3.29318
262.429	3.63023
262.648	7.48471
262.866	8.2408
263.085	6.19707
263.303	4.71273
263.522	9.01135
263.74	8.81251
263.959	15.85511
264.178	7.24895
264.396	7.06603
264.615	4.42695
264.833	10.90784
265.051	9.56905
265.27	11.10046
265.488	11.40022
265.707	6.55139
265.925	11.44081
266.144	4.64981
266.362	5.64443
266.58	5.7756
266.799	5.07016
267.017	6.12947
267.235	5.26863
267.454	3.41902
267.672	1.84355
267.89	4.41005
268.109	4.47339
268.327	4.36536
268.545	1.13764
268.763	4.13776
268.982	1.57159
269.2	4.23083
269.418	3.13211
269.636	1.78931
269.854	4.76798
270.073	3.03392
270.291	1.9716
270.509	1.96424
270.727	4.52191
270.945	7.5219
271.163	7.38412
271.381	1.52708
271.599	3.3368
271.817	5.47413
272.036	1.90243
272.254	3.18716
272.472	2.36053
272.69	2.64514
272.908	2.41377
273.126	4.58323
273.344	5.65419
273.562	1.82706
273.779	2.70936
273.997	3.88836
274.215	4.30666
274.433	2.90387
274.651	4.57898
274.869	4.98626
275.087	2.91391
275.305	4.24519
275.523	2.44899
275.74	3.10629
275.958	5.57486
276.176	8.39999
276.394	2.42759
276.612	3.22995
276.829	3.46334
277.047	2.88859
277.265	3.0398
277.483	3.56831
277.7	4.38813
277.918	3.56631
278.136	6.5988
278.353	2.96763
278.571	1.62628
278.789	4.58335
279.006	0.66075
279.224	2.95355
279.442	5.36502
279.659	3.43294
279.877	2.54203
280.094	6.23499
280.312	1.01408
280.529	3.41952
280.747	1.09483
280.964	2.85488
281.182	6.24581
281.399	2.84431
281.617	3.95928
281.834	2.62395
282.052	1.99621
282.269	3.31261
282.487	2.54302
282.704	2.21965
282.921	2.3951
283.139	3.46313
283.356	4.02092
283.574	4.023
283.791	1.95878
284.008	5.99172
284.226	3.03999
284.443	3.47936
284.66	4.4665
284.877	3.59578
285.095	2.18722
285.312	1.61266
285.529	0.80512
285.746	0.8016
285.964	2.21902
286.181	1.36341
286.398	2.04133
286.615	2.71558
286.832	2.6304
287.05	0.68494
287.267	1.8804
287.484	1.91247
287.701	2.70821
287.918	2.66995
288.135	2.78053
288.352	1.30287
288.569	1.51717
288.786	2.5685
289.003	2.1238
289.22	3.04751
289.437	1.67154
289.654	2.95664
289.871	3.12306
290.088	3.02717
290.305	2.42051
290.522	1.88411
290.739	2.11091
290.956	3.25158
291.173	3.66831
291.39	3.56228
291.607	2.45823
291.824	1.82195
292.04	1.30933
292.257	2.96065
292.474	3.32778
292.691	1.99932
292.908	1.00918
293.125	1.70606
293.341	1.14884
293.558	5.10184
293.775	1.99375
293.992	2.07843
294.208	0.78463
294.425	1.38449
294.642	2.00614
294.858	2.69707
295.075	0.69304
295.292	2.11671
295.508	2.53901
295.725	4.19082
295.942	1.79643
296.158	1.437
296.375	2.11639
296.591	1.56075
296.808	1.90521
297.024	2.17113
297.241	2.41048
297.458	2.71437
297.674	0.33228
297.891	2.07947
298.107	1.7426
298.323	1.34056
298.54	3.36627
298.756	1.57452
298.973	0.97271
299.189	3.54559
299.406	1.57706
299.622	3.19585
299.838	3.31577
300.055	3.0944
300.271	1.10392
300.487	1.483
300.704	1.88691
300.92	1.18826
301.136	4.81304
301.353	3.1579
301.569	2.45166
301.785	2.74324
302.001	3.30769
302.218	2.81201
302.434	2.90308
302.65	1.42795
302.866	2.14236
303.083	4.60375
303.299	4.69256
303.515	2.71964
303.731	3.00479
303.947	1.34468
304.163	2.07933
304.379	2.95372
304.595	3.21613
304.812	1.95009
305.028	2.02251
305.244	2.57897
305.46	3.48569
305.676	3.54245
305.892	3.94786
306.108	3.31862
306.324	2.38449
306.54	4.56976
306.756	3.33328
306.972	3.35689
307.187	2.69929
307.403	4.08082
307.619	2.35828
307.835	3.95601
308.051	4.47485
308.267	1.89988
308.483	3.91715
308.699	3.39749
308.914	2.88839
309.13	2.76006
309.346	1.59683
309.562	1.86111
309.778	1.67824
309.993	3.41927
310.209	2.94271
310.425	1.86613
310.641	2.76631
310.856	2.10644
311.072	2.02566
311.288	2.79937
311.503	3.00645
311.719	1.41555
311.935	1.32792
312.15	3.43659
312.366	2.97715
312.581	3.34217
312.797	2.95125
313.013	3.71641
313.228	2.36264
313.444	2.80845
313.659	2.44288
313.875	3.51771
314.09	2.7167
314.306	4.39965
314.521	3.63363
314.737	3.75615
314.952	2.86979
315.168	3.01364
315.383	3.41736
315.599	2.69332
315.814	2.82716
316.029	3.61603
316.245	2.0387
316.46	1.57725
316.675	4.1639
316.891	4.57935
317.106	5.81831
317.321	3.30479
317.537	3.69615
317.752	3.84343
317.967	3.84587
318.183	2.23807
318.398	2.76353
318.613	4.10067
318.828	4.51974
319.043	3.92481
319.259	2.86629
319.474	3.39406
319.689	4.34641
319.904	1.72181
320.119	3.97962
320.334	3.45318
320.549	3.14526
320.765	4.24771
320.98	3.43287
321.195	3.71418
321.41	3.22374
321.625	3.99401
321.84	4.88834
322.055	4.83447
322.27	2.62323
322.485	2.1785
322.7	3.62694
322.915	4.02954
323.13	2.5997
323.345	4.65835
323.56	4.31504
323.775	3.86564
323.989	3.69359
324.204	3.47689
324.419	4.37857
324.634	2.17916
324.849	3.1508
325.064	6.42796
325.279	4.33547
325.493	3.7951
325.708	4.08061
325.923	2.76809
326.138	2.92656
326.352	4.85674
326.567	4.19582
326.782	2.96859
326.997	2.80333
327.211	3.90491
327.426	3.78758
327.641	3.18451
327.855	2.02225
328.07	3.99022
328.285	5.15242
328.499	3.04072
328.714	3.71256
328.928	3.92644
329.143	3.34197
329.358	4.53409
329.572	4.56578
329.787	4.86608
330.001	5.90324
330.216	2.43416
330.43	5.53901
330.645	4.96254
330.859	4.34328
331.074	2.86569
331.288	3.67657
331.503	4.90613
331.717	2.63376
331.931	3.80545
332.146	3.87933
332.36	5.45582
332.575	3.9671
332.789	3.80622
333.003	3.93992
333.218	4.14414
333.432	3.13286
333.646	4.61823
333.86	5.30397
334.075	5.2497
334.289	3.31314
334.503	2.81052
334.717	4.28943
334.932	4.19475
335.146	4.57199
335.36	3.28622
335.574	4.30985
335.788	4.34598
336.003	4.71977
336.217	4.43646
336.431	4.37854
336.645	3.45531
336.859	2.90814
337.073	3.79298
337.287	4.20099
337.501	2.72046
337.715	4.45169
337.929	4.63633
338.143	2.91338
338.357	3.70109
338.571	3.39628
338.785	4.58741
338.999	3.5773
339.213	3.50443
339.427	2.93585
339.641	5.28709
339.855	3.62795
340.069	3.41507
340.283	4.89887
340.497	5.6326
340.711	4.48018
340.924	4.15685
341.138	3.22146
341.352	3.01321
341.566	4.21968
341.78	2.94699
341.993	3.67087
342.207	3.36079
342.421	4.30909
342.635	3.94787
342.848	3.85114
343.062	2.25735
343.276	3.62981
343.49	5.89896
343.703	3.6319
343.917	5.15508
344.131	5.20782
344.344	3.63129
344.558	3.9567
344.771	3.13773
344.985	5.54941
345.199	5.68434
345.412	4.55075
345.626	4.58317
345.839	2.79305
346.053	3.14532
346.266	3.43778
346.48	4.94913
346.693	4.57995
346.907	4.57742
347.12	3.49384
347.334	4.53552
347.547	4.56489
347.76	4.01746
347.974	5.2969
348.187	4.4798
348.401	4.10443
348.614	3.73067
348.827	4.13444
349.041	4.87149
349.254	2.98616
349.467	3.95005
349.681	3.48694
349.894	3.72399
350.107	5.50271
350.32	6.0581
350.534	3.30862
350.747	4.05133
350.96	3.68568
351.173	3.8706
351.386	4.13082
351.6	3.98753
351.813	4.12375
352.026	4.0955
352.239	3.49345
352.452	3.81173
352.665	5.37658
352.878	4.33102
353.092	6.17069
353.305	5.15667
353.518	4.68825
353.731	3.66958
353.944	5.50824
354.157	4.1572
354.37	3.93461
354.583	3.62668
354.796	3.33153
355.009	5.34857
355.222	4.80078
355.435	4.59838
355.647	5.52362
355.86	3.95736
356.073	4.69445
356.286	4.18407
356.499	5.29768
356.712	5.10418
356.925	5.1971
357.138	5.35525
357.35	4.04958
357.563	4.41772
357.776	4.75082
357.989	4.64184
358.201	5.19088
358.414	4.99256
358.627	5.8179
358.84	4.61312
359.052	3.91748
359.265	4.11058
359.478	5.61322
359.69	2.93368
359.903	5.44475
360.116	5.59103
360.328	3.68923
360.541	5.43121
360.753	4.27686
360.966	4.56371
361.179	4.85344
361.391	4.63272
361.604	4.60806
361.816	4.63334
362.029	4.71224
362.241	4.3918
362.454	4.68726
362.666	4.36121
362.879	5.33775
363.091	4.70723
363.304	4.48449
363.516	4.72324
363.728	4.16463
363.941	5.18217
364.153	4.9792
364.366	3.36192
364.578	4.15052
364.79	5.11501
365.003	5.01214
365.215	4.3827
365.427	5.40612
365.639	5.67347
365.852	5.00307
366.064	6.50143
366.276	4.6029
366.488	5.13631
366.701	4.61844
366.913	4.72842
367.125	4.77224
367.337	4.27988
367.549	4.48758
367.762	4.95199
367.974	4.956
368.186	4.5382
368.398	5.51476
368.61	5.21071
368.822	5.43498
369.034	4.6373
369.246	5.55405
369.458	7.14206
369.67	4.33661
369.882	6.26217
370.094	3.49043
370.306	6.07961
370.518	4.65274
370.73	4.56047
370.942	4.57113
371.154	4.92572
371.366	4.65633
371.578	5.2099
371.79	4.75373
372.002	5.83897
372.214	6.56912
372.425	4.96148
372.637	6.14327
372.849	5.45658
373.061	3.51224
373.273	5.3587
373.484	5.2683
373.696	5.69679
373.908	3.52066
374.12	5.79879
374.331	5.46894
374.543	4.52382
374.755	4.42243
374.967	5.21137
375.178	5.64665
375.39	4.76076
375.602	5.16466
375.813	4.01686
376.025	4.45363
376.236	5.29674
376.448	5.49647
376.66	4.95261
376.871	5.02593
377.083	6.01746
377.294	6.39084
377.506	4.99473
377.717	6.17771
377.929	5.39757
378.14	4.98192
378.352	5.46498
378.563	5.64418
378.775	6.17975
378.986	4.5455
379.197	5.26231
379.409	4.66614
379.62	5.65754
379.832	5.5247
380.043	5.02445
380.254	5.40615
380.466	4.3593
380.677	7.20567
380.888	6.63972
381.1	7.09396
381.311	7.09566
381.522	5.48816
381.733	7.31936
381.945	5.1149
382.156	5.18881
382.367	4.93706
382.578	7.30299
382.789	7.25649
383.001	4.8689
383.212	6.53559
383.423	6.45727
383.634	6.2584
383.845	5.95755
384.056	5.11626
384.267	5.46085
384.478	5.44738
384.69	4.71012
384.901	5.73618
385.112	5.61935
385.323	6.72242
385.534	5.82173
385.745	5.69064
385.956	5.66984
386.167	4.87874
386.378	5.84428
386.588	4.93023
386.799	5.044
387.01	4.51649
387.221	6.06416
387.432	5.5591
387.643	6.62295
387.854	5.28716
388.065	5.26171
388.275	5.47299
388.486	5.09694
388.697	5.37098
388.908	5.08856
389.119	6.3236
389.329	6.38726
389.54	5.63033
389.751	5.7328
389.962	6.476
390.172	5.65959
390.383	5.36147
390.594	4.99701
390.804	5.11898
391.015	5.17902
391.226	5.72995
391.436	5.88402
391.647	5.89656
391.858	5.99111
392.068	4.61312
392.279	5.01135
392.489	5.81704
392.7	6.31579
392.91	5.16016
393.121	5.19205
393.331	5.92881
393.542	6.47191
393.752	5.97861
393.963	6.01367
394.173	5.90696
394.384	6.06321
394.594	5.70495
394.804	4.99877
395.015	5.75379
395.225	6.08377
395.436	5.05864
395.646	5.98148
395.856	5.3671
396.067	4.72385
396.277	6.2695
396.487	5.88983
396.697	5.86825
396.908	6.02699
397.118	6.00217
397.328	5.7162
397.538	6.28802
397.749	5.21446
397.959	6.25619
398.169	6.09287
398.379	4.79365
398.589	6.019
398.8	5.84518
399.01	5.75418
399.22	5.5178
399.43	7.09661
399.64	5.63453
399.85	6.06967
400.06	5.8423
400.27	5.16038
400.48	5.66673
400.69	6.66004
400.9	5.44137
401.11	5.02364
401.32	6.08764
401.53	5.28263
401.74	6.74304
401.95	6.03885
402.16	5.27424
402.37	6.0192
402.58	5.46129
402.79	6.04368
403	6.52274
403.209	5.40823
403.419	6.50317
403.629	5.20252
403.839	6.52382
404.049	6.36462
404.258	5.62889
404.468	5.27944
404.678	6.07368
404.888	6.62859
405.097	5.55722
405.307	5.76888
405.517	6.36872
405.727	6.09409
405.936	5.67525
406.146	6.0486
406.356	6.69069
406.565	5.7905
406.775	5.64149
406.984	5.55265
407.194	7.02801
407.404	5.81198
407.613	6.24014
407.823	6.29479
408.032	6.53223
408.242	6.49415
408.451	5.52506
408.661	5.84302
408.87	6.89876
409.08	5.41904
409.289	6.14845
409.499	6.03329
409.708	5.93971
409.918	4.71444
410.127	6.0745
410.336	6.9453
410.546	6.42661
410.755	5.67766
410.964	5.78522
411.174	5.45296
411.383	6.18469
411.592	6.2976
411.802	5.4131
412.011	6.42148
412.22	5.74007
412.429	7.08274
412.639	6.88397
412.848	6.51777
413.057	6.9578
413.266	6.78044
413.475	5.95694
413.685	6.38409
413.894	6.66835
414.103	6.85234
414.312	6.57515
414.521	6.05312
414.73	6.18938
414.939	7.46546
415.148	6.53302
415.357	6.29744
415.566	6.15874
415.776	5.9404
415.985	6.11811
416.194	6.84108
416.403	7.55726
416.611	5.7306
416.82	6.1326
417.029	6.58003
417.238	6.14526
417.447	5.99982
417.656	6.4152
417.865	6.18461
418.074	6.42214
418.283	6.60272
418.492	7.20391
418.7	7.00876
418.909	7.94014
419.118	7.06404
419.327	7.42375
419.536	7.31995
419.744	7.26531
419.953	8.39495
420.162	8.61693
420.371	7.96555
420.579	8.31481
420.788	9.12616
420.997	9.20998
421.205	9.57164
421.414	9.27977
421.623	9.36012
421.831	8.99964
422.04	9.522
422.249	8.74138
422.457	9.10968
422.666	8.34505
422.874	9.16758
423.083	9.31622
423.291	9.24675
423.5	9.11377
423.708	9.45385
423.917	9.83748
424.125	9.37732
424.334	9.21791
424.542	10.84038
424.751	10.33899
424.959	9.93048
425.167	10.0773
425.376	9.99226
425.584	8.89813
425.793	8.86217
426.001	8.09977
426.209	8.30255
426.418	7.346
426.626	7.17613
426.834	6.99202
427.042	7.28772
427.251	6.97939
427.459	7.85
427.667	7.30818
427.875	6.63766
428.084	6.96335
428.292	7.99025
428.5	7.58067
428.708	6.65164
428.916	6.74882
429.124	7.30901
429.333	6.94559
429.541	7.0772
429.749	7.33056
429.957	7.33305
430.165	8.91629
430.373	6.36687
430.581	7.38313
430.789	8.23941
430.997	7.20161
431.205	6.84359
431.413	7.53909
431.621	7.16509
431.829	7.74613
432.037	7.28417
432.245	7.67437
432.453	7.69839
432.661	7.37278
432.869	8.52723
433.076	7.07597
433.284	7.46331
433.492	7.8902
433.7	8.15051
433.908	7.45761
434.116	7.63354
434.323	7.68194
434.531	7.50224
434.739	7.88795
434.947	8.08935
435.154	8.01058
435.362	7.65042
435.57	7.42189
435.778	7.24616
435.985	7.76486
436.193	7.40096
436.401	8.27046
436.608	7.62212
436.816	7.40841
437.023	8.45658
437.231	8.55436
437.439	7.81287
437.646	8.0556
437.854	7.8409
438.061	8.09043
438.269	7.54303
438.476	8.14931
438.684	7.74258
438.891	7.71177
439.099	7.41338
439.306	7.2298
439.514	7.28556
439.721	8.34471
439.929	7.96718
440.136	8.69303
440.343	8.78541
440.551	8.61909
440.758	10.20496
440.965	9.10381
441.173	8.74805
441.38	8.48884
441.587	8.48925
441.795	8.21415
442.002	8.07181
442.209	8.0147
442.416	8.20117
442.624	8.24444
442.831	8.0034
443.038	7.7162
443.245	7.3569
443.452	7.70617
443.66	8.20377
443.867	7.66192
444.074	7.58052
444.281	7.58941
444.488	7.7396
444.695	7.90868
444.902	7.71042
445.109	8.72253
445.316	8.46927
445.523	8.75808
445.73	8.90856
445.937	9.76613
446.144	10.154
446.351	10.53004
446.558	9.58978
446.765	11.18742
446.972	10.71647
447.179	10.28337
447.386	10.81489
447.593	9.45175
447.8	10.24526
448.007	8.91258
448.214	8.54194
448.42	8.09382
448.627	8.5954
448.834	7.99162
449.041	7.94871
449.248	7.90112
449.454	8.38359
449.661	8.92824
449.868	7.75837
450.075	7.65993
450.281	6.96841
450.488	7.46989
450.695	7.54017
450.901	7.63357
451.108	7.62737
451.315	8.49935
451.521	7.84423
451.728	8.53846
451.935	7.57444
452.141	7.90456
452.348	7.93212
452.554	7.84122
452.761	7.70348
452.967	8.86499
453.174	8.0746
453.38	8.28037
453.587	7.38616
453.793	8.01632
454	8.51789
454.206	9.10134
454.413	8.55935
454.619	8.2524
454.825	7.64034
455.032	8.3753
455.238	8.5087
455.445	7.41393
455.651	8.05611
455.857	7.06959
456.064	7.85266
456.27	7.71305
456.476	7.77004
456.682	7.33744
456.889	8.2305
457.095	8.25843
457.301	9.39042
457.507	7.99845
457.714	8.16306
457.92	8.15874
458.126	7.70733
458.332	7.95385
458.538	7.94984
458.744	8.01788
458.951	7.97889
459.157	9.9165
459.363	9.194
459.569	9.45077
459.775	10.15515
459.981	9.74298
460.187	10.25595
460.393	10.47638
460.599	10.69198
460.805	9.86129
461.011	9.11392
461.217	9.20436
461.423	8.87053
461.629	8.30123
461.835	8.69657
462.041	8.19948
462.247	9.08737
462.453	8.15521
462.658	8.22049
462.864	8.5942
463.07	8.3363
463.276	8.36695
463.482	8.29498
463.688	9.00363
463.893	7.82035
464.099	8.09686
464.305	9.03674
464.511	8.00577
464.716	8.13478
464.922	8.72415
465.128	7.84288
465.333	9.17034
465.539	8.62927
465.745	8.27166
465.95	8.24975
466.156	9.88449
466.362	8.92469
466.567	8.32446
466.773	8.11012
466.978	9.2403
467.184	7.89512
467.389	7.35855
467.595	8.47351
467.8	7.93249
468.006	9.10252
468.211	9.06503
468.417	7.74259
468.622	8.56921
468.828	8.79526
469.033	8.61878
469.239	9.84708
469.444	8.16833
469.649	8.89178
469.855	8.3462
470.06	8.28654
470.266	7.91506
470.471	8.65415
470.676	8.61682
470.881	7.50263
471.087	9.20811
471.292	9.95551
471.497	7.73339
471.703	8.31446
471.908	8.18351
472.113	8.41902
472.318	8.95204
472.523	7.92071
472.729	8.61699
472.934	8.80814
473.139	8.22264
473.344	8.67848
473.549	9.07888
473.754	8.11754
473.959	9.9426
474.164	8.06019
474.369	8.27749
474.575	8.92609
474.78	8.47674
474.985	8.11739
475.19	7.44796
475.395	8.09832
475.6	8.39732
475.804	9.37022
476.009	8.51525
476.214	8.51778
476.419	8.41545
476.624	7.64275
476.829	8.13819
477.034	8.86582
477.239	8.20868
477.444	8.98296
477.648	8.8432
477.853	8.82252
478.058	8.48383
478.263	8.20922
478.468	8.06866
478.672	8.11223
478.877	9.29721
479.082	9.3693
479.287	8.82186
479.491	8.54366
479.696	8.16419
479.901	8.99393
480.105	8.98516
480.31	8.32468
480.515	8.66967
480.719	9.79198
480.924	8.39581
481.128	8.18538
481.333	8.80137
481.538	8.82588
481.742	8.9963
481.947	9.95198
482.151	10.9011
482.356	11.54628
482.56	13.44751
482.765	14.9192
482.969	17.57888
483.174	19.85655
483.378	22.94161
483.582	23.81278
483.787	25.9488
483.991	26.58323
484.196	27.16147
484.4	26.82006
484.604	27.33806
484.809	25.07682
485.013	23.72288
485.217	21.85255
485.422	19.5799
485.626	17.85225
485.83	16.6991
486.034	15.80826
486.239	16.12466
486.443	16.25485
486.647	16.47821
486.851	17.55889
487.055	18.93117
487.26	18.75465
487.464	19.62246
487.668	19.38258
487.872	20.00743
488.076	20.22501
488.28	19.59442
488.484	18.52909
488.688	18.00257
488.892	17.27209
489.096	16.17948
489.3	14.78005
489.504	13.88857
489.708	13.27029
489.912	12.7933
490.116	12.45565
490.32	11.99369
490.524	12.86565
490.728	13.62417
490.932	14.28167
491.136	15.06709
491.34	16.29256
491.544	16.68917
491.748	16.76903
491.951	16.98484
492.155	16.49166
492.359	16.19458
492.563	14.95691
492.767	14.15148
492.97	12.83959
493.174	11.61485
493.378	10.57534
493.582	9.37
493.785	9.00317
493.989	9.01698
494.193	9.02602
494.396	8.7558
494.6	9.32412
494.804	8.89974
495.007	8.49877
495.211	8.63004
495.414	8.76416
495.618	9.01598
495.822	9.53085
496.025	8.89481
496.229	9.27748
496.432	8.60044
496.636	8.89548
496.839	8.85669
497.043	9.62736
497.246	9.14108
497.45	8.7564
497.653	9.04003
497.856	9.00826
498.06	8.52431
498.263	8.86548
498.467	8.78806
498.67	9.29391
498.873	9.11302
499.077	8.7883
499.28	8.83547
499.483	9.03195
499.686	9.23202
499.89	9.02394
500.093	9.39542
500.296	8.56927
500.499	9.63883
500.703	8.85579
500.906	9.14349
501.109	9.71048
501.312	8.92166
501.515	8.75133
501.719	9.02566
501.922	9.57781
502.125	8.96681
502.328	8.8241
502.531	8.3949
502.734	8.8447
502.937	8.09986
503.14	8.96317
503.343	8.49601
503.546	8.73808
503.749	8.46538
503.952	9.2372
504.155	8.48903
504.358	9.09246
504.561	8.94747
504.764	8.27097
504.967	8.94436
505.17	8.8163
505.373	9.66133
505.576	8.9397
505.778	9.27361
505.981	8.50652
506.184	9.52472
506.387	8.11376
506.59	9.92664
506.793	9.44431
506.995	9.19426
507.198	7.95608
507.401	9.16844
507.604	9.07845
507.806	8.45546
508.009	8.52134
508.212	9.31475
508.414	8.5359
508.617	8.68991
508.82	8.89444
509.022	9.654
509.225	9.09232
509.427	8.2843
509.63	9.55889
509.833	8.98559
510.035	8.64172
510.238	8.22681
510.44	9.49737
510.643	8.10045
510.845	9.9107
511.048	9.15267
511.25	8.6993
511.453	8.79061
511.655	9.10849
511.858	8.816
512.06	9.3305
512.262	9.03043
512.465	9.41216
512.667	8.77089
512.869	8.36459
513.072	9.18797
513.274	9.30372
513.476	9.14665
513.679	9.3271
513.881	8.52387
514.083	9.75791
514.286	8.62863
514.488	8.49759
514.69	8.47012
514.892	8.18977
515.094	9.17773
515.297	8.52166
515.499	8.92446
515.701	8.48421
515.903	9.69711
516.105	9.79885
516.307	9.33981
516.509	8.04225
516.711	8.28361
516.913	8.94
517.116	8.87365
517.318	8.68705
517.52	9.506
517.722	9.20911
517.924	8.41085
518.126	9.19236
518.328	8.84627
518.529	9.47526
518.731	10.34883
518.933	8.93383
519.135	9.2349
519.337	9.814
519.539	9.25656
519.741	8.24458
519.943	8.82337
520.145	8.81283
520.346	9.31576
520.548	8.8309
520.75	9.04365
520.952	8.76706
521.153	9.07279
521.355	9.14565
521.557	8.46387
521.759	8.94982
521.96	8.90559
522.162	8.3792
522.364	9.49815
522.565	8.62861
522.767	9.31857
522.969	9.44783
523.17	9.26539
523.372	9.07919
523.573	8.63279
523.775	8.87368
523.977	8.57116
524.178	9.93101
524.38	8.66767
524.581	9.21888
524.783	8.86289
524.984	9.34138
525.186	9.10215
525.387	9.64297
525.589	9.67432
525.79	9.7586
525.991	9.80271
526.193	10.37036
526.394	9.81352
526.596	10.75368
526.797	11.00261
526.998	10.66123
527.2	11.19964
527.401	12.91198
527.602	13.85584
527.803	16.03231
528.005	17.20745
528.206	18.60311
528.407	19.69885
528.608	19.94993
528.81	20.40283
529.011	20.0217
529.212	20.89144
529.413	19.71853
529.614	18.62493
529.815	17.65497
530.017	16.31457
530.218	14.54672
530.419	12.9061
530.62	12.38609
530.821	11.68919
531.022	10.31924
531.223	10.90832
531.424	10.71129
531.625	10.68614
531.826	10.35622
532.027	10.88889
532.228	11.98805
532.429	12.06674
532.63	12.47541
532.831	13.3995
533.032	13.68869
533.233	14.42417
533.433	14.14704
533.634	14.37995
533.835	13.69901
534.036	13.23926
534.237	12.82204
534.438	11.93925
534.638	10.79321
534.839	10.29912
535.04	10.1213
535.241	9.38431
535.441	10.22404
535.642	9.75019
535.843	9.1107
536.043	9.44286
536.244	9.65593
536.445	9.91862
536.645	10.7168
536.846	10.37463
537.047	10.78687
537.247	9.72442
537.448	9.46442
537.648	9.31967
537.849	9.08965
538.049	9.02758
538.25	9.37092
538.451	9.36663
538.651	8.6632
538.851	9.41629
539.052	9.6765
539.252	9.50597
539.453	9.07095
539.653	9.2093
539.854	9.14178
540.054	9.20463
540.254	10.69097
540.455	11.7515
540.655	11.96088
540.855	13.51066
541.056	14.55993
541.256	14.66813
541.456	15.60914
541.657	15.31484
541.857	16.01753
542.057	14.73691
542.257	14.27264
542.458	14.45548
542.658	14.09425
542.858	12.27068
543.058	12.1994
543.258	11.52967
543.458	10.18139
543.659	9.67271
543.859	10.1473
544.059	9.812
544.259	9.15665
544.459	9.68213
544.659	8.94416
544.859	9.39303
545.059	8.86439
545.259	9.44666
545.459	9.25454
545.659	9.59411
545.859	9.17895
546.059	9.33678
546.259	8.78946
546.459	8.47477
546.659	8.66943
546.859	9.52773
547.059	9.35643
547.258	9.38478
547.458	9.36651
547.658	8.61726
547.858	8.47145
548.058	9.19826
548.258	8.93137
548.457	8.66273
548.657	10.34253
548.857	8.86846
549.057	9.56812
549.256	9.21107
549.456	8.63877
549.656	8.00343
549.855	10.13067
550.055	8.72444
550.255	10.07144
550.454	9.17718
550.654	9.52373
550.853	9.99514
551.053	9.38397
551.253	9.09982
551.452	9.26584
551.652	8.16161
551.851	8.11123
552.051	8.79577
552.25	8.66304
552.45	8.52115
552.649	8.73678
552.849	8.50124
553.048	8.98855
553.248	9.47785
553.447	8.24391
553.646	9.36717
553.846	10.46514
554.045	9.69475
554.244	8.12979
554.444	9.79444
554.643	8.58606
554.842	9.92452
555.042	10.2276
555.241	8.49056
555.44	8.34158
555.64	9.31989
555.839	9.90034
556.038	9.17909
556.237	8.52999
556.436	9.02501
556.636	9.17899
556.835	8.41347
557.034	10.02633
557.233	8.80961
557.432	7.8896
557.631	9.47991
557.83	8.70244
558.029	8.64035
558.228	8.51204
558.427	8.28894
558.626	9.05985
558.825	8.2213
559.024	8.7142
559.223	10.10432
559.422	8.75882
559.621	9.10881
559.82	7.27626
560.019	8.89876
560.218	8.43185
560.417	7.14169
560.616	8.42197
560.815	11.01038
561.014	7.80857
561.212	9.92215
561.411	8.99341
561.61	8.02488
561.809	8.58549
562.008	10.13274
562.206	8.67483
562.405	9.19784
562.604	8.71621
562.803	8.98796
563.001	8.73745
563.2	7.92456
563.399	9.25412
563.597	8.17837
563.796	8.94446
563.995	8.05859
564.193	9.34075
564.392	8.64687
564.59	10.38425
564.789	7.67135
564.988	8.6906
565.186	9.01023
565.385	8.83575
565.583	8.72639
565.782	8.85637
565.98	8.6863
566.179	8.69154
566.377	8.442
566.575	8.41677
566.774	9.86649
566.972	9.42969
567.171	10.13481
567.369	9.83324
567.567	9.04779
567.766	9.03589
567.964	7.54383
568.162	9.31872
568.361	9.8169
568.559	8.62228
568.757	9.07504
568.956	8.96087
569.154	8.82393
569.352	9.33199
569.55	8.84066
569.748	8.88679
569.947	8.42332
570.145	8.22843
570.343	8.14239
570.541	9.84621
570.739	8.06362
570.937	8.92754
571.135	9.19671
571.333	10.39297
571.532	10.36603
571.73	9.04951
571.928	9.54383
572.126	9.36752
572.324	8.77833
572.522	9.68446
572.72	10.68876
572.918	9.00711
573.116	9.30074
573.313	8.81953
573.511	8.89789
573.709	8.52592
573.907	9.57469
574.105	8.81306
574.303	7.95184
574.501	7.89037
574.699	9.33844
574.896	9.20578
575.094	9.43105
575.292	7.98341
575.49	9.54009
575.688	8.80401
575.885	9.82943
576.083	10.58767
576.281	9.3058
576.478	8.39215
576.676	9.32863
576.874	8.02328
577.071	8.96635
577.269	10.44709
577.467	8.5114
577.664	8.88414
577.862	9.51652
578.059	8.14007
578.257	9.3293
578.455	8.64615
578.652	8.7531
578.85	7.38786
579.047	8.97258
579.245	8.6058
579.442	8.86277
579.64	8.62189
579.837	7.48568
580.034	10.82869
580.232	8.62608
580.429	7.96965
580.627	9.24803
580.824	9.68466
581.021	9.31426
581.219	8.52434
581.416	8.34732
581.613	9.91727
581.811	9.91369
582.008	8.06513
582.205	9.79328
582.402	8.9449
582.6	10.13211
582.797	9.00784
582.994	9.09153
583.191	9.58262
583.388	8.7713
583.586	9.53549
583.783	9.74181
583.98	7.87631
584.177	9.00097
584.374	6.67403
584.571	8.58815
584.768	8.66971
584.965	8.52186
585.162	9.45515
585.359	10.24299
585.556	8.75238
585.753	9.14374
585.95	7.72452
586.147	8.19576
586.344	9.23942
586.541	8.77886
586.738	7.90178
586.935	8.83505
587.132	8.26422
587.329	9.73707
587.526	8.83466
587.722	13.21642
587.919	7.6109
588.116	9.27148
588.313	9.98855
588.51	10.67942
588.706	8.69711
588.903	9.40299
589.1	9.81302
589.297	11.35859
589.493	8.85806
589.69	9.53628
589.887	8.4797
590.083	8.14086
590.28	8.44255
590.477	9.80856
590.673	9.41975
590.87	10.00336
591.067	8.39383
591.263	9.3519
591.46	9.34572
591.656	8.60595
591.853	10.33101
592.049	8.2865
592.246	8.56768
592.442	9.93246
592.639	10.14045
592.835	8.06788
593.032	9.18125
593.228	7.83618
593.425	7.7658
593.621	7.83381
593.817	9.18973
594.014	8.20795
594.21	9.20404
594.406	10.02361
594.603	9.25934
594.799	8.46696
594.995	7.10911
595.192	10.04235
595.388	8.63303
595.584	8.64106
595.78	7.97267
595.977	11.32208
596.173	10.42152
596.369	8.79929
596.565	8.14254
596.761	7.86288
596.957	9.9997
597.154	8.44056
597.35	8.54981
597.546	8.5505
597.742	9.52324
597.938	9.06569
598.134	8.22537
598.33	9.09271
598.526	10.18168
598.722	9.319
598.918	10.5078
599.114	9.47772
599.31	7.88306
599.506	8.8937
599.702	8.37232
599.898	9.29155
600.094	9.88373
600.29	9.63547
600.485	9.819
600.681	8.47631
600.877	10.48071
601.073	9.12309
601.269	11.02567
601.465	10.32562
601.66	8.20236
601.856	7.4068
602.052	11.22979
602.248	8.81698
602.443	7.33436
602.639	8.08842
602.835	8.35145
603.03	8.28365
603.226	9.87249
603.422	8.39411
603.617	8.88763
603.813	8.72733
604.009	8.65198
604.204	10.16715
604.4	7.90827
604.595	10.0714
604.791	8.35805
604.986	9.3504
605.182	8.31648
605.377	8.75504
605.573	8.83701
605.768	9.12322
605.964	9.62297
606.159	9.71186
606.355	9.94686
606.55	8.61949
606.746	9.87515
606.941	8.99897
607.136	10.95438
607.332	11.89151
607.527	8.18408
607.722	9.29987
607.918	8.78846
608.113	8.30483
608.308	9.98338
608.503	9.70259
608.699	9.58479
608.894	9.71661
609.089	8.4072
609.284	9.54501
609.479	8.80427
609.675	9.84711
609.87	8.94826
610.065	9.81345
610.26	9.97169
610.455	9.85127
610.65	9.05828
610.845	9.61554
611.04	10.00051
611.235	8.95916
611.43	9.06687
611.625	8.14688
611.82	10.68486
612.015	8.52754
612.21	11.09176
612.405	7.77982
612.6	11.02879
612.795	10.80969
612.99	9.9923
613.185	8.27663
613.38	8.3908
613.575	9.39912
613.77	12.36315
613.965	7.78138
614.159	8.52179
614.354	10.66604
614.549	10.46666
614.744	9.99883
614.938	8.18582
615.133	7.88259
615.328	10.81123
615.523	10.62751
615.717	12.48495
615.912	8.88766
616.107	9.38328
616.301	8.94304
616.496	8.67451
616.691	11.27249
616.885	10.22716
617.08	12.57836
617.274	10.412
617.469	11.74892
617.664	10.17298
617.858	8.86117
618.053	9.67394
618.247	8.98461
618.442	7.09888
618.636	10.99508
618.831	8.88714
619.025	8.6493
619.219	12.89008
619.414	6.13461
619.608	9.1507
619.803	8.61108
619.997	12.02145
620.191	10.76775
620.386	9.9184
620.58	9.3374
620.774	7.43243
620.969	7.88634
621.163	9.59617
621.357	7.91256
621.551	9.13743
621.746	9.54916
621.94	9.05892
622.134	13.49939
622.328	11.97665
622.522	7.56316
622.716	10.48763
622.911	10.66633
623.105	10.72418
623.299	9.70247
623.493	13.18148
623.687	8.50917
623.881	8.87174
624.075	10.36312
624.269	10.93339
624.463	7.32163
624.657	7.57896
624.851	10.26324
625.045	10.46777
625.239	10.51569
625.433	8.81784
625.627	11.56586
625.821	9.0018
626.015	8.57584
626.209	9.78475
626.403	7.73344
626.596	9.9708
626.79	10.39712
626.984	8.2358
627.178	10.20995
627.372	10.04324
627.565	10.41127
627.759	8.09563
627.953	8.42252
628.147	9.81666
628.34	10.44642
628.534	12.37376
628.728	9.17539
628.921	10.70137
629.115	10.42538
629.309	10.76166
629.502	10.97441
629.696	9.9743
629.89	9.50809
630.083	9.87807
630.277	10.0042
630.47	11.60984
630.664	9.32317
630.857	7.79443
631.051	10.76391
631.244	10.96726
631.438	10.86531
631.631	8.88723
631.825	11.4758
632.018	10.27135
632.212	12.27213
632.405	11.12802
632.598	8.83407
632.792	9.73701
632.985	6.92564
633.178	9.30045
633.372	9.68256
633.565	9.54025
633.758	11.39768
633.952	8.72643
634.145	8.54978
634.338	9.32562
634.531	9.18839
634.724	8.65153
634.918	10.03183
635.111	9.40655
635.304	9.23344
635.497	12.81058
635.69	10.35745
635.883	11.64782
636.077	8.49368
636.27	10.41494
636.463	10.30744
636.656	10.26797
636.849	9.49968
637.042	10.66291
637.235	12.73265
637.428	10.85905
637.621	10.68731
637.814	12.0936
638.007	12.08361
638.2	12.11141
638.393	12.72135
638.586	8.20874
638.778	9.36083
638.971	9.83192
639.164	12.37346
639.357	10.47331
639.55	12.3003
639.743	11.08451
639.935	10.93284
640.128	13.74509
640.321	11.50297
640.514	10.67875
640.707	13.91767
640.899	11.4085
641.092	8.17455
641.285	26.06631
641.477	7.30181
641.67	14.39245
641.863	12.36111
642.055	10.92712
642.248	10.70011
642.441	10.01903
642.633	11.35464
642.826	12.24966
643.018	12.33631
643.211	13.45363
643.403	13.82171
643.596	14.20114
643.788	13.19217
643.981	10.12682
644.173	11.85428
644.366	9.94077
644.558	8.17343
644.751	12.13697
644.943	8.89731
645.135	13.36859
645.328	13.58154
645.52	11.82327
645.712	12.58656
645.905	16.15731
646.097	8.94365
646.289	11.28074
646.482	14.72644
646.674	9.45696
646.866	12.76883
647.058	11.85408
647.251	9.22703
647.443	9.84359
647.635	10.4728
647.827	9.13183
648.019	8.96074
648.211	10.76307
648.404	11.3412
648.596	13.74069
648.788	11.62738
648.98	11.17579
649.172	11.97148
649.364	11.68333
649.556	8.27703
649.748	15.36148
649.94	9.57236
650.132	12.27548
650.324	9.83713
650.516	9.85122
650.708	12.99236
650.9	8.73337
651.092	8.22451
651.284	8.79674
651.476	9.00186
651.667	12.27416
651.859	13.55175
652.051	10.86205
652.243	11.45057
652.435	10.3275
652.627	11.92176
652.818	11.59913
653.01	8.56736
653.202	9.78847
653.394	10.56398
653.585	11.92938
653.777	19.02105
653.969	14.15347
654.16	13.26161
654.352	9.62033
654.544	11.17782
654.735	13.40002
654.927	11.20953
655.118	13.95916
655.31	12.81329
655.502	13.66288
655.693	10.71953
655.885	12.35753
656.076	14.09432
656.268	11.9453
656.459	14.21909
656.651	13.85639
656.842	10.8343
657.034	10.19805
657.225	13.15276
657.416	14.34807
657.608	13.85152
657.799	11.59624
657.99	13.63084
658.182	10.29067
658.373	10.36238
658.564	13.53388
658.756	11.87637
658.947	11.18661
659.138	9.97486
659.33	10.47718
659.521	10.39641
659.712	11.38956
659.903	10.99148
660.094	10.77953
660.286	8.9229
660.477	14.51533
660.668	12.47569
660.859	11.29621
661.05	9.11206
661.241	12.57553
661.432	12.3374
661.623	11.02831
661.814	10.69127
662.006	9.13665
662.197	12.18677
662.388	14.07841
662.579	12.1703
662.77	14.12523
662.96	17.11693
663.151	13.74776
663.342	8.65307
663.533	13.44823
663.724	11.58214
663.915	15.65244
664.106	12.01968
664.297	15.88359
664.488	13.29181
664.678	10.96646
664.869	13.80123
665.06	14.35765
665.251	12.55385
665.442	13.50182
665.632	10.05296
665.823	16.41463
666.014	6.96484
666.204	13.60173
666.395	15.14325
666.586	16.91658
666.776	14.06094
666.967	16.19525
667.158	12.14361
667.348	15.5299
667.539	10.37658
667.729	14.28625
667.92	10.92532
668.111	14.41958
668.301	14.32306
668.492	11.7464
668.682	12.81458
668.873	12.46644
669.063	10.07372
669.253	12.66719
669.444	15.29805
669.634	12.27678
669.825	16.34994
670.015	15.0948
670.206	10.97362
670.396	17.12836
670.586	12.34989
670.777	13.88884
670.967	8.35578
671.157	11.91485
671.347	11.43947
671.538	16.22225
671.728	14.201
671.918	16.79897
672.108	14.89864
672.299	12.31064
672.489	13.52385
672.679	11.35589
672.869	13.98452
673.059	17.94705
673.249	14.29173
673.44	10.71608
673.63	12.48174
673.82	15.06702
674.01	10.68021
674.2	14.29856
674.39	18.91686
674.58	14.64662
674.77	13.33545
674.96	12.6548
675.15	22.30144
675.34	15.4477
675.53	13.35656
675.72	12.21698
675.91	9.77756
676.099	17.57719
676.289	18.8637
676.479	15.74716
676.669	12.26244
676.859	14.62666
677.049	11.46577
677.238	13.27366
677.428	17.33293
677.618	14.44935
677.808	17.77098
677.997	14.51788
678.187	11.39849
678.377	13.33587
678.567	12.39016
678.756	12.50381
678.946	13.19458
679.136	10.18286
679.325	11.96364
679.515	11.20757
679.704	10.60507
679.894	15.34673
680.084	14.2313
680.273	16.06456
680.463	11.70487
680.652	11.45664
680.842	13.03558
681.031	15.48826
681.221	11.66835
681.41	14.67344
681.6	13.23592
681.789	14.8186
681.978	15.97456
682.168	14.54244
682.357	13.87866
682.547	14.9196
682.736	14.21102
682.925	16.87741
683.115	16.51144
683.304	15.50931
683.493	14.22137
683.682	15.42482
683.872	14.82113
684.061	16.8559
684.25	15.60327
684.439	20.20514
684.629	16.07776
684.818	22.70568
685.007	14.27791
685.196	13.413
685.385	19.15789
685.574	15.45233
685.763	15.37686
685.952	15.05755
686.142	11.40864
686.331	17.99482
686.52	11.09146
686.709	19.81374
686.898	19.52901
687.087	16.46204
687.276	19.33453
687.465	17.89542
687.654	14.01714
687.842	18.48494
688.031	11.95743
688.22	18.46934
688.409	15.28779
688.598	15.67726
688.787	21.2399
688.976	14.8559
689.165	20.53312
689.353	13.89905
689.542	16.35133
689.731	18.54885
689.92	21.15865
690.108	17.53267
690.297	14.37184
690.486	15.64859
690.675	17.27451
690.863	19.74279
691.052	19.88388
691.241	16.38173
691.429	16.23382
691.618	19.62633
691.806	12.89346
691.995	15.08945
692.184	15.87115
692.372	15.13717
692.561	16.44308
692.749	16.94236
692.938	25.45233
693.126	17.67975
693.315	15.74993
693.503	18.16069
693.692	19.0841
693.88	18.63942
694.068	22.07851
694.257	16.71619
694.445	17.94228
694.634	10.8613
694.822	18.50423
695.01	20.17794
695.199	22.30164
695.387	21.30202
695.575	20.09267
695.763	16.41305
695.952	15.70707
696.14	12.53503
696.328	14.55722
696.516	16.73931
696.705	17.67446
696.893	17.37931
697.081	11.71392
697.269	18.79298
697.457	13.54089
697.645	12.75543
697.833	18.41272
698.021	13.7941
698.21	14.47173
698.398	15.0659
698.586	12.7421
698.774	11.62222
698.962	15.23027
699.15	12.7996
699.338	11.57001
699.526	16.73037
699.714	13.81791
699.901	13.80085
700.089	17.26931
700.277	13.50993
700.465	15.22128
700.653	17.72022
700.841	16.86703
701.029	13.78586
701.217	20.3142
701.404	16.18682
701.592	20.29864
701.78	23.79901
701.968	15.84851
702.155	15.32685
702.343	13.09977
702.531	21.35634
702.718	18.04016
702.906	15.31867
703.094	15.28068
703.281	21.4165
703.469	16.27223
703.657	20.76073
703.844	27.83384
704.032	23.64313
704.219	16.39534
704.407	19.16548
704.595	21.99503
704.782	19.21145
704.97	17.4712
705.157	16.72599
705.345	24.40531
705.532	30.32157
705.719	21.6066
705.907	24.38592
706.094	21.12458
706.282	27.76216
706.469	20.94002
706.656	21.67465
706.844	20.55194
707.031	26.02643
707.218	23.53318
707.406	27.76925
707.593	25.36356
707.78	24.98778
707.968	22.82941
708.155	20.4687
708.342	25.42184
708.529	25.61778
708.716	24.00855
708.904	29.19409
709.091	25.23114
709.278	19.99623
709.465	30.09954
709.652	28.42952
709.839	27.37775
710.026	23.36492
710.213	17.10371
710.4	23.52166
710.587	24.89325
710.774	25.34626
710.961	26.41753
711.148	22.87827
711.335	25.99753
711.522	22.08516
711.709	24.72151
711.896	30.36038
712.083	26.24823
712.27	19.8814
712.457	23.74154
712.644	18.19833
712.831	30.68586
713.017	24.15542
713.204	25.7082
713.391	20.5673
713.578	26.51221
713.765	28.06361
713.951	23.66558
714.138	33.69229
714.325	23.13134
714.512	21.49334
714.698	18.31169
714.885	27.28153
715.072	21.35105
715.258	21.44872
715.445	18.54092
715.631	25.64349
715.818	11.56494
716.005	18.43355
716.191	22.97269
716.378	19.05683
716.564	23.28641
716.751	16.83101
716.937	18.82249
717.124	24.43929
717.31	17.0327
717.497	28.28102
717.683	18.16297
717.869	28.77379
718.056	18.78256
718.242	22.96446
718.429	19.77749
718.615	16.38522
718.801	19.81316
718.988	25.69468
719.174	23.13227
719.36	19.90815
719.547	26.60195
719.733	22.49244
719.919	21.98638
720.105	23.86278
720.291	21.12502
720.478	22.16003
720.664	20.61606
720.85	18.95141
721.036	33.19419
721.222	28.6885
721.408	21.44171
721.595	28.81507
721.781	28.54123
721.967	26.73913
722.153	29.33934
722.339	23.49991
722.525	23.73207
722.711	17.43051
722.897	16.26952
723.083	20.18074
723.269	26.88753
723.455	35.1049
723.641	39.86648
723.827	22.82581
724.012	24.09614
724.198	22.26425
724.384	28.83713
724.57	23.58298
724.756	16.50855
724.942	13.92933
725.127	27.5892
725.313	28.55285
725.499	27.95061
725.685	31.68601
725.87	24.33604
726.056	18.39325
726.242	28.20625
726.428	15.86368
726.613	26.17925
726.799	20.81326
726.985	18.1146
727.17	15.63063
727.356	31.61202
727.541	18.33829
727.727	22.20545
727.913	26.20745
728.098	20.18562
728.284	26.25295
728.469	17.16741
728.655	19.00535
728.84	27.7404
729.026	26.24136
729.211	26.76363
729.397	24.70768
729.582	26.49256
729.767	22.31465
729.953	24.3623
730.138	28.7891
730.323	12.61417
730.509	18.16897
730.694	30.7385
730.879	25.90432
731.065	24.66526
731.25	34.71586
731.435	25.8892
731.621	16.94653
731.806	20.03851
731.991	24.1399
732.176	17.45501
732.361	30.63801
732.547	24.14592
732.732	16.22066
732.917	34.12773
733.102	17.7992
733.287	20.07815
733.472	22.29873
733.657	23.25757
733.842	16.95714
734.027	20.6057
734.212	22.03014
734.397	19.76
734.582	23.95412
734.767	27.54551
734.952	31.02571
735.137	11.75833
735.322	29.94083
735.507	25.15316
735.692	23.70338
735.877	34.26412
736.062	33.27691
736.247	25.00653
736.431	22.85725
736.616	29.91657
736.801	25.16362
736.986	23.92849
737.171	19.3923
737.355	17.97464
737.54	31.2846
737.725	24.28306
737.909	38.10691
738.094	21.44213
738.279	28.16445
738.463	22.80666
738.648	27.35329
738.833	26.45286
739.017	35.20308
739.202	22.64484
739.386	22.99967
739.571	19.59993
739.756	28.50009
739.94	24.00453
740.125	27.25742
740.309	20.66253
740.494	29.25441
740.678	25.10276
740.863	26.98925
741.047	24.28106
741.231	33.27856
741.416	20.69991
741.6	32.41243
741.785	20.43648
741.969	29.66241
742.153	33.49135
742.338	14.32789
742.522	24.60404
742.706	29.28526
742.89	18.15557
743.075	25.45895
743.259	32.87428
743.443	31.67369
743.627	31.89886
743.812	37.28249
743.996	16.8996
744.18	24.38408
744.364	22.88355
744.548	39.02654
744.732	23.75707
744.916	30.35481
745.1	28.58117
745.285	23.64442
745.469	29.42654
745.653	35.10844
745.837	19.01529
746.021	39.17195
746.205	33.03683
746.389	26.74208
746.573	24.39429
746.757	34.57575
746.94	22.19133
747.124	33.27465
747.308	19.79838
747.492	32.57472
747.676	20.86051
747.86	41.33567
748.044	24.24084
748.227	17.49028
748.411	50.44205
748.595	26.70615
748.779	21.92573
748.963	27.86344
749.146	26.6414
749.33	21.9893
749.514	20.99255
749.697	33.43788
749.881	20.86448
750.065	20.06367
750.248	26.1864
750.432	41.60901
750.616	26.1524
750.799	19.65093
750.983	41.58291
751.166	42.09145
751.35	16.85732
751.533	32.91228
751.717	36.56186
751.9	36.24703
752.084	23.90275
752.267	19.84372
752.451	21.7817
752.634	27.14468
752.818	29.83166
753.001	31.18675
753.184	33.61785
753.368	29.67711
753.551	7.25207
753.734	21.34017
753.918	43.551
754.101	21.8483
754.284	31.18404
754.467	23.54237
754.651	22.0136
754.834	21.15952
755.017	34.10678
755.2	33.29899
755.384	20.42223
755.567	31.0558
755.75	31.86298
755.933	24.50751
756.116	32.64039
756.299	24.30595
756.482	20.35611
756.665	29.7227
756.848	26.24794
757.032	29.39001
757.215	18.48303
757.398	21.01885
757.581	22.46498
757.764	45.57941
757.947	25.59147
758.129	33.82535
758.312	10.42731
758.495	26.16808
758.678	26.3481
758.861	24.71792
759.044	39.03873
759.227	20.52664
759.41	21.41925
759.592	31.77076
759.775	25.01479
759.958	33.07561
760.141	19.02694
760.324	42.88103
760.506	37.93522
760.689	31.92609
760.872	41.94575
761.054	29.84268
761.237	25.28701
761.42	28.71889
761.602	33.17234
761.785	28.9162
761.968	35.40653
762.15	38.4054
762.333	26.00066
762.515	29.79482
762.698	24.36598
762.88	33.92208
763.063	29.99148
763.245	34.32445
763.428	21.28714
763.61	23.81967
763.793	18.74026
763.975	28.82133
764.158	24.73388
764.34	22.25927
764.522	21.10232
764.705	24.82242
764.887	36.65574
765.069	17.35333
765.252	30.04444
765.434	31.02864
765.616	27.70363
765.799	22.5478
765.981	31.48506
766.163	21.62582
766.345	35.9443
766.528	22.34903
766.71	13.11288
766.892	29.41509
767.074	36.46778
767.256	24.35611
767.438	39.91186
767.62	29.57257
767.802	45.19566
767.985	32.34598
768.167	41.26869
768.349	23.20683
768.531	32.92833
768.713	30.47922
768.895	33.01317
769.077	31.65178
769.259	48.74238
769.441	66.29353
769.623	34.57725
769.804	42.14053
769.986	38.57961
770.168	46.37237
770.35	56.0314
770.532	43.32381
770.714	46.57648
770.896	45.27639
771.077	19.46021
771.259	49.3043
771.441	43.20792
771.623	50.48201
771.804	61.8776
771.986	22.56302
772.168	32.99067
772.35	48.70645
772.531	66.03449
772.713	41.73996
772.894	54.3441
773.076	38.58633
773.258	35.29646
773.439	54.56433
773.621	61.85652
773.802	28.09525
773.984	34.06478
774.166	43.51943
774.347	58.12489
774.529	51.659
774.71	20.00579
774.891	38.22111
775.073	35.90134
775.254	55.23538
775.436	33.48788
775.617	67.53039
775.799	33.93481
775.98	53.13065
776.161	60.41844
776.343	63.51819
776.524	39.05139
776.705	38.80046
776.886	20.92995
777.068	44.86306
777.249	90.85249
777.43	65.27982
777.611	27.92365
777.793	37.12328
777.974	63.8885
778.155	33.68882
778.336	27.28064
778.517	72.58806
778.698	30.71111
778.879	20.32111
779.061	12.41824
779.242	46.07435
779.423	46.16397
779.604	34.45213
779.785	36.59841
779.966	44.21039
780.147	54.77767
780.328	53.27572
780.509	73.47851
780.69	53.67327
780.871	34.15614
781.051	25.66339
781.232	44.2297
781.413	41.01937
781.594	38.97426
781.775	36.24235
781.956	32.36999
782.137	17.80968
782.317	35.07843
782.498	43.26479
782.679	42.87617
782.86	44.6131
783.04	33.07242
783.221	42.59536
783.402	65.48582
783.583	41.87766
783.763	52.47336
783.944	34.84522
784.124	24.71909
784.305	62.72226
784.486	49.88174
784.666	40.43264
784.847	24.05448
785.027	85.95622
785.208	34.25767
785.388	30.7059
785.569	32.98232
785.749	37.2764
785.93	34.19534
786.11	23.87646
786.291	46.74468
786.471	43.80846
786.652	53.76582
786.832	39.20386
787.012	42.29575
787.193	27.06947
787.373	40.9694
787.553	35.25851
787.734	43.66942
787.914	35.97174
788.094	53.94029
788.275	44.64969
788.455	36.03327
788.635	27.81257
788.815	44.43885
788.995	30.21939
789.176	22.81303
789.356	31.75049
789.536	38.24036
789.716	45.72081
789.896	32.4202
790.076	34.09992
790.256	45.31697
790.436	17.35501
790.616	29.14017
790.796	43.29724
790.976	36.11138
791.156	33.37836
791.336	47.11423
791.516	44.39469
791.696	37.05667
791.876	25.06505
792.056	42.01411
792.236	52.91114
792.416	50.7077
792.596	46.09698
792.776	45.96698
792.956	51.06209
793.135	63.22849
793.315	28.38573
793.495	55.77823
793.675	50.45482
793.854	49.59678
794.034	53.68705
794.214	28.3805
794.394	51.08589
794.573	56.23178
794.753	42.33846
794.933	30.58157
795.112	43.81739
795.292	53.95387
795.472	64.17077
795.651	24.90229
795.831	41.44632
796.01	36.42259
796.19	38.28984
796.369	39.15997
796.549	46.28238
796.728	39.15076
796.908	25.79838
797.087	27.70086
797.267	38.51786
797.446	27.52576
797.626	46.48226
797.805	46.2883
797.984	31.5859
798.164	50.49688
798.343	30.83048
798.522	43.35993
798.702	42.46201
798.881	27.9262
799.06	37.75739
799.239	20.82979
799.419	31.39058
799.598	62.98011
799.777	46.46998
799.956	54.95566
800.136	36.55859
800.315	29.70753
800.494	44.62842
800.673	53.40099
800.852	49.49282
801.031	56.0863
801.21	47.79173
801.389	34.92137
801.568	44.04971
801.747	66.73594
801.926	41.70975
802.105	60.88905
802.284	36.34817
802.463	62.13884
802.642	45.32801
802.821	43.30657
803	58.95249
803.179	54.07137
803.358	55.12256
803.537	32.89044
803.716	42.1924
803.895	32.50782
804.073	40.22079
804.252	32.61384
804.431	48.14345
804.61	40.41378
804.789	52.23914
804.967	35.45638
805.146	35.94048
805.325	72.2147
805.503	45.75561
805.682	25.53701
805.861	86.88731
806.039	60.56677
806.218	35.78405
806.397	43.81482
806.575	39.96968
806.754	44.679
806.932	30.35224
807.111	56.30922
807.289	53.29401
807.468	42.71486
807.646	55.4367
807.825	49.34747
808.003	45.35706
808.182	56.38385
808.36	42.93848
808.539	29.99119
808.717	63.95822
808.895	33.29645
809.074	44.97179
809.252	42.18337
809.43	49.32293
809.609	60.61784
809.787	66.1714
809.965	40.41174
810.144	42.52911
810.322	40.33133
810.5	50.31279
810.678	38.27717
810.856	74.09381
811.035	56.163
811.213	53.63368
811.391	63.43216
811.569	46.68927
811.747	91.07097
811.925	59.34096
812.103	35.00707
812.281	40.6351
812.459	70.14883
812.637	68.08883
812.816	54.79403
812.994	75.89717
813.171	64.92777
813.349	49.51221
813.527	57.0971
813.705	68.81761
813.883	82.05964
814.061	58.42153
814.239	71.08265
814.417	78.98063
814.595	52.88007
814.773	50.64583
814.95	48.66306
815.128	51.64262
815.306	46.4504
815.484	43.56031
815.662	31.51575
815.839	30.11906
816.017	38.2585
816.195	60.27453
816.372	40.57119
816.55	56.82383
816.728	68.68022
816.905	41.82
817.083	67.8849
817.261	45.84086
817.438	90.96133
817.616	73.60708
817.793	39.36364
817.971	57.34492
818.148	57.03385
818.326	64.32771
818.503	49.00646
818.681	70.90758
818.858	39.92058
819.036	45.00292
819.213	50.81591
819.391	38.36866
819.568	37.3483
819.745	33.16723
819.923	55.94495
820.1	41.21113
820.277	34.27532
820.455	39.72382
820.632	41.72463
820.809	46.2545
820.986	30.27774
821.164	25.16609
821.341	23.4245
821.518	34.13914
821.695	25.31218
821.872	22.88903
822.05	20.18641
822.227	16.5935
822.404	17.63987
822.581	20.14064
822.758	17.45971
822.935	17.52419
823.112	19.16727
823.289	16.67254
823.466	20.12985
823.643	18.82399
823.82	22.09008
823.997	19.96676
824.174	23.211
824.351	29.57882
824.528	28.6105
824.705	25.85065
824.882	28.54957
825.059	36.34427
825.236	26.87011
825.412	28.87847
825.589	33.49071
825.766	46.16835
825.943	30.4472
826.12	34.39714
826.296	25.96073
826.473	32.11207
826.65	31.91118
826.827	37.19709
827.003	25.20082
827.18	28.81108
827.357	31.13935
827.533	26.82444
827.71	16.72075
827.887	24.56813
828.063	27.00195
828.24	23.24968
828.416	30.24517
828.593	25.944
828.769	34.89836
828.946	36.37263
829.122	37.87818
829.299	36.11022
829.475	24.61381
829.652	36.07122
829.828	57.86989
830.005	37.82338
830.181	51.06252
830.357	39.36042
830.534	54.73882
830.71	41.96701
830.886	51.82797
831.063	49.454
831.239	61.95976
831.415	30.98154
831.592	65.46978
831.768	40.84757
831.944	35.89032
832.12	70.1483
832.296	65.47517
832.473	53.12821
832.649	37.98075
832.825	55.47186
833.001	34.53245
833.177	48.48466
833.353	43.19279
833.529	27.16238
833.705	40.71523
833.881	27.40754
834.058	26.55877
834.234	27.95732
834.41	28.0666
834.586	22.11518
834.761	26.77407
834.937	29.64045
835.113	30.74664
835.289	26.73953
835.465	31.38279
835.641	28.90044
835.817	30.96045
835.993	52.58697
836.169	28.98907
836.344	41.1077
836.52	46.85299
836.696	44.98448
836.872	37.36739
837.048	93.98524
837.223	40.194
837.399	72.2601
837.575	56.06535
837.75	57.08335
837.926	78.02927
838.102	109.34169
838.277	89.34663
838.453	120.35834
838.628	118.38216
838.804	47.76863
838.98	106.23528
839.155	55.54369
839.331	77.02099
839.506	55.61186
839.682	53.09509
839.857	76.23087
840.033	85.48239
840.208	43.83757
840.384	24.38955
840.559	43.58725
840.734	63.50477
840.91	84.0336
841.085	50.8266
841.26	51.39306
841.436	47.98688
841.611	48.97501
841.786	68.90195
841.962	89.22408
842.137	59.90163
842.312	42.72094
842.487	50.68544
842.663	45.87054
842.838	55.08672
843.013	160.22423
843.188	78.31295
843.363	85.45281
843.538	136.78391
843.714	140.04969
843.889	139.15824
844.064	144.13375
844.239	120.56969
844.414	140.3378
844.589	92.67371
844.764	167.09137
844.939	169.98922
845.114	186.25873
845.289	171.03134
845.464	234.90197
845.639	161.77576
845.814	85.21087
845.989	98.58093
846.163	117.75386
846.338	130.23458
846.513	172.16353
846.688	108.69602
846.863	119.05228
847.038	109.7963
847.212	118.92403
847.387	124.99047
847.562	128.34235
847.737	161.08947
847.911	63.36338
848.086	74.28199
848.261	255.0324
848.435	106.28589
848.61	167.12138
848.785	83.94127
848.959	159.5434
849.134	222.468
849.308	234.72123
849.483	129.25505
849.658	196.95087
849.832	103.25909
850.007	89.58399
850.181	262.65505
850.356	96.1091
850.53	243.95664
850.705	78.54912
850.879	45.79624
851.053	115.73116
851.228	107.46509
851.402	137.26007
851.577	179.17524
851.751	197.50382
851.925	135.41293
852.099	63.21553
852.274	92.65256
852.448	119.07687
852.622	135.97388
852.797	123.50818
852.971	124.60652
853.145	123.83032
853.319	354.2155
853.493	188.52545
853.668	104.18069
853.842	230.69335
854.016	180.9792
854.19	224.11301
854.364	133.7502
854.538	147.23799
854.712	190.39601
854.886	121.12156
855.06	114.73831
855.234	46.75568
855.408	202.0906
855.582	178.64843
855.756	174.90308
855.93	223.06943
856.104	150.55211
856.278	185.35603
856.452	127.52095
856.626	170.02859
856.8	268.05993
856.973	155.03219
857.147	150.1334
857.321	151.7447
857.495	179.40032
857.669	128.31738
857.842	113.27799
858.016	187.53275
858.19	97.994
858.364	299.5081
858.537	114.29212
858.711	138.49506
858.885	120.53673
859.058	108.40173
859.232	63.65128
859.405	71.46275
859.579	171.77456
859.753	148.58939
859.926	105.71115
860.1	76.11334
860.273	132.77305
860.447	223.69908
860.62	116.47122
860.794	254.7332
860.967	146.95875
861.141	193.98168
861.314	274.92201
861.487	163.85004
861.661	213.07845
861.834	215.68791
862.008	183.58978
862.181	131.59457
862.354	145.29643
862.528	154.97464
862.701	114.25653
862.874	76.47393
863.047	123.80539
863.221	117.20983
863.394	60.8169
863.567	219.50394
863.74	46.1633
863.913	176.57178
864.087	157.61066
864.26	182.08904
864.433	129.04579
864.606	239.40955
864.779	138.16215
864.952	71.52625
865.125	108.83218
865.298	126.49746
865.471	134.60685
865.644	266.45945
865.817	218.97039
865.99	181.06695
866.163	206.0641
866.336	113.61102
866.509	139.18952
866.682	110.81132
866.855	200.54852
867.028	82.75613
867.2	168.49546
867.373	51.85647
867.546	153.06991
867.719	275.5378
867.892	177.74832
868.064	93.32063
868.237	162.12212
868.41	139.58979
868.583	80.03187
868.755	90.78931
868.928	135.29548
869.101	281.60421
869.273	201.17496
869.446	165.30236
869.619	202.51666
869.791	127.27026
869.964	200.39961
870.136	181.90726
870.309	143.66293
870.481	147.845
870.654	75.90218
870.826	146.12183
870.999	117.19532
871.171	188.22471
871.344	115.23785
871.516	136.94884
871.689	100.18712
871.861	136.78563
872.033	101.25411
872.206	116.12636
872.378	197.43357
872.55	124.50634
872.723	88.51018
872.895	127.48319
873.067	199.34167
873.24	223.71213
873.412	112.72504
873.584	129.68646
873.756	113.45095
873.928	155.81348
874.101	155.2741
874.273	166.89459
874.445	59.70046
874.617	82.05499
874.789	150.67465
874.961	121.16335
875.133	167.03604
875.305	144.26742
875.477	90.0291
875.649	73.52199
875.821	100.31022
875.993	235.76085
876.165	88.84106
876.337	157.29462
876.509	121.50321
876.681	153.50536
876.853	148.96339
877.025	152.783
877.197	97.47495
877.369	93.72764
877.541	183.35882
877.712	58.00861
877.884	87.36022
878.056	170.8415
878.228	89.21471
878.4	166.33748
878.571	92.29498
878.743	69.52066
878.915	151.62063
879.086	90.15309
879.258	112.24943
879.43	101.50723
879.601	90.42391
879.773	94.38888
879.945	25.65137
880.116	41.55812
880.288	28.47825
880.459	30.31628
880.631	24.06562
880.802	27.4406
880.974	26.17577
881.145	19.03633
881.317	25.43405
881.488	19.66108
881.66	21.89129
881.831	19.72648
882.002	27.91353
882.174	20.60485
882.345	26.05395
882.517	15.71933
882.688	29.73455
882.859	26.4177
883.03	39.80215
883.202	37.84446
883.373	33.65567
883.544	33.4636
883.715	57.25408
883.887	46.35317
884.058	41.88257
884.229	59.49365
884.4	59.76926
884.571	66.15958
884.742	60.55753
884.914	67.43123
885.085	89.94426
885.256	111.23969
885.427	93.31514
885.598	110.62023
885.769	110.84948
885.94	109.66566
886.111	75.20559
886.282	128.53738
886.453	103.07447
886.624	77.17981
886.795	123.79951
886.966	103.46939
887.136	134.73233
887.307	92.82181
887.478	168.22292
887.649	147.75593
887.82	152.25041
887.991	125.36674
888.161	168.14621
888.332	159.13488
888.503	85.23818
888.674	208.46013
888.844	226.77392
889.015	181.11754
889.186	88.81481
889.356	213.23076
889.527	84.11654
889.698	365.68959
889.868	123.98661
890.039	152.84666
890.209	136.12025
890.38	183.17462
890.551	156.66929
890.721	223.87433
890.892	184.0556
891.062	126.65135
891.233	159.44564
891.403	127.70125
891.574	97.15391
891.744	129.26709
891.914	173.99708
892.085	144.62194
892.255	53.99839
892.425	224.95623
892.596	180.75936
892.766	156.15767
892.936	226.4175
893.107	185.51725
893.277	104.4942
893.447	79.84474
893.618	61.04961
893.788	119.80463
893.958	61.2174
894.128	66.78009
894.298	75.94051
894.468	104.23142
894.639	47.99359
894.809	33.41276
894.979	54.63026
895.149	63.43458
895.319	53.41945
895.489	71.35128
895.659	86.28585
895.829	61.28056
895.999	62.96143
896.169	48.92451
896.339	58.67848
896.509	118.7175
896.679	134.71134
896.849	128.01754
897.019	181.47672
897.189	139.94795
897.358	121.35862
897.528	188.37486
897.698	69.77557
897.868	172.81287
898.038	283.49224
898.208	268.02923
898.377	96.7061
898.547	274.16279
898.717	425.47206
898.886	176.87154
899.056	272.5833
899.226	395.49147
899.395	249.54548
899.565	304.6671
899.735	205.09143
899.904	342.81369
900.074	281.55258
900.244	141.78721
900.413	514.63421
900.583	128.18181
900.752	197.2629
900.922	312.37905
901.091	43.40917
901.261	278.30533
901.43	264.15924
901.599	259.39057
901.769	561.72677
901.938	303.29497
902.108	295.43155
902.277	382.39759
902.446	110.31299
902.616	119.53099
902.785	177.75063
902.954	301.20508
903.124	197.41136
903.293	163.86543
903.462	88.96906
903.631	123.27629
903.801	89.90894
903.97	48.41492
904.139	84.96223
904.308	62.53227
904.477	50.24798
904.646	31.74585
904.816	50.37176
904.985	68.44866
905.154	100.60737
