Data from WindowProjectSample_Transmission__23__00023.txt Node

Date: Sat May 03 15:18:31 EDT 2025
User: jessi
Spectrometer: SR400872
Trigger mode: 0
Integration Time (sec): 5.000010E-1
Scans to average: 6
Electric dark correction enabled: true
Nonlinearity correction enabled: true
Boxcar width: 0
XAxis mode: Wavelengths
Number of Pixels in Spectrum: 3648
>>>>>Begin Spectral Data<<<<<
184.909	18300.26486
185.132	2616.79524
185.355	23445.41872
185.578	-7855.87229
185.801	460.69906
186.024	-1435.55795
186.247	890.23665
186.47	1907.58262
186.693	-278.43246
186.916	-2190.02988
187.139	-2660.22409
187.362	1518.00568
187.585	2742.05958
187.808	-3664.49931
188.031	-974.56645
188.254	-1184.94567
188.476	-924.92972
188.699	2394.9785
188.922	-731.04837
189.145	-10329.19426
189.368	-437.76647
189.591	-1252.71907
189.813	-1596.16443
190.036	1192.42847
190.259	1575.82363
190.482	610.45853
190.705	10332.70969
190.927	-1035.13965
191.15	3680.49157
191.373	2275.86225
191.595	-2451.8933
191.818	2580.70126
192.041	-173.26822
192.263	2730.08396
192.486	2375.33486
192.709	-5655.90371
192.931	3007.60677
193.154	-6577.48316
193.377	187943.57269
193.599	1459.28102
193.822	1910.63497
194.044	-2214.85409
194.267	447.73073
194.489	-298.53811
194.712	1428.90915
194.934	3389.542
195.157	-11883.4011
195.379	871.15391
195.602	2416.29126
195.824	2245.00422
196.047	2565.02677
196.269	3085.97267
196.492	3514.34633
196.714	2857.41805
196.936	1214.65583
197.159	1588.52035
197.381	-2394.27781
197.604	-1382.51299
197.826	6245.42118
198.048	3054.15715
198.271	4032.1088
198.493	2224.84739
198.715	-6175.97122
198.938	-609.90234
199.16	1960.7064
199.382	1533.95161
199.604	-642.73079
199.827	9471.11731
200.049	1095.78162
200.271	-3292.06773
200.493	-55566.44574
200.715	2331.9411
200.938	6873.69903
201.16	-7239.44509
201.382	-3154.31233
201.604	-1971.21986
201.826	6711.73825
202.048	941.09013
202.27	-16062.96798
202.492	4906.48218
202.715	-1154.00277
202.937	4757.22629
203.159	-2349.17951
203.381	937.76218
203.603	-3698.56121
203.825	-2726.25824
204.047	3319.33265
204.269	-2071.26354
204.491	2362.38319
204.713	2002.21644
204.935	15773.69591
205.156	2004.80409
205.378	-9171.62247
205.6	-4872.30524
205.822	9424.98334
206.044	-669.73957
206.266	4283.95605
206.488	1283.42905
206.71	30081.08215
206.932	2497.7132
207.153	-4683.20451
207.375	-1860.99909
207.597	8716.50904
207.819	4253.76273
208.041	2257.16897
208.262	-2638.96061
208.484	-1332.09575
208.706	-2679.31733
208.927	29622.21979
209.149	894.00177
209.371	-6337.40409
209.593	1207.54132
209.814	5032.95604
210.036	-3450.01155
210.258	-5873.24446
210.479	-1437.69932
210.701	944.4818
210.922	6859.13803
211.144	-1244.70557
211.366	-6404.36424
211.587	-744.12223
211.809	9642.60292
212.03	-1213.17776
212.252	-2223.38508
212.473	773.68269
212.695	-2728.35701
212.916	2796.96116
213.138	3711.87924
213.359	-1830.82305
213.581	6863.64107
213.802	-2038.9581
214.024	17602.14419
214.245	-3382.07599
214.466	-663.30987
214.688	1692.08555
214.909	970.18875
215.131	-105999.10584
215.352	1627.21313
215.573	2648.94317
215.795	2837.41337
216.016	4216.99859
216.237	-585.7523
216.459	6941.01803
216.68	107885.26529
216.901	-87336.64005
217.122	2241.70678
217.344	5835.9835
217.565	-58113.20883
217.786	1555.1592
218.007	2122.03733
218.228	-1168.78198
218.45	-1224.30975
218.671	-1067.07066
218.892	1244.32806
219.113	-18868.09651
219.334	-430.3796
219.555	-6013.55232
219.776	1661.31983
219.997	3408.07132
220.219	1021.19542
220.44	2474.50975
220.661	-3632.29352
220.882	3595.23848
221.103	-1345.46129
221.324	950.94777
221.545	2311.14732
221.766	-6119.23976
221.987	3998.53663
222.208	-1810.57756
222.429	3582.83946
222.65	-174.85917
222.87	-640.78576
223.091	7835.77561
223.312	2491.45102
223.533	6715.74688
223.754	1896.31917
223.975	1517.91782
224.196	-11886.97796
224.417	1054.1145
224.637	954.31676
224.858	-466.71256
225.079	6448.30918
225.3	625.20047
225.521	2063.09674
225.741	1481.79569
225.962	743.03636
226.183	269.55556
226.404	692.92297
226.624	634.33195
226.845	381.4214
227.066	418.99318
227.286	190.68566
227.507	92.77649
227.728	86.74877
227.948	133.88253
228.169	34.96915
228.389	48.88709
228.61	27.16067
228.831	38.3141
229.051	2.37236
229.272	22.1861
229.492	32.72322
229.713	9.33513
229.933	22.05828
230.154	19.02815
230.374	32.76653
230.595	24.65082
230.815	16.53593
231.036	25.35157
231.256	-5.03379
231.477	42.23089
231.697	25.33999
231.917	25.57865
232.138	38.67455
232.358	73.99733
232.579	63.64329
232.799	11.37348
233.019	67.10702
233.24	75.78577
233.46	28.97119
233.68	40.65238
233.901	30.24961
234.121	19.12656
234.341	9.51855
234.561	-1.69473
234.782	15.69972
235.002	50.23685
235.222	1.96493
235.442	41.77172
235.662	20.9189
235.883	44.05584
236.103	34.24083
236.323	24.69553
236.543	22.26078
236.763	28.38913
236.983	30.08453
237.203	31.02232
237.423	46.9491
237.643	60.9028
237.864	51.11137
238.084	12.49989
238.304	23.75713
238.524	35.44341
238.744	28.53391
238.964	44.84826
239.184	44.22145
239.404	45.94018
239.624	25.14441
239.843	41.71849
240.063	23.63889
240.283	17.39656
240.503	17.77352
240.723	16.10107
240.943	9.592
241.163	13.58515
241.383	10.72114
241.603	5.38744
241.822	6.57512
242.042	4.599
242.262	6.23045
242.482	6.90985
242.702	8.17473
242.921	2.86866
243.141	5.77929
243.361	4.7476
243.581	7.73565
243.8	6.27171
244.02	4.13714
244.24	8.34547
244.459	8.06305
244.679	15.01665
244.899	8.74925
245.118	10.70391
245.338	9.24618
245.558	11.56985
245.777	6.73004
245.997	7.25232
246.216	7.52613
246.436	4.47928
246.655	3.21561
246.875	2.34402
247.094	4.86964
247.314	1.65767
247.533	2.75049
247.753	3.52036
247.972	2.96879
248.192	1.2537
248.411	1.95341
248.631	3.44067
248.85	4.12526
249.07	3.0243
249.289	5.59043
249.508	3.93093
249.728	6.25585
249.947	7.00261
250.166	7.28229
250.386	4.27059
250.605	6.26263
250.824	8.64158
251.044	6.17021
251.263	20.9403
251.482	11.25792
251.701	10.04388
251.921	0.47526
252.14	4.00265
252.359	3.4576
252.578	8.19407
252.798	3.25196
253.017	7.73176
253.236	4.20848
253.455	4.53288
253.674	9.84351
253.893	5.07169
254.112	6.56208
254.331	8.54425
254.551	7.74203
254.77	4.2075
254.989	12.23613
255.208	9.97164
255.427	12.20483
255.646	11.11576
255.865	18.82562
256.084	6.28209
256.303	8.67726
256.522	12.36617
256.741	1.93929
256.96	3.25936
257.179	8.76292
257.397	8.43947
257.616	4.95017
257.835	6.05734
258.054	12.5446
258.273	7.81912
258.492	8.78665
258.711	5.25835
258.93	2.26028
259.148	3.42027
259.367	3.63773
259.586	4.50968
259.805	2.01668
260.023	4.40731
260.242	3.35125
260.461	2.31011
260.68	1.2911
260.898	3.86222
261.117	1.28825
261.336	1.03418
261.554	3.31746
261.773	3.22893
261.992	0.54931
262.21	3.20927
262.429	4.07792
262.648	6.49972
262.866	7.76416
263.085	4.56089
263.303	4.55704
263.522	7.74865
263.74	7.98153
263.959	12.43096
264.178	6.54617
264.396	5.97227
264.615	4.32641
264.833	10.09032
265.051	8.786
265.27	8.65856
265.488	9.91849
265.707	6.1756
265.925	9.25458
266.144	4.34171
266.362	5.16538
266.58	5.22614
266.799	4.29214
267.017	5.14256
267.235	5.04518
267.454	3.12476
267.672	1.7883
267.89	3.74672
268.109	4.40144
268.327	3.81887
268.545	1.36316
268.763	3.51293
268.982	1.7223
269.2	4.80158
269.418	2.89088
269.636	1.85125
269.854	3.94951
270.073	2.88737
270.291	1.60535
270.509	1.77538
270.727	3.7179
270.945	6.07993
271.163	6.19458
271.381	1.68789
271.599	2.65985
271.817	4.59236
272.036	1.68636
272.254	2.56766
272.472	2.36165
272.69	2.29558
272.908	2.20496
273.126	3.94056
273.344	4.74952
273.562	1.66207
273.779	2.27739
273.997	3.26184
274.215	3.85991
274.433	2.99404
274.651	4.14072
274.869	4.2746
275.087	2.86893
275.305	3.66811
275.523	1.987
275.74	3.14041
275.958	4.71231
276.176	7.13629
276.394	2.22749
276.612	3.11822
276.829	3.02703
277.047	2.39167
277.265	2.8532
277.483	3.36439
277.7	3.74367
277.918	3.14637
278.136	5.60738
278.353	2.99593
278.571	1.71827
278.789	4.47432
279.006	0.94088
279.224	2.86379
279.442	4.32653
279.659	2.97433
279.877	2.4147
280.094	4.97622
280.312	0.90362
280.529	3.19088
280.747	0.78026
280.964	2.45418
281.182	5.39974
281.399	2.44315
281.617	3.38257
281.834	2.53847
282.052	2.15233
282.269	2.8437
282.487	2.27542
282.704	1.81091
282.921	2.23691
283.139	2.90344
283.356	4.01592
283.574	3.35146
283.791	1.74858
284.008	4.7146
284.226	2.6349
284.443	2.96718
284.66	3.49896
284.877	3.04435
285.095	1.99646
285.312	1.41779
285.529	0.869
285.746	0.75504
285.964	1.79962
286.181	1.20146
286.398	1.97976
286.615	2.48404
286.832	2.37636
287.05	0.82039
287.267	1.63259
287.484	1.86319
287.701	2.53391
287.918	2.43727
288.135	2.63534
288.352	1.1414
288.569	1.29283
288.786	2.34648
289.003	1.80704
289.22	2.6538
289.437	1.78486
289.654	2.76987
289.871	2.92949
290.088	2.72412
290.305	2.19647
290.522	1.6538
290.739	2.14309
290.956	2.95342
291.173	3.56253
291.39	3.1437
291.607	2.25475
291.824	1.87947
292.04	1.17086
292.257	2.72537
292.474	3.12949
292.691	1.69947
292.908	1.06493
293.125	1.77051
293.341	1.11031
293.558	4.6482
293.775	1.93049
293.992	2.10063
294.208	0.76683
294.425	1.2394
294.642	1.89812
294.858	2.53941
295.075	0.6905
295.292	1.76862
295.508	2.28013
295.725	3.42099
295.942	1.73022
296.158	1.25585
296.375	2.03089
296.591	1.49489
296.808	1.75963
297.024	2.02518
297.241	2.0858
297.458	2.29202
297.674	0.39822
297.891	1.88451
298.107	1.71014
298.323	1.19046
298.54	3.03864
298.756	1.56397
298.973	0.90697
299.189	3.22961
299.406	1.72269
299.622	3.08541
299.838	3.22408
300.055	2.9799
300.271	1.45156
300.487	1.42039
300.704	2.00701
300.92	1.56711
301.136	4.58327
301.353	3.14444
301.569	2.53284
301.785	2.83815
302.001	3.34802
302.218	3.09177
302.434	3.1641
302.65	1.79946
302.866	2.51283
303.083	4.95639
303.299	5.0862
303.515	3.10618
303.731	3.50406
303.947	2.23012
304.163	2.87531
304.379	3.28544
304.595	3.49608
304.812	2.71641
305.028	2.62008
305.244	2.91168
305.46	3.79574
305.676	4.356
305.892	4.66614
306.108	3.84772
306.324	3.25065
306.54	4.95762
306.756	3.8123
306.972	3.7798
307.187	3.42105
307.403	4.3808
307.619	3.03957
307.835	4.24509
308.051	4.69606
308.267	2.42417
308.483	4.91911
308.699	4.0318
308.914	3.83045
309.13	3.48303
309.346	2.79328
309.562	3.14439
309.778	2.71994
309.993	4.34249
310.209	4.27878
310.425	2.91431
310.641	4.08642
310.856	3.25435
311.072	3.20883
311.288	4.02167
311.503	4.64445
311.719	2.84294
311.935	3.00132
312.15	5.0208
312.366	4.69696
312.581	4.88445
312.797	4.60899
313.013	4.91775
313.228	3.85654
313.444	3.85324
313.659	3.77011
313.875	4.69249
314.09	4.09575
314.306	5.04407
314.521	4.77041
314.737	4.75268
314.952	4.17837
315.168	4.25258
315.383	4.7626
315.599	3.65854
315.814	4.02378
316.029	4.6042
316.245	3.39709
316.46	2.59503
316.675	5.09609
316.891	6.12164
317.106	6.97549
317.321	4.48864
317.537	4.78477
317.752	5.07026
317.967	5.20332
318.183	3.54318
318.398	3.81773
318.613	4.89653
318.828	5.65601
319.043	4.68428
319.259	3.9997
319.474	4.67518
319.689	5.13281
319.904	2.79254
320.119	5.61636
320.334	4.3394
320.549	4.57362
320.765	5.42566
320.98	5.0263
321.195	4.66832
321.41	4.62593
321.625	4.83365
321.84	5.91673
322.055	5.73818
322.27	3.71188
322.485	3.26927
322.7	4.89015
322.915	5.1921
323.13	4.24328
323.345	6.30494
323.56	5.16981
323.775	5.55476
323.989	5.29306
324.204	4.81104
324.419	5.77587
324.634	3.92241
324.849	4.92171
325.064	7.40542
325.279	6.09858
325.493	5.48981
325.708	5.77142
325.923	4.33692
326.138	4.94082
326.352	6.34965
326.567	5.80281
326.782	4.47756
326.997	4.9406
327.211	5.67286
327.426	5.35109
327.641	5.01353
327.855	3.8864
328.07	5.8851
328.285	7.07773
328.499	4.66095
328.714	5.62938
328.928	5.51952
329.143	5.41373
329.358	6.3592
329.572	6.17853
329.787	6.84671
330.001	7.51928
330.216	3.72705
330.43	7.26543
330.645	6.56133
330.859	6.17947
331.074	4.24452
331.288	5.27669
331.503	7.26984
331.717	4.09987
331.931	5.51033
332.146	5.74352
332.36	7.17072
332.575	5.92639
332.789	5.72863
333.003	5.84584
333.218	6.12738
333.432	5.59181
333.646	6.40256
333.86	7.54268
334.075	7.3773
334.289	5.38578
334.503	4.39147
334.717	6.57743
334.932	6.09603
335.146	6.47857
335.36	4.80394
335.574	6.42559
335.788	5.88209
336.003	6.60864
336.217	7.00738
336.431	6.30269
336.645	5.81839
336.859	5.15891
337.073	6.07369
337.287	6.50501
337.501	4.79788
337.715	6.70122
337.929	6.6773
338.143	5.33214
338.357	5.9988
338.571	5.97482
338.785	7.32049
338.999	5.88101
339.213	6.07245
339.427	5.56344
339.641	7.57954
339.855	5.84008
340.069	5.59944
340.283	7.44255
340.497	7.82976
340.711	7.17641
340.924	6.64203
341.138	5.67965
341.352	5.3092
341.566	6.87605
341.78	5.53293
341.993	6.13651
342.207	5.99154
342.421	6.91201
342.635	6.79336
342.848	6.60927
343.062	4.66631
343.276	6.32341
343.49	8.11635
343.703	6.2536
343.917	7.835
344.131	8.14883
344.344	6.17088
344.558	6.48491
344.771	5.86502
344.985	8.11799
345.199	8.87517
345.412	7.47301
345.626	7.61714
345.839	5.67433
346.053	6.3401
346.266	6.42219
346.48	7.80368
346.693	7.76707
346.907	7.64035
347.12	6.31377
347.334	7.25738
347.547	7.74925
347.76	7.32956
347.974	8.12704
348.187	7.32662
348.401	7.29047
348.614	6.33376
348.827	7.34166
349.041	7.62278
349.254	6.03692
349.467	6.72194
349.681	6.57587
349.894	6.5008
350.107	8.3251
350.32	9.37728
350.534	6.07562
350.747	7.28084
350.96	6.72197
351.173	7.0058
351.386	7.52743
351.6	7.02101
351.813	7.58413
352.026	7.38033
352.239	7.08653
352.452	7.21683
352.665	8.6674
352.878	7.35452
353.092	9.67587
353.305	8.40246
353.518	8.11444
353.731	6.95863
353.944	8.80711
354.157	7.42551
354.37	7.6334
354.583	6.81809
354.796	7.46091
355.009	8.80517
355.222	8.40977
355.435	8.15754
355.647	9.39057
355.86	7.80112
356.073	8.5649
356.286	8.13519
356.499	9.25438
356.712	9.55017
356.925	8.91254
357.138	9.3233
357.35	8.02482
357.563	8.25091
357.776	8.85901
357.989	8.96084
358.201	9.32801
358.414	9.31901
358.627	10.20069
358.84	8.72579
359.052	7.99917
359.265	8.39795
359.478	9.7486
359.69	7.0262
359.903	9.66769
360.116	9.85275
360.328	8.09852
360.541	9.74487
360.753	8.75473
360.966	9.1256
361.179	9.37366
361.391	9.08869
361.604	9.04218
361.816	9.37832
362.029	9.5057
362.241	9.23441
362.454	9.69839
362.666	9.23252
362.879	10.35322
363.091	9.68117
363.304	9.69351
363.516	9.61804
363.728	9.05852
363.941	10.08546
364.153	10.18961
364.366	8.32585
364.578	9.0087
364.79	10.23066
365.003	9.94255
365.215	9.43016
365.427	10.57429
365.639	10.60723
365.852	10.09023
366.064	11.15111
366.276	9.93171
366.488	10.10515
366.701	9.97752
366.913	9.83498
367.125	9.99581
367.337	9.44384
367.549	9.75788
367.762	9.77605
367.974	9.95563
368.186	10.18399
368.398	11.0146
368.61	10.49581
368.822	10.80155
369.034	9.95486
369.246	11.0404
369.458	12.51015
369.67	9.813
369.882	11.4815
370.094	8.53038
370.306	11.41208
370.518	9.97392
370.73	10.03923
370.942	10.0638
371.154	10.54954
371.366	10.40598
371.578	11.30198
371.79	10.76015
372.002	11.68685
372.214	12.68933
372.425	10.6852
372.637	12.28591
372.849	11.25395
373.061	9.43794
373.273	11.30979
373.484	11.38822
373.696	11.78343
373.908	9.39368
374.12	11.67276
374.331	11.59182
374.543	10.40852
374.755	10.32482
374.967	11.09478
375.178	12.15552
375.39	10.99077
375.602	11.53054
375.813	10.33491
376.025	10.64869
376.236	11.55512
376.448	11.60059
376.66	11.40883
376.871	11.73163
377.083	12.22323
377.294	13.08201
377.506	11.55844
377.717	12.74914
377.929	12.16814
378.14	11.67016
378.352	12.30278
378.563	12.92006
378.775	13.17744
378.986	11.46725
379.197	12.47342
379.409	11.46646
379.62	12.6082
379.832	12.34697
380.043	11.91653
380.254	12.52934
380.466	11.27983
380.677	14.19761
380.888	13.9149
381.1	14.69841
381.311	14.7364
381.522	12.91359
381.733	14.75641
381.945	12.58427
382.156	12.16087
382.367	12.48318
382.578	14.84971
382.789	14.95547
383.001	11.74479
383.212	14.15537
383.423	14.05803
383.634	13.58713
383.845	13.55075
384.056	12.53826
384.267	13.14414
384.478	13.18744
384.69	12.39222
384.901	13.58463
385.112	13.51756
385.323	14.74752
385.534	13.65691
385.745	13.85876
385.956	13.58212
386.167	12.74576
386.378	13.97752
386.588	13.06173
386.799	12.54397
387.01	12.53144
387.221	14.1942
387.432	13.86758
387.643	14.77578
387.854	13.27775
388.065	13.50007
388.275	13.60967
388.486	13.36399
388.697	13.95776
388.908	13.60027
389.119	14.70942
389.329	14.68646
389.54	13.97246
389.751	14.30322
389.962	14.79811
390.172	13.93273
390.383	14.10906
390.594	13.6007
390.804	13.45486
391.015	13.64077
391.226	14.44252
391.436	14.69118
391.647	14.63304
391.858	14.76675
392.068	13.42105
392.279	13.8934
392.489	14.89108
392.7	15.01109
392.91	14.33598
393.121	14.11258
393.331	15.03634
393.542	15.44041
393.752	15.34626
393.963	14.89277
394.173	15.03674
394.384	15.21022
394.594	14.69786
394.804	14.2396
395.015	14.9242
395.225	15.56181
395.436	14.49215
395.646	15.3927
395.856	14.94039
396.067	14.12979
396.277	15.7196
396.487	15.50253
396.697	15.86335
396.908	15.77308
397.118	15.48787
397.328	15.12367
397.538	15.65186
397.749	14.68898
397.959	15.88233
398.169	15.45548
398.379	14.16807
398.589	15.39614
398.8	15.70545
399.01	15.45354
399.22	15.42844
399.43	16.88952
399.64	15.40773
399.85	15.80788
400.06	15.53036
400.27	15.09491
400.48	15.36056
400.69	16.13068
400.9	15.34995
401.11	14.51321
401.32	16.15488
401.53	15.19937
401.74	16.57984
401.95	16.09615
402.16	15.55859
402.37	15.95778
402.58	15.42606
402.79	15.98363
403	16.09262
403.209	15.13586
403.419	16.57588
403.629	15.06302
403.839	16.28409
404.049	16.23243
404.258	15.80754
404.468	15.53416
404.678	16.67728
404.888	17.04575
405.097	16.25213
405.307	15.91055
405.517	16.60331
405.727	16.72896
405.936	15.68601
406.146	16.59959
406.356	17.29538
406.565	16.2087
406.775	15.96229
406.984	16.0309
407.194	17.90026
407.404	16.5667
407.613	16.94953
407.823	16.84717
408.032	17.17082
408.242	16.95614
408.451	16.0943
408.661	16.10623
408.87	17.33795
409.08	15.52297
409.289	16.75376
409.499	16.65573
409.708	16.45239
409.918	15.09161
410.127	16.69585
410.336	17.66422
410.546	17.17598
410.755	16.2397
410.964	16.25039
411.174	15.90926
411.383	17.11641
411.592	16.96265
411.802	16.07831
412.011	17.07393
412.22	16.55521
412.429	17.84254
412.639	17.87508
412.848	17.32929
413.057	18.11281
413.266	17.17498
413.475	16.65769
413.685	17.27492
413.894	17.23022
414.103	17.4713
414.312	17.11706
414.521	16.40879
414.73	17.01186
414.939	17.96777
415.148	17.17052
415.357	16.94711
415.566	16.88353
415.776	16.61177
415.985	16.79096
416.194	17.3944
416.403	18.30424
416.611	16.40718
416.82	16.80371
417.029	17.40857
417.238	16.81544
417.447	16.76391
417.656	17.25995
417.865	17.23089
418.074	17.71208
418.283	19.06865
418.492	20.48218
418.7	20.24405
418.909	22.58469
419.118	21.428
419.327	22.06025
419.536	22.1042
419.744	22.83499
419.953	24.61754
420.162	25.00495
420.371	24.47615
420.579	25.88168
420.788	27.07335
420.997	27.27906
421.205	28.09321
421.414	27.45954
421.623	28.08275
421.831	27.40789
422.04	28.09202
422.249	26.74684
422.457	26.80761
422.666	25.49817
422.874	26.70293
423.083	26.54435
423.291	26.63803
423.5	26.99989
423.708	27.49873
423.917	28.36873
424.125	27.60207
424.334	27.70231
424.542	29.69754
424.751	29.21213
424.959	28.36874
425.167	28.20896
425.376	28.21672
425.584	25.98888
425.793	25.66139
426.001	23.96109
426.209	23.48532
426.418	21.63034
426.626	20.35812
426.834	19.8642
427.042	19.22177
427.251	18.68601
427.459	19.45237
427.667	19.12605
427.875	17.9918
428.084	18.65137
428.292	19.42455
428.5	19.18566
428.708	18.06421
428.916	18.31874
429.124	18.69852
429.333	18.47539
429.541	18.44357
429.749	18.79815
429.957	18.4693
430.165	20.25238
430.373	17.60951
430.581	18.63967
430.789	19.66202
430.997	18.52363
431.205	18.17794
431.413	19.02698
431.621	18.61653
431.829	19.29256
432.037	18.46639
432.245	18.59562
432.453	19.10184
432.661	18.90033
432.869	20.25656
433.076	19.25783
433.284	20.31838
433.492	21.2095
433.7	21.45358
433.908	20.70673
434.116	20.98052
434.323	20.38596
434.531	20.3688
434.739	19.93786
434.947	19.91324
435.154	19.99195
435.362	19.64377
435.57	19.32177
435.778	18.98185
435.985	19.50498
436.193	18.89502
436.401	20.00274
436.608	19.24456
436.816	19.07924
437.023	20.1045
437.231	20.47982
437.439	19.38523
437.646	19.72549
437.854	19.49527
438.061	19.78383
438.269	19.63766
438.476	20.02848
438.684	19.93557
438.891	20.74456
439.099	20.68148
439.306	20.9754
439.514	21.09787
439.721	23.27417
439.929	23.20584
440.136	24.35154
440.343	24.82065
440.551	24.71155
440.758	26.86682
440.965	24.99014
441.173	24.87153
441.38	24.68928
441.587	23.6433
441.795	23.56704
442.002	22.39158
442.209	22.01137
442.416	21.63987
442.624	21.22466
442.831	20.43389
443.038	19.9055
443.245	19.39208
443.452	19.76369
443.66	20.2497
443.867	19.5542
444.074	19.35986
444.281	20.14686
444.488	20.80589
444.695	21.20547
444.902	22.08935
445.109	24.07862
445.316	24.3548
445.523	25.50167
445.73	25.9463
445.937	27.4243
446.144	28.16797
446.351	29.40368
446.558	27.5993
446.765	30.74135
446.972	29.02463
447.179	28.84526
447.386	29.1303
447.593	26.62009
447.8	27.68247
448.007	25.47736
448.214	24.0314
448.42	22.84693
448.627	22.791
448.834	22.05904
449.041	21.25728
449.248	20.54975
449.454	21.037
449.661	21.50688
449.868	20.07115
450.075	19.85705
450.281	19.18046
450.488	19.56741
450.695	19.56939
450.901	19.50767
451.108	19.79944
451.315	20.56415
451.521	19.62773
451.728	20.55891
451.935	19.49443
452.141	19.67612
452.348	19.86379
452.554	20.19145
452.761	19.8021
452.967	21.19245
453.174	20.22069
453.38	20.30283
453.587	19.59056
453.793	20.59171
454	20.54188
454.206	21.52628
454.413	21.02914
454.619	20.72386
454.825	19.71264
455.032	20.37502
455.238	20.93445
455.445	19.53113
455.651	20.16853
455.857	19.28987
456.064	20.09186
456.27	20.00842
456.476	19.93157
456.682	19.44119
456.889	20.3168
457.095	20.57966
457.301	21.42427
457.507	19.81987
457.714	20.16647
457.92	20.07062
458.126	19.37738
458.332	19.85336
458.538	20.08706
458.744	21.08359
458.951	22.27501
459.157	25.45332
459.363	25.66682
459.569	26.60746
459.775	27.57363
459.981	27.94226
460.187	28.65778
460.393	28.52442
460.599	28.21074
460.805	26.56803
461.011	24.9797
461.217	24.23988
461.423	22.41513
461.629	21.06593
461.835	21.40966
462.041	21.00504
462.247	22.21556
462.453	20.93357
462.658	20.90964
462.864	21.47998
463.07	20.97197
463.276	20.65679
463.482	20.67329
463.688	21.59709
463.893	20.027
464.099	20.47661
464.305	21.52307
464.511	20.33487
464.716	20.58781
464.922	21.29511
465.128	20.10637
465.333	21.4243
465.539	21.25036
465.745	20.82718
465.95	20.72388
466.156	23.016
466.362	21.63753
466.567	20.6167
466.773	20.65401
466.978	21.86129
467.184	20.40405
467.389	19.7261
467.595	21.40088
467.8	20.75349
468.006	21.92557
468.211	21.97998
468.417	20.4521
468.622	21.46874
468.828	21.52521
469.033	21.40277
469.239	22.95572
469.444	20.62391
469.649	21.6072
469.855	21.14584
470.06	21.28116
470.266	20.27068
470.471	21.34777
470.676	21.3337
470.881	20.10935
471.087	22.33369
471.292	22.57476
471.497	20.50392
471.703	21.11793
471.908	20.79541
472.113	21.12307
472.318	21.73748
472.523	20.53701
472.729	21.48669
472.934	21.37591
473.139	21.20443
473.344	21.96563
473.549	22.26682
473.754	20.86131
473.959	22.99451
474.164	21.19384
474.369	21.1236
474.575	21.77313
474.78	21.50473
474.985	20.70013
475.19	20.13107
475.395	20.76345
475.6	20.9842
475.804	22.29125
476.009	21.12548
476.214	21.2413
476.419	20.8752
476.624	20.31451
476.829	21.17432
477.034	21.73326
477.239	21.07658
477.444	21.56802
477.648	22.14227
477.853	21.77155
478.058	21.23363
478.263	21.27078
478.468	20.79836
478.672	21.1109
478.877	22.78854
479.082	22.91249
479.287	22.00346
479.491	21.68304
479.696	21.04907
479.901	22.31354
480.105	21.9134
480.31	21.07431
480.515	21.44041
480.719	22.80145
480.924	21.14711
481.128	21.46654
481.333	22.86982
481.538	23.46566
481.742	24.81799
481.947	27.07596
482.151	29.38555
482.356	31.93229
482.56	36.91396
482.765	41.21561
482.969	48.50037
483.174	54.35225
483.378	62.93619
483.582	66.40367
483.787	70.44073
483.991	72.80601
484.196	73.41644
484.4	72.28428
484.604	72.02915
484.809	66.49006
485.013	62.78751
485.217	57.28614
485.422	51.25351
485.626	46.55184
485.83	43.41662
486.034	41.49893
486.239	42.11897
486.443	43.15054
486.647	44.56911
486.851	47.29274
487.055	50.52369
487.26	51.55761
487.464	53.87048
487.668	53.52942
487.872	55.2349
488.076	55.00048
488.28	53.16565
488.484	49.98625
488.688	48.50842
488.892	45.38699
489.096	42.1323
489.3	39.00705
489.504	36.42966
489.708	34.29991
489.912	33.27186
490.116	32.14862
490.32	32.20402
490.524	34.50206
490.728	36.54595
490.932	39.03689
491.136	41.8747
491.34	44.46751
491.544	45.77937
491.748	46.15152
491.951	46.08219
492.155	45.02572
492.359	43.48974
492.563	40.21934
492.767	38.14877
492.97	34.18034
493.174	30.34197
493.378	27.70178
493.582	24.74875
493.785	23.52939
493.989	22.78803
494.193	21.69027
494.396	20.7405
494.6	21.0967
494.804	20.8373
495.007	21.88695
495.211	21.76857
495.414	22.04764
495.618	22.07338
495.822	22.79873
496.025	22.06673
496.229	22.75675
496.432	22.7433
496.636	23.42562
496.839	23.68083
497.043	24.59535
497.246	24.12158
497.45	23.81507
497.653	24.18883
497.856	23.6317
498.06	23.09449
498.263	22.88711
498.467	22.86322
498.67	23.42382
498.873	23.14635
499.077	22.7993
499.28	22.749
499.483	23.09229
499.686	23.52718
499.89	22.88224
500.093	23.48292
500.296	22.53784
500.499	23.99729
500.703	22.98153
500.906	23.12078
501.109	23.93666
501.312	22.87091
501.515	22.79465
501.719	22.92352
501.922	23.57115
502.125	22.7754
502.328	22.78745
502.531	22.12759
502.734	22.68681
502.937	21.48544
503.14	22.7977
503.343	21.96779
503.546	22.30524
503.749	22.31249
503.952	23.00869
504.155	22.1947
504.358	23.13218
504.561	23.01155
504.764	22.22573
504.967	23.16589
505.17	22.74757
505.373	23.9862
505.576	22.77783
505.778	23.32848
505.981	22.02781
506.184	23.60013
506.387	21.69586
506.59	23.97423
506.793	23.58162
506.995	23.26342
507.198	21.43329
507.401	23.07307
507.604	22.96953
507.806	21.95412
508.009	22.19277
508.212	23.28833
508.414	22.23855
508.617	22.50913
508.82	22.84389
509.022	23.96902
509.225	23.28571
509.427	22.41433
509.63	23.56633
509.833	23.16344
510.035	22.77842
510.238	22.2446
510.44	24.03354
510.643	22.06479
510.845	24.33175
511.048	23.31184
511.25	22.62578
511.453	22.84006
511.655	23.41483
511.858	22.95104
512.06	23.54431
512.262	23.43458
512.465	23.86661
512.667	23.14345
512.869	22.81827
513.072	23.69435
513.274	23.889
513.476	23.80469
513.679	23.88294
513.881	22.84301
514.083	24.41724
514.286	23.22659
514.488	22.83712
514.69	22.80656
514.892	22.57447
515.094	23.76081
515.297	23.03757
515.499	23.2839
515.701	22.75926
515.903	24.33522
516.105	24.37203
516.307	23.37622
516.509	21.76116
516.711	22.05954
516.913	22.73763
517.116	22.73934
517.318	22.46774
517.52	23.3025
517.722	23.23418
517.924	23.10764
518.126	24.85973
518.328	24.82219
518.529	26.13947
518.731	26.69258
518.933	24.94039
519.135	25.41858
519.337	25.9018
519.539	24.6941
519.741	23.0423
519.943	23.8307
520.145	23.81111
520.346	24.28097
520.548	23.83091
520.75	23.94585
520.952	23.88903
521.153	23.96742
521.355	23.8507
521.557	22.89702
521.759	23.68053
521.96	23.36231
522.162	22.74974
522.364	24.2556
522.565	23.08638
522.767	23.71459
522.969	24.05216
523.17	23.62832
523.372	23.34914
523.573	23.04462
523.775	23.26308
523.977	22.34336
524.178	24.18296
524.38	22.58553
524.581	23.03305
524.783	22.4187
524.984	24.51346
525.186	24.89405
525.387	26.47572
525.589	26.85558
525.79	27.26485
525.991	27.66829
526.193	28.74158
526.394	28.18041
526.596	29.28302
526.797	30.43201
526.998	30.01036
527.2	31.87691
527.401	35.83441
527.602	38.89882
527.803	44.4719
528.005	48.4551
528.206	52.07861
528.407	54.95166
528.608	56.31124
528.81	57.23184
529.011	56.35972
529.212	56.79181
529.413	53.8738
529.614	50.59939
529.815	47.16603
530.017	43.1067
530.218	38.27461
530.419	34.67748
530.62	32.30116
530.821	30.47675
531.022	28.15016
531.223	28.68827
531.424	27.9958
531.625	28.47061
531.826	28.22702
532.027	29.65261
532.228	31.98186
532.429	33.38615
532.63	35.17591
532.831	37.30227
533.032	37.95956
533.233	39.71978
533.433	39.0346
533.634	39.59845
533.835	38.17007
534.036	36.86275
534.237	34.938
534.438	32.9861
534.638	29.52995
534.839	28.09406
535.04	26.72724
535.241	25.62699
535.441	26.49694
535.642	26.02082
535.843	25.73702
536.043	26.55371
536.244	27.13284
536.445	27.92454
536.645	28.66748
536.846	28.69399
537.047	28.74773
537.247	27.08847
537.448	26.25814
537.648	25.80191
537.849	24.52736
538.049	24.82918
538.25	24.78785
538.451	25.05776
538.651	23.95123
538.851	24.11272
539.052	24.82462
539.252	24.29918
539.453	23.26586
539.653	23.46703
539.854	23.64028
540.054	25.90091
540.254	29.29445
540.455	32.53715
540.655	34.21349
540.855	38.23412
541.056	40.90815
541.256	41.69613
541.456	43.07073
541.657	43.09546
541.857	43.4534
542.057	41.33435
542.257	39.69889
542.458	38.95561
542.658	36.68388
542.858	33.40097
543.058	32.22032
543.258	30.49796
543.458	27.76576
543.659	26.6198
543.859	26.76126
544.059	26.06156
544.259	24.70105
544.459	25.18692
544.659	24.31128
544.859	24.55359
545.059	24.00917
545.259	24.73506
545.459	24.15818
545.659	24.57587
545.859	23.77165
546.059	23.89416
546.259	23.5771
546.459	23.39568
546.659	23.55412
546.859	24.90226
547.059	24.6725
547.258	24.75735
547.458	25.1762
547.658	24.22419
547.858	24.17807
548.058	25.08559
548.258	24.6845
548.457	24.34401
548.657	26.3875
548.857	24.71645
549.057	25.37554
549.256	24.89502
549.456	24.06015
549.656	22.72776
549.855	25.77858
550.055	24.00003
550.255	25.93946
550.454	24.33119
550.654	24.67991
550.853	25.1162
551.053	24.6699
551.253	24.47827
551.452	24.18967
551.652	22.97567
551.851	22.98992
552.051	23.67294
552.25	23.5463
552.45	23.29421
552.649	23.95225
552.849	23.53913
553.048	23.97948
553.248	24.83933
553.447	23.69706
553.646	24.89264
553.846	25.97453
554.045	25.30746
554.244	23.64732
554.444	25.61911
554.643	23.90964
554.842	25.71773
555.042	25.98993
555.241	23.93348
555.44	23.44649
555.64	25.03542
555.839	26.23273
556.038	24.75338
556.237	23.76355
556.436	24.58555
556.636	24.71488
556.835	23.53834
557.034	25.86008
557.233	24.24464
557.432	23.07148
557.631	25.39702
557.83	24.00887
558.029	23.90682
558.228	23.73216
558.427	23.59605
558.626	25.03833
558.825	23.21255
559.024	24.38217
559.223	25.84058
559.422	24.13336
559.621	24.76622
559.82	21.87337
560.019	24.20616
560.218	23.90804
560.417	22.09613
560.616	23.47459
560.815	26.9134
561.014	23.17985
561.212	25.73027
561.411	24.30435
561.61	23.00691
561.809	23.9799
562.008	25.38266
562.206	24.44676
562.405	24.80176
562.604	24.22935
562.803	24.59395
563.001	24.153
563.2	23.36843
563.399	24.43808
563.597	23.2224
563.796	24.23184
563.995	23.10108
564.193	24.87373
564.392	23.6698
564.59	25.56502
564.789	22.60932
564.988	23.46703
565.186	24.21172
565.385	23.51377
565.583	23.67967
565.782	24.17073
565.98	24.1599
566.179	24.22635
566.377	23.60114
566.575	24.20172
566.774	25.81069
566.972	25.33224
567.171	26.41066
567.369	26.0571
567.567	24.91515
567.766	25.15857
567.964	23.03949
568.162	24.87618
568.361	25.35473
568.559	24.2322
568.757	24.77056
568.956	24.48146
569.154	24.44566
569.352	24.89865
569.55	24.46562
569.748	24.37545
569.947	24.00477
570.145	23.52342
570.343	23.48075
570.541	25.22151
570.739	23.21428
570.937	24.27291
571.135	24.59901
571.333	25.79681
571.532	25.59736
571.73	24.55407
571.928	25.41381
572.126	24.90871
572.324	24.19321
572.522	25.95273
572.72	26.97491
572.918	25.07858
573.116	25.26332
573.313	25.0644
573.511	24.8721
573.709	24.21518
573.907	25.83176
574.105	24.62754
574.303	23.15378
574.501	23.28582
574.699	25.38109
574.896	25.14363
575.094	25.02831
575.292	23.19023
575.49	25.51272
575.688	24.69989
575.885	25.7772
576.083	26.61645
576.281	25.54644
576.478	23.94219
576.676	25.68154
576.874	23.55948
577.071	24.62603
577.269	27.17367
577.467	24.84504
577.664	24.65416
577.862	26.05708
578.059	23.85875
578.257	25.67853
578.455	24.52745
578.652	25.26468
578.85	22.81061
579.047	24.75114
579.245	24.52022
579.442	24.51637
579.64	24.74627
579.837	22.75293
580.034	27.5031
580.232	24.71679
580.429	23.25509
580.627	25.20899
580.824	26.34004
581.021	25.25149
581.219	23.92075
581.416	23.6867
581.613	26.50772
581.811	26.19731
582.008	23.75568
582.205	25.4233
582.402	25.01644
582.6	26.18685
582.797	24.2087
582.994	24.84273
583.191	25.53505
583.388	24.4391
583.586	25.15785
583.783	25.56118
583.98	24.23344
584.177	25.04301
584.374	21.85539
584.571	24.45985
584.768	24.46571
584.965	23.86943
585.162	24.87481
585.359	26.78148
585.556	24.59569
585.753	25.17136
585.95	23.63072
586.147	24.12096
586.344	25.21679
586.541	24.50564
586.738	23.09623
586.935	24.01746
587.132	24.12189
587.329	25.89835
587.526	24.47711
587.722	29.71862
587.919	23.04784
588.116	25.19425
588.313	25.8354
588.51	26.98595
588.706	23.57614
588.903	25.23202
589.1	25.33606
589.297	26.98959
589.493	24.89976
589.69	25.44107
589.887	24.4374
590.083	23.89064
590.28	24.5566
590.477	25.48347
590.673	25.70625
590.87	26.27214
591.067	25.02759
591.263	25.56307
591.46	25.55953
591.656	24.35093
591.853	26.58344
592.049	24.27494
592.246	24.43486
592.442	26.29842
592.639	25.88948
592.835	23.51421
593.032	25.25891
593.228	22.93445
593.425	22.94374
593.621	22.52001
593.817	24.95319
594.014	23.67927
594.21	24.47828
594.406	25.75777
594.603	25.53317
594.799	24.24749
594.995	22.461
595.192	26.07053
595.388	24.14119
595.584	24.42271
595.78	23.14535
595.977	26.8198
596.173	26.23588
596.369	24.11816
596.565	23.65085
596.761	23.13657
596.957	26.29839
597.154	24.23034
597.35	24.91066
597.546	24.45194
597.742	26.253
597.938	25.49423
598.134	25.13071
598.33	26.09822
598.526	27.25255
598.722	26.08271
598.918	27.5986
599.114	26.08508
599.31	24.01636
599.506	25.34713
599.702	24.25174
599.898	24.87329
600.094	25.62727
600.29	25.3414
600.485	26.26927
600.681	23.77385
600.877	27.07545
601.073	24.79253
601.269	27.20464
601.465	25.92746
601.66	23.77382
601.856	22.21549
602.052	26.71591
602.248	23.89766
602.443	22.84813
602.639	22.88332
602.835	23.52144
603.03	23.24051
603.226	25.58264
603.422	23.44107
603.617	23.89116
603.813	23.92131
604.009	23.99268
604.204	26.01299
604.4	23.75613
604.595	26.22803
604.791	24.04742
604.986	25.54051
605.182	24.69504
605.377	25.14994
605.573	25.29671
605.768	25.95938
605.964	26.78964
606.159	26.86661
606.355	26.86735
606.55	25.25109
606.746	27.38599
606.941	25.12061
607.136	28.06471
607.332	29.02577
607.527	23.00725
607.722	25.00174
607.918	24.43208
608.113	23.6428
608.308	25.65493
608.503	25.16687
608.699	25.25128
608.894	25.43014
609.089	23.84923
609.284	24.92135
609.479	24.55359
609.675	26.16542
609.87	25.37821
610.065	26.4142
610.26	27.15609
610.455	26.42501
610.65	25.4965
610.845	26.01381
611.04	27.06424
611.235	25.81755
611.43	25.08409
611.625	24.05056
611.82	27.78547
612.015	24.63328
612.21	27.16922
612.405	23.19295
612.6	28.00081
612.795	26.96116
612.99	26.08319
613.185	24.02421
613.38	23.79666
613.575	24.82662
613.77	29.26342
613.965	22.89579
614.159	24.47616
614.354	26.9646
614.549	26.18271
614.744	26.4965
614.938	23.7784
615.133	23.02916
615.328	27.75821
615.523	26.5032
615.717	29.06545
615.912	23.95386
616.107	25.62093
616.301	24.9397
616.496	24.62112
616.691	27.51796
616.885	26.48875
617.08	29.68579
617.274	26.84984
617.469	27.81817
617.664	26.25714
617.858	24.672
618.053	26.32843
618.247	24.78749
618.442	22.37049
618.636	27.78807
618.831	24.14974
619.025	24.49282
619.219	29.53296
619.414	21.02661
619.608	25.29643
619.803	24.36464
619.997	28.79971
620.191	27.39544
620.386	25.99805
620.58	25.21337
620.774	23.12586
620.969	23.01188
621.163	25.51923
621.357	23.53953
621.551	24.99724
621.746	25.85263
621.94	24.37604
622.134	30.21693
622.328	29.3174
622.522	22.86023
622.716	26.53817
622.911	27.06808
623.105	27.05217
623.299	25.8268
623.493	30.15891
623.687	24.12226
623.881	24.62486
624.075	26.18766
624.269	27.2246
624.463	22.04952
624.657	22.47588
624.851	26.17354
625.045	26.65905
625.239	26.69147
625.433	25.21297
625.627	27.23219
625.821	24.33012
626.015	23.93402
626.209	25.44086
626.403	23.34556
626.596	26.21842
626.79	26.66027
626.984	24.20086
627.178	26.85816
627.372	26.64951
627.565	27.14309
627.759	24.0202
627.953	24.65148
628.147	27.20376
628.34	27.08768
628.534	29.41374
628.728	25.61804
628.921	27.42509
629.115	26.75831
629.309	27.56848
629.502	27.85236
629.696	26.11026
629.89	25.78993
630.083	26.45642
630.277	27.01501
630.47	29.14226
630.664	25.71352
630.857	23.02304
631.051	27.00139
631.244	27.81846
631.438	26.96744
631.631	24.16441
631.825	28.33682
632.018	26.71573
632.212	28.85644
632.405	27.90928
632.598	24.0823
632.792	25.77212
632.985	22.05864
633.178	25.71607
633.372	25.58183
633.565	25.60582
633.758	28.36908
633.952	24.01525
634.145	24.02226
634.338	25.8266
634.531	24.9614
634.724	25.3624
634.918	25.93935
635.111	26.10469
635.304	25.18711
635.497	30.26648
635.69	26.31936
635.883	28.54816
636.077	24.69565
636.27	26.66291
636.463	25.96064
636.656	26.24968
636.849	24.7652
637.042	27.57395
637.235	28.56467
637.428	27.61085
637.621	27.84013
637.814	29.15354
638.007	29.19028
638.2	28.09139
638.393	29.39809
638.586	23.87746
638.778	25.83087
638.971	26.10599
639.164	28.96653
639.357	26.35447
639.55	29.24287
639.743	28.19702
639.935	26.44157
640.128	29.90762
640.321	27.7474
640.514	26.3249
640.707	30.68049
640.899	27.32486
641.092	22.39427
641.285	42.31935
641.477	21.18617
641.67	31.40572
641.863	28.97784
642.055	26.51631
642.248	25.46756
642.441	25.26528
642.633	26.87875
642.826	29.43541
643.018	29.3686
643.211	31.30229
643.403	30.41157
643.596	31.33312
643.788	30.45735
643.981	26.65701
644.173	28.56024
644.366	26.43572
644.558	22.45258
644.751	28.60555
644.943	22.95458
645.135	29.32804
645.328	30.48317
645.52	27.52016
645.712	29.31868
645.905	33.15938
646.097	23.58099
646.289	26.55172
646.482	32.28964
646.674	25.31594
646.866	28.90955
647.058	27.82346
647.251	23.80104
647.443	25.237
647.635	26.49917
647.827	23.3369
648.019	25.74856
648.211	26.62637
648.404	26.71454
648.596	30.89953
648.788	27.03114
648.98	26.86729
649.172	27.803
649.364	27.76705
649.556	23.02236
649.748	33.61632
649.94	24.93146
650.132	27.62437
650.324	23.94728
650.516	25.5084
650.708	29.91077
650.9	23.30706
651.092	26.63166
651.284	23.79732
651.476	24.63268
651.667	28.95269
651.859	29.60767
652.051	26.70679
652.243	26.80756
652.435	25.82319
652.627	29.1671
652.818	28.08495
653.01	23.14141
653.202	24.53911
653.394	25.08619
653.585	28.26631
653.777	37.84147
653.969	29.81611
654.16	29.74717
654.352	24.01363
654.544	25.98226
654.735	29.87295
654.927	27.67061
655.118	30.58146
655.31	28.26575
655.502	29.95396
655.693	25.36423
655.885	29.49753
656.076	29.92149
656.268	27.56896
656.459	31.43819
656.651	30.5349
656.842	25.24388
657.034	24.92246
657.225	28.89565
657.416	30.46106
657.608	30.15752
657.799	26.84759
657.99	29.60972
658.182	25.19722
658.373	26.13513
658.564	28.75994
658.756	27.55387
658.947	26.78565
659.138	25.02156
659.33	26.81198
659.521	26.37468
659.712	28.20885
659.903	27.67977
660.094	27.1849
660.286	24.74127
660.477	32.64876
660.668	30.01601
660.859	28.4832
661.05	24.58302
661.241	30.54861
661.432	29.43185
661.623	26.846
661.814	26.41469
662.006	24.09123
662.197	28.35039
662.388	31.59216
662.579	28.09506
662.77	30.62845
662.96	35.09781
663.151	29.40039
663.342	23.22052
663.533	29.34083
663.724	28.18468
663.915	33.27869
664.106	27.43767
664.297	33.51156
664.488	29.35894
664.678	26.21419
664.869	30.07265
665.06	29.42862
665.251	28.72125
665.442	29.2974
665.632	24.65309
665.823	32.40637
666.014	20.07889
666.204	30.27013
666.395	32.60177
666.586	36.78699
666.776	30.00904
666.967	32.90908
667.158	28.5511
667.348	31.61991
667.539	25.7104
667.729	30.92373
667.92	25.9085
668.111	30.82628
668.301	29.59796
668.492	28.15928
668.682	27.76271
668.873	28.17857
669.063	25.39978
669.253	30.00916
669.444	30.5768
669.634	27.93253
669.825	33.8366
670.015	32.19614
670.206	25.99433
670.396	33.03733
670.586	28.37908
670.777	30.34775
670.967	22.41672
671.157	27.83059
671.347	26.13615
671.538	32.67945
671.728	30.40333
671.918	35.30793
672.108	31.37856
672.299	27.77777
672.489	29.8514
672.679	26.64805
672.869	29.5459
673.059	35.13616
673.249	31.15944
673.44	25.10709
673.63	28.63759
673.82	32.21698
674.01	26.25579
674.2	30.07559
674.39	37.84926
674.58	31.91295
674.77	28.6626
674.96	27.28945
675.15	41.47514
675.34	33.77645
675.53	28.8895
675.72	29.08981
675.91	23.94498
676.099	35.87663
676.289	36.2928
676.479	32.41943
676.669	27.83646
676.859	31.22896
677.049	26.93148
677.238	29.39619
677.428	35.13195
677.618	30.90543
677.808	33.95953
677.997	30.92133
678.187	25.18355
678.377	29.39505
678.567	27.98132
678.756	27.7466
678.946	28.73436
679.136	24.48864
679.325	28.02736
679.515	26.64267
679.704	26.62223
679.894	31.4512
680.084	30.49509
680.273	32.67742
680.463	28.58612
680.652	27.28611
680.842	29.50683
681.031	33.70195
681.221	28.63135
681.41	32.95479
681.6	29.97475
681.789	33.01205
681.978	34.21306
682.168	31.6394
682.357	31.14033
682.547	32.13658
682.736	30.94868
682.925	34.80085
683.115	34.82864
683.304	34.33381
683.493	31.92829
683.682	31.99617
683.872	32.86136
684.061	35.48482
684.25	32.77042
684.439	37.38815
684.629	33.2427
684.818	43.28408
685.007	31.04403
685.196	29.61945
685.385	37.14422
685.574	32.14208
685.763	33.19108
685.952	32.46134
686.142	28.78254
686.331	34.9823
686.52	25.10199
686.709	37.18459
686.898	36.12639
687.087	34.21794
687.276	39.0037
687.465	35.25023
687.654	30.68587
687.842	37.78131
688.031	28.49398
688.22	37.14094
688.409	32.17731
688.598	32.21976
688.787	41.96583
688.976	33.06387
689.165	38.86155
689.353	30.62229
689.542	34.89049
689.731	36.21795
689.92	39.53202
690.108	35.45565
690.297	31.27781
690.486	33.39348
690.675	36.42744
690.863	39.65718
691.052	39.35348
691.241	33.2818
691.429	32.57995
691.618	40.6444
691.806	28.53701
691.995	31.18635
692.184	33.75882
692.372	31.15164
692.561	33.85262
692.749	33.28182
692.938	44.63704
693.126	35.02634
693.315	33.29362
693.503	36.71943
693.692	35.19749
693.88	37.99068
694.068	42.32346
694.257	33.41784
694.445	36.15351
694.634	25.41408
694.822	36.91268
695.01	38.03159
695.199	40.09489
695.387	39.70588
695.575	38.43992
695.763	32.9476
695.952	30.91533
696.14	28.11098
696.328	31.36498
696.516	33.01532
696.705	34.89276
696.893	34.39729
697.081	26.01561
697.269	36.73043
697.457	29.3424
697.645	28.70128
697.833	35.54304
698.021	30.99498
698.21	32.26899
698.398	32.31242
698.586	29.21611
698.774	29.92615
698.962	32.42702
699.15	30.98861
699.338	29.26773
699.526	36.80394
699.714	31.69932
699.901	32.90856
700.089	38.91554
700.277	33.1741
700.465	34.91789
700.653	39.02936
700.841	36.20006
701.029	31.79939
701.217	40.56356
701.404	35.35432
701.592	41.30583
701.78	43.27227
701.968	33.98552
702.155	33.76406
702.343	28.26767
702.531	42.41464
702.718	37.09522
702.906	33.71947
703.094	32.69937
703.281	41.1227
703.469	35.68884
703.657	40.48265
703.844	49.78589
704.032	44.76059
704.219	31.63856
704.407	36.22872
704.595	39.71985
704.782	35.76713
704.97	34.01597
705.157	32.77853
705.345	42.42782
705.532	49.7802
705.719	37.36664
705.907	40.68882
706.094	36.10579
706.282	44.20482
706.469	34.12333
706.656	36.47688
706.844	33.71718
707.031	40.63591
707.218	36.52988
707.406	44.61308
707.593	39.80392
707.78	39.77797
707.968	36.59653
708.155	32.51837
708.342	38.76308
708.529	38.51808
708.716	37.12763
708.904	45.49573
709.091	40.06365
709.278	30.84206
709.465	48.63759
709.652	44.97609
709.839	44.87069
710.026	39.90374
710.213	30.04021
710.4	39.5844
710.587	42.54931
710.774	43.4607
710.961	43.87444
711.148	38.99477
711.335	43.09444
711.522	35.45885
711.709	40.30153
711.896	50.14071
712.083	41.65032
712.27	34.57973
712.457	40.20179
712.644	31.79446
712.831	50.64367
713.017	40.88566
713.204	41.60387
713.391	37.38167
713.578	44.46722
713.765	46.35813
713.951	40.26648
714.138	58.29881
714.325	42.6632
714.512	39.26695
714.698	34.95995
714.885	46.84238
715.072	40.79295
715.258	40.73052
715.445	36.81444
715.631	46.85039
715.818	26.60317
716.005	36.91968
716.191	42.93364
716.378	36.80874
716.564	45.98463
716.751	36.40174
716.937	37.64678
717.124	45.98128
717.31	36.58751
717.497	50.27352
717.683	37.67665
717.869	54.9198
718.056	39.14837
718.242	44.03361
718.429	39.33619
718.615	34.9156
718.801	41.3015
718.988	46.76359
719.174	44.04933
719.36	39.28947
719.547	46.44549
719.733	41.88706
719.919	44.81714
720.105	48.37452
720.291	40.15811
720.478	42.65159
720.664	42.13659
720.85	40.46679
721.036	58.09842
721.222	52.23777
721.408	42.02856
721.595	52.28824
721.781	52.90959
721.967	48.90998
722.153	54.67659
722.339	45.41522
722.525	43.89063
722.711	35.9013
722.897	35.3043
723.083	37.27503
723.269	46.60099
723.455	58.65485
723.641	64.56707
723.827	44.14857
724.012	46.25033
724.198	42.84032
724.384	50.45656
724.57	48.40903
724.756	35.15773
724.942	31.36428
725.127	48.08938
725.313	53.46557
725.499	50.99942
725.685	56.20117
725.87	45.64614
726.056	38.2218
726.242	52.25501
726.428	32.54827
726.613	49.82198
726.799	41.86372
726.985	36.48526
727.17	33.41474
727.356	55.37914
727.541	36.44826
727.727	42.24269
727.913	47.15513
728.098	39.60034
728.284	48.80396
728.469	35.66869
728.655	38.05204
728.84	49.6391
729.026	48.94187
729.211	51.15157
729.397	46.72078
729.582	46.86856
729.767	44.89116
729.953	46.78043
730.138	51.11211
730.323	29.66758
730.509	37.1022
730.694	56.40551
730.879	48.49491
731.065	43.36512
731.25	58.53951
731.435	48.81528
731.621	35.2998
731.806	40.59118
731.991	46.17057
732.176	34.22802
732.361	52.75601
732.547	48.80126
732.732	33.75767
732.917	60.50081
733.102	35.82944
733.287	39.45276
733.472	44.89224
733.657	45.02313
733.842	34.39413
734.027	40.39006
734.212	42.0014
734.397	39.9384
734.582	45.90895
734.767	51.51351
734.952	55.25622
735.137	26.84007
735.322	55.01106
735.507	47.81012
735.692	46.92054
735.877	61.37955
736.062	59.42971
736.247	48.75506
736.431	42.07635
736.616	54.01177
736.801	46.96594
736.986	44.57901
737.171	42.4257
737.355	34.3281
737.54	54.0585
737.725	44.10053
737.909	66.32861
738.094	40.86607
738.279	52.41952
738.463	42.60374
738.648	51.62638
738.833	50.13182
739.017	60.30273
739.202	42.41726
739.386	41.58114
739.571	38.63578
739.756	53.07146
739.94	46.28172
740.125	54.33124
740.309	40.12305
740.494	53.89872
740.678	46.47303
740.863	51.73318
741.047	47.63503
741.231	57.8179
741.416	41.38046
741.6	60.66723
741.785	38.9837
741.969	54.32448
742.153	58.08206
742.338	28.95516
742.522	47.21246
742.706	53.94245
742.89	34.76649
743.075	48.22486
743.259	58.21194
743.443	57.48415
743.627	58.50762
743.812	67.7171
743.996	33.94473
744.18	45.45261
744.364	41.85949
744.548	69.35594
744.732	46.76335
744.916	55.45696
745.1	54.04031
745.285	45.48601
745.469	51.39865
745.653	63.10389
745.837	35.87362
746.021	68.35039
746.205	59.87032
746.389	51.45036
746.573	44.95425
746.757	60.37089
746.94	44.70934
747.124	62.27099
747.308	37.25571
747.492	54.40015
747.676	42.41907
747.86	72.18984
748.044	42.18079
748.227	32.31107
748.411	84.99884
748.595	52.13886
748.779	38.63232
748.963	53.42919
749.146	51.05031
749.33	41.74522
749.514	40.59571
749.697	57.37503
749.881	42.84155
750.065	40.30718
750.248	50.30567
750.432	72.65042
750.616	47.88949
750.799	36.30263
750.983	70.04183
751.166	74.24136
751.35	36.02596
751.533	54.83302
751.717	62.47662
751.9	63.02294
752.084	44.07727
752.267	36.5046
752.451	43.98778
752.634	50.811
752.818	53.33729
753.001	59.28639
753.184	62.28118
753.368	55.10453
753.551	17.63797
753.734	40.01514
753.918	72.08803
754.101	41.39561
754.284	54.63859
754.467	46.22511
754.651	46.99154
754.834	43.62777
755.017	61.91511
755.2	61.92656
755.384	40.63186
755.567	59.75553
755.75	59.94908
755.933	50.11097
756.116	51.78331
756.299	46.45399
756.482	39.12664
756.665	54.6238
756.848	49.62402
757.032	57.54825
757.215	34.16784
757.398	40.97114
757.581	42.65611
757.764	80.63885
757.947	47.69424
758.129	62.95967
758.312	20.92305
758.495	45.71102
758.678	50.04429
758.861	48.03066
759.044	70.79119
759.227	41.74599
759.41	46.10811
759.592	58.30901
759.775	49.96168
759.958	61.071
760.141	37.14773
760.324	75.94819
760.506	66.58811
760.689	59.75033
760.872	76.88444
761.054	58.13147
761.237	48.80736
761.42	53.67676
761.602	59.13866
761.785	56.166
761.968	62.68467
762.15	67.42912
762.333	47.13243
762.515	52.53033
762.698	45.48444
762.88	56.81876
763.063	52.14035
763.245	57.54432
763.428	39.64405
763.61	44.51662
763.793	38.19196
763.975	52.1818
764.158	46.26429
764.34	45.99404
764.522	42.26152
764.705	49.01744
764.887	63.4779
765.069	37.25521
765.252	58.54766
765.434	58.84121
765.616	52.34508
765.799	44.68793
765.981	57.75877
766.163	45.16312
766.345	63.25177
766.528	44.16113
766.71	28.17045
766.892	53.15064
767.074	68.40178
767.256	49.44455
767.438	72.12658
767.62	57.43647
767.802	74.4463
767.985	60.75047
768.167	76.62329
768.349	49.24789
768.531	58.69805
768.713	61.08527
768.895	63.44822
769.077	55.53599
769.259	83.01836
769.441	115.25007
769.623	65.88065
769.804	74.93516
769.986	70.95133
770.168	86.4409
770.35	92.99687
770.532	77.08625
770.714	80.02202
770.896	87.63393
771.077	44.90981
771.259	87.47721
771.441	68.36484
771.623	95.63172
771.804	114.61612
771.986	39.91575
772.168	58.32658
772.35	91.37847
772.531	113.24638
772.713	71.65736
772.894	97.61904
773.076	72.20945
773.258	63.99332
773.439	99.45817
773.621	107.65573
773.802	56.15843
773.984	73.34191
774.166	80.44071
774.347	101.10362
774.529	93.00349
774.71	36.4531
774.891	67.4999
775.073	66.33218
775.254	98.98807
775.436	63.57871
775.617	116.41959
775.799	60.10349
775.98	102.73606
776.161	106.11548
776.343	106.18839
776.524	73.9407
776.705	61.38402
776.886	37.79436
777.068	84.19948
777.249	134.09166
777.43	117.5375
777.611	48.31304
777.793	75.09015
777.974	104.59993
778.155	62.75817
778.336	53.53786
778.517	117.35703
778.698	59.54992
778.879	36.87319
779.061	19.91573
779.242	83.74332
779.423	82.14691
779.604	63.79458
779.785	70.8396
779.966	73.90815
780.147	95.57506
780.328	94.59628
780.509	124.05226
780.69	94.07673
780.871	63.95599
781.051	46.28159
781.232	79.20169
781.413	73.71161
781.594	64.54774
781.775	67.08981
781.956	59.1378
782.137	37.11153
782.317	65.69392
782.498	80.97431
782.679	79.18112
782.86	76.05905
783.04	58.90312
783.221	85.96749
783.402	115.54678
783.583	77.92621
783.763	91.74708
783.944	66.69682
784.124	42.56016
784.305	104.01558
784.486	82.90888
784.666	67.43931
784.847	42.48955
785.027	131.82018
785.208	61.38006
785.388	57.94051
785.569	63.51259
785.749	69.49818
785.93	62.87675
786.11	44.20051
786.291	82.14814
786.471	79.54493
786.652	90.98599
786.832	70.40979
787.012	83.68835
787.193	53.06
787.373	73.3527
787.553	66.76957
787.734	79.71965
787.914	68.06457
788.094	88.4201
788.275	83.46649
788.455	65.79561
788.635	48.46316
788.815	75.43747
788.995	55.60426
789.176	47.78024
789.356	60.22457
789.536	66.03553
789.716	80.99188
789.896	57.61417
790.076	62.55553
790.256	80.02778
790.436	29.87989
790.616	58.27704
790.796	77.39703
790.976	62.99033
791.156	58.54197
791.336	87.08799
791.516	82.1759
791.696	71.80574
791.876	43.13462
792.056	76.29319
792.236	93.27014
792.416	89.67266
792.596	76.015
792.776	81.55621
792.956	87.9734
793.135	105.75484
793.315	53.16232
793.495	103.76833
793.675	88.89161
793.854	91.6903
794.034	91.50196
794.214	51.01738
794.394	87.53023
794.573	100.65916
794.753	78.5035
794.933	59.92774
795.112	78.55909
795.292	89.58826
795.472	111.26212
795.651	48.96359
795.831	69.87881
796.01	64.40898
796.19	62.38163
796.369	73.74248
796.549	83.43641
796.728	67.78757
796.908	49.44365
797.087	49.85929
797.267	70.17609
797.446	48.66851
797.626	83.23548
797.805	82.94979
797.984	60.58523
798.164	89.67873
798.343	59.68541
798.522	77.73235
798.702	72.80112
798.881	52.19788
799.06	63.53591
799.239	36.11087
799.419	51.64703
799.598	105.68904
799.777	83.47716
799.956	100.65826
800.136	66.76085
800.315	55.01449
800.494	81.07838
800.673	97.60257
800.852	87.11175
801.031	96.19792
801.21	89.79946
801.389	59.69474
801.568	77.04545
801.747	113.879
801.926	73.13554
802.105	110.07846
802.284	65.54285
802.463	107.25045
802.642	80.10631
802.821	77.42743
803	97.94628
803.179	89.63886
803.358	103.16188
803.537	60.55601
803.716	77.9996
803.895	56.37452
804.073	73.71022
804.252	60.69601
804.431	83.03135
804.61	66.59768
804.789	101.17901
804.967	62.60085
805.146	65.29568
805.325	121.02574
805.503	84.13571
805.682	50.24329
805.861	140.97312
806.039	107.15533
806.218	70.24249
806.397	82.73533
806.575	79.20329
806.754	84.52677
806.932	61.19271
807.111	105.90436
807.289	102.51283
807.468	78.02758
807.646	99.17763
807.825	92.72394
808.003	83.76115
808.182	100.22056
808.36	79.0754
808.539	59.02415
808.717	109.6993
808.895	55.7163
809.074	84.54467
809.252	80.71228
809.43	100.72005
809.609	107.46343
809.787	131.87788
809.965	76.77173
810.144	83.42465
810.322	78.30159
810.5	91.21662
810.678	77.58713
810.856	130.52191
811.035	112.13096
811.213	105.78328
811.391	107.16928
811.569	87.72661
811.747	161.05957
811.925	116.8344
812.103	60.57278
812.281	81.28794
812.459	127.10772
812.637	125.06871
812.816	100.6537
812.994	129.93041
813.171	110.18375
813.349	95.43924
813.527	113.167
813.705	110.72698
813.883	136.62886
814.061	113.5624
814.239	136.74949
814.417	143.8142
814.595	99.33214
814.773	92.58568
814.95	93.46143
815.128	97.21086
815.306	92.49108
815.484	85.20293
815.662	64.62077
815.839	59.67871
816.017	74.71353
816.195	120.41754
816.372	78.59267
816.55	107.56152
816.728	122.59459
816.905	79.64456
817.083	116.43264
817.261	89.96654
817.438	151.6415
817.616	131.61119
817.793	64.65311
817.971	108.32112
818.148	98.05801
818.326	131.26299
818.503	92.24594
818.681	125.25926
818.858	73.18938
819.036	83.29852
819.213	88.39077
819.391	70.9288
819.568	62.32215
819.745	62.78375
819.923	99.37723
820.1	73.87735
820.277	65.89838
820.455	73.31947
820.632	74.10734
820.809	78.6389
820.986	55.74178
821.164	46.6178
821.341	42.92412
821.518	54.47321
821.695	45.0681
821.872	43.59309
822.05	39.96236
822.227	35.81067
822.404	37.85679
822.581	41.64222
822.758	39.59766
822.935	39.90432
823.112	43.13954
823.289	40.46675
823.466	44.86557
823.643	44.31163
823.82	50.87622
823.997	48.62503
824.174	54.84468
824.351	64.32802
824.528	63.0096
824.705	59.80179
824.882	62.25118
825.059	73.68275
825.236	58.18978
825.412	61.65534
825.589	67.96499
825.766	86.42206
825.943	58.91955
826.12	66.45958
826.296	52.06812
826.473	59.52541
826.65	57.9408
826.827	68.07583
827.003	49.58442
827.18	53.74064
827.357	58.82836
827.533	52.84863
827.71	39.29736
827.887	49.7221
828.063	57.14474
828.24	52.27624
828.416	61.65859
828.593	56.39757
828.769	74.48567
828.946	74.87748
829.122	81.06779
829.299	80.7091
829.475	49.54363
829.652	81.28017
829.828	109.20904
830.005	71.51617
830.181	99.23114
830.357	75.01619
830.534	101.66172
830.71	87.91935
830.886	98.82554
831.063	93.98193
831.239	117.09694
831.415	56.48667
831.592	122.70252
831.768	79.98978
831.944	72.9001
832.12	127.96611
832.296	119.05182
832.473	92.24042
832.649	67.939
832.825	91.90708
833.001	57.08305
833.177	81.23432
833.353	73.41598
833.529	48.15522
833.705	63.52249
833.881	52.66702
834.058	51.71857
834.234	55.098
834.41	53.30917
834.586	46.3223
834.761	54.78784
834.937	57.38015
835.113	59.94581
835.289	56.17753
835.465	65.97452
835.641	58.37679
835.817	61.81439
835.993	103.02671
836.169	63.37382
836.344	85.75741
836.52	91.25402
836.696	95.38933
836.872	77.41962
837.048	169.08759
837.223	82.63175
837.399	138.0425
837.575	120.28848
837.75	118.45371
837.926	154.45733
838.102	230.3012
838.277	191.27085
838.453	234.26604
838.628	238.41029
838.804	100.35862
838.98	224.21735
839.155	118.38446
839.331	152.06244
839.506	107.95666
839.682	110.91309
839.857	125.50319
840.033	147.00042
840.208	76.77084
840.384	45.95383
840.559	83.64488
840.734	116.56131
840.91	167.98478
841.085	103.38349
841.26	101.91517
841.436	104.42063
841.611	103.60006
841.786	133.88445
841.962	181.23539
842.137	134.29863
842.312	84.79485
842.487	124.10703
842.663	105.26834
842.838	118.44082
843.013	333.59323
843.188	200.69695
843.363	138.19163
843.538	313.19701
843.714	357.59361
843.889	325.11988
844.064	331.04927
844.239	254.02943
844.414	471.12311
844.589	263.49818
844.764	409.98555
844.939	388.4723
845.114	442.1061
845.289	430.54057
845.464	515.33685
845.639	389.54578
845.814	207.47706
845.989	339.84425
846.163	255.09968
846.338	329.37038
846.513	430.39065
846.688	263.54714
846.863	315.48731
847.038	258.5473
847.212	299.23348
847.387	359.91148
847.562	311.5444
847.737	489.27781
847.911	212.29691
848.086	185.75032
848.261	496.9136
848.435	263.75871
848.61	385.98389
848.785	202.71729
848.959	419.14446
849.134	474.57679
849.308	664.9564
849.483	332.63392
849.658	538.96653
849.832	281.27823
850.007	263.20066
850.181	672.3854
850.356	312.34874
850.53	775.62632
850.705	365.88432
850.879	169.99047
851.053	324.94004
851.228	350.12099
851.402	511.08376
851.577	506.6559
851.751	618.91418
851.925	358.79472
852.099	142.39352
852.274	239.90886
852.448	350.42374
852.622	476.02035
852.797	327.84593
852.971	328.812
853.145	417.82215
853.319	755.15893
853.493	672.22039
853.668	542.69966
853.842	783.99348
854.016	510.16924
854.19	688.80795
854.364	363.28491
854.538	333.16446
854.712	763.48193
854.886	433.98818
855.06	345.49638
855.234	109.98753
855.408	655.64954
855.582	423.25479
855.756	668.15028
855.93	575.21115
856.104	655.24886
856.278	542.81038
856.452	387.81764
856.626	425.01719
856.8	941.26205
856.973	411.6097
857.147	487.38414
857.321	477.05699
857.495	508.07149
857.669	331.97081
857.842	445.78225
858.016	599.87992
858.19	249.14347
858.364	798.01817
858.537	404.96782
858.711	518.41179
858.885	452.99059
859.058	248.76386
859.232	174.23566
859.405	170.5361
859.579	483.04475
859.753	541.02874
859.926	252.60271
860.1	267.08952
860.273	384.82634
860.447	506.65988
860.62	364.45371
860.794	614.02562
860.967	346.97306
861.141	510.95779
861.314	802.25648
861.487	499.66453
861.661	479.70867
861.834	557.0345
862.008	734.91202
862.181	428.08465
862.354	496.83293
862.528	503.30014
862.701	328.89414
862.874	209.1613
863.047	355.18467
863.221	301.66558
863.394	186.06886
863.567	441.53259
863.74	156.19595
863.913	533.92096
864.087	495.68698
864.26	445.6252
864.433	370.99802
864.606	603.49379
864.779	370.07202
864.952	168.26759
865.125	411.05984
865.298	298.2915
865.471	366.1259
865.644	781.86166
865.817	538.02761
865.99	479.5133
866.163	461.36188
866.336	260.83939
866.509	361.25405
866.682	617.35553
866.855	721.71558
867.028	208.12625
867.2	394.0783
867.373	142.53589
867.546	391.342
867.719	685.42689
867.892	468.8651
868.064	297.24529
868.237	357.13394
868.41	393.0854
868.583	207.86713
868.755	241.24036
868.928	432.185
869.101	855.99918
869.273	550.17641
869.446	526.74117
869.619	615.56871
869.791	388.73305
869.964	538.22651
870.136	813.83255
870.309	373.45401
870.481	422.24977
870.654	221.8611
870.826	317.88499
870.999	233.02172
871.171	422.61303
871.344	264.1722
871.516	318.40975
871.689	285.85258
871.861	317.07139
872.033	301.91337
872.206	272.86698
872.378	357.05415
872.55	374.12459
872.723	212.68947
872.895	338.11839
873.067	465.50985
873.24	386.95819
873.412	339.12371
873.584	403.08673
873.756	349.91658
873.928	457.06533
874.101	367.66468
874.273	408.69052
874.445	127.25051
874.617	242.66169
874.789	326.4246
874.961	377.30997
875.133	360.82028
875.305	380.67199
875.477	305.82053
875.649	189.49537
875.821	204.05269
875.993	622.37599
876.165	338.03135
876.337	394.00255
876.509	316.96742
876.681	394.64943
876.853	379.18317
877.025	354.29581
877.197	245.41748
877.369	171.32183
877.541	352.81629
877.712	120.9109
877.884	196.85747
878.056	361.8802
878.228	189.98006
878.4	403.22206
878.571	173.3316
878.743	124.7127
878.915	295.9258
879.086	148.69307
879.258	199.56006
879.43	188.72128
879.601	151.57888
879.773	151.94583
879.945	46.0998
880.116	70.06486
880.288	42.46046
880.459	45.94222
880.631	42.01508
880.802	46.84361
880.974	44.71012
881.145	35.32972
881.317	44.98502
881.488	39.24423
881.66	41.43713
881.831	40.35018
882.002	48.69725
882.174	43.76989
882.345	49.24904
882.517	37.64703
882.688	58.33886
882.859	52.73551
883.03	74.4376
883.202	68.51863
883.373	69.2688
883.544	66.96065
883.715	95.60667
883.887	89.95352
884.058	78.93737
884.229	112.0964
884.4	103.57637
884.571	120.27564
884.742	105.85458
884.914	114.86933
885.085	146.05205
885.256	199.7553
885.427	171.30746
885.598	199.51538
885.769	200.72834
885.94	204.87902
886.111	145.03703
886.282	233.03153
886.453	207.13918
886.624	149.82268
886.795	255.1081
886.966	212.69523
887.136	273.53105
887.307	204.55352
887.478	351.01728
887.649	302.6887
887.82	289.8197
887.991	248.85984
888.161	378.25961
888.332	395.83862
888.503	159.61419
888.674	399.95888
888.844	581.26579
889.015	357.22233
889.186	223.19343
889.356	510.69482
889.527	192.59218
889.698	690.034
889.868	233.3207
890.039	405.86369
890.209	317.55899
890.38	423.46604
890.551	347.3536
890.721	426.97767
890.892	475.59119
891.062	454.29441
891.233	561.88591
891.403	443.54023
891.574	306.13474
891.744	287.73952
891.914	363.06093
892.085	418.0775
892.255	131.42813
892.425	464.39616
892.596	326.50861
892.766	419.60689
892.936	483.18079
893.107	436.97788
893.277	197.10774
893.447	226.57679
893.618	134.25191
893.788	215.08472
893.958	140.12731
894.128	108.50926
894.298	137.79887
894.468	172.19263
894.639	78.59615
894.809	60.13999
894.979	81.25117
895.149	106.83019
895.319	81.77298
895.489	124.25292
895.659	154.29399
895.829	101.92853
895.999	107.748
896.169	94.39315
896.339	116.04961
896.509	224.64097
896.679	232.14072
896.849	289.86031
897.019	317.99392
897.189	270.49775
897.358	241.39903
897.528	387.1506
897.698	217.9047
897.868	355.56392
898.038	665.43707
898.208	664.55841
898.377	244.01479
898.547	1014.17798
898.717	1441.4169
898.886	437.94411
899.056	663.47751
899.226	1515.8385
899.395	782.33004
899.565	1266.08752
899.735	831.57773
899.904	944.61508
900.074	1039.02087
900.244	326.77133
900.413	1308.30226
900.583	485.78235
900.752	1317.8511
900.922	1027.86961
901.091	157.51288
901.261	1764.74697
901.43	572.11922
901.599	2444.42166
901.769	1447.50531
901.938	1107.65434
902.108	1666.13019
902.277	816.85286
902.446	366.24234
902.616	416.08897
902.785	569.85395
902.954	720.29248
903.124	535.58809
903.293	306.41144
903.462	136.10948
903.631	214.96552
903.801	157.10965
903.97	79.85094
904.139	127.93444
904.308	99.40244
904.477	85.54562
904.646	50.57599
904.816	82.11065
904.985	122.66512
905.154	169.8723
