Data from WindowProjectSample3_Transmission__26__00026.txt Node

Date: Sun May 04 10:25:55 EDT 2025
User: jessi
Spectrometer: SR400872
Trigger mode: 0
Integration Time (sec): 5.000050E-1
Scans to average: 20
Electric dark correction enabled: true
Nonlinearity correction enabled: true
Boxcar width: 0
XAxis mode: Wavelengths
Number of Pixels in Spectrum: 3648
>>>>>Begin Spectral Data<<<<<
184.909	-1619.2326
185.132	-1264.10751
185.355	-1293.79945
185.578	-1075.58751
185.801	-2979.29613
186.024	-1057.84296
186.247	-1542.41726
186.47	-2875.91878
186.693	-200.70688
186.916	-189.6112
187.139	-986.4533
187.362	-1660.72031
187.585	-980.56636
187.808	-820.72531
188.031	-242610.15375
188.254	-1318.15015
188.476	-1147.0017
188.699	-1082.12376
188.922	569.16257
189.145	-1276.76604
189.368	-1001.69852
189.591	-3348.09523
189.813	-744.04467
190.036	-1337.26876
190.259	-3198.03401
190.482	-1565.35824
190.705	-1727.15753
190.927	-964.82609
191.15	-1694.12906
191.373	-2241.88516
191.595	-2553.57054
191.818	-1223.96913
192.041	-13204.58878
192.263	-1529.90316
192.486	-444.99705
192.709	-1636.17887
192.931	-4266.18018
193.154	-1204.78431
193.377	-1173.33447
193.599	12260.28024
193.822	-820.60474
194.044	-3885.71989
194.267	-5055.61104
194.489	-1099.98429
194.712	-1743.30531
194.934	-1622.73518
195.157	-1046.26515
195.379	-806.42665
195.602	-850.08198
195.824	-1035.25207
196.047	-940.58692
196.269	-1040.06999
196.492	-1076.0589
196.714	-1069.26888
196.936	-1616.0791
197.159	-920.77865
197.381	-926.16134
197.604	-1196.97528
197.826	-1924.91892
198.048	-1522.89387
198.271	-1240.62176
198.493	-1068.18545
198.715	-886.87275
198.938	-5858.0958
199.16	-1178.65864
199.382	-916.14776
199.604	-9262.66569
199.827	-1713.40535
200.049	-1000.9665
200.271	-872.02963
200.493	-2262.11501
200.715	-954.66445
200.938	-783.81933
201.16	-1283.50617
201.382	-2671.21281
201.604	-1286.57242
201.826	-1247.22774
202.048	-551.55872
202.27	-884.61486
202.492	-1976.36367
202.715	-2003.35225
202.937	-2266.17883
203.159	-1190.20371
203.381	-1693.76347
203.603	-1286.21279
203.825	4247.89683
204.047	-1174.72668
204.269	-3087.46741
204.491	-1604.39795
204.713	-778.44165
204.935	-1248.56681
205.156	-1349.84029
205.378	-3707.02654
205.6	-978.29496
205.822	-1082.82976
206.044	2487.82473
206.266	-1290.95654
206.488	-753.54104
206.71	-1843.77269
206.932	-2422.147
207.153	-1130.70327
207.375	-956.53048
207.597	-1081.18665
207.819	-882.05783
208.041	-1293.43046
208.262	-1103.53586
208.484	-1909.84034
208.706	-880.33741
208.927	-840.01022
209.149	-2249.86327
209.371	-811.68171
209.593	-676.27216
209.814	-588.49133
210.036	-802.01116
210.258	-552.15694
210.479	-1399.95801
210.701	10846.65738
210.922	-859.73641
211.144	-910.79818
211.366	-1904.64978
211.587	10728.65403
211.809	-1025.74025
212.03	-3207.46908
212.252	1669.1431
212.473	-1104.59237
212.695	-4098.48362
212.916	-3070.15543
213.138	-5609.68382
213.359	-944.62893
213.581	-1616.69421
213.802	-1039.05362
214.024	-1294.87784
214.245	-10672.38171
214.466	-903.64796
214.688	-1224.12139
214.909	-1528.08694
215.131	-2110.87164
215.352	-1003.0636
215.573	-1257.53315
215.795	-3119.87367
216.016	-1135.60081
216.237	-4538.28166
216.459	-13843.09933
216.68	-1599.44188
216.901	-1446.32801
217.122	-3572.52429
217.344	-1200.37515
217.565	-1606.20185
217.786	-1450.57391
218.007	-1219.92044
218.228	-5237.63647
218.45	-1165.07876
218.671	-1488.81763
218.892	-1736.27723
219.113	-2489.1314
219.334	-61.65398
219.555	-1250.3552
219.776	-851.78596
219.997	-1369.22668
220.219	-2940.36671
220.44	-1019.22738
220.661	-841.53474
220.882	-981.232
221.103	-3037.69761
221.324	5903.47727
221.545	-1928.17848
221.766	-1351.50958
221.987	-2427.00491
222.208	-2936.15733
222.429	-940.23944
222.65	-2022.19045
222.87	5285.07203
223.091	-8566.61151
223.312	4303.92984
223.533	-1684.51077
223.754	-1621.30346
223.975	-2486.95739
224.196	158989.69646
224.417	-9898.3458
224.637	2246.15656
224.858	201.84715
225.079	-7073.33271
225.3	2465.91625
225.521	-874.22163
225.741	8471.85205
225.962	6778.72818
226.183	302.11769
226.404	9140.54647
226.624	1714.16391
226.845	7921.42746
227.066	1752.89242
227.286	732.86455
227.507	253.62328
227.728	262.62741
227.948	496.8318
228.169	147.77551
228.389	151.0365
228.61	85.46536
228.831	117.99616
229.051	9.87168
229.272	70.02314
229.492	106.64998
229.713	29.69283
229.933	73.40822
230.154	63.09312
230.374	107.17105
230.595	75.13296
230.815	46.83294
231.036	82.19785
231.256	-6.98451
231.477	144.47873
231.697	79.81295
231.917	85.66338
232.138	122.46616
232.358	237.9401
232.579	202.0814
232.799	34.99335
233.019	206.3166
233.24	242.17247
233.46	77.88843
233.68	126.20619
233.901	82.25486
234.121	52.12323
234.341	21.28652
234.561	-8.97393
234.782	41.28207
235.002	140.53297
235.222	1.57667
235.442	122.26548
235.662	58.97696
235.883	117.26174
236.103	95.19653
236.323	71.11016
236.543	54.5252
236.763	75.92068
236.983	79.71078
237.203	78.73041
237.423	121.51205
237.643	184.37094
237.864	147.54183
238.084	34.31849
238.304	47.35388
238.524	90.34429
238.744	76.07892
238.964	137.66823
239.184	119.80373
239.404	127.0924
239.624	60.50832
239.843	107.34929
240.063	61.3855
240.283	39.8779
240.503	45.22669
240.723	44.86888
240.943	28.41951
241.163	34.37494
241.383	11.4526
241.603	14.33204
241.822	15.10153
242.042	10.77209
242.262	14.26657
242.482	15.22549
242.702	16.9797
242.921	5.87952
243.141	11.80124
243.361	11.38952
243.581	16.33403
243.8	14.14503
244.02	9.10038
244.24	17.45028
244.459	15.86702
244.679	31.80377
244.899	20.71772
245.118	22.87524
245.338	21.96217
245.558	23.30215
245.777	13.51191
245.997	16.05695
246.216	16.24125
246.436	9.65878
246.655	7.0203
246.875	5.52778
247.094	9.90211
247.314	3.96959
247.533	6.27803
247.753	6.96776
247.972	5.54146
248.192	2.08009
248.411	3.50795
248.631	5.93105
248.85	7.40606
249.07	7.4201
249.289	10.9644
249.508	7.7157
249.728	12.58302
249.947	12.52422
250.166	15.7127
250.386	8.35714
250.605	12.69164
250.824	20.79206
251.044	12.55662
251.263	39.06857
251.482	22.38648
251.701	19.17888
251.921	0.55447
252.14	6.27899
252.359	7.56892
252.578	16.38891
252.798	6.21972
253.017	14.39746
253.236	7.37529
253.455	10.36495
253.674	19.53615
253.893	9.25084
254.112	15.14782
254.331	20.35156
254.551	15.6353
254.77	7.70934
254.989	23.05137
255.208	18.01213
255.427	27.32449
255.646	22.75008
255.865	34.07583
256.084	15.84281
256.303	18.91112
256.522	21.96998
256.741	6.0843
256.96	5.98722
257.179	13.73769
257.397	17.80616
257.616	10.41357
257.835	10.48728
258.054	24.70973
258.273	16.40323
258.492	16.79286
258.711	10.64905
258.93	5.11867
259.148	7.04008
259.367	6.53982
259.586	8.37979
259.805	4.07899
260.023	7.55387
260.242	5.67904
260.461	4.34146
260.68	2.22985
260.898	6.65432
261.117	2.53452
261.336	1.60737
261.554	5.76388
261.773	5.86515
261.992	1.76575
262.21	5.9405
262.429	6.75779
262.648	11.42758
262.866	13.05317
263.085	9.63852
263.303	8.12738
263.522	14.31935
263.74	13.86216
263.959	23.88214
264.178	12.36461
264.396	10.42522
264.615	7.83703
264.833	17.71923
265.051	15.19876
265.27	17.27228
265.488	17.1437
265.707	10.27571
265.925	16.03587
266.144	8.08988
266.362	9.00179
266.58	8.79042
266.799	7.65519
267.017	9.50219
267.235	8.19599
267.454	5.96086
267.672	2.87225
267.89	7.14762
268.109	7.36662
268.327	7.63423
268.545	1.65275
268.763	6.89333
268.982	3.07379
269.2	7.58229
269.418	5.43282
269.636	4.12233
269.854	7.29327
270.073	5.45636
270.291	3.4085
270.509	3.03427
270.727	6.90686
270.945	11.1897
271.163	10.76477
271.381	2.8488
271.599	4.73795
271.817	7.75
272.036	2.91019
272.254	5.50467
272.472	3.57779
272.69	3.96641
272.908	4.11287
273.126	6.26028
273.344	8.1097
273.562	2.90933
273.779	4.31182
273.997	6.71702
274.215	6.47434
274.433	4.7519
274.651	7.16195
274.869	7.05658
275.087	4.42966
275.305	6.39661
275.523	4.17428
275.74	4.66671
275.958	8.45322
276.176	12.40704
276.394	3.90602
276.612	5.46954
276.829	5.05311
277.047	4.61215
277.265	4.99696
277.483	5.8393
277.7	6.31684
277.918	5.22827
278.136	9.71687
278.353	4.77503
278.571	2.72573
278.789	7.55907
279.006	1.7747
279.224	4.6365
279.442	7.55545
279.659	5.75872
279.877	3.43555
280.094	8.14153
280.312	1.74207
280.529	5.18192
280.747	1.98746
280.964	4.50286
281.182	8.67967
281.399	4.50749
281.617	5.62585
281.834	3.91406
282.052	2.83044
282.269	5.16869
282.487	4.05742
282.704	3.78747
282.921	3.3605
283.139	5.07491
283.356	6.46857
283.574	6.1239
283.791	3.03966
284.008	7.91256
284.226	4.8306
284.443	5.12118
284.66	6.3214
284.877	5.72233
285.095	3.50131
285.312	2.65682
285.529	1.77526
285.746	1.41862
285.964	3.18339
286.181	2.25379
286.398	3.06525
286.615	4.3893
286.832	4.08455
287.05	1.08417
287.267	2.88025
287.484	3.01893
287.701	4.18852
287.918	4.12528
288.135	4.02276
288.352	1.92529
288.569	2.3621
288.786	3.81925
289.003	2.85117
289.22	4.83468
289.437	2.59317
289.654	4.47404
289.871	4.4623
290.088	4.46435
290.305	3.49966
290.522	3.03337
290.739	3.26149
290.956	4.63189
291.173	5.50314
291.39	5.23082
291.607	3.63931
291.824	2.81522
292.04	2.25717
292.257	4.66222
292.474	5.04663
292.691	3.31842
292.908	1.69576
293.125	2.71993
293.341	1.74838
293.558	7.49416
293.775	3.36823
293.992	3.35397
294.208	1.44447
294.425	2.20775
294.642	3.04492
294.858	4.99796
295.075	1.33781
295.292	3.12908
295.508	3.85876
295.725	5.38187
295.942	3.1042
296.158	2.51866
296.375	3.72726
296.591	3.0192
296.808	3.20613
297.024	3.80016
297.241	4.13905
297.458	4.37029
297.674	1.57592
297.891	3.82775
298.107	3.69755
298.323	2.90567
298.54	5.62539
298.756	3.66404
298.973	2.68221
299.189	6.21288
299.406	4.02551
299.622	6.24598
299.838	6.6095
300.055	5.99038
300.271	3.57609
300.487	3.98924
300.704	4.57646
300.92	3.90698
301.136	8.52764
301.353	7.10782
301.569	5.85101
301.785	6.31266
302.001	6.75602
302.218	6.64932
302.434	7.11767
302.65	4.56519
302.866	5.54624
303.083	9.54757
303.299	9.65639
303.515	6.78087
303.731	7.12284
303.947	5.17016
304.163	6.16691
304.379	6.9697
304.595	7.33047
304.812	5.97027
305.028	5.94053
305.244	6.38597
305.46	7.85772
305.676	8.22199
305.892	9.06537
306.108	8.13209
306.324	6.79316
306.54	9.76067
306.756	7.9486
306.972	7.71632
307.187	7.36553
307.403	9.1687
307.619	6.43434
307.835	8.91932
308.051	8.89766
308.267	6.27899
308.483	9.26647
308.699	8.28071
308.914	7.68734
309.13	7.80829
309.346	6.17465
309.562	6.69051
309.778	6.15594
309.993	8.54442
310.209	8.39775
310.425	6.52898
310.641	8.02669
310.856	7.12796
311.072	7.03004
311.288	8.07038
311.503	8.85523
311.719	6.31931
311.935	6.5203
312.15	8.99636
312.366	9.0739
312.581	9.08211
312.797	8.52213
313.013	9.6759
313.228	7.78288
313.444	8.26158
313.659	7.31102
313.875	8.98066
314.09	8.31154
314.306	10.21612
314.521	9.4368
314.737	9.56831
314.952	8.79008
315.168	8.98354
315.383	9.16989
315.599	8.12933
315.814	8.44962
316.029	9.86143
316.245	7.45607
316.46	6.35292
316.675	10.1345
316.891	11.39444
317.106	12.69323
317.321	9.31111
317.537	9.61522
317.752	9.94317
317.967	10.16776
318.183	8.0481
318.398	8.67708
318.613	10.17387
318.828	10.71556
319.043	9.90879
319.259	8.82357
319.474	9.33215
319.689	10.44876
319.904	7.08325
320.119	10.63617
320.334	9.42698
320.549	8.97149
320.765	10.91406
320.98	10.06513
321.195	10.19926
321.41	9.54579
321.625	10.50156
321.84	11.47694
322.055	11.5453
322.27	8.53299
322.485	8.00341
322.7	10.24388
322.915	10.84972
323.13	9.18422
323.345	12.06397
323.56	10.6972
323.775	11.1456
323.989	10.87641
324.204	10.36716
324.419	11.48197
324.634	8.85712
324.849	10.49244
325.064	13.18863
325.279	11.89874
325.493	11.1468
325.708	11.86348
325.923	9.65088
326.138	10.48973
326.352	12.6165
326.567	11.62205
326.782	10.25722
326.997	10.44398
327.211	11.70433
327.426	11.27324
327.641	10.72343
327.855	9.09383
328.07	11.94439
328.285	13.64663
328.499	10.47823
328.714	11.19144
328.928	11.70232
329.143	11.28333
329.358	12.84304
329.572	12.26672
329.787	13.04932
330.001	14.76527
330.216	9.5277
330.43	14.03209
330.645	13.03733
330.859	12.60582
331.074	10.09426
331.288	11.49201
331.503	14.25812
331.717	10.21556
331.931	11.69566
332.146	12.45461
332.36	14.48949
332.575	12.35182
332.789	12.00392
333.003	12.1538
333.218	12.90292
333.432	11.50851
333.646	13.19035
333.86	14.48713
334.075	14.37622
334.289	11.66235
334.503	10.45834
334.717	13.07569
334.932	12.58724
335.146	13.2359
335.36	11.29492
335.574	13.63081
335.788	13.04419
336.003	13.88519
336.217	14.38748
336.431	13.5658
336.645	12.65964
336.859	11.96782
337.073	13.41312
337.287	13.52391
337.501	11.69074
337.715	13.79436
337.929	13.57425
338.143	11.90779
338.357	12.93092
338.571	12.78396
338.785	14.56811
338.999	12.74357
339.213	12.62058
339.427	12.25699
339.641	15.15587
339.855	13.08455
340.069	12.46257
340.283	14.78388
340.497	15.47593
340.711	14.73415
340.924	14.02731
341.138	12.90019
341.352	12.44326
341.566	13.97267
341.78	12.32718
341.993	13.46878
342.207	13.33387
342.421	14.65594
342.635	13.96821
342.848	13.80549
343.062	11.38116
343.276	13.74775
343.49	16.75026
343.703	13.73872
343.917	15.77703
344.131	16.10876
344.344	13.79655
344.558	14.27964
344.771	13.40483
344.985	16.1887
345.199	17.16145
345.412	15.54756
345.626	15.59771
345.839	13.25077
346.053	13.80364
346.266	14.19621
346.48	15.91878
346.693	15.50435
346.907	15.42709
347.12	14.0008
347.334	14.9553
347.547	15.71887
347.76	14.92252
347.974	16.53407
348.187	15.28383
348.401	15.0121
348.614	14.08061
348.827	15.05134
349.041	15.56951
349.254	13.39185
349.467	14.90472
349.681	14.60769
349.894	14.45892
350.107	16.99356
350.32	18.11851
350.534	13.9929
350.747	15.50114
350.96	14.63275
351.173	14.82809
351.386	15.29279
351.6	15.18148
351.813	15.41712
352.026	15.48409
352.239	14.68402
352.452	15.30582
352.665	17.53523
352.878	15.65273
353.092	18.45516
353.305	16.86606
353.518	16.16995
353.731	15.04644
353.944	17.0423
354.157	16.03365
354.37	15.76722
354.583	14.85123
354.796	15.07435
355.009	17.79618
355.222	16.82355
355.435	16.54738
355.647	17.96166
355.86	15.92129
356.073	17.04107
356.286	16.29384
356.499	18.02755
356.712	17.92685
356.925	17.47207
357.138	18.12714
357.35	16.28752
357.563	16.81584
357.776	17.66721
357.989	17.52764
358.201	18.2185
358.414	18.10072
358.627	18.88082
358.84	17.31422
359.052	16.35469
359.265	16.58735
359.478	18.3999
359.69	14.95689
359.903	18.59104
360.116	18.67599
360.328	16.16097
360.541	18.64771
360.753	17.28664
360.966	17.58017
361.179	17.76699
361.391	17.69412
361.604	17.47361
361.816	17.9493
362.029	17.99809
362.241	17.58648
362.454	18.30978
362.666	17.54035
362.879	18.92524
363.091	17.91278
363.304	17.80906
363.516	17.94997
363.728	16.97752
363.941	18.60128
364.153	18.23685
364.366	15.89631
364.578	16.81578
364.79	18.4054
365.003	18.21985
365.215	17.48915
365.427	18.60093
365.639	19.03942
365.852	18.16898
366.064	19.50458
366.276	17.84123
366.488	18.32766
366.701	17.76502
366.913	17.54581
367.125	18.09786
367.337	17.15905
367.549	17.60987
367.762	17.83607
367.974	17.82003
368.186	17.88574
368.398	19.10946
368.61	18.40749
368.822	18.76577
369.034	17.70752
369.246	18.98565
369.458	20.76592
369.67	17.19166
369.882	19.82186
370.094	16.27412
370.306	19.48521
370.518	17.63236
370.73	17.80887
370.942	17.61551
371.154	18.42317
371.366	18.23674
371.578	18.95024
371.79	18.38141
372.002	19.51143
372.214	20.85515
372.425	18.46635
372.637	20.20435
372.849	18.95764
373.061	16.4768
373.273	19.12043
373.484	18.99836
373.696	19.45722
373.908	16.31615
374.12	19.44273
374.331	19.23582
374.543	17.57525
374.755	17.61344
374.967	18.63173
375.178	19.79226
375.39	18.25898
375.602	18.76655
375.813	17.16202
376.025	18.01332
376.236	18.93128
376.448	19.30715
376.66	19.12381
376.871	18.97653
377.083	19.72684
377.294	20.93241
377.506	18.86829
377.717	20.74961
377.929	19.56049
378.14	18.87765
378.352	19.85073
378.563	19.96849
378.775	20.73792
378.986	18.43504
379.197	19.74505
379.409	18.41072
379.62	19.73361
379.832	19.26477
380.043	19.04193
380.254	19.6454
380.466	17.99289
380.677	21.90006
380.888	21.53828
381.1	22.05668
381.311	21.97854
381.522	19.50357
381.733	22.02903
381.945	19.1077
382.156	19.02087
382.367	19.02509
382.578	22.12903
382.789	22.30597
383.001	18.72359
383.212	21.27769
383.423	21.32642
383.634	20.66967
383.845	20.38962
384.056	19.42758
384.267	19.78707
384.478	19.86185
384.69	18.82124
384.901	20.40617
385.112	20.11575
385.323	21.66304
385.534	20.18365
385.745	20.37443
385.956	20.32791
386.167	19.14397
386.378	20.5569
386.588	19.2765
386.799	19.15204
387.01	18.70423
387.221	21.0169
387.432	20.13926
387.643	21.79029
387.854	19.80301
388.065	19.72366
388.275	20.04271
388.486	19.57369
388.697	20.14843
388.908	19.68603
389.119	21.09449
389.329	21.49639
389.54	20.1671
389.751	20.16414
389.962	21.56477
390.172	20.14626
390.383	20.0586
390.594	19.37444
390.804	19.58021
391.015	19.81621
391.226	20.3688
391.436	21.01906
391.647	20.75881
391.858	21.07701
392.068	19.07831
392.279	19.6738
392.489	20.91754
392.7	21.49574
392.91	19.90434
393.121	19.7129
393.331	20.92059
393.542	21.63534
393.752	21.52143
393.963	20.99972
394.173	20.92061
394.384	21.30517
394.594	20.6273
394.804	19.70033
395.015	20.67124
395.225	21.44794
395.436	19.84099
395.646	21.1325
395.856	20.37007
396.067	19.51302
396.277	21.43082
396.487	21.01669
396.697	21.01143
396.908	21.34176
397.118	21.39448
397.328	20.71282
397.538	21.62405
397.749	20.17465
397.959	21.55407
398.169	21.07722
398.379	19.36425
398.589	21.16333
398.8	21.0883
399.01	21.10069
399.22	20.42005
399.43	22.81647
399.64	20.77768
399.85	21.19467
400.06	21.1429
400.27	20.23901
400.48	20.70613
400.69	21.69578
400.9	20.42088
401.11	19.98676
401.32	21.50169
401.53	20.12922
401.74	22.16267
401.95	21.2783
402.16	20.48145
402.37	21.35558
402.58	20.27365
402.79	21.44209
403	21.5815
403.209	20.09599
403.419	21.84373
403.629	20.46667
403.839	21.8318
404.049	21.92099
404.258	20.75204
404.468	20.43945
404.678	21.8744
404.888	22.27808
405.097	20.87888
405.307	21.04224
405.517	21.93368
405.727	21.66321
405.936	20.86543
406.146	21.50785
406.356	22.27989
406.565	21.2131
406.775	20.90144
406.984	20.94393
407.194	22.87822
407.404	21.17907
407.613	21.55295
407.823	21.78701
408.032	22.61039
408.242	22.04012
408.451	20.75613
408.661	21.15966
408.87	22.88546
409.08	20.89162
409.289	21.58505
409.499	21.33985
409.708	21.31513
409.918	19.51413
410.127	21.48503
410.336	22.72545
410.546	21.97993
410.755	20.97194
410.964	21.21746
411.174	20.8581
411.383	21.91719
411.592	21.89647
411.802	20.74113
412.011	22.13774
412.22	21.4092
412.429	22.99004
412.639	22.67883
412.848	22.33283
413.057	22.94538
413.266	22.28084
413.475	21.47609
413.685	22.35938
413.894	22.49352
414.103	22.39702
414.312	22.20559
414.521	21.32371
414.73	21.83831
414.939	23.29355
415.148	22.12603
415.357	22.00775
415.566	21.76377
415.776	21.5397
415.985	21.56472
416.194	22.69001
416.403	23.56773
416.611	20.9643
416.82	21.52783
417.029	22.16097
417.238	21.57808
417.447	21.54064
417.656	21.84696
417.865	21.73737
418.074	21.97839
418.283	22.16021
418.492	22.81044
418.7	22.81716
418.909	23.56239
419.118	22.30419
419.327	22.73995
419.536	22.54302
419.744	22.07966
419.953	23.2115
420.162	23.75132
420.371	23.18371
420.579	24.26876
420.788	25.21004
420.997	25.27446
421.205	26.16326
421.414	25.508
421.623	25.72239
421.831	25.09628
422.04	25.68763
422.249	24.27116
422.457	24.57442
422.666	23.39534
422.874	24.51836
423.083	24.67221
423.291	24.74902
423.5	25.02547
423.708	25.63017
423.917	26.26283
424.125	25.69124
424.334	25.49607
424.542	27.56062
424.751	26.81544
424.959	26.0832
425.167	25.77172
425.376	25.58206
425.584	23.51813
425.793	23.70848
426.001	22.98341
426.209	24.00948
426.418	22.90102
426.626	23.03664
426.834	22.80477
427.042	23.36987
427.251	22.74544
427.459	23.90639
427.667	23.45002
427.875	22.30446
428.084	22.81401
428.292	24.2353
428.5	23.61789
428.708	22.50683
428.916	22.40564
429.124	23.14655
429.333	22.88688
429.541	23.04946
429.749	23.33587
429.957	23.05193
430.165	24.83291
430.373	22.11012
430.581	23.09907
430.789	24.24734
430.997	22.82606
431.205	22.52907
431.413	23.41556
431.621	22.9743
431.829	23.6192
432.037	22.93546
432.245	23.58415
432.453	23.64837
432.661	23.07307
432.869	24.7045
433.076	22.70489
433.284	23.19612
433.492	23.82128
433.7	24.34296
433.908	23.30729
434.116	23.54549
434.323	23.68383
434.531	23.47904
434.739	24.03612
434.947	24.24672
435.154	24.23603
435.362	23.81899
435.57	23.51522
435.778	23.25425
435.985	23.91169
436.193	23.29635
436.401	24.47459
436.608	23.62177
436.816	23.26032
437.023	24.75749
437.231	24.93651
437.439	23.75214
437.646	24.05695
437.854	23.93944
438.061	24.1438
438.269	23.33608
438.476	24.207
438.684	23.75249
438.891	23.60831
439.099	23.44587
439.306	22.95298
439.514	23.24266
439.721	24.23844
439.929	23.43942
440.136	24.18686
440.343	24.00512
440.551	23.79695
440.758	25.26955
440.965	24.46064
441.173	24.17788
441.38	23.80588
441.587	24.40263
441.795	23.9666
442.002	24.44263
442.209	24.4409
442.416	24.65747
442.624	24.65426
442.831	24.60476
443.038	23.85179
443.245	23.49361
443.452	23.94342
443.66	24.60109
443.867	23.58818
444.074	23.68767
444.281	23.55505
444.488	23.88296
444.695	23.98887
444.902	23.55068
445.109	24.35454
445.316	23.80022
445.523	23.95344
445.73	24.47116
445.937	25.55329
446.144	26.31469
446.351	26.83658
446.558	25.40421
446.765	27.98178
446.972	26.65637
447.179	26.11195
447.386	26.61411
447.593	24.24505
447.8	25.34279
448.007	24.31442
448.214	24.44332
448.42	24.00758
448.627	25.28563
448.834	24.34643
449.041	24.30896
449.248	24.25529
449.454	24.93401
449.661	25.8315
449.868	24.14954
450.075	23.97538
450.281	22.95134
450.488	23.58968
450.695	23.70476
450.901	23.55155
451.108	23.93832
451.315	24.93516
451.521	23.98819
451.728	24.81791
451.935	23.76783
452.141	24.22421
452.348	24.07517
452.554	24.25051
452.761	24.07799
452.967	25.4519
453.174	24.36184
453.38	24.53533
453.587	23.54057
453.793	24.3872
454	24.9353
454.206	25.99547
454.413	25.26108
454.619	24.75067
454.825	23.90975
455.032	24.7326
455.238	25.18578
455.445	23.47695
455.651	24.53082
455.857	23.17229
456.064	24.25278
456.27	24.30858
456.476	24.11096
456.682	23.38862
456.889	24.77572
457.095	24.70886
457.301	25.86685
457.507	24.33695
457.714	24.45695
457.92	24.36158
458.126	23.72579
458.332	24.14996
458.538	23.7638
458.744	23.92106
458.951	23.86618
459.157	25.3304
459.363	24.46429
459.569	24.97747
459.775	25.57829
459.981	25.54148
460.187	26.10123
460.393	25.91449
460.599	25.74201
460.805	24.99814
461.011	25.01808
461.217	25.85716
461.423	25.81569
461.629	24.78192
461.835	25.48419
462.041	24.86235
462.247	26.08737
462.453	24.69357
462.658	24.72462
462.864	25.37119
463.07	24.92228
463.276	24.92874
463.482	24.8106
463.688	25.84445
463.893	24.30998
464.099	24.59065
464.305	26.07845
464.511	24.34093
464.716	24.52817
464.922	25.41084
465.128	24.19427
465.333	26.06708
465.539	25.23902
465.745	24.72086
465.95	24.95674
466.156	26.95906
466.362	25.6416
466.567	24.79982
466.773	24.33978
466.978	25.93525
467.184	24.11648
467.389	23.45913
467.595	25.11843
467.8	24.19688
468.006	25.80378
468.211	25.78086
468.417	24.08882
468.622	25.41552
468.828	25.49671
469.033	25.20284
469.239	27.20278
469.444	24.61463
469.649	25.43749
469.855	24.88342
470.06	25.22592
470.266	24.18046
470.471	25.55148
470.676	25.21507
470.881	23.6938
471.087	26.52168
471.292	26.46105
471.497	24.11177
471.703	25.13387
471.908	24.78423
472.113	25.1479
472.318	25.58658
472.523	24.22041
472.729	25.3117
472.934	25.29759
473.139	24.68792
473.344	25.54511
473.549	26.01707
473.754	24.57962
473.959	26.58752
474.164	24.65198
474.369	25.13999
474.575	25.76599
474.78	25.26843
474.985	24.87496
475.19	23.95466
475.395	24.69171
475.6	25.06356
475.804	26.12614
476.009	25.13776
476.214	25.22668
476.419	24.87797
476.624	23.90008
476.829	24.75972
477.034	25.72308
477.239	24.62254
477.444	25.27657
477.648	25.67852
477.853	25.69966
478.058	25.07909
478.263	24.89559
478.468	24.58511
478.672	24.72737
478.877	26.20378
479.082	26.76632
479.287	25.67511
479.491	25.50532
479.696	24.69355
479.901	26.09381
480.105	25.75471
480.31	24.78964
480.515	25.05537
480.719	26.83693
480.924	24.60484
481.128	24.37681
481.333	25.24788
481.538	25.31307
481.742	24.81526
481.947	25.59416
482.151	27.71553
482.356	30.12158
482.56	35.11931
482.765	39.59391
482.969	46.55462
483.174	52.25936
483.378	59.47998
483.582	61.85474
483.787	65.01878
483.991	66.18977
484.196	65.97308
484.4	64.56798
484.604	63.20364
484.809	57.91162
485.013	53.7704
485.217	48.27848
485.422	43.1596
485.626	39.50264
485.83	37.60477
486.034	36.87112
486.239	37.98518
486.443	39.53863
486.647	41.00247
486.851	43.47517
487.055	46.48626
487.26	47.1413
487.464	49.09463
487.668	48.71805
487.872	49.46795
488.076	49.19899
488.28	46.99907
488.484	43.93659
488.688	42.02261
488.892	39.54708
489.096	36.40678
489.3	33.74958
489.504	31.60071
489.708	30.06044
489.912	29.4249
490.116	29.17211
490.32	29.48467
490.524	32.08613
490.728	34.23636
490.932	36.58503
491.136	38.87259
491.34	40.96218
491.544	41.71372
491.748	41.70356
491.951	41.18225
492.155	40.06268
492.359	38.2241
492.563	34.9911
492.767	32.35886
492.97	29.1267
493.174	26.2559
493.378	26.35153
493.582	25.93441
493.785	26.42012
493.989	26.36813
494.193	26.38513
494.396	25.82574
494.6	26.4607
494.804	25.70812
495.007	25.48027
495.211	25.46055
495.414	25.52881
495.618	25.81362
495.822	26.38013
496.025	25.69462
496.229	26.33265
496.432	25.15528
496.636	25.7775
496.839	25.82965
497.043	26.80719
497.246	26.14945
497.45	25.65907
497.653	25.96529
497.856	26.23284
498.06	25.50659
498.263	25.97797
498.467	25.7397
498.67	26.7867
498.873	26.41499
499.077	25.78914
499.28	25.9416
499.483	26.44027
499.686	26.64058
499.89	26.43215
500.093	26.66688
500.296	25.75672
500.499	27.29264
500.703	26.07381
500.906	26.11202
501.109	27.24477
501.312	26.13358
501.515	26.06152
501.719	26.40873
501.922	26.89251
502.125	26.00943
502.328	25.91116
502.531	25.23199
502.734	25.98352
502.937	24.80512
503.14	26.04927
503.343	25.34844
503.546	25.94217
503.749	25.51844
503.952	26.52323
504.155	25.41125
504.358	26.54149
504.561	26.1346
504.764	25.25338
504.967	26.20528
505.17	26.25999
505.373	27.3114
505.576	26.15794
505.778	26.68715
505.981	25.77113
506.184	27.06504
506.387	25.09023
506.59	27.30222
506.793	27.04264
506.995	26.44486
507.198	24.56845
507.401	26.3211
507.604	26.4389
507.806	25.55173
508.009	25.52542
508.212	26.36584
508.414	25.90804
508.617	25.70658
508.82	26.22072
509.022	27.10008
509.225	26.50538
509.427	25.24289
509.63	27.26231
509.833	26.49191
510.035	26.05318
510.238	25.3356
510.44	27.14039
510.643	24.94745
510.845	27.92377
511.048	26.64163
511.25	25.93728
511.453	26.19982
511.655	26.66619
511.858	26.11569
512.06	27.05743
512.262	26.27472
512.465	26.98714
512.667	26.21382
512.869	25.73554
513.072	26.70641
513.274	27.08963
513.476	26.99868
513.679	27.20457
513.881	25.82615
514.083	27.61711
514.286	26.02929
514.488	25.9577
514.69	25.63737
514.892	25.52557
515.094	26.91272
515.297	25.92373
515.499	26.42641
515.701	25.79175
515.903	27.48734
516.105	27.44607
516.307	26.77753
516.509	24.93712
516.711	25.23751
516.913	26.35183
517.116	26.2311
517.318	25.78987
517.52	26.89008
517.722	26.55182
517.924	25.3535
518.126	26.55823
518.328	25.74954
518.529	26.59813
518.731	27.3468
518.933	26.09874
519.135	26.38448
519.337	27.27083
519.539	26.99948
519.741	25.56244
519.943	26.48267
520.145	26.55917
520.346	27.14605
520.548	26.41967
520.75	26.86992
520.952	26.27317
521.153	26.77879
521.355	26.9108
521.557	25.62627
521.759	26.54997
521.96	26.47288
522.162	25.61845
522.364	27.1358
522.565	25.81339
522.767	26.76086
522.969	27.38353
523.17	26.69997
523.372	26.56593
523.573	25.99082
523.775	26.25628
523.977	25.5305
524.178	27.24505
524.38	25.7995
524.581	26.78007
524.783	25.84498
524.984	26.66102
525.186	26.09754
525.387	26.58665
525.589	26.28981
525.79	26.24772
525.991	25.97856
526.193	26.69729
526.394	25.76715
526.596	26.88546
526.797	27.68106
526.998	27.68186
527.2	29.41096
527.401	33.27396
527.602	36.71276
527.803	41.98613
528.005	45.32525
528.206	48.51544
528.407	50.65074
528.608	51.0949
528.81	51.34529
529.011	50.03435
529.212	50.26464
529.413	46.98474
529.614	43.62135
529.815	40.08252
530.017	36.47706
530.218	32.51642
530.419	29.46701
530.62	28.12827
530.821	27.03132
531.022	26.004
531.223	27.28552
531.424	27.03256
531.625	26.87159
531.826	26.69484
532.027	27.51961
532.228	29.81864
532.429	30.98085
532.63	32.39371
532.831	34.36605
533.032	34.83565
533.233	35.95682
533.433	35.182
533.634	35.18803
533.835	33.63016
534.036	32.1577
534.237	30.53333
534.438	28.46642
534.638	26.58143
534.839	26.93679
535.04	27.54801
535.241	26.75006
535.441	27.97794
535.642	26.82367
535.843	25.97332
536.043	25.94133
536.244	26.13486
536.445	26.15796
536.645	27.22973
536.846	26.87661
537.047	27.5176
537.247	26.40953
537.448	26.74871
537.648	27.03987
537.849	27.12209
538.049	27.06386
538.25	27.7128
538.451	27.43624
538.651	26.37606
538.851	27.11939
539.052	27.68195
539.252	27.28565
539.453	26.4769
539.653	26.56599
539.854	26.25399
540.054	26.16606
540.254	27.90404
540.455	30.61096
540.655	32.2503
540.855	35.43428
541.056	37.5708
541.256	37.66434
541.456	39.06469
541.657	38.33849
541.857	38.6206
542.057	36.31733
542.257	34.84005
542.458	33.97364
542.658	32.01709
542.858	28.96335
543.058	28.34905
543.258	27.72447
543.458	26.4449
543.659	26.30258
543.859	27.718
544.059	27.56002
544.259	27.12241
544.459	27.79028
544.659	26.70933
544.859	27.40644
545.059	26.6067
545.259	27.38867
545.459	27.00285
545.659	27.46553
545.859	26.79676
546.059	26.77894
546.259	26.11986
546.459	25.67391
546.659	26.09173
546.859	27.27141
547.059	27.26442
547.258	27.33612
547.458	27.35656
547.658	26.4639
547.858	26.38536
548.058	27.38538
548.258	27.04245
548.457	26.47706
548.657	29.34985
548.857	27.02429
549.057	27.58039
549.256	27.84945
549.456	26.69539
549.656	25.1411
549.855	28.38951
550.055	26.60994
550.255	28.48046
550.454	27.17534
550.654	27.5759
550.853	28.14273
551.053	27.50307
551.253	27.08066
551.452	27.08498
551.652	25.68201
551.851	25.27561
552.051	26.46402
552.25	26.32514
552.45	26.11225
552.649	26.65066
552.849	26.19016
553.048	26.64925
553.248	27.4649
553.447	26.23047
553.646	27.79256
553.846	28.51051
554.045	27.91036
554.244	26.12522
554.444	28.75853
554.643	26.20464
554.842	28.22135
555.042	28.93238
555.241	26.40059
555.44	25.87369
555.64	27.46559
555.839	29.03642
556.038	27.55157
556.237	26.17836
556.436	26.94044
556.636	27.38182
556.835	26.2691
557.034	28.59992
557.233	26.81206
557.432	25.81721
557.631	28.33123
557.83	26.88242
558.029	26.34256
558.228	26.31956
558.427	26.00881
558.626	27.42354
558.825	26.12551
559.024	26.89822
559.223	28.59751
559.422	26.70882
559.621	27.17403
559.82	24.57899
560.019	26.88881
560.218	26.63718
560.417	24.46199
560.616	26.38452
560.815	30.22209
561.014	25.37594
561.212	28.28688
561.411	27.09613
561.61	25.482
561.809	26.77117
562.008	28.4618
562.206	27.20701
562.405	27.78523
562.604	27.11351
562.803	27.03465
563.001	26.70747
563.2	25.76127
563.399	27.42372
563.597	25.85885
563.796	26.87888
563.995	25.87459
564.193	27.49693
564.392	26.68116
564.59	29.05623
564.789	25.19151
564.988	26.40684
565.186	27.13851
565.385	26.91659
565.583	26.57972
565.782	26.84584
565.98	26.85989
566.179	26.91172
566.377	26.23563
566.575	26.61922
566.774	28.40139
566.972	28.07053
567.171	29.34005
567.369	28.54962
567.567	27.58697
567.766	27.89989
567.964	25.536
568.162	27.90801
568.361	28.06912
568.559	27.05365
568.757	27.66264
568.956	27.33885
569.154	27.20987
569.352	27.94257
569.55	27.08318
569.748	27.34832
569.947	26.46777
570.145	26.34002
570.343	26.25146
570.541	28.21752
570.739	26.20057
570.937	27.27813
571.135	27.85906
571.333	28.89217
571.532	28.61161
571.73	27.39824
571.928	28.3248
572.126	27.66235
572.324	27.06555
572.522	28.66804
572.72	30.26568
572.918	27.54467
573.116	28.11737
573.313	27.47614
573.511	27.41383
573.709	26.99817
573.907	28.32606
574.105	27.09807
574.303	25.76836
574.501	25.89656
574.699	27.85193
574.896	27.9001
575.094	28.09194
575.292	26.29954
575.49	28.53694
575.688	27.20651
575.885	28.77534
576.083	29.67908
576.281	28.2395
576.478	26.96693
576.676	28.20921
576.874	26.33909
577.071	27.40132
577.269	30.19273
577.467	27.71614
577.664	27.60843
577.862	28.69845
578.059	26.60745
578.257	28.74872
578.455	26.88053
578.652	27.66249
578.85	25.55817
579.047	27.49456
579.245	27.62855
579.442	27.17696
579.64	27.54687
579.837	25.55534
580.034	30.22134
580.232	27.04903
580.429	26.04721
580.627	27.91319
580.824	28.91684
581.021	28.25836
581.219	26.9644
581.416	26.48023
581.613	29.02942
581.811	29.12355
582.008	26.62315
582.205	28.8116
582.402	27.59945
582.6	29.90738
582.797	27.58738
582.994	28.09605
583.191	28.249
583.388	27.50674
583.586	28.29606
583.783	28.62313
583.98	26.74357
584.177	27.90435
584.374	24.49013
584.571	27.63137
584.768	27.13531
584.965	27.17793
585.162	28.31176
585.359	29.66247
585.556	27.39925
585.753	27.97613
585.95	25.9211
586.147	26.5218
586.344	28.04288
586.541	27.19147
586.738	26.00776
586.935	27.20179
587.132	26.68564
587.329	28.70118
587.526	27.18876
587.722	33.30646
587.919	25.83161
588.116	28.05805
588.313	29.41606
588.51	30.23431
588.706	27.29576
588.903	28.21942
589.1	28.84867
589.297	31.08834
589.493	27.61596
589.69	28.29663
589.887	26.94105
590.083	26.30611
590.28	26.59294
590.477	28.88287
590.673	28.90452
590.87	29.47228
591.067	27.77735
591.263	28.35819
591.46	28.25775
591.656	27.5507
591.853	29.60033
592.049	26.68777
592.246	26.97953
592.442	29.3642
592.639	29.25571
592.835	26.51995
593.032	28.58988
593.228	26.0934
593.425	26.00037
593.621	25.62856
593.817	28.23024
594.014	26.84571
594.21	28.02542
594.406	28.94543
594.603	28.84594
594.799	27.07426
594.995	25.44392
595.192	29.55141
595.388	27.5846
595.584	27.48148
595.78	25.93355
595.977	30.10056
596.173	29.7701
596.369	27.47221
596.565	26.73721
596.761	26.07907
596.957	29.40334
597.154	27.2265
597.35	27.24758
597.546	27.39095
597.742	29.02752
597.938	28.64898
598.134	27.40161
598.33	28.5644
598.526	30.33247
598.722	28.72003
598.918	30.98789
599.114	28.8622
599.31	26.92858
599.506	27.96835
599.702	26.837
599.898	28.1771
600.094	29.04351
600.29	28.99326
600.485	29.5029
600.681	26.90123
600.877	30.17814
601.073	27.99183
601.269	29.9955
601.465	29.6657
601.66	26.74421
601.856	25.81178
602.052	29.77595
602.248	27.39533
602.443	25.67152
602.639	26.25534
602.835	26.83424
603.03	26.64553
603.226	28.94907
603.422	26.60003
603.617	27.40608
603.813	27.20279
604.009	27.46494
604.204	29.37695
604.4	26.19138
604.595	29.18278
604.791	26.94265
604.986	28.29476
605.182	27.39022
605.377	27.72993
605.573	27.67485
605.768	28.54581
605.964	29.47505
606.159	29.31518
606.355	30.25519
606.55	28.24223
606.746	29.93735
606.941	28.07546
607.136	31.23019
607.332	32.09163
607.527	26.53503
607.722	28.37838
607.918	27.70629
608.113	27.13138
608.308	29.07136
608.503	28.50795
608.699	28.51667
608.894	28.7443
609.089	27.10789
609.284	28.37336
609.479	27.58259
609.675	29.32199
609.87	27.74338
610.065	29.54903
610.26	29.94869
610.455	29.7167
610.65	28.39077
610.845	28.91224
611.04	30.33491
611.235	28.6706
611.43	28.07739
611.625	26.72691
611.82	30.91665
612.015	27.44984
612.21	30.68366
612.405	26.29794
612.6	31.27018
612.795	30.36488
612.99	29.06425
613.185	26.74285
613.38	27.21349
613.575	28.19218
613.77	32.72675
613.965	26.16076
614.159	27.34859
614.354	30.22271
614.549	29.86898
614.744	29.40417
614.938	26.71459
615.133	25.61579
615.328	30.30748
615.523	29.78124
615.717	32.98174
615.912	26.80899
616.107	28.77334
616.301	27.98582
616.496	27.79627
616.691	31.03461
616.885	29.65362
617.08	33.12171
617.274	29.98737
617.469	31.712
617.664	29.40686
617.858	27.86048
618.053	29.1391
618.247	28.17785
618.442	24.9097
618.636	30.81199
618.831	27.32952
619.025	27.5397
619.219	32.90064
619.414	23.54587
619.608	28.50914
619.803	27.69391
619.997	32.55412
620.191	30.63043
620.386	29.09969
620.58	28.32411
620.774	25.62102
620.969	26.14273
621.163	29.21347
621.357	26.82908
621.551	28.02558
621.746	28.80338
621.94	28.1849
622.134	34.42132
622.328	32.44738
622.522	25.87368
622.716	30.48925
622.911	30.70813
623.105	30.43079
623.299	29.63954
623.493	34.45168
623.687	27.49994
623.881	27.82124
624.075	29.81341
624.269	30.70276
624.463	25.56557
624.657	26.33404
624.851	29.60879
625.045	30.74339
625.239	30.55994
625.433	28.23383
625.627	31.16524
625.821	28.24753
626.015	27.65606
626.209	29.40667
626.403	27.1935
626.596	29.72336
626.79	30.48673
626.984	27.1725
627.178	29.8461
627.372	30.18778
627.565	30.84065
627.759	26.89141
627.953	27.44334
628.147	30.11941
628.34	30.40118
628.534	33.10972
628.728	28.64645
628.921	30.8901
629.115	30.15747
629.309	30.98269
629.502	30.8011
629.696	29.30742
629.89	28.95611
630.083	29.79015
630.277	30.2439
630.47	32.24545
630.664	28.84322
630.857	26.72955
631.051	30.46125
631.244	31.57257
631.438	30.85206
631.631	27.8391
631.825	32.20059
632.018	30.7077
632.212	33.27304
632.405	31.62251
632.598	28.07127
632.792	29.67534
632.985	24.95465
633.178	29.26208
633.372	29.11745
633.565	29.48739
633.758	32.0895
633.952	28.0274
634.145	27.76048
634.338	28.80296
634.531	28.39042
634.724	28.53772
634.918	29.93342
635.111	29.26164
635.304	29.05413
635.497	34.64214
635.69	30.08603
635.883	32.31704
636.077	27.86237
636.27	30.38935
636.463	29.72102
636.656	30.35237
636.849	29.42187
637.042	30.74688
637.235	32.42729
637.428	31.20618
637.621	30.98678
637.814	32.21517
638.007	32.83379
638.2	33.0878
638.393	33.99577
638.586	26.81058
638.778	29.14271
638.971	29.81354
639.164	33.66646
639.357	30.33371
639.55	32.79226
639.743	31.97139
639.935	31.08031
640.128	34.23027
640.321	31.3692
640.514	30.33735
640.707	35.12584
640.899	31.47738
641.092	26.50894
641.285	45.98014
641.477	25.24095
641.67	35.70563
641.863	33.21473
642.055	30.66051
642.248	29.77449
642.441	29.50941
642.633	30.55159
642.826	32.58921
643.018	33.12246
643.211	34.73357
643.403	33.93872
643.596	36.02871
643.788	34.44053
643.981	29.8425
644.173	33.15134
644.366	30.15086
644.558	26.6125
644.751	32.77693
644.943	27.19578
645.135	33.93757
645.328	34.84681
645.52	31.89001
645.712	33.30513
645.905	38.17472
646.097	27.84735
646.289	31.35716
646.482	35.85471
646.674	29.56768
646.866	33.97063
647.058	32.22086
647.251	27.90209
647.443	29.9197
647.635	30.85006
647.827	28.07544
648.019	29.37974
648.211	31.19247
648.404	30.66768
648.596	34.63059
648.788	31.33441
648.98	31.75014
649.172	32.06122
649.364	32.09856
649.556	26.95043
649.748	38.71528
649.94	28.16872
650.132	32.51727
650.324	28.94076
650.516	29.74366
650.708	34.37835
650.9	27.99249
651.092	27.60114
651.284	28.22189
651.476	28.84809
651.667	33.18967
651.859	34.71877
652.051	31.79732
652.243	32.32924
652.435	30.3427
652.627	33.49057
652.818	33.33906
653.01	27.82097
653.202	29.53587
653.394	30.24749
653.585	33.13193
653.777	43.65676
653.969	35.14426
654.16	34.882
654.352	29.12674
654.544	31.29023
654.735	34.1988
654.927	32.83148
655.118	35.71852
655.31	33.70672
655.502	35.42968
655.693	30.77243
655.885	33.81941
656.076	36.04005
656.268	32.52797
656.459	35.79017
656.651	36.1751
656.842	30.86041
657.034	29.99499
657.225	34.04268
657.416	35.77859
657.608	35.87126
657.799	31.81464
657.99	35.51879
658.182	30.54508
658.373	30.84639
658.564	34.18814
658.756	32.89854
658.947	32.18003
659.138	30.15297
659.33	31.37492
659.521	31.02733
659.712	32.6338
659.903	31.9874
660.094	31.16655
660.286	28.89658
660.477	37.88465
660.668	34.67969
660.859	32.79233
661.05	28.70307
661.241	35.11115
661.432	34.02349
661.623	31.97813
661.814	31.73104
662.006	28.17869
662.197	33.59464
662.388	35.93552
662.579	33.17077
662.77	37.02935
662.96	40.89827
663.151	34.60692
663.342	27.81396
663.533	34.26219
663.724	32.82219
663.915	38.07997
664.106	32.69636
664.297	38.1963
664.488	34.84644
664.678	31.02077
664.869	35.66343
665.06	35.85106
665.251	33.87351
665.442	34.15668
665.632	29.5372
665.823	38.29468
666.014	24.44947
666.204	34.94682
666.395	37.01109
666.586	41.69499
666.776	35.24896
666.967	38.66488
667.158	33.55543
667.348	37.3817
667.539	30.38792
667.729	36.57016
667.92	31.04945
668.111	36.28625
668.301	35.2152
668.492	32.90844
668.682	33.95294
668.873	33.26936
669.063	30.15644
669.253	34.49108
669.444	36.37439
669.634	33.58703
669.825	39.26683
670.015	37.7715
670.206	30.96231
670.396	39.93102
670.586	33.45856
670.777	35.15637
670.967	27.97615
671.157	33.09558
671.347	32.14234
671.538	38.46636
671.728	35.62373
671.918	40.50733
672.108	37.87197
672.299	33.18678
672.489	35.39141
672.679	31.96285
672.869	35.7202
673.059	40.99861
673.249	35.57252
673.44	30.81456
673.63	34.05676
673.82	37.80357
674.01	31.39253
674.2	35.52734
674.39	44.79033
674.58	36.44295
674.77	34.68855
674.96	33.04661
675.15	48.05948
675.34	38.22895
675.53	34.41161
675.72	33.86378
675.91	30.08223
676.099	41.15999
676.289	41.23628
676.479	38.3958
676.669	33.22894
676.859	36.39484
677.049	31.27704
677.238	34.73886
677.428	40.97694
677.618	35.4753
677.808	38.47825
677.997	36.85084
678.187	31.35745
678.377	35.23264
678.567	33.29249
678.756	33.00078
678.946	34.23431
679.136	30.5986
679.325	32.40003
679.515	31.9672
679.704	31.05552
679.894	37.08085
680.084	35.61879
680.273	38.54664
680.463	32.7329
680.652	32.58118
680.842	35.02046
681.031	38.20704
681.221	33.1209
681.41	37.94061
681.6	34.54802
681.789	37.98391
681.978	40.31909
682.168	36.20183
682.357	36.50613
682.547	37.93876
682.736	35.86479
682.925	40.39945
683.115	39.78405
683.304	39.17739
683.493	37.17205
683.682	37.78672
683.872	37.5198
684.061	41.28669
684.25	38.34967
684.439	42.44431
684.629	39.01651
684.818	49.24626
685.007	35.6035
685.196	35.47981
685.385	42.16879
685.574	37.86863
685.763	38.49278
685.952	37.39214
686.142	32.18453
686.331	41.93222
686.52	29.94375
686.709	42.65998
686.898	41.59041
687.087	39.05441
687.276	43.57375
687.465	39.71107
687.654	36.36364
687.842	42.89047
688.031	32.59342
688.22	41.72003
688.409	37.84313
688.598	38.08316
688.787	46.97249
688.976	38.42038
689.165	44.16716
689.353	35.98873
689.542	38.89229
689.731	39.96093
689.92	45.32184
690.108	40.93502
690.297	36.29143
690.486	38.02731
690.675	41.64772
690.863	45.42141
691.052	45.14592
691.241	40.02529
691.429	38.89005
691.618	45.30648
691.806	33.89074
691.995	37.06203
692.184	38.57166
692.372	37.183
692.561	40.32652
692.749	38.63135
692.938	49.74062
693.126	41.39485
693.315	37.03634
693.503	41.30904
693.692	40.98417
693.88	44.23159
694.068	49.39044
694.257	39.29648
694.445	41.73176
694.634	30.49686
694.822	43.71605
695.01	46.10965
695.199	44.95949
695.387	47.06328
695.575	46.10542
695.763	39.61293
695.952	37.63885
696.14	34.28817
696.328	37.81554
696.516	39.17147
696.705	40.73296
696.893	40.4803
697.081	31.65952
697.269	41.28856
697.457	34.46184
697.645	33.66683
697.833	41.47375
698.021	34.96306
698.21	36.38017
698.398	37.35629
698.586	33.94575
698.774	34.02489
698.962	37.49571
699.15	34.74316
699.338	33.13882
699.526	40.9204
699.714	36.71425
699.901	37.99073
700.089	43.69898
700.277	37.2955
700.465	39.95841
700.653	43.85576
700.841	42.67606
701.029	37.69034
701.217	46.13844
701.404	41.04675
701.592	48.93723
701.78	49.3856
701.968	40.06471
702.155	39.78774
702.343	34.77331
702.531	47.20243
702.718	41.86513
702.906	40.18188
703.094	38.82189
703.281	47.37439
703.469	41.62476
703.657	46.7619
703.844	57.32426
704.032	49.9547
704.219	38.50539
704.407	43.75576
704.595	48.3419
704.782	42.02875
704.97	40.15894
705.157	40.47824
705.345	50.0044
705.532	54.974
705.719	44.36663
705.907	50.41007
706.094	42.79969
706.282	51.21414
706.469	39.76956
706.656	43.46392
706.844	41.34206
707.031	47.12785
707.218	43.79045
707.406	51.89713
707.593	46.13302
707.78	45.6682
707.968	41.7545
708.155	39.12478
708.342	45.14758
708.529	45.15095
708.716	43.1169
708.904	51.65304
709.091	45.96403
709.278	37.31182
709.465	54.48819
709.652	52.75095
709.839	50.89141
710.026	44.10103
710.213	34.50725
710.4	46.09244
710.587	48.03353
710.774	49.83242
710.961	48.94542
711.148	43.94267
711.335	49.65762
711.522	42.51302
711.709	45.18848
711.896	56.57246
712.083	49.35872
712.27	40.61404
712.457	45.64639
712.644	37.25572
712.831	54.45675
713.017	46.27876
713.204	49.32996
713.391	42.39794
713.578	52.20278
713.765	51.79087
713.951	47.59108
714.138	64.05487
714.325	49.04995
714.512	45.78157
714.698	41.82115
714.885	55.29996
715.072	47.43948
715.258	46.3484
715.445	42.1938
715.631	54.63025
715.818	32.42722
716.005	43.24929
716.191	50.54886
716.378	44.75668
716.564	51.95184
716.751	41.43228
716.937	43.69229
717.124	53.73474
717.31	42.8127
717.497	56.4275
717.683	43.63164
717.869	62.71365
718.056	44.96699
718.242	49.83158
718.429	47.57489
718.615	41.47446
718.801	49.04421
718.988	53.73435
719.174	52.18308
719.36	47.41168
719.547	56.9463
719.733	49.39339
719.919	50.16046
720.105	52.94105
720.291	48.14686
720.478	48.59901
720.664	48.8525
720.85	47.3875
721.036	67.57417
721.222	57.57491
721.408	49.32396
721.595	62.74209
721.781	60.12984
721.967	55.31185
722.153	61.29006
722.339	52.24156
722.525	52.76371
722.711	43.23296
722.897	41.70175
723.083	47.3159
723.269	57.21791
723.455	66.94783
723.641	70.18755
723.827	51.35901
724.012	54.61424
724.198	46.90271
724.384	60.92762
724.57	54.1026
724.756	40.65075
724.942	38.31794
725.127	56.11755
725.313	61.06584
725.499	60.7292
725.685	62.60619
725.87	53.44552
726.056	45.90018
726.242	61.7741
726.428	40.19053
726.613	56.91377
726.799	48.78488
726.985	44.30655
727.17	40.06241
727.356	61.5278
727.541	44.04606
727.727	49.27716
727.913	54.36414
728.098	46.13404
728.284	56.52545
728.469	41.56457
728.655	44.77155
728.84	56.00667
729.026	57.70654
729.211	57.45826
729.397	53.73346
729.582	55.82382
729.767	51.06963
729.953	53.03698
730.138	57.84759
730.323	35.77957
730.509	43.76517
730.694	62.88833
730.879	54.12096
731.065	51.56131
731.25	67.46781
731.435	56.85858
731.621	40.44268
731.806	46.20665
731.991	52.03627
732.176	41.00798
732.361	60.90237
732.547	51.69599
732.732	39.60047
732.917	69.2539
733.102	43.19463
733.287	46.32225
733.472	51.9029
733.657	52.84039
733.842	41.46889
734.027	48.40043
734.212	51.81476
734.397	47.17571
734.582	54.21106
734.767	60.1618
734.952	65.96664
735.137	35.39132
735.322	64.20799
735.507	57.51996
735.692	55.34009
735.877	72.7087
736.062	67.67974
736.247	57.52266
736.431	52.60366
736.616	63.746
736.801	56.39942
736.986	52.71622
737.171	46.77745
737.355	44.40674
737.54	63.27115
737.725	53.88511
737.909	77.10037
738.094	48.02232
738.279	62.85666
738.463	51.20047
738.648	59.50062
738.833	55.93017
739.017	67.83052
739.202	48.59022
739.386	53.4345
739.571	45.52047
739.756	58.96853
739.94	53.41349
740.125	61.0498
740.309	46.21048
740.494	60.46005
740.678	54.30294
740.863	58.06304
741.047	56.25735
741.231	65.01278
741.416	48.98117
741.6	70.04649
741.785	50.06617
741.969	62.70923
742.153	66.18571
742.338	39.12749
742.522	56.4896
742.706	61.39074
742.89	44.48934
743.075	57.90676
743.259	69.27524
743.443	63.64447
743.627	67.92348
743.812	77.42943
743.996	42.6752
744.18	55.82321
744.364	51.21163
744.548	80.82654
744.732	56.15454
744.916	65.33309
745.1	61.26808
745.285	54.42625
745.469	61.39397
745.653	74.16907
745.837	43.6608
746.021	81.89682
746.205	69.21343
746.389	58.2495
746.573	55.03001
746.757	72.83987
746.94	53.25033
747.124	70.11549
747.308	45.77563
747.492	67.82546
747.676	49.16002
747.86	82.77162
748.044	51.93277
748.227	42.42988
748.411	92.7749
748.595	58.64848
748.779	48.05117
748.963	60.16127
749.146	57.93991
749.33	49.82208
749.514	46.3199
749.697	69.06021
749.881	53.06681
750.065	47.88888
750.248	57.79818
750.432	82.84538
750.616	56.01213
750.799	45.99097
750.983	77.99877
751.166	85.56859
751.35	43.77208
751.533	68.25123
751.717	70.01868
751.9	74.77771
752.084	53.34375
752.267	49.61158
752.451	51.76989
752.634	60.73469
752.818	64.1414
753.001	68.15853
753.184	70.86517
753.368	62.35301
753.551	27.18877
753.734	49.86565
753.918	78.33066
754.101	52.16904
754.284	66.57558
754.467	52.76833
754.651	51.28468
754.834	51.82116
755.017	70.53463
755.2	68.24839
755.384	47.84273
755.567	67.99091
755.75	69.73311
755.933	54.97036
756.116	60.63448
756.299	53.7178
756.482	49.33968
756.665	64.03032
756.848	57.11105
757.032	63.70464
757.215	45.09726
757.398	49.55741
757.581	51.04222
757.764	88.65306
757.947	55.64688
758.129	71.49752
758.312	33.00191
758.495	56.36028
758.678	58.73162
758.861	55.19536
759.044	77.56738
759.227	50.27985
759.41	51.76363
759.592	65.35405
759.775	56.59723
759.958	69.04693
760.141	46.33469
760.324	85.65005
760.506	73.89456
760.689	68.91728
760.872	84.59105
761.054	63.72804
761.237	56.17504
761.42	62.59681
761.602	68.51272
761.785	63.83723
761.968	68.64012
762.15	77.15976
762.333	54.80423
762.515	60.85254
762.698	51.24683
762.88	63.86117
763.063	57.37738
763.245	62.12953
763.428	45.52637
763.61	49.23726
763.793	42.63474
763.975	57.11121
764.158	50.42223
764.34	49.40761
764.522	46.78299
764.705	53.8718
764.887	67.90325
765.069	41.73632
765.252	65.20297
765.434	64.04085
765.616	59.02604
765.799	53.46757
765.981	67.46077
766.163	51.96851
766.345	69.9479
766.528	54.0734
766.71	37.44064
766.892	62.02854
767.074	75.40175
767.256	58.86078
767.438	81.44152
767.62	64.19193
767.802	89.28865
767.985	70.33428
768.167	86.14759
768.349	56.21958
768.531	67.6942
768.713	68.86089
768.895	72.15151
769.077	70.21108
769.259	93.50871
769.441	133.19781
769.623	75.40042
769.804	85.2077
769.986	83.48651
770.168	97.13459
770.35	113.32059
770.532	85.15565
770.714	95.54146
770.896	96.64945
771.077	54.21843
771.259	97.15156
771.441	82.35063
771.623	104.67954
771.804	124.03826
771.986	51.98863
772.168	68.87004
772.35	99.73116
772.531	128.11507
772.713	80.54169
772.894	109.6088
773.076	81.96587
773.258	75.22033
773.439	102.73717
773.621	116.51437
773.802	64.85105
773.984	71.49752
774.166	86.64616
774.347	112.16879
774.529	102.44427
774.71	51.04325
774.891	84.6524
775.073	76.54644
775.254	114.21001
775.436	74.60824
775.617	123.24369
775.799	71.37867
775.98	114.28299
776.161	115.3894
776.343	119.61054
776.524	83.17454
776.705	76.35343
776.886	51.25812
777.068	87.26245
777.249	144.96497
777.43	128.29358
777.611	61.31146
777.793	75.92222
777.974	114.36395
778.155	72.00261
778.336	67.42152
778.517	135.85968
778.698	69.33226
778.879	50.52784
779.061	36.63896
779.242	91.55502
779.423	95.34135
779.604	77.14825
779.785	82.44961
779.966	87.20649
780.147	103.77474
780.328	108.7288
780.509	145.05329
780.69	94.37473
780.871	72.41597
781.051	60.27827
781.232	88.92547
781.413	85.47344
781.594	77.83951
781.775	75.97918
781.956	69.38411
782.137	47.19124
782.317	74.6209
782.498	91.67814
782.679	83.34839
782.86	87.05662
783.04	72.86337
783.221	92.00997
783.402	122.87481
783.583	87.20135
783.763	98.8829
783.944	74.64623
784.124	58.6588
784.305	115.45274
784.486	95.94999
784.666	81.1079
784.847	55.73431
785.027	141.62705
785.208	71.3532
785.388	70.50167
785.569	73.23107
785.749	79.32237
785.93	75.78545
786.11	56.69358
786.291	93.80867
786.471	88.95046
786.652	102.54361
786.832	84.11218
787.012	89.5784
787.193	61.06784
787.373	86.95755
787.553	76.97227
787.734	89.84118
787.914	74.9571
788.094	91.99447
788.275	89.07424
788.455	76.09891
788.635	60.28792
788.815	85.51233
788.995	63.56517
789.176	52.05508
789.356	68.18349
789.536	76.76043
789.716	96.33325
789.896	70.94328
790.076	70.99854
790.256	88.6563
790.436	42.9965
790.616	67.09479
790.796	87.68001
790.976	75.16519
791.156	67.70516
791.336	101.95942
791.516	93.09912
791.696	78.59133
791.876	57.47991
792.056	86.409
792.236	100.89284
792.416	99.06712
792.596	96.38483
792.776	93.29073
792.956	98.72381
793.135	120.5701
793.315	62.98822
793.495	112.44948
793.675	100.38245
793.854	99.2574
794.034	103.37268
794.214	62.8613
794.394	103.19019
794.573	107.43628
794.753	89.10944
794.933	67.51583
795.112	88.6248
795.292	103.48092
795.472	122.61996
795.651	58.82109
795.831	81.35766
796.01	77.56484
796.19	76.60668
796.369	80.02903
796.549	94.42812
796.728	78.1731
796.908	58.73433
797.087	64.29869
797.267	73.71756
797.446	61.51687
797.626	96.70667
797.805	95.81526
797.984	67.92289
798.164	99.93873
798.343	66.38544
798.522	88.01575
798.702	84.87314
798.881	60.07045
799.06	78.05283
799.239	49.51498
799.419	67.22871
799.598	118.76105
799.777	94.2903
799.956	111.91764
800.136	72.37492
800.315	69.26979
800.494	93.19941
800.673	106.78881
800.852	97.66898
801.031	106.49009
801.21	98.18504
801.389	75.24748
801.568	88.58713
801.747	126.90824
801.926	88.45526
802.105	119.9358
802.284	75.64407
802.463	123.7112
802.642	87.36829
802.821	92.36082
803	114.40135
803.179	104.18247
803.358	111.7091
803.537	74.46996
803.716	84.474
803.895	70.60036
804.073	82.02434
804.252	72.99075
804.431	96.90687
804.61	81.53141
804.789	110.02821
804.967	73.37516
805.146	71.08097
805.325	127.48904
805.503	97.37626
805.682	55.89292
805.861	146.4211
806.039	109.86
806.218	74.58365
806.397	91.79311
806.575	83.10515
806.754	91.33707
806.932	66.64629
807.111	121.46361
807.289	104.83601
807.468	88.60872
807.646	113.41819
807.825	100.81003
808.003	91.66828
808.182	109.18691
808.36	88.24825
808.539	71.22132
808.717	122.78069
808.895	70.32111
809.074	97.0338
809.252	88.44607
809.43	100.51686
809.609	114.17992
809.787	130.71575
809.965	85.50347
810.144	90.60336
810.322	85.93394
810.5	102.35983
810.678	84.3414
810.856	146.26211
811.035	118.36609
811.213	108.30381
811.391	127.07054
811.569	95.27727
811.747	168.1875
811.925	118.38306
812.103	73.62628
812.281	90.48145
812.459	134.8568
812.637	137.78872
812.816	111.1799
812.994	138.04453
813.171	120.16431
813.349	103.89872
813.527	122.6814
813.705	128.80849
813.883	156.84987
814.061	121.10556
814.239	146.44098
814.417	147.20199
814.595	101.49186
814.773	100.77791
814.95	93.26607
815.128	104.07258
815.306	101.36736
815.484	92.6621
815.662	75.43791
815.839	66.87337
816.017	78.20741
816.195	128.28354
816.372	84.36903
816.55	111.74659
816.728	131.96421
816.905	90.89695
817.083	138.77224
817.261	91.43367
817.438	144.93782
817.616	139.35275
817.793	78.64276
817.971	119.84227
818.148	110.89885
818.326	128.06206
818.503	96.40525
818.681	129.10576
818.858	82.25132
819.036	86.66068
819.213	91.30554
819.391	73.93922
819.568	74.47958
819.745	68.12374
819.923	104.23427
820.1	75.72781
820.277	66.16468
820.455	76.80295
820.632	78.18325
820.809	78.95223
820.986	57.15846
821.164	51.6741
821.341	46.05358
821.518	55.65866
821.695	45.03516
821.872	44.65071
822.05	40.56947
822.227	36.39774
822.404	37.87647
822.581	41.69107
822.758	38.0722
822.935	38.66641
823.112	41.72098
823.289	37.62932
823.466	42.33257
823.643	41.74121
823.82	46.462
823.997	45.59399
824.174	50.67895
824.351	60.37076
824.528	59.77632
824.705	56.98687
824.882	59.54456
825.059	71.51609
825.236	56.1492
825.412	58.32412
825.589	66.35784
825.766	81.14278
825.943	59.65321
826.12	66.21277
826.296	51.05372
826.473	56.9525
826.65	57.79206
826.827	65.10799
827.003	49.55225
827.18	53.53322
827.357	58.38357
827.533	53.82237
827.71	38.50861
827.887	50.03731
828.063	55.26917
828.24	50.48599
828.416	62.63793
828.593	55.22456
828.769	71.89644
828.946	78.37333
829.122	82.32526
829.299	76.81056
829.475	57.44202
829.652	80.67251
829.828	119.5075
830.005	80.91066
830.181	103.78406
830.357	80.14907
830.534	108.97922
830.71	86.31483
830.886	105.11396
831.063	104.60423
831.239	123.48146
831.415	69.25985
831.592	121.20974
831.768	87.55498
831.944	78.35591
832.12	122.03156
832.296	111.74121
832.473	98.76885
832.649	77.97117
832.825	92.93533
833.001	62.177
833.177	86.27611
833.353	75.27201
833.529	50.95322
833.705	66.6339
833.881	53.54985
834.058	54.47153
834.234	56.68675
834.41	56.60727
834.586	48.62431
834.761	55.76409
834.937	60.29874
835.113	62.9917
835.289	60.04939
835.465	69.32154
835.641	62.51665
835.817	70.99003
835.993	114.33867
836.169	68.67256
836.344	89.75256
836.52	100.50477
836.696	94.21666
836.872	77.65384
837.048	168.62026
837.223	85.64845
837.399	143.40326
837.575	119.27628
837.75	113.311
837.926	146.3228
838.102	229.93749
838.277	173.07779
838.453	213.31933
838.628	221.74499
838.804	106.91738
838.98	211.3798
839.155	110.01034
839.331	148.17463
839.506	100.44058
839.682	104.66083
839.857	123.37251
840.033	147.00174
840.208	83.45399
840.384	52.85331
840.559	86.38572
840.734	114.65679
840.91	161.9862
841.085	102.76414
841.26	108.07236
841.436	96.19527
841.611	100.87904
841.786	141.38487
841.962	182.99843
842.137	117.78134
842.312	83.83677
842.487	111.46435
842.663	94.98765
842.838	104.09268
843.013	307.56321
843.188	164.41588
843.363	155.58834
843.538	264.33706
843.714	275.47057
843.889	275.83631
844.064	280.96991
844.239	254.26196
844.414	292.66358
844.589	197.17932
844.764	358.05031
844.939	330.91938
845.114	406.46836
845.289	394.6519
845.464	411.11753
845.639	340.41429
845.814	178.03146
845.989	206.92707
846.163	218.65977
846.338	262.31416
846.513	382.5314
846.688	242.26851
846.863	231.86676
847.038	212.8742
847.212	246.87305
847.387	284.60312
847.562	295.30525
847.737	316.84887
847.911	132.57562
848.086	159.7258
848.261	476.20468
848.435	215.15275
848.61	325.80218
848.785	173.96678
848.959	352.29188
849.134	476.41485
849.308	543.91149
849.483	256.57231
849.658	381.05655
849.832	216.63948
850.007	182.19789
850.181	669.64233
850.356	208.499
850.53	558.42158
850.705	155.68187
850.879	118.23916
851.053	223.4947
851.228	213.10218
851.402	324.97521
851.577	370.50906
851.751	462.02029
851.925	276.2771
852.099	140.97673
852.274	188.44639
852.448	236.70926
852.622	342.17035
852.797	259.2167
852.971	275.44767
853.145	265.31065
853.319	722.43867
853.493	373.773
853.668	226.17543
853.842	465.34645
854.016	364.3028
854.19	427.62425
854.364	266.20896
854.538	292.90343
854.712	363.58568
854.886	251.12937
855.06	229.06239
855.234	102.67754
855.408	474.71233
855.582	392.92184
855.756	385.91753
855.93	486.32817
856.104	273.72893
856.278	380.83638
856.452	239.5737
856.626	334.3934
856.8	565.72306
856.973	311.73483
857.147	307.74309
857.321	313.52497
857.495	385.30598
857.669	275.67543
857.842	237.65304
858.016	379.0055
858.19	176.21247
858.364	894.12417
858.537	215.27093
858.711	271.57345
858.885	243.62295
859.058	227.63216
859.232	134.0302
859.405	147.90667
859.579	365.08191
859.753	322.42965
859.926	180.65774
860.1	134.43561
860.273	260.60603
860.447	480.97021
860.62	253.88493
860.794	509.25867
860.967	298.17718
861.141	392.28438
861.314	716.48977
861.487	334.49856
861.661	427.56337
861.834	547.88338
862.008	379.47857
862.181	267.88865
862.354	270.98862
862.528	347.21457
862.701	220.66448
862.874	167.9758
863.047	232.21361
863.221	218.59565
863.394	126.27862
863.567	402.20148
863.74	114.16308
863.913	374.92815
864.087	310.28622
864.26	354.25238
864.433	220.72023
864.606	583.33015
864.779	259.44223
864.952	137.4156
865.125	218.8642
865.298	262.95986
865.471	250.90933
865.644	539.77726
865.817	402.76969
865.99	352.55617
866.163	522.40355
866.336	227.00567
866.509	262.30705
866.682	216.63087
866.855	440.47625
867.028	165.74126
867.2	301.47292
867.373	113.78762
867.546	259.1456
867.719	630.53172
867.892	316.0182
868.064	185.72893
868.237	301.95358
868.41	295.7905
868.583	151.5354
868.755	173.96992
868.928	229.49924
869.101	629.55952
869.273	368.85583
869.446	313.33668
869.619	417.42147
869.791	243.33154
869.964	396.636
870.136	378.28959
870.309	284.08902
870.481	282.09452
870.654	135.58128
870.826	306.8548
870.999	204.84652
871.171	304.43898
871.344	192.62186
871.516	235.86694
871.689	170.39433
871.861	255.04295
872.033	184.12808
872.206	219.6251
872.378	366.6796
872.55	213.61515
872.723	159.30181
872.895	216.90529
873.067	376.98262
873.24	372.02798
873.412	206.02435
873.584	233.94546
873.756	221.12009
873.928	276.87354
874.101	285.68292
874.273	308.95417
874.445	117.33812
874.617	159.1759
874.789	262.55904
874.961	220.63122
875.133	296.63874
875.305	240.12359
875.477	152.41552
875.649	136.61095
875.821	163.68795
875.993	434.24865
876.165	169.78206
876.337	259.01891
876.509	244.49265
876.681	275.01175
876.853	274.20847
877.025	258.39568
877.197	178.20891
877.369	157.38047
877.541	325.02976
877.712	100.54027
877.884	152.72902
878.056	284.90579
878.228	149.65808
878.4	270.81898
878.571	153.51634
878.743	113.28016
878.915	220.15834
879.086	148.1041
879.258	174.33006
879.43	152.88825
879.601	130.74414
879.773	144.77343
879.945	50.03534
880.116	67.04877
880.288	49.07801
880.459	51.34157
880.631	43.39119
880.802	48.21312
880.974	45.96043
881.145	37.95163
881.317	45.31362
881.488	37.81633
881.66	41.67385
881.831	38.63773
882.002	47.01296
882.174	39.65794
882.345	46.19719
882.517	33.91321
882.688	54.6267
882.859	47.15485
883.03	66.82956
883.202	67.11837
883.373	61.01656
883.544	60.90499
883.715	88.09586
883.887	78.93779
884.058	70.06329
884.229	97.90859
884.4	95.14934
884.571	108.74464
884.742	94.60047
884.914	93.92012
885.085	128.97572
885.256	170.74829
885.427	138.55533
885.598	164.60724
885.769	164.77903
885.94	173.78532
886.111	117.55716
886.282	190.29368
886.453	152.67563
886.624	119.08499
886.795	209.11985
886.966	166.78405
887.136	219.52402
887.307	153.13573
887.478	287.98606
887.649	217.69265
887.82	262.38626
887.991	211.68509
888.161	283.29088
888.332	261.76451
888.503	137.36151
888.674	348.87316
888.844	416.87117
889.015	322.71478
889.186	147.40511
889.356	373.74004
889.527	134.68731
889.698	621.64446
889.868	198.3584
890.039	278.08632
890.209	228.50748
890.38	316.92565
890.551	275.19552
890.721	341.69307
890.892	311.96236
891.062	221.33272
891.233	284.33418
891.403	201.97223
891.574	165.6808
891.744	216.72827
891.914	233.16036
892.085	256.18064
892.255	100.19304
892.425	399.30773
892.596	262.8526
892.766	267.92063
892.936	326.16774
893.107	292.18628
893.277	175.4202
893.447	127.71991
893.618	98.8366
893.788	185.06478
893.958	102.49292
894.128	97.67781
894.298	112.04422
894.468	144.24698
894.639	76.01045
894.809	60.38321
894.979	80.85525
895.149	93.06193
895.319	75.70807
895.489	106.48202
895.659	130.46011
895.829	90.29784
895.999	97.40393
896.169	81.6544
896.339	101.39984
896.509	193.48443
896.679	215.95506
896.849	219.69382
897.019	294.6863
897.189	237.09256
897.358	200.98684
897.528	300.70284
897.698	117.42886
897.868	271.35702
898.038	506.59238
898.208	505.65472
898.377	129.97954
898.547	497.61226
898.717	687.32673
898.886	257.81365
899.056	447.7926
899.226	705.68741
899.395	368.61292
899.565	617.19687
899.735	343.96801
899.904	577.53873
900.074	593.50829
900.244	215.30208
900.413	831.174
900.583	174.44311
900.752	331.19053
900.922	834.91891
901.091	72.15886
901.261	487.11135
901.43	425.41323
901.599	385.00458
901.769	1435.91583
901.938	618.32754
902.108	480.72629
902.277	830.86128
902.446	151.23476
902.616	182.68063
902.785	223.54844
902.954	420.54676
903.124	273.91822
903.293	196.86079
903.462	115.41285
903.631	161.84631
903.801	118.45659
903.97	72.93186
904.139	106.19178
904.308	87.32846
904.477	76.81605
904.646	53.64046
904.816	72.27015
904.985	103.90618
905.154	149.38757
