Data from WindowProjectSample2_Transmission__3__00008.txt Node

Date: Sat May 03 22:25:04 EDT 2025
User: jessi
Spectrometer: SR400872
Trigger mode: 0
Integration Time (sec): 5.000010E-1
Scans to average: 10
Electric dark correction enabled: true
Nonlinearity correction enabled: true
Boxcar width: 0
XAxis mode: Wavelengths
Number of Pixels in Spectrum: 3648
>>>>>Begin Spectral Data<<<<<
184.909	-6479.50735
185.132	7827.87299
185.355	19716.51304
185.578	8850.86111
185.801	-1345.76756
186.024	-1987.35335
186.247	-4478.16119
186.47	-2188.37089
186.693	-262.38195
186.916	-183.45085
187.139	-4549.13572
187.362	-13386.54392
187.585	2345.0801
187.808	-3265.49558
188.031	181.98761
188.254	3194.64515
188.476	-1428.09573
188.699	-36807.07841
188.922	2788.89726
189.145	-7424.53972
189.368	1140.84383
189.591	1200.10148
189.813	1359.81637
190.036	-3806.01783
190.259	1820.86088
190.482	9810.15351
190.705	3330.10451
190.927	11852.72566
191.15	5606.36903
191.373	1680.12447
191.595	4986.28869
191.818	2964.14299
192.041	475.61327
192.263	2615.46402
192.486	-1686.60362
192.709	-11188.99012
192.931	5802.91233
193.154	-15596.38629
193.377	5623.09637
193.599	11881.5572
193.822	-1528.10643
194.044	938.43531
194.267	1136.84703
194.489	145.85552
194.712	-6149.0436
194.934	4679.75616
195.157	-3994.04852
195.379	856.58773
195.602	1611.88829
195.824	10088.73585
196.047	4430.19498
196.269	-10642.56138
196.492	-11244.58864
196.714	-4462.10509
196.936	-4124.38905
197.159	5719.36013
197.381	-739.26453
197.604	1913.30127
197.826	-14275.2577
198.048	3734.38844
198.271	2141.03244
198.493	1718.5568
198.715	2504.03242
198.938	-2997.08232
199.16	2358.22394
199.382	3169.75385
199.604	4036.15914
199.827	-1295.83334
200.049	-2272.29572
200.271	3537.40432
200.493	-3151.69683
200.715	8312.02536
200.938	3232.87689
201.16	-6319.17216
201.382	-161983.40308
201.604	-8181.29069
201.826	2179.09645
202.048	21749.91825
202.27	18526.04039
202.492	4778.83019
202.715	-5766.78923
202.937	-5921.00419
203.159	-43280.06703
203.381	2253.37516
203.603	4338.77221
203.825	-1606.42687
204.047	4427.461
204.269	11154.27396
204.491	1542.99226
204.713	9164.94265
204.935	6138.22462
205.156	-9208.12187
205.378	1001.52215
205.6	2892.53146
205.822	5125.85547
206.044	1635.37758
206.266	4711.87202
206.488	2427.62382
206.71	14859.74642
206.932	-11082.93153
207.153	-4416.97685
207.375	5799.10074
207.597	8932.88223
207.819	2960.4285
208.041	26976.16023
208.262	-1343.40258
208.484	-5112.3135
208.706	1091.531
208.927	4295.13497
209.149	2311.59792
209.371	4280.7094
209.593	358.06605
209.814	3371.27192
210.036	2206.30857
210.258	1386.08943
210.479	760.13865
210.701	1464.64513
210.922	-9114.09278
211.144	3575.34118
211.366	1780.03836
211.587	1609.49274
211.809	8828.30713
212.03	3315.50706
212.252	3086.95867
212.473	5747.91764
212.695	1427.31194
212.916	3637.72435
213.138	1426.47281
213.359	-4621.11093
213.581	1630.19709
213.802	1213.05374
214.024	-11570.01895
214.245	-3753.18656
214.466	1063.43701
214.688	2659.29739
214.909	3704.04584
215.131	-11842.38552
215.352	2263.74015
215.573	14470.99402
215.795	1939.79736
216.016	3421.92269
216.237	-1213.45581
216.459	2592.2145
216.68	-15593.62551
216.901	3100.94842
217.122	-7730.96412
217.344	-1903.63374
217.565	-58796.76072
217.786	-103641.16195
218.007	507.21528
218.228	636.88193
218.45	16286.38307
218.671	419.52957
218.892	1580.80345
219.113	1240.50195
219.334	-1569.87251
219.555	3595.38581
219.776	6095.06801
219.997	5049.77215
220.219	5407.33602
220.44	1319.19946
220.661	-10867.38146
220.882	5771.20556
221.103	-11274.77465
221.324	1249.08372
221.545	3044.72995
221.766	2296.16161
221.987	1879.90011
222.208	733.45345
222.429	1612.51529
222.65	292.64988
222.87	762.05977
223.091	2852.6553
223.312	1825.30608
223.533	1118.75967
223.754	7310.34644
223.975	6226.81028
224.196	982.69998
224.417	-21630.78335
224.637	682.67876
224.858	84.98392
225.079	10138.76181
225.3	1790.51677
225.521	2830.00036
225.741	705.27751
225.962	668.73461
226.183	308.07172
226.404	1097.84581
226.624	1288.03446
226.845	597.88456
227.066	644.08947
227.286	337.67976
227.507	182.23567
227.728	181.27284
227.948	267.59992
228.169	85.16022
228.389	96.47778
228.61	52.74964
228.831	71.17987
229.051	4.40539
229.272	41.99129
229.492	63.37458
229.713	18.55763
229.933	43.3467
230.154	38.63938
230.374	64.89459
230.595	44.61127
230.815	25.75819
231.036	49.06908
231.256	-5.89955
231.477	89.63383
231.697	47.00524
231.917	49.25321
232.138	73.49229
232.358	149.72367
232.579	130.073
232.799	25.29198
233.019	118.48271
233.24	142.95308
233.46	51.04231
233.68	77.40441
233.901	56.56536
234.121	32.55414
234.341	12.39955
234.561	-5.18408
234.782	29.32291
235.002	86.51029
235.222	1.27537
235.442	73.77612
235.662	38.75225
235.883	76.97942
236.103	67.34682
236.323	52.89555
236.543	40.39576
236.763	52.55952
236.983	53.8745
237.203	57.50341
237.423	80.14154
237.643	109.86408
237.864	96.93232
238.084	25.80852
238.304	34.94347
238.524	62.1374
238.744	52.13903
238.964	84.63891
239.184	71.51421
239.404	78.40325
239.624	41.63001
239.843	68.82777
240.063	43.13594
240.283	28.48387
240.503	31.13696
240.723	28.25284
240.943	16.47516
241.163	21.68915
241.383	16.22097
241.603	8.64542
241.822	10.05592
242.042	6.71152
242.262	10.03791
242.482	11.3274
242.702	12.81162
242.921	4.30105
243.141	8.10786
243.361	7.90184
243.581	11.48021
243.8	10.16343
244.02	6.82841
244.24	13.17593
244.459	12.14048
244.679	23.44926
244.899	15.01492
245.118	18.05174
245.338	15.60688
245.558	18.88662
245.777	10.229
245.997	11.8319
246.216	12.57187
246.436	7.88179
246.655	5.33548
246.875	3.69927
247.094	7.61087
247.314	2.57896
247.533	4.41186
247.753	5.38215
247.972	4.4763
248.192	1.85758
248.411	2.4425
248.631	4.60679
248.85	5.93063
249.07	5.13988
249.289	8.09647
249.508	5.73469
249.728	9.65367
249.947	9.74767
250.166	11.4829
250.386	5.89046
250.605	9.43328
250.824	15.05962
251.044	10.00722
251.263	29.27384
251.482	17.83468
251.701	14.32004
251.921	-0.06149
252.14	4.91735
252.359	5.54105
252.578	12.8728
252.798	4.22012
253.017	10.99497
253.236	5.01219
253.455	7.4775
253.674	15.0183
253.893	6.41094
254.112	10.93331
254.331	14.76817
254.551	13.67183
254.77	5.4788
254.989	17.56725
255.208	14.68504
255.427	18.3688
255.646	16.85878
255.865	28.06002
256.084	10.50009
256.303	13.22772
256.522	17.04924
256.741	4.6389
256.96	3.85802
257.179	10.15022
257.397	13.42739
257.616	6.88258
257.835	7.70615
258.054	18.75451
258.273	12.29356
258.492	12.84223
258.711	7.62588
258.93	3.04455
259.148	5.29711
259.367	5.27623
259.586	6.7109
259.805	2.75454
260.023	6.02766
260.242	4.60008
260.461	3.25022
260.68	1.73025
260.898	5.43442
261.117	1.79587
261.336	1.25759
261.554	4.55341
261.773	4.67753
261.992	1.00913
262.21	4.66626
262.429	5.52038
262.648	8.86347
262.866	10.35373
263.085	6.84131
263.303	6.4101
263.522	10.60938
263.74	11.45756
263.959	19.19139
264.178	9.08081
264.396	8.83628
264.615	6.47764
264.833	14.49554
265.051	12.69624
265.27	12.90848
265.488	14.0404
265.707	8.68932
265.925	13.68114
266.144	6.53587
266.362	7.18625
266.58	7.36357
266.799	6.29466
267.017	6.98565
267.235	6.25022
267.454	4.45814
267.672	2.2528
267.89	4.99647
268.109	5.80841
268.327	5.88577
268.545	1.02192
268.763	4.84824
268.982	2.21258
269.2	6.53828
269.418	3.73013
269.636	2.88216
269.854	5.57234
270.073	4.29166
270.291	2.025
270.509	2.09738
270.727	5.51177
270.945	9.12205
271.163	8.94196
271.381	1.88565
271.599	4.03413
271.817	6.44315
272.036	2.28572
272.254	3.78357
272.472	3.18195
272.69	3.12894
272.908	3.21588
273.126	4.93027
273.344	6.71812
273.562	2.37772
273.779	3.35097
273.997	5.14893
274.215	5.52692
274.433	3.86705
274.651	5.96158
274.869	6.15705
275.087	3.66261
275.305	5.73877
275.523	2.83683
275.74	3.86184
275.958	6.53181
276.176	10.67432
276.394	3.09804
276.612	4.32411
276.829	4.15441
277.047	3.57102
277.265	3.81982
277.483	4.35019
277.7	5.40646
277.918	4.74011
278.136	7.79161
278.353	3.78582
278.571	2.40976
278.789	6.39359
279.006	1.26801
279.224	3.59941
279.442	6.06557
279.659	4.44889
279.877	2.90884
280.094	6.54828
280.312	1.31564
280.529	4.26238
280.747	1.30824
280.964	3.47721
281.182	7.1915
281.399	3.43317
281.617	4.46107
281.834	3.39542
282.052	3.13377
282.269	4.0886
282.487	3.41213
282.704	2.87321
282.921	2.92415
283.139	4.23645
283.356	5.13288
283.574	4.70184
283.791	2.3052
284.008	6.70315
284.226	3.63671
284.443	4.08262
284.66	5.36899
284.877	4.37227
285.095	2.71081
285.312	1.92883
285.529	1.24529
285.746	1.26616
285.964	2.63778
286.181	1.70086
286.398	2.53945
286.615	3.39901
286.832	3.31963
287.05	0.8046
287.267	2.33472
287.484	2.3607
287.701	3.50379
287.918	3.28173
288.135	3.32699
288.352	1.57339
288.569	1.94873
288.786	3.11139
289.003	2.40712
289.22	3.52676
289.437	2.05352
289.654	3.38854
289.871	3.74
290.088	3.62927
290.305	2.69021
290.522	2.295
290.739	2.50544
290.956	3.76065
291.173	4.71739
291.39	4.33261
291.607	3.19038
291.824	2.46764
292.04	1.70263
292.257	3.72199
292.474	4.22535
292.691	2.54114
292.908	1.21716
293.125	2.34812
293.341	1.3682
293.558	6.26456
293.775	2.82811
293.992	2.65628
294.208	0.9736
294.425	1.54191
294.642	2.32603
294.858	3.34924
295.075	0.8905
295.292	2.35569
295.508	2.90464
295.725	4.54306
295.942	2.20005
296.158	1.60746
296.375	2.65034
296.591	2.0191
296.808	1.98035
297.024	2.34389
297.241	2.69006
297.458	2.90274
297.674	0.15853
297.891	2.37465
298.107	1.72046
298.323	1.37293
298.54	3.32767
298.756	1.74353
298.973	0.83707
299.189	3.71812
299.406	1.36708
299.622	3.67617
299.838	3.51723
300.055	3.29172
300.271	0.80281
300.487	1.31254
300.704	1.37762
300.92	1.00828
301.136	4.74507
301.353	3.5917
301.569	2.55426
301.785	2.70306
302.001	3.30491
302.218	2.87495
302.434	2.95755
302.65	0.89159
302.866	1.88096
303.083	4.84558
303.299	4.60067
303.515	2.36113
303.731	2.71194
303.947	0.82899
304.163	1.75998
304.379	2.58368
304.595	3.06246
304.812	1.58071
305.028	1.4792
305.244	2.2461
305.46	3.52895
305.676	3.14179
305.892	4.13358
306.108	2.91429
306.324	2.12369
306.54	4.74444
306.756	3.22047
306.972	2.9915
307.187	2.24196
307.403	4.21629
307.619	2.03678
307.835	3.62548
308.051	4.10017
308.267	1.20103
308.483	3.60902
308.699	2.73916
308.914	2.56916
309.13	2.32016
309.346	0.75295
309.562	1.29359
309.778	0.80986
309.993	2.99017
310.209	2.27673
310.425	1.24142
310.641	2.18752
310.856	1.2385
311.072	1.26611
311.288	2.36146
311.503	2.45713
311.719	0.66678
311.935	0.41689
312.15	2.72929
312.366	2.43379
312.581	3.06927
312.797	2.41034
313.013	3.01513
313.228	1.83229
313.444	2.45223
313.659	1.72845
313.875	2.64317
314.09	2.28339
314.306	4.0553
314.521	3.39814
314.737	3.02923
314.952	2.58346
315.168	2.43186
315.383	3.09789
315.599	2.22437
315.814	2.31713
316.029	3.55246
316.245	1.12576
316.46	0.71695
316.675	3.93919
316.891	4.71335
317.106	5.82626
317.321	3.31243
317.537	3.0229
317.752	3.29918
317.967	3.43194
318.183	1.53343
318.398	2.10367
318.613	3.55595
318.828	4.07822
319.043	3.40695
319.259	2.28731
319.474	3.02682
319.689	3.83486
319.904	0.70223
320.119	3.38417
320.334	2.70187
320.549	2.22549
320.765	3.80912
320.98	2.82424
321.195	3.4368
321.41	2.39723
321.625	3.67778
321.84	4.55375
322.055	4.49166
322.27	1.78666
322.485	1.48285
322.7	3.07916
322.915	3.57148
323.13	1.64006
323.345	4.16579
323.56	2.97009
323.775	3.15454
323.989	3.11174
324.204	2.64701
324.419	3.61395
324.634	0.97819
324.849	2.37809
325.064	4.95558
325.279	3.51384
325.493	3.24615
325.708	3.80576
325.923	1.79118
326.138	1.83693
326.352	4.4831
326.567	3.57532
326.782	2.08049
326.997	1.78475
327.211	3.50597
327.426	3.17442
327.641	2.3114
327.855	0.87822
328.07	3.2938
328.285	4.50589
328.499	2.13745
328.714	3.01269
328.928	3.39317
329.143	2.4756
329.358	3.79815
329.572	3.72651
329.787	3.96983
330.001	5.46235
330.216	1.15892
330.43	4.50894
330.645	4.5339
330.859	3.61321
331.074	1.95324
331.288	2.76259
331.503	4.2063
331.717	1.52369
331.931	2.74603
332.146	2.90286
332.36	4.79491
332.575	3.09833
332.789	2.92145
333.003	2.58815
333.218	3.3261
333.432	2.00294
333.646	3.43883
333.86	4.39051
334.075	4.3948
334.289	2.14393
334.503	1.72966
334.717	3.36669
334.932	3.08848
335.146	4.05873
335.36	2.35647
335.574	3.56911
335.788	3.64001
336.003	4.15511
336.217	3.5597
336.431	3.25471
336.645	2.1654
336.859	1.38083
337.073	2.54801
337.287	2.74321
337.501	1.5079
337.715	2.75588
337.929	3.12919
338.143	1.1761
338.357	2.45771
338.571	1.73665
338.785	3.2137
338.999	2.04662
339.213	2.09696
339.427	1.12276
339.641	4.0187
339.855	2.30467
340.069	2.02187
340.283	3.62841
340.497	4.58534
340.711	3.17466
340.924	2.44611
341.138	1.47963
341.352	1.2053
341.566	2.56754
341.78	0.70981
341.993	1.87867
342.207	1.71571
342.421	2.83628
342.635	2.89371
342.848	1.95941
343.062	0.62053
343.276	1.87456
343.49	4.8576
343.703	1.89301
343.917	3.48989
344.131	3.56971
344.344	1.79408
344.558	1.93247
344.771	1.58435
344.985	3.7717
345.199	4.15263
345.412	2.75516
345.626	2.84125
345.839	0.80627
346.053	1.4063
346.266	1.38046
346.48	3.28085
346.693	2.98479
346.907	3.04919
347.12	1.628
347.334	2.70319
347.547	2.92191
347.76	2.30174
347.974	3.93092
348.187	2.78912
348.401	2.29773
348.614	2.07454
348.827	2.32374
349.041	3.38957
349.254	0.49665
349.467	2.33878
349.681	1.36384
349.894	1.90045
350.107	3.68488
350.32	4.22793
350.534	1.08064
350.747	2.0827
350.96	1.53288
351.173	1.88308
351.386	1.99006
351.6	2.0388
351.813	1.87041
352.026	2.4238
352.239	1.29508
352.452	2.27412
352.665	3.4955
352.878	2.16976
353.092	4.64197
353.305	3.03115
353.518	2.37446
353.731	1.44449
353.944	3.45168
354.157	1.70767
354.37	1.54699
354.583	1.3499
354.796	0.89553
355.009	3.50483
355.222	2.5376
355.435	2.50961
355.647	3.45122
355.86	1.41974
356.073	2.33727
356.286	1.83629
356.499	2.9376
356.712	2.71131
356.925	2.74101
357.138	3.26493
357.35	1.29648
357.563	1.88882
357.776	2.36714
357.989	2.08431
358.201	2.68967
358.414	2.54652
358.627	3.32782
358.84	2.0494
359.052	1.29065
359.265	1.30886
359.478	3.16652
359.69	-0.19434
359.903	2.89332
360.116	2.93123
360.328	0.5919
360.541	2.95089
360.753	1.54577
360.966	1.72114
361.179	1.78932
361.391	1.62841
361.604	1.19436
361.816	1.64703
362.029	1.46095
362.241	1.31583
362.454	1.5057
362.666	1.20593
362.879	2.15957
363.091	1.85285
363.304	1.391
363.516	2.03316
363.728	1.04393
363.941	2.66908
364.153	1.66998
364.366	0.18078
364.578	1.11586
364.79	2.50088
365.003	2.00712
365.215	1.63769
365.427	2.42774
365.639	3.26151
365.852	2.25764
366.064	3.6502
366.276	1.82871
366.488	2.52407
366.701	1.79955
366.913	1.86512
367.125	1.53418
367.337	1.494
367.549	1.59147
367.762	2.16719
367.974	2.0132
368.186	1.46242
368.398	3.05015
368.61	2.63414
368.822	2.77327
369.034	2.18658
369.246	2.69493
369.458	4.24648
369.67	1.26354
369.882	3.73428
370.094	0.32509
370.306	3.60167
370.518	1.70218
370.73	1.58069
370.942	1.49533
371.154	1.87171
371.366	1.5652
371.578	2.38491
371.79	1.32528
372.002	3.11106
372.214	3.65674
372.425	2.26354
372.637	3.38517
372.849	2.39867
373.061	0.24028
373.273	2.50666
373.484	2.46318
373.696	2.88239
373.908	0.19864
374.12	3.06529
374.331	2.53168
374.543	1.21487
374.755	1.15161
374.967	2.09792
375.178	2.89925
375.39	1.89078
375.602	2.08818
375.813	0.98636
376.025	1.08678
376.236	2.04286
376.448	2.17315
376.66	1.55237
376.871	1.5365
377.083	2.75628
377.294	3.07329
377.506	1.53401
377.717	3.16928
377.929	2.36013
378.14	1.36933
378.352	2.47823
378.563	2.47012
378.775	3.18913
378.986	1.31361
379.197	2.321
379.409	1.60014
379.62	2.73307
379.832	2.26004
380.043	1.98177
380.254	2.19331
380.466	1.0828
380.677	4.33624
380.888	4.02587
381.1	4.23936
381.311	4.11438
381.522	2.13369
381.733	4.81117
381.945	1.8134
382.156	2.17009
382.367	1.77957
382.578	4.73729
382.789	4.43949
383.001	1.6826
383.212	3.31673
383.423	3.4449
383.634	3.22282
383.845	2.56319
384.056	1.77895
384.267	2.04001
384.478	2.14005
384.69	1.24971
384.901	2.59868
385.112	2.44254
385.323	3.49788
385.534	2.42503
385.745	2.32996
385.956	2.53097
386.167	1.34146
386.378	2.62425
386.588	1.29404
386.799	1.47489
387.01	0.69568
387.221	3.03478
387.432	1.98419
387.643	3.80128
387.854	1.82963
388.065	1.92955
388.275	1.91689
388.486	1.81916
388.697	2.09235
388.908	1.83863
389.119	3.04399
389.329	3.58637
389.54	2.30152
389.751	2.39692
389.962	3.10289
390.172	2.26726
390.383	1.77499
390.594	1.56671
390.804	1.4187
391.015	1.49025
391.226	2.11271
391.436	2.54686
391.647	2.31819
391.858	2.61464
392.068	0.67672
392.279	1.20292
392.489	2.19033
392.7	2.92184
392.91	1.30609
393.121	1.4916
393.331	2.42705
393.542	3.12587
393.752	2.6733
393.963	2.33631
394.173	2.15344
394.384	2.70042
394.594	2.20276
394.804	1.16591
395.015	2.21421
395.225	2.59535
395.436	1.29147
395.646	2.5937
395.856	1.56937
396.067	0.97779
396.277	2.97705
396.487	2.40221
396.697	2.34186
396.908	2.91666
397.118	2.69096
397.328	2.36253
397.538	3.00586
397.749	1.52851
397.959	2.94896
398.169	2.72358
398.379	1.01201
398.589	2.78398
398.8	2.30589
399.01	2.11178
399.22	1.91677
399.43	4.19103
399.64	1.92187
399.85	2.6992
400.06	2.09039
400.27	1.66785
400.48	2.29208
400.69	3.44228
400.9	1.89743
401.11	1.64095
401.32	2.94506
401.53	1.85754
401.74	3.57983
401.95	3.0805
402.16	1.62319
402.37	2.77198
402.58	1.71254
402.79	2.59077
403	2.97733
403.209	1.83228
403.419	2.93575
403.629	1.78566
403.839	2.72327
404.049	2.94718
404.258	1.74738
404.468	1.7215
404.678	2.80684
404.888	2.82393
405.097	1.62758
405.307	2.17786
405.517	2.58078
405.727	2.47167
405.936	1.935
406.146	2.43659
406.356	3.29713
406.565	2.29044
406.775	1.90681
406.984	1.77666
407.194	3.76039
407.404	2.32743
407.613	2.63284
407.823	2.91914
408.032	3.2513
408.242	3.19207
408.451	1.98424
408.661	2.34794
408.87	3.68196
409.08	1.94506
409.289	2.70333
409.499	2.48331
409.708	2.42097
409.918	0.76331
410.127	2.35024
410.336	3.61489
410.546	2.82173
410.755	1.9541
410.964	2.02791
411.174	1.60094
411.383	2.76707
411.592	2.72003
411.802	1.6954
412.011	3.12141
412.22	2.35545
412.429	3.58961
412.639	3.57919
412.848	3.42546
413.057	3.74994
413.266	3.29791
413.475	2.38187
413.685	3.17406
413.894	3.14079
414.103	3.38872
414.312	3.11948
414.521	2.38701
414.73	2.55444
414.939	4.0082
415.148	2.83731
415.357	2.77875
415.566	2.23864
415.776	2.11006
415.985	2.11939
416.194	3.09109
416.403	3.70878
416.611	1.48165
416.82	2.01492
417.029	2.34939
417.238	1.92231
417.447	1.67312
417.656	1.91078
417.865	1.72572
418.074	2.05832
418.283	2.17174
418.492	2.78889
418.7	2.76974
418.909	3.58374
419.118	2.56771
419.327	2.84827
419.536	2.5516
419.744	2.19388
419.953	3.43651
420.162	3.42845
420.371	2.37686
420.579	2.2716
420.788	3.47221
420.997	3.3927
421.205	3.42769
421.414	3.12581
421.623	2.83768
421.831	2.61124
422.04	3.53677
422.249	2.58074
422.457	3.10002
422.666	2.50088
422.874	3.6572
423.083	3.68689
423.291	3.56106
423.5	3.17951
423.708	3.41452
423.917	3.86052
424.125	3.23115
424.334	2.91705
424.542	4.96554
424.751	4.05616
424.959	3.75704
425.167	4.15194
425.376	3.93626
425.584	3.22377
425.793	3.4904
426.001	2.54613
426.209	3.38406
426.418	2.40379
426.626	2.41943
426.834	2.08929
427.042	2.69419
427.251	2.40162
427.459	3.3383
427.667	2.98082
427.875	1.96143
428.084	2.40963
428.292	3.57427
428.5	3.19432
428.708	2.16051
428.916	2.25349
429.124	2.88191
429.333	2.59297
429.541	2.58435
429.749	2.8367
429.957	2.68774
430.165	4.31946
430.373	1.91973
430.581	2.93337
430.789	3.72079
430.997	2.45399
431.205	2.37764
431.413	2.90721
431.621	2.536
431.829	3.27891
432.037	2.46085
432.245	3.1303
432.453	3.0651
432.661	2.51524
432.869	4.03203
433.076	2.22326
433.284	2.63676
433.492	3.15706
433.7	3.56698
433.908	2.46193
434.116	2.85531
434.323	2.96882
434.531	2.86406
434.739	3.13537
434.947	3.49477
435.154	3.43802
435.362	2.92814
435.57	2.70306
435.778	2.60417
435.985	3.26628
436.193	2.51069
436.401	3.65235
436.608	3.00567
436.816	2.5942
437.023	4.12479
437.231	4.07695
437.439	2.97819
437.646	3.39564
437.854	3.17192
438.061	3.39127
438.269	2.77945
438.476	3.31742
438.684	3.03965
438.891	2.65183
439.099	2.44156
439.306	2.03012
439.514	2.37323
439.721	3.34423
439.929	2.7631
440.136	3.56487
440.343	3.51338
440.551	3.16657
440.758	4.84181
440.965	3.70134
441.173	3.41239
441.38	2.88318
441.587	3.33315
441.795	2.80434
442.002	3.28488
442.209	3.23894
442.416	3.51399
442.624	3.42257
442.831	3.4014
443.038	2.68027
443.245	2.39334
443.452	2.75485
443.66	3.67024
443.867	2.65921
444.074	2.7001
444.281	2.56889
444.488	2.80759
444.695	2.93066
444.902	2.74785
445.109	3.63688
445.316	3.08569
445.523	3.13783
445.73	2.95964
445.937	3.6289
446.144	4.07594
446.351	4.09113
446.558	3.10654
446.765	4.55087
446.972	4.45385
447.179	3.64779
447.386	4.65996
447.593	3.25109
447.8	4.55306
448.007	3.2726
448.214	3.24284
448.42	2.82322
448.627	3.86268
448.834	2.98299
449.041	3.02835
449.248	2.98955
449.454	3.81501
449.661	4.59428
449.868	2.85253
450.075	2.89135
450.281	1.9378
450.488	2.46428
450.695	2.61107
450.901	2.72045
451.108	2.95525
451.315	3.82383
451.521	3.07382
451.728	3.72589
451.935	2.68355
452.141	2.98484
452.348	3.12299
452.554	3.08874
452.761	2.93393
452.967	4.24205
453.174	3.25799
453.38	3.31448
453.587	2.37374
453.793	3.18084
454	3.82834
454.206	4.59392
454.413	3.92862
454.619	3.48423
454.825	2.72352
455.032	3.57891
455.238	3.84702
455.445	2.51372
455.651	3.26473
455.857	1.99511
456.064	2.92131
456.27	3.02357
456.476	2.99645
456.682	2.34768
456.889	3.52472
457.095	3.65341
457.301	4.77896
457.507	3.29235
457.714	3.22664
457.92	3.2149
458.126	2.52886
458.332	2.97026
458.538	2.71858
458.744	2.83384
458.951	2.91562
459.157	4.50835
459.363	3.64863
459.569	3.62995
459.775	4.2555
459.981	3.43183
460.187	3.77261
460.393	4.23664
460.599	4.7385
460.805	3.61782
461.011	3.58536
461.217	4.0455
461.423	4.14516
461.629	3.23296
461.835	3.92894
462.041	3.23158
462.247	4.61431
462.453	3.32721
462.658	3.31559
462.864	3.96319
463.07	3.6629
463.276	3.52321
463.482	3.65725
463.688	4.28116
463.893	3.06279
464.099	3.14265
464.305	4.45057
464.511	3.10267
464.716	3.4138
464.922	4.03553
465.128	2.88281
465.333	4.66204
465.539	3.89115
465.745	3.34559
465.95	3.62698
466.156	5.31654
466.362	4.27126
466.567	3.36851
466.773	3.24383
466.978	4.72006
467.184	2.8501
467.389	2.09899
467.595	3.85977
467.8	2.87592
468.006	4.54006
468.211	4.38271
468.417	2.83213
468.622	4.02271
468.828	4.16887
469.033	3.7434
469.239	5.56546
469.444	3.226
469.649	4.19869
469.855	3.41553
470.06	3.64568
470.266	2.78787
470.471	4.12882
470.676	3.92415
470.881	2.53841
471.087	4.5978
471.292	4.92753
471.497	2.72755
471.703	3.32913
471.908	3.19098
472.113	3.78106
472.318	4.29608
472.523	2.88789
472.729	3.84042
472.934	3.93352
473.139	3.31317
473.344	4.04194
473.549	4.63525
473.754	3.18774
473.959	5.06576
474.164	3.17764
474.369	3.57149
474.575	4.33362
474.78	3.73362
474.985	3.22794
475.19	2.54853
475.395	3.07628
475.6	3.40248
475.804	4.5472
476.009	3.5953
476.214	3.77562
476.419	3.27894
476.624	2.49296
476.829	3.12745
477.034	3.90964
477.239	3.07733
477.444	4.00674
477.648	3.87745
477.853	3.94081
478.058	3.36108
478.263	3.15896
478.468	2.87116
478.672	2.98766
478.877	4.56456
479.082	4.73998
479.287	3.965
479.491	3.67299
479.696	2.83176
479.901	4.25868
480.105	4.06665
480.31	3.12806
480.515	3.52726
480.719	5.10119
480.924	3.22421
481.128	2.79289
481.333	3.47404
481.538	3.60995
481.742	3.51902
481.947	4.26881
482.151	4.51578
482.356	4.49736
482.56	5.75359
482.765	6.25107
482.969	7.56366
483.174	8.60672
483.378	10.1946
483.582	9.98799
483.787	10.99414
483.991	10.99306
484.196	11.18664
484.4	10.97284
484.604	11.29557
484.809	9.72521
485.013	9.63141
485.217	8.38547
485.422	7.52605
485.626	6.69413
485.83	6.43418
486.034	6.12911
486.239	6.34246
486.443	6.48603
486.647	6.5096
486.851	7.40576
487.055	8.11466
487.26	7.41592
487.464	8.14957
487.668	7.46672
487.872	7.43475
488.076	8.20144
488.28	7.54702
488.484	6.93223
488.688	6.82246
488.892	6.85821
489.096	6.46265
489.3	5.72405
489.504	5.30878
489.708	5.45005
489.912	5.4404
490.116	5.2161
490.32	4.52803
490.524	5.48034
490.728	5.99088
490.932	5.79511
491.136	5.97517
491.34	7.04654
491.544	7.21232
491.748	6.76604
491.951	6.83808
492.155	6.46282
492.359	6.66387
492.563	5.55533
492.767	5.16841
492.97	4.78164
493.174	4.17997
493.378	4.05599
493.582	3.41147
493.785	3.90577
493.989	4.10691
494.193	4.05353
494.396	3.53266
494.6	4.44024
494.804	3.85508
495.007	3.52406
495.211	3.39879
495.414	3.66674
495.618	3.81387
495.822	4.478
496.025	3.65876
496.229	4.21076
496.432	3.3697
496.636	3.72386
496.839	3.74006
497.043	4.65303
497.246	3.85638
497.45	3.49612
497.653	3.61057
497.856	4.0038
498.06	3.14626
498.263	3.69332
498.467	3.51219
498.67	4.28083
498.873	4.04014
499.077	3.617
499.28	3.49085
499.483	4.07506
499.686	4.37416
499.89	4.02051
500.093	4.35127
500.296	3.51681
500.499	4.7711
500.703	3.9227
500.906	4.03333
501.109	5.14745
501.312	3.93564
501.515	3.71448
501.719	4.1971
501.922	4.82585
502.125	4.17262
502.328	3.8815
502.531	3.19137
502.734	4.00593
502.937	2.78169
503.14	3.9638
503.343	3.19314
503.546	3.61431
503.749	3.35746
503.952	4.14812
504.155	3.21203
504.358	4.33523
504.561	3.81601
504.764	3.1084
504.967	3.80962
505.17	4.00561
505.373	4.97428
505.576	3.97962
505.778	4.34768
505.981	3.44157
506.184	4.69691
506.387	2.78174
506.59	4.97576
506.793	4.67265
506.995	4.04054
507.198	2.82139
507.401	4.0121
507.604	4.21185
507.806	3.13205
508.009	3.3475
508.212	4.11433
508.414	3.41039
508.617	3.3068
508.82	3.85632
509.022	4.45374
509.225	4.0193
509.427	2.85005
509.63	4.66106
509.833	3.82008
510.035	3.65658
510.238	2.92122
510.44	4.56006
510.643	2.4893
510.845	5.30141
511.048	4.13005
511.25	3.52822
511.453	3.71271
511.655	4.09142
511.858	3.47497
512.06	4.32346
512.262	3.85759
512.465	4.41086
512.667	3.44473
512.869	3.22923
513.072	4.12338
513.274	4.53492
513.476	4.24225
513.679	4.38375
513.881	3.2893
514.083	5.02113
514.286	3.52975
514.488	3.50641
514.69	3.50456
514.892	2.99397
515.094	4.31133
515.297	3.58616
515.499	3.90586
515.701	3.31423
515.903	5.09767
516.105	5.02987
516.307	4.31796
516.509	2.7688
516.711	3.11886
516.913	3.85076
517.116	3.71949
517.318	3.54829
517.52	4.40826
517.722	3.99663
517.924	2.98844
518.126	4.09619
518.328	3.48782
518.529	4.2056
518.731	5.02753
518.933	3.50442
519.135	3.76051
519.337	4.57703
519.539	4.20587
519.741	2.86578
519.943	3.85269
520.145	3.74947
520.346	4.24854
520.548	3.91608
520.75	4.13929
520.952	3.66541
521.153	4.20161
521.355	4.19212
521.557	3.27839
521.759	3.97472
521.96	3.90211
522.162	3.21964
522.364	4.82827
522.565	3.34251
522.767	4.48519
522.969	4.75914
523.17	4.16695
523.372	4.28125
523.573	3.43183
523.775	3.71708
523.977	3.12688
524.178	4.91334
524.38	3.37409
524.581	4.17644
524.783	3.44888
524.984	4.21493
525.186	3.91793
525.387	4.47723
525.589	4.09468
525.79	3.92982
525.991	3.71256
526.193	4.43913
526.394	3.45341
526.596	4.53188
526.797	4.61646
526.998	4.1895
527.2	4.05033
527.401	5.73446
527.602	5.93087
527.803	7.52149
528.005	7.51916
528.206	8.23173
528.407	8.72658
528.608	8.33464
528.81	8.57286
529.011	7.91045
529.212	8.96079
529.413	8.03326
529.614	7.38018
529.815	7.25096
530.017	6.66364
530.218	5.84333
530.419	4.85955
530.62	5.02552
530.821	4.85618
531.022	3.66511
531.223	4.925
531.424	4.63206
531.625	4.63175
531.826	4.4068
532.027	4.70914
532.228	5.78147
532.429	5.29434
532.63	5.33645
532.831	5.83262
533.032	5.73659
533.233	6.36611
533.433	6.15082
533.634	6.2115
533.835	5.54374
534.036	5.15736
534.237	5.11292
534.438	4.67116
534.638	3.94843
534.839	3.9548
535.04	4.27183
535.241	3.74296
535.441	4.90175
535.642	4.22438
535.843	3.55586
536.043	3.68882
536.244	3.86663
536.445	3.85827
536.645	4.85674
536.846	4.40013
537.047	5.00953
537.247	3.74509
537.448	4.01212
537.648	4.02412
537.849	3.90666
538.049	3.84574
538.25	4.64193
538.451	4.33281
538.651	3.51848
538.851	4.38604
539.052	4.77364
539.252	4.62913
539.453	3.9211
539.653	4.11829
539.854	3.84879
540.054	3.96431
540.254	5.07232
540.455	5.63953
540.655	5.02389
540.855	6.00388
541.056	6.69734
541.256	6.10585
541.456	7.13703
541.657	6.23519
541.857	7.21281
542.057	5.69215
542.257	5.65919
542.458	6.12776
542.658	6.0007
542.858	4.491
543.058	5.43398
543.258	4.88731
543.458	3.68349
543.659	3.39773
543.859	4.35777
544.059	4.37935
544.259	3.80604
544.459	4.5378
544.659	3.76822
544.859	4.4007
545.059	3.5996
545.259	4.46046
545.459	4.21781
545.659	4.58988
545.859	4.01261
546.059	4.05038
546.259	3.48058
546.459	3.01881
546.659	3.29172
546.859	4.38065
547.059	4.20945
547.258	4.37284
547.458	4.34851
547.658	3.36424
547.858	3.48578
548.058	4.26401
548.258	4.10908
548.457	3.52121
548.657	6.08687
548.857	3.95531
549.057	4.96162
549.256	4.60865
549.456	4.03023
549.656	2.88926
549.855	5.78693
550.055	4.0464
550.255	5.69922
550.454	4.60611
550.654	5.15867
550.853	5.37986
551.053	5.07847
551.253	4.56928
551.452	4.61217
551.652	3.26847
551.851	2.8039
552.051	3.75733
552.25	3.66986
552.45	3.67517
552.649	3.8079
552.849	3.44534
553.048	4.19264
553.248	4.50746
553.447	3.49135
553.646	5.04527
553.846	5.65737
554.045	5.18124
554.244	3.44947
554.444	5.88377
554.643	3.74911
554.842	5.5572
555.042	6.23001
555.241	3.9049
555.44	3.66383
555.64	4.6966
555.839	5.86749
556.038	4.9472
556.237	4.0201
556.436	4.30906
556.636	4.85376
556.835	3.79487
557.034	5.90743
557.233	4.46066
557.432	3.37703
557.631	5.50497
557.83	4.3128
558.029	4.09784
558.228	4.32401
558.427	3.61791
558.626	4.59802
558.825	3.74998
559.024	4.6511
559.223	6.2427
559.422	4.24271
559.621	4.89498
559.82	2.40159
560.019	4.34425
560.218	4.07924
560.417	1.99835
560.616	3.92628
560.815	7.31637
561.014	2.95077
561.212	5.44432
561.411	4.59191
561.61	2.89904
561.809	4.11396
562.008	5.80192
562.206	4.36661
562.405	4.98035
562.604	4.36095
562.803	4.48703
563.001	4.2557
563.2	3.09034
563.399	4.89055
563.597	3.27615
563.796	4.66479
563.995	3.28031
564.193	4.77564
564.392	3.81066
564.59	6.23882
564.789	2.56604
564.988	3.88417
565.186	4.24973
565.385	3.88903
565.583	3.70772
565.782	3.97138
565.98	3.79417
566.179	4.01032
566.377	3.15174
566.575	3.48348
566.774	5.09766
566.972	4.97167
567.171	6.00538
567.369	5.39986
567.567	4.23128
567.766	4.48801
567.964	2.45479
568.162	4.92386
568.361	5.31282
568.559	4.21954
568.757	4.86431
568.956	4.38039
569.154	4.17386
569.352	4.9107
569.55	4.20155
569.748	4.34246
569.947	3.40207
570.145	3.5584
570.343	3.11439
570.541	5.29622
570.739	2.99491
570.937	4.21174
571.135	4.49026
571.333	5.51338
571.532	5.45129
571.73	4.35487
571.928	5.02012
572.126	4.52999
572.324	3.86506
572.522	5.41468
572.72	6.47749
572.918	4.26524
573.116	4.57988
573.313	4.20988
573.511	4.0812
573.709	3.98738
573.907	4.7519
574.105	4.11996
574.303	2.68185
574.501	3.03245
574.699	4.49127
574.896	4.51819
575.094	4.65905
575.292	3.05188
575.49	5.06251
575.688	4.19529
575.885	5.45759
576.083	6.05443
576.281	4.61474
576.478	3.70898
576.676	5.05506
576.874	3.38075
577.071	4.20401
577.269	6.73452
577.467	4.2909
577.664	4.4806
577.862	5.20214
578.059	3.88089
578.257	5.30762
578.455	4.57596
578.652	4.51045
578.85	2.78677
579.047	4.75132
579.245	4.64021
579.442	4.54287
579.64	4.52009
579.837	2.73821
580.034	7.28334
580.232	4.06839
580.429	3.53643
580.627	5.32774
580.824	5.93154
581.021	5.312
581.219	4.30663
581.416	3.83114
581.613	6.27072
581.811	6.14217
582.008	3.82421
582.205	5.69972
582.402	5.04212
582.6	6.97646
582.797	4.94917
582.994	5.3134
583.191	5.59117
583.388	4.96042
583.586	5.98892
583.783	6.27362
583.98	3.71007
584.177	4.83123
584.374	1.73373
584.571	4.8629
584.768	4.59884
584.965	4.42076
585.162	5.74925
585.359	6.73548
585.556	4.97681
585.753	5.39993
585.95	3.50835
586.147	4.0203
586.344	5.66159
586.541	4.76874
586.738	3.71492
586.935	4.94916
587.132	3.94149
587.329	5.97262
587.526	4.48492
587.722	10.21622
587.919	3.29622
588.116	5.02297
588.313	6.52336
588.51	7.35907
588.706	4.60569
588.903	5.34705
589.1	5.90298
589.297	7.83965
589.493	4.79942
589.69	5.26543
589.887	4.08938
590.083	3.30504
590.28	3.94091
590.477	5.913
590.673	5.37959
590.87	6.16005
591.067	4.38539
591.263	5.69117
591.46	5.49897
591.656	4.73768
591.853	6.87795
592.049	3.96662
592.246	4.09329
592.442	6.63243
592.639	5.94125
592.835	3.59713
593.032	5.34408
593.228	3.2994
593.425	3.03314
593.621	3.30684
593.817	4.95695
594.014	4.13959
594.21	4.88257
594.406	5.96282
594.603	5.02813
594.799	4.17886
594.995	2.35815
595.192	5.90896
595.388	4.19117
595.584	3.97371
595.78	3.01243
595.977	6.93248
596.173	6.21319
596.369	4.10849
596.565	3.29448
596.761	2.88251
596.957	5.58784
597.154	3.44827
597.35	3.77421
597.546	3.65026
597.742	5.06217
597.938	4.63509
598.134	3.54131
598.33	4.92236
598.526	6.51161
598.722	5.51703
598.918	7.03412
599.114	5.94136
599.31	4.05932
599.506	4.89848
599.702	4.2747
599.898	5.46916
600.094	6.53863
600.29	6.04325
600.485	6.12045
600.681	4.80861
600.877	7.08219
601.073	5.25981
601.269	7.19897
601.465	6.58637
601.66	4.13749
601.856	2.59627
602.052	7.00855
602.248	4.47521
602.443	2.20286
602.639	3.24036
602.835	3.47651
603.03	3.68047
603.226	5.42796
603.422	3.57446
603.617	4.25171
603.813	3.91632
604.009	3.71773
604.204	5.49418
604.4	2.55637
604.595	5.3171
604.791	3.37907
604.986	4.67806
605.182	3.45906
605.377	4.00459
605.573	3.65447
605.768	4.60095
605.964	5.3249
606.159	5.58289
606.355	6.35921
606.55	4.30493
606.746	6.1629
606.941	4.99354
607.136	7.51998
607.332	9.0768
607.527	3.50038
607.722	5.33974
607.918	4.97139
608.113	3.71544
608.308	5.51607
608.503	5.36659
608.699	5.10832
608.894	5.02944
609.089	3.64237
609.284	4.88515
609.479	3.87565
609.675	5.26447
609.87	3.99413
610.065	5.17355
610.26	5.83467
610.455	5.8424
610.65	4.57224
610.845	5.0248
611.04	6.21426
611.235	4.81096
611.43	4.76996
611.625	3.25075
611.82	6.89298
612.015	3.94999
612.21	7.4023
612.405	3.12655
612.6	8.15175
612.795	7.16562
612.99	6.6142
613.185	3.97339
613.38	4.51227
613.575	5.51614
613.77	9.25313
613.965	3.33872
614.159	4.24372
614.354	7.40651
614.549	7.28957
614.744	6.52013
614.938	4.61343
615.133	3.7934
615.328	7.27392
615.523	7.78527
615.717	9.96128
615.912	4.88313
616.107	5.53264
616.301	5.01666
616.496	4.52477
616.691	8.55097
616.885	6.52505
617.08	9.52932
617.274	7.68989
617.469	9.19492
617.664	6.53558
617.858	4.83013
618.053	6.27526
618.247	5.32391
618.442	2.46129
618.636	7.69709
618.831	5.21677
619.025	5.15004
619.219	9.80751
619.414	1.11625
619.608	5.37826
619.803	4.66732
619.997	9.11373
620.191	7.76975
620.386	6.36553
620.58	6.20368
620.774	3.27703
620.969	3.33332
621.163	6.22806
621.357	3.85085
621.551	5.23471
621.746	6.62572
621.94	6.01411
622.134	11.71388
622.328	9.22536
622.522	3.73434
622.716	7.72172
622.911	7.29463
623.105	7.06933
623.299	6.39503
623.493	11.07079
623.687	4.87782
623.881	5.65339
624.075	6.86806
624.269	7.50032
624.463	2.78041
624.657	3.32372
624.851	6.84477
625.045	7.10301
625.239	6.87959
625.433	4.76104
625.627	8.08231
625.821	4.80339
626.015	4.20144
626.209	5.62221
626.403	3.27781
626.596	5.82997
626.79	6.36282
626.984	3.73783
627.178	6.12586
627.372	6.18286
627.565	6.4645
627.759	3.10124
627.953	3.7003
628.147	6.40651
628.34	6.71289
628.534	9.14409
628.728	5.4529
628.921	7.38992
629.115	7.42406
629.309	7.41524
629.502	7.44786
629.696	6.58348
629.89	5.84236
630.083	6.04609
630.277	6.95989
630.47	9.4153
630.664	5.62388
630.857	3.9776
631.051	7.63058
631.244	8.20039
631.438	8.02041
631.631	4.70205
631.825	8.32091
632.018	7.16128
632.212	9.52761
632.405	8.2978
632.598	5.13218
632.792	6.95435
632.985	1.80547
633.178	5.48918
633.372	6.04359
633.565	6.12519
633.758	8.42862
633.952	4.71203
634.145	4.64619
634.338	6.34948
634.531	5.53984
634.724	4.82245
634.918	6.31267
635.111	6.02238
635.304	5.15081
635.497	10.17706
635.69	6.76872
635.883	8.5331
636.077	4.11056
636.27	7.86189
636.463	7.0337
636.656	7.59886
636.849	5.20479
637.042	7.18563
637.235	9.94856
637.428	8.28356
637.621	8.56273
637.814	9.55838
638.007	9.82887
638.2	9.92246
638.393	10.8928
638.586	4.39308
638.778	5.87651
638.971	7.5568
639.164	10.16085
639.357	7.98649
639.55	9.63524
639.743	8.81354
639.935	8.3655
640.128	11.60273
640.321	8.64214
640.514	7.88536
640.707	12.97125
640.899	8.96878
641.092	3.97737
641.285	22.64728
641.477	3.15034
641.67	11.99573
641.863	10.00391
642.055	8.12145
642.248	8.32246
642.441	6.79768
642.633	8.71204
642.826	9.94325
643.018	10.46932
643.211	11.30181
643.403	11.43942
643.596	12.14761
643.788	11.55376
643.981	6.81697
644.173	9.3428
644.366	6.89988
644.558	4.06569
644.751	9.96416
644.943	4.75708
645.135	11.79096
645.328	12.35258
645.52	9.54728
645.712	10.00335
645.905	15.14325
646.097	6.13345
646.289	9.06498
646.482	12.78314
646.674	6.50047
646.866	10.69944
647.058	8.95741
647.251	5.70064
647.443	6.61478
647.635	7.53169
647.827	5.69918
648.019	5.66909
648.211	7.71173
648.404	8.555
648.596	11.74389
648.788	8.79031
648.98	9.03916
649.172	8.83916
649.364	9.42611
649.556	4.35294
649.748	13.84434
649.94	6.86777
650.132	9.36335
650.324	6.3694
650.516	6.42864
650.708	10.54577
650.9	5.36978
651.092	7.20909
651.284	4.35858
651.476	5.85946
651.667	9.46547
651.859	11.18577
652.051	8.1778
652.243	8.78534
652.435	6.97179
652.627	9.0694
652.818	9.06893
653.01	4.59773
653.202	6.2391
653.394	7.82196
653.585	9.84021
653.777	19.85804
653.969	11.49064
654.16	10.93383
654.352	6.28951
654.544	8.55042
654.735	11.32189
654.927	8.74338
655.118	12.60987
655.31	10.8212
655.502	11.23353
655.693	6.9943
655.885	10.02918
656.076	12.32289
656.268	9.20764
656.459	12.19557
656.651	12.51397
656.842	7.51955
657.034	6.3961
657.225	10.3246
657.416	12.21189
657.608	11.121
657.799	7.81908
657.99	10.56545
658.182	6.06642
658.373	6.68751
658.564	9.69062
658.756	8.08629
658.947	7.56582
659.138	5.69167
659.33	6.77339
659.521	6.20102
659.712	7.26845
659.903	7.25914
660.094	6.18208
660.286	4.67717
660.477	12.91248
660.668	9.58317
660.859	8.69009
661.05	5.16332
661.241	10.5022
661.432	10.0571
661.623	7.7725
661.814	7.63918
662.006	4.88227
662.197	10.36114
662.388	11.64809
662.579	9.34156
662.77	17.26733
662.96	16.0947
663.151	11.99272
663.342	4.6119
663.533	10.97071
663.724	8.45903
663.915	13.82717
664.106	8.84592
664.297	14.66386
664.488	11.29924
664.678	8.3791
664.869	11.06117
665.06	12.37299
665.251	9.8008
665.442	11.32053
665.632	7.38053
665.823	15.86526
666.014	2.53295
666.204	11.28453
666.395	13.61698
666.586	18.17355
666.776	12.35861
666.967	15.23961
667.158	9.81473
667.348	14.26329
667.539	6.4172
667.729	12.26464
667.92	7.45842
668.111	12.819
668.301	11.57752
668.492	8.56702
668.682	9.23979
668.873	9.48742
669.063	7.17163
669.253	9.5279
669.444	12.82275
669.634	9.07092
669.825	15.62674
670.015	12.5575
670.206	7.73744
670.396	16.51406
670.586	9.95036
670.777	11.77152
670.967	4.71542
671.157	9.91767
671.347	8.47382
671.538	15.04429
671.728	12.49118
671.918	15.93858
672.108	13.39814
672.299	10.49667
672.489	11.55055
672.679	8.49224
672.869	11.8921
673.059	15.76662
673.249	12.08562
673.44	8.47864
673.63	10.42612
673.82	13.33471
674.01	7.95882
674.2	12.49669
674.39	19.71497
674.58	12.33001
674.77	10.85537
674.96	9.90497
675.15	23.9121
675.34	13.52106
675.53	11.06696
675.72	9.54389
675.91	6.59272
676.099	16.68209
676.289	18.45281
676.479	14.23511
676.669	9.70803
676.859	12.94223
677.049	6.96593
677.238	10.66759
677.428	17.3089
677.618	11.44545
677.808	13.90044
677.997	12.84184
678.187	7.19005
678.377	10.15932
678.567	8.27774
678.756	9.41629
678.946	9.34812
679.136	6.25128
679.325	8.15262
679.515	7.46687
679.704	6.05652
679.894	11.58963
680.084	10.63118
680.273	13.75002
680.463	7.74998
680.652	7.37778
680.842	9.74829
681.031	12.84732
681.221	7.3668
681.41	11.85354
681.6	10.16056
681.789	12.87229
681.978	14.38894
682.168	11.26197
682.357	11.73665
682.547	13.10936
682.736	12.37304
682.925	15.32038
683.115	14.46026
683.304	13.98864
683.493	12.48395
683.682	12.9835
683.872	12.29371
684.061	15.43773
684.25	13.94121
684.439	18.23239
684.629	13.78615
684.818	22.96018
685.007	12.09311
685.196	11.2595
685.385	17.86725
685.574	14.28377
685.763	12.94748
685.952	12.85542
686.142	8.08288
686.331	17.76222
686.52	6.30598
686.709	17.25672
686.898	17.55866
687.087	14.14898
687.276	18.47418
687.465	15.76475
687.654	10.80376
687.842	18.31556
688.031	7.9763
688.22	17.13924
688.409	13.22495
688.598	12.92342
688.787	21.54513
688.976	13.13496
689.165	19.14249
689.353	11.28315
689.542	14.15734
689.731	16.01698
689.92	20.84246
690.108	16.89597
690.297	11.75939
690.486	13.52161
690.675	15.97651
690.863	20.54328
691.052	19.56696
691.241	15.34337
691.429	14.84057
691.618	19.42871
691.806	8.67408
691.995	12.74393
692.184	13.28473
692.372	11.79876
692.561	14.02509
692.749	14.57992
692.938	23.70104
693.126	16.89132
693.315	13.59629
693.503	16.25613
693.692	17.266
693.88	18.93286
694.068	23.83479
694.257	14.36653
694.445	15.69075
694.634	6.15231
694.822	19.23174
695.01	20.07928
695.199	20.14196
695.387	21.41091
695.575	19.59799
695.763	14.64807
695.952	13.69961
696.14	8.20132
696.328	12.36479
696.516	15.25118
696.705	15.14109
696.893	15.26619
697.081	7.67035
697.269	16.649
697.457	9.4787
697.645	8.1478
697.833	15.88803
698.021	9.24279
698.21	10.26816
698.398	11.76098
698.586	8.28747
698.774	7.26751
698.962	11.05123
699.15	8.31304
699.338	6.6611
699.526	13.74742
699.714	10.25827
699.901	9.91254
700.089	16.12019
700.277	10.50523
700.465	12.36556
700.653	16.62565
700.841	15.66898
701.029	10.9457
701.217	19.54545
701.404	14.84284
701.592	20.63972
701.78	23.30821
701.968	13.21239
702.155	14.11824
702.343	9.39701
702.531	19.93759
702.718	17.69521
702.906	14.23615
703.094	12.35932
703.281	20.7182
703.469	14.301
703.657	20.23579
703.844	30.37083
704.032	22.24946
704.219	13.62509
704.407	17.21629
704.595	22.74313
704.782	16.95767
704.97	14.39825
705.157	14.58989
705.345	24.33756
705.532	28.37428
705.719	17.69167
705.907	23.10886
706.094	17.05222
706.282	24.62819
706.469	15.35304
706.656	17.59131
706.844	15.75484
707.031	22.08671
707.218	17.31361
707.406	23.69026
707.593	20.52711
707.78	18.65042
707.968	16.63361
708.155	13.2126
708.342	19.97478
708.529	20.41061
708.716	18.3099
708.904	25.75026
709.091	20.512
709.278	12.4225
709.465	25.02618
709.652	26.04159
709.839	24.75825
710.026	19.30318
710.213	9.61875
710.4	18.61172
710.587	22.4789
710.774	23.45869
710.961	22.97001
711.148	18.74161
711.335	23.34968
711.522	17.69386
711.709	18.65411
711.896	29.00072
712.083	23.03467
712.27	13.83692
712.457	19.59189
712.644	11.70202
712.831	29.10979
713.017	19.48746
713.204	22.31643
713.391	14.76329
713.578	25.50559
713.765	25.02656
713.951	22.38008
714.138	35.70657
714.325	22.43145
714.512	19.16939
714.698	14.68383
714.885	27.18693
715.072	21.33245
715.258	19.48327
715.445	17.4431
715.631	25.64229
715.818	7.10116
716.005	16.34479
716.191	21.94823
716.378	18.24307
716.564	24.24822
716.751	15.24065
716.937	16.95715
717.124	26.37887
717.31	16.41313
717.497	29.03103
717.683	15.58844
717.869	34.75222
718.056	17.77252
718.242	24.46913
718.429	20.70462
718.615	14.56828
718.801	20.73692
718.988	25.99568
719.174	24.27768
719.36	19.5769
719.547	28.59028
719.733	24.31053
719.919	22.94788
720.105	26.31884
720.291	20.62065
720.478	23.3574
720.664	20.44546
720.85	18.70051
721.036	40.30728
721.222	31.23063
721.408	21.12494
721.595	34.28679
721.781	33.35938
721.967	29.49744
722.153	31.89405
722.339	27.13374
722.525	26.36697
722.711	15.6961
722.897	14.18557
723.083	19.5154
723.269	30.04733
723.455	38.80008
723.641	42.91258
723.827	25.23938
724.012	26.62704
724.198	20.471
724.384	30.6713
724.57	25.56839
724.756	14.90438
724.942	9.73401
725.127	30.3929
725.313	34.34046
725.499	32.0701
725.685	37.96889
725.87	25.98347
726.056	17.84572
726.242	31.35795
726.428	14.61346
726.613	29.56969
726.799	22.37028
726.985	17.08495
727.17	13.71066
727.356	33.63435
727.541	17.47034
727.727	23.75995
727.913	27.8529
728.098	20.34999
728.284	28.12816
728.469	15.71708
728.655	15.96285
728.84	28.88286
729.026	28.40578
729.211	29.73913
729.397	25.4448
729.582	28.67624
729.767	22.75525
729.953	25.76423
730.138	30.43843
730.323	10.74261
730.509	15.98448
730.694	34.38982
730.879	26.64233
731.065	25.55592
731.25	38.22339
731.435	28.40257
731.621	14.42332
731.806	20.42275
731.991	26.44103
732.176	14.53489
732.361	32.10704
732.547	25.67888
732.732	13.66883
732.917	40.19467
733.102	16.69808
733.287	18.9392
733.472	23.69857
733.657	26.04213
733.842	14.77889
734.027	23.93426
734.212	22.25409
734.397	20.76153
734.582	24.98622
734.767	30.12647
734.952	35.42852
735.137	9.00864
735.322	36.57797
735.507	27.29726
735.692	28.75359
735.877	43.97043
736.062	38.48192
736.247	26.94062
736.431	26.07109
736.616	36.04614
736.801	28.69718
736.986	27.10106
737.171	18.45777
737.355	14.95224
737.54	35.05289
737.725	25.16057
737.909	47.90018
738.094	22.20405
738.279	32.35777
738.463	23.9168
738.648	31.46473
738.833	29.6159
739.017	41.36332
739.202	23.83925
739.386	25.67042
739.571	19.19395
739.756	33.04684
739.94	26.78989
740.125	33.51137
740.309	20.36419
740.494	32.7508
740.678	28.39043
740.863	30.99872
741.047	28.2519
741.231	37.25393
741.416	21.69215
741.6	40.00547
741.785	21.18926
741.969	32.9598
742.153	36.32229
742.338	11.46651
742.522	26.45913
742.706	34.41047
742.89	17.94151
743.075	27.79523
743.259	40.45534
743.443	34.73877
743.627	37.43723
743.812	47.47078
743.996	7.77724
744.18	27.44369
744.364	23.0015
744.548	50.88563
744.732	26.13123
744.916	32.63263
745.1	32.35363
745.285	24.92175
745.469	33.21302
745.653	45.39328
745.837	17.49288
746.021	48.8668
746.205	38.66516
746.389	30.14796
746.573	26.72906
746.757	41.93365
746.94	23.11189
747.124	38.38809
747.308	18.28163
747.492	40.06596
747.676	22.66717
747.86	47.81353
748.044	23.1307
748.227	14.47938
748.411	60.48806
748.595	31.31995
748.779	21.68699
748.963	32.27969
749.146	28.03774
749.33	21.25412
749.514	20.03667
749.697	39.44757
749.881	24.20886
750.065	21.20496
750.248	30.07467
750.432	51.11305
750.616	28.49986
750.799	18.39668
750.983	47.02534
751.166	56.77849
751.35	16.68197
751.533	36.55028
751.717	39.14469
751.9	45.03638
752.084	25.15541
752.267	21.40621
752.451	21.51847
752.634	30.90426
752.818	34.9175
753.001	37.34177
753.184	39.11768
753.368	32.96556
753.551	3.15965
753.734	22.57763
753.918	48.39939
754.101	22.35362
754.284	36.67318
754.467	27.10816
754.651	24.50791
754.834	21.41971
755.017	40.02044
755.2	37.07593
755.384	20.50596
755.567	36.30606
755.75	40.30564
755.933	27.01884
756.116	33.65252
756.299	25.45493
756.482	24.32941
756.665	33.91396
756.848	30.11059
757.032	33.54116
757.215	17.34831
757.398	22.99409
757.581	23.38933
757.764	56.69342
757.947	30.6818
758.129	43.0651
758.312	4.10781
758.495	28.58084
758.678	29.35423
758.861	28.07122
759.044	50.75913
759.227	24.95041
759.41	21.22353
759.592	37.32705
759.775	29.50685
759.958	39.31925
760.141	19.86837
760.324	51.59124
760.506	44.49282
760.689	40.22154
760.872	57.37313
761.054	33.25433
761.237	27.87594
761.42	33.6115
761.602	40.31682
761.785	33.85007
761.968	39.5801
762.15	47.69761
762.333	27.12798
762.515	33.81157
762.698	25.1929
762.88	35.06739
763.063	31.30661
763.245	35.47008
763.428	21.24741
763.61	23.13259
763.793	16.82128
763.975	29.5118
764.158	24.06723
764.34	23.43982
764.522	19.35745
764.705	22.85469
764.887	40.91392
765.069	16.03978
765.252	37.33413
765.434	37.71549
765.616	29.87555
765.799	24.6744
765.981	39.6249
766.163	20.4004
766.345	40.32601
766.528	24.28107
766.71	8.22571
766.892	32.72849
767.074	43.17737
767.256	25.92418
767.438	49.56453
767.62	35.38058
767.802	55.90264
767.985	41.49915
768.167	55.77584
768.349	23.66607
768.531	41.87365
768.713	35.41765
768.895	43.27184
769.077	34.4981
769.259	57.03883
769.441	92.34108
769.623	47.54373
769.804	54.13133
769.986	52.3116
770.168	66.56921
770.35	81.43632
770.532	57.80982
770.714	60.67889
770.896	63.05482
771.077	24.02303
771.259	62.52811
771.441	51.88245
771.623	72.54572
771.804	90.90607
771.986	20.71377
772.168	40.3893
772.35	67.32341
772.531	94.05016
772.713	49.82482
772.894	71.23189
773.076	50.26085
773.258	41.42675
773.439	67.76387
773.621	81.10859
773.802	32.10101
773.984	42.70427
774.166	56.25873
774.347	80.55044
774.529	69.01103
774.71	17.70532
774.891	46.0509
775.073	43.19299
775.254	80.81861
775.436	40.53061
775.617	85.826
775.799	45.61713
775.98	82.12103
776.161	81.22786
776.343	79.14269
776.524	47.67934
776.705	47.60529
776.886	25.19735
777.068	54.86649
777.249	96.62905
777.43	86.95187
777.611	33.49688
777.793	48.12341
777.974	77.89454
778.155	44.50842
778.336	38.04455
778.517	90.11228
778.698	39.0743
778.879	17.77401
779.061	6.61638
779.242	60.65168
779.423	59.71006
779.604	51.77341
779.785	49.48893
779.966	55.34861
780.147	70.30628
780.328	72.95107
780.509	103.59943
780.69	62.87874
780.871	39.38812
781.051	24.75383
781.232	56.51524
781.413	57.96634
781.594	47.79361
781.775	42.18558
781.956	41.1844
782.137	18.92323
782.317	47.415
782.498	61.40609
782.679	56.17543
782.86	53.51671
783.04	39.47289
783.221	58.60363
783.402	90.29167
783.583	54.53354
783.763	67.08365
783.944	46.48327
784.124	25.05112
784.305	82.92
784.486	65.89328
784.666	51.20112
784.847	26.50682
785.027	102.6898
785.208	38.24096
785.388	40.19057
785.569	40.06572
785.749	43.39437
785.93	40.96106
786.11	28.48972
786.291	56.26263
786.471	54.8333
786.652	69.86289
786.832	50.60299
787.012	58.96867
787.193	30.16182
787.373	52.79805
787.553	43.89576
787.734	56.30219
787.914	44.1847
788.094	59.10431
788.275	55.24762
788.455	44.87533
788.635	28.89247
788.815	55.48166
788.995	32.5727
789.176	29.16991
789.356	36.91161
789.536	47.26508
789.716	61.32092
789.896	36.66036
790.076	41.91602
790.256	56.4986
790.436	12.48536
790.616	36.71272
790.796	57.30179
790.976	47.1664
791.156	43.3834
791.336	67.31084
791.516	59.43465
791.696	47.60949
791.876	25.38753
792.056	55.44301
792.236	66.31107
792.416	65.24359
792.596	62.74389
792.776	58.23181
792.956	64.5842
793.135	80.94668
793.315	31.66974
793.495	74.63226
793.675	63.11441
793.854	67.08858
794.034	70.27931
794.214	30.36501
794.394	65.01804
794.573	72.22047
794.753	56.65621
794.933	38.39535
795.112	56.28962
795.292	66.07761
795.472	84.50668
795.651	30.74662
795.831	52.07574
796.01	44.14019
796.19	46.31421
796.369	48.49169
796.549	58.71598
796.728	46.75154
796.908	30.17698
797.087	32.8003
797.267	45.97432
797.446	30.32104
797.626	57.94228
797.805	60.82933
797.984	36.87297
798.164	60.88883
798.343	35.9619
798.522	56.6991
798.702	54.24126
798.881	28.77103
799.06	47.26086
799.239	17.95684
799.419	31.82319
799.598	79.32314
799.777	62.12012
799.956	73.66848
800.136	46.64217
800.315	38.63615
800.494	56.19219
800.673	68.65722
800.852	62.43232
801.031	69.13221
801.21	65.06514
801.389	44.05456
801.568	54.67591
801.747	89.69596
801.926	53.37369
802.105	80.17869
802.284	45.72344
802.463	80.26966
802.642	52.55229
802.821	56.59059
803	76.63392
803.179	68.51837
803.358	73.15404
803.537	37.85265
803.716	58.28639
803.895	42.0656
804.073	53.12664
804.252	41.01891
804.431	57.70523
804.61	50.90208
804.789	78.54255
804.967	43.64277
805.146	42.21278
805.325	91.64151
805.503	60.00619
805.682	26.90123
805.861	99.99097
806.039	74.93665
806.218	38.57964
806.397	56.72447
806.575	54.34755
806.754	56.74596
806.932	34.88167
807.111	82.61112
807.289	69.78127
807.468	55.05025
807.646	73.76253
807.825	61.49578
808.003	59.37999
808.182	72.50692
808.36	55.84485
808.539	41.50024
808.717	81.46637
808.895	38.3128
809.074	61.16055
809.252	53.55964
809.43	69.55619
809.609	82.82949
809.787	95.01668
809.965	50.73318
810.144	57.31384
810.322	47.74757
810.5	65.91852
810.678	52.01616
810.856	101.87132
811.035	76.01082
811.213	75.03268
811.391	76.44343
811.569	58.01336
811.747	118.43054
811.925	79.13263
812.103	42.77812
812.281	50.58668
812.459	97.79099
812.637	91.61934
812.816	76.60827
812.994	97.01515
813.171	78.47952
813.349	70.79704
813.527	87.43996
813.705	89.14649
813.883	105.2999
814.061	79.56121
814.239	102.94178
814.417	108.75383
814.595	68.76669
814.773	66.30952
814.95	65.11748
815.128	67.9361
815.306	60.76848
815.484	52.62487
815.662	45.8093
815.839	34.55794
816.017	46.74672
816.195	89.75917
816.372	50.49831
816.55	78.06614
816.728	89.05146
816.905	53.72602
817.083	88.32473
817.261	55.36117
817.438	108.46346
817.616	101.50446
817.793	50.4856
817.971	74.35969
818.148	74.49518
818.326	87.83262
818.503	69.37062
818.681	89.18967
818.858	46.4771
819.036	59.75154
819.213	61.56978
819.391	42.43196
819.568	41.96292
819.745	38.84082
819.923	67.65688
820.1	44.41565
820.277	38.99909
820.455	46.68752
820.632	47.85669
820.809	48.81262
820.986	28.83185
821.164	23.49276
821.341	19.36495
821.518	27.95197
821.695	19.12935
821.872	16.9072
822.05	14.3566
822.227	9.78467
822.404	11.28017
822.581	14.77599
822.758	10.93444
822.935	11.24067
823.112	13.89355
823.289	10.10315
823.466	14.36489
823.643	13.41464
823.82	18.81673
823.997	16.29337
824.174	20.89399
824.351	30.08625
824.528	28.41283
824.705	23.94084
824.882	27.919
825.059	38.99519
825.236	25.35817
825.412	26.13727
825.589	33.32575
825.766	48.66648
825.943	28.33784
826.12	32.80162
826.296	20.7228
826.473	27.51276
826.65	27.44635
826.827	35.32193
827.003	21.46824
827.18	23.32228
827.357	28.84706
827.533	24.83448
827.71	11.66339
827.887	21.99602
828.063	26.64367
828.24	21.67968
828.416	33.93269
828.593	27.20539
828.769	41.6851
828.946	48.70946
829.122	49.90554
829.299	51.08696
829.475	24.89146
829.652	45.86909
829.828	78.87028
830.005	51.53386
830.181	63.46264
830.357	42.82136
830.534	68.6251
830.71	47.93149
830.886	65.25468
831.063	60.99297
831.239	82.51482
831.415	34.34725
831.592	87.47046
831.768	53.51815
831.944	40.59809
832.12	81.26976
832.296	74.16467
832.473	63.00228
832.649	45.89566
832.825	59.71826
833.001	34.64535
833.177	50.39804
833.353	44.98442
833.529	24.80438
833.705	36.11024
833.881	25.21066
834.058	24.38472
834.234	28.36046
834.41	27.76697
834.586	22.00427
834.761	28.6784
834.937	33.31758
835.113	34.20149
835.289	30.69387
835.465	41.17275
835.641	32.84317
835.817	41.731
835.993	77.33498
836.169	32.09024
836.344	51.25182
836.52	64.36144
836.696	67.89886
836.872	38.96987
837.048	129.84026
837.223	45.46864
837.399	103.75605
837.575	82.10409
837.75	76.23763
837.926	108.21401
838.102	175.09444
838.277	130.42456
838.453	165.62838
838.628	159.77933
838.804	57.73684
838.98	155.83293
839.155	73.22582
839.331	98.41111
839.506	68.50458
839.682	69.07458
839.857	89.66672
840.033	102.38625
840.208	45.44709
840.384	19.19233
840.559	48.81911
840.734	81.67161
840.91	118.78728
841.085	74.03514
841.26	72.88373
841.436	64.07542
841.611	67.87189
841.786	103.94234
841.962	143.1126
842.137	81.16625
842.312	41.22906
842.487	75.57025
842.663	58.62349
842.838	77.97042
843.013	239.73268
843.188	128.66204
843.363	85.44939
843.538	225.46968
843.714	207.96532
843.889	228.29962
844.064	223.50714
844.239	184.69428
844.414	274.32505
844.589	154.29363
844.764	252.94857
844.939	252.75393
845.114	289.56812
845.289	296.66331
845.464	372.80322
845.639	268.73769
845.814	121.0446
845.989	171.33789
846.163	187.20955
846.338	201.23076
846.513	295.41281
846.688	197.60811
846.863	215.70439
847.038	156.60732
847.212	165.61149
847.387	194.81829
847.562	210.57191
847.737	241.29989
847.911	107.71443
848.086	118.91026
848.261	336.51986
848.435	203.88717
848.61	309.83439
848.785	112.65811
848.959	268.90102
849.134	346.19982
849.308	415.47817
849.483	189.23298
849.658	316.44661
849.832	162.63129
850.007	139.97808
850.181	469.97831
850.356	166.69939
850.53	329.61553
850.705	143.48124
850.879	84.91165
851.053	189.39403
851.228	179.41397
851.402	239.04476
851.577	280.55192
851.751	354.53236
851.925	208.39142
852.099	97.05997
852.274	143.5873
852.448	200.43188
852.622	226.53312
852.797	185.44675
852.971	224.18439
853.145	276.48915
853.319	440.72035
853.493	314.07479
853.668	206.39882
853.842	398.43419
854.016	310.81508
854.19	399.56312
854.364	216.32952
854.538	255.52009
854.712	284.87973
854.886	226.27803
855.06	227.58332
855.234	66.35773
855.408	357.94226
855.582	276.42934
855.756	332.75976
855.93	333.70565
856.104	264.25917
856.278	301.57364
856.452	215.40736
856.626	287.22497
856.8	405.54241
856.973	264.50433
857.147	297.19775
857.321	281.69408
857.495	278.88648
857.669	234.12512
857.842	194.8731
858.016	314.28081
858.19	141.13375
858.364	534.87748
858.537	181.74278
858.711	224.40709
858.885	196.61071
859.058	137.28953
859.232	95.42885
859.405	92.06907
859.579	293.1437
859.753	284.03703
859.926	158.60751
860.1	126.04494
860.273	241.83887
860.447	361.90117
860.62	195.72936
860.794	370.6796
860.967	219.36933
861.141	332.83461
861.314	509.68709
861.487	232.6043
861.661	313.21845
861.834	378.51315
862.008	294.89745
862.181	228.45675
862.354	258.66664
862.528	282.93976
862.701	187.96436
862.874	128.79401
863.047	184.4741
863.221	203.77325
863.394	108.02019
863.567	303.83931
863.74	65.14967
863.913	323.1419
864.087	281.77593
864.26	303.48659
864.433	229.17236
864.606	399.90394
864.779	206.93853
864.952	95.85443
865.125	213.40947
865.298	205.25038
865.471	198.12653
865.644	354.49223
865.817	292.72648
865.99	323.92825
866.163	315.67349
866.336	203.7492
866.509	206.29931
866.682	199.53705
866.855	313.27368
867.028	123.16934
867.2	257.53223
867.373	66.63115
867.546	226.71813
867.719	409.52841
867.892	256.25613
868.064	145.24208
868.237	238.87271
868.41	201.4318
868.583	123.00042
868.755	125.62983
868.928	186.48548
869.101	394.11532
869.273	302.39293
869.446	231.33417
869.619	303.42561
869.791	213.63088
869.964	301.93403
870.136	299.19235
870.309	219.53442
870.481	227.62223
870.654	106.54316
870.826	218.28103
870.999	160.38923
871.171	261.75143
871.344	137.21492
871.516	157.68197
871.689	148.68486
871.861	215.10091
872.033	165.68866
872.206	165.76059
872.378	252.04442
872.55	201.04822
872.723	116.37648
872.895	199.52445
873.067	284.27935
873.24	248.66762
873.412	174.81674
873.584	181.26783
873.756	180.44011
873.928	236.20536
874.101	234.3277
874.273	231.86725
874.445	82.68068
874.617	123.25775
874.789	218.78909
874.961	170.56521
875.133	238.4483
875.305	193.14348
875.477	135.31314
875.649	118.02614
875.821	127.01013
875.993	325.36435
876.165	129.45396
876.337	209.42499
876.509	211.55046
876.681	205.89763
876.853	179.79287
877.025	196.24424
877.197	123.92356
877.369	125.58521
877.541	224.42233
877.712	58.16425
877.884	106.78573
878.056	206.68321
878.228	116.50837
878.4	248.26144
878.571	107.06404
878.743	79.79401
878.915	156.11776
879.086	103.71242
879.258	132.09461
879.43	110.34665
879.601	92.63635
879.773	98.71185
879.945	21.31229
880.116	37.2915
880.288	21.35474
880.459	24.50959
880.631	17.26151
880.802	20.99351
880.974	20.59018
881.145	13.50132
881.317	18.98143
881.488	12.75385
881.66	15.04201
881.831	13.57935
882.002	21.27175
882.174	13.40817
882.345	21.03971
882.517	7.73723
882.688	28.7486
882.859	21.62671
883.03	38.28305
883.202	39.70799
883.373	31.91941
883.544	31.27074
883.715	57.67111
883.887	50.63401
884.058	39.24409
884.229	59.33779
884.4	61.28489
884.571	68.2429
884.742	58.05106
884.914	61.63633
885.085	89.59468
885.256	134.17785
885.427	96.91187
885.598	119.09516
885.769	126.50522
885.94	112.89936
886.111	70.59592
886.282	135.05595
886.453	111.01046
886.624	88.92396
886.795	146.56702
886.966	119.73686
887.136	162.55683
887.307	104.35341
887.478	223.52901
887.649	176.51861
887.82	176.92963
887.991	155.49946
888.161	219.93021
888.332	196.77314
888.503	95.63514
888.674	264.557
888.844	302.39405
889.015	230.6591
889.186	123.17842
889.356	269.50912
889.527	103.72121
889.698	392.67251
889.868	149.53603
890.039	219.57048
890.209	184.47302
890.38	228.13598
890.551	219.63145
890.721	311.68089
890.892	260.97239
891.062	173.13383
891.233	197.71683
891.403	176.14217
891.574	135.86215
891.744	165.45278
891.914	191.1474
892.085	158.98205
892.255	46.71224
892.425	269.98715
892.596	188.803
892.766	208.27514
892.936	271.22851
893.107	207.34485
893.277	114.61858
893.447	78.49649
893.618	55.48811
893.788	121.78463
893.958	66.47627
894.128	63.21812
894.298	76.38141
894.468	96.0633
894.639	43.56174
894.809	28.86743
894.979	48.81914
895.149	66.00602
895.319	46.16438
895.489	78.44722
895.659	99.99016
895.829	64.23644
895.999	71.31548
896.169	55.72394
896.339	82.01808
896.509	165.11999
896.679	168.4369
896.849	174.1737
897.019	259.88809
897.189	187.12419
897.358	157.50883
897.528	271.99969
897.698	92.73055
897.868	227.76887
898.038	345.00137
898.208	416.11683
898.377	99.20435
898.547	352.46891
898.717	520.96578
898.886	220.8092
899.056	346.91655
899.226	477.29052
899.395	335.43814
899.565	496.94881
899.735	326.95333
899.904	579.93878
900.074	517.30357
900.244	190.89196
900.413	665.42124
900.583	165.4941
900.752	373.89192
900.922	578.2422
901.091	20.61256
901.261	442.20894
901.43	359.77209
901.599	413.227
901.769	798.45167
901.938	388.93217
902.108	314.45543
902.277	437.89293
902.446	145.81903
902.616	166.58015
902.785	173.21407
902.954	335.3662
903.124	205.79526
903.293	150.66079
903.462	77.54898
903.631	113.14575
903.801	90.99087
903.97	40.71555
904.139	75.45019
904.308	57.23086
904.477	47.44007
904.646	28.56695
904.816	49.54838
904.985	74.83066
905.154	117.7281
