Data from WindowProjectSample_Transmission__33__00033.txt Node

Date: Sat May 03 15:37:53 EDT 2025
User: jessi
Spectrometer: SR400872
Trigger mode: 0
Integration Time (sec): 5.000010E-1
Scans to average: 6
Electric dark correction enabled: true
Nonlinearity correction enabled: true
Boxcar width: 0
XAxis mode: Wavelengths
Number of Pixels in Spectrum: 3648
>>>>>Begin Spectral Data<<<<<
184.909	18893.05414
185.132	2660.20349
185.355	24623.08939
185.578	-8216.18107
185.801	320.34507
186.024	-1457.565
186.247	815.7561
186.47	1802.91646
186.693	166.3333
186.916	-1626.04661
187.139	-2692.10064
187.362	1719.29363
187.585	2772.6953
187.808	-3399.31489
188.031	1045.01167
188.254	-1353.69703
188.476	-678.80414
188.699	2676.68446
188.922	-932.3666
189.145	-10057.31707
189.368	-282.03499
189.591	-1021.51708
189.813	-1759.68148
190.036	1197.0789
190.259	1823.95005
190.482	521.55699
190.705	10677.62327
190.927	-1009.73048
191.15	3687.34034
191.373	2282.55023
191.595	-2273.3581
191.818	2463.42366
192.041	-269.99288
192.263	2831.88769
192.486	2001.10338
192.709	-5351.32971
192.931	2818.67709
193.154	-6281.21615
193.377	191192.15035
193.599	1318.03103
193.822	1635.32122
194.044	-2141.1433
194.267	506.80732
194.489	-642.79757
194.712	1395.14925
194.934	3272.98346
195.157	-15689.48744
195.379	790.83018
195.602	2208.36012
195.824	2011.98027
196.047	2434.1486
196.269	3117.03128
196.492	3376.70806
196.714	2556.02576
196.936	1189.26665
197.159	1463.42277
197.381	-2237.31654
197.604	-1487.77095
197.826	6280.39987
198.048	3224.59812
198.271	4334.50108
198.493	2139.08436
198.715	-6004.01529
198.938	-534.33909
199.16	1845.58151
199.382	1412.06067
199.604	-623.62001
199.827	10071.3406
200.049	1001.39019
200.271	-3134.94997
200.493	-58264.74042
200.715	2307.8595
200.938	7000.08984
201.16	-7304.63006
201.382	-3109.16047
201.604	-2079.33811
201.826	6633.80028
202.048	836.68857
202.27	-17184.44114
202.492	4826.88771
202.715	-1186.9858
202.937	4416.41493
203.159	-2231.4276
203.381	975.8208
203.603	-3641.07676
203.825	-3096.96324
204.047	3619.91909
204.269	-2133.62994
204.491	2371.87879
204.713	1865.64706
204.935	15678.74928
205.156	1803.60048
205.378	-8587.1415
205.6	-4201.90393
205.822	9219.12904
206.044	-704.99764
206.266	4089.8327
206.488	1108.25207
206.71	30493.3924
206.932	2496.64062
207.153	-4794.38814
207.375	-1966.17864
207.597	8960.39366
207.819	4299.20132
208.041	2297.72931
208.262	-2679.22922
208.484	-1309.07926
208.706	-2661.31667
208.927	30105.77128
209.149	937.58191
209.371	-6511.28427
209.593	1368.336
209.814	5066.7171
210.036	-3636.28819
210.258	-5869.1837
210.479	-1306.62477
210.701	1050.37012
210.922	6409.10009
211.144	-1212.79213
211.366	-5901.07262
211.587	-553.0526
211.809	9507.98129
212.03	-1338.58047
212.252	-2083.81011
212.473	804.78039
212.695	-2789.53644
212.916	3015.64516
213.138	3684.48814
213.359	-1820.98789
213.581	6946.73621
213.802	-1772.67898
214.024	17906.96394
214.245	-2936.31216
214.466	-627.1867
214.688	1654.02802
214.909	925.90754
215.131	-103100.80105
215.352	1750.2021
215.573	2557.71355
215.795	3046.13767
216.016	4449.77055
216.237	-492.96737
216.459	6605.58403
216.68	107353.18657
216.901	-85420.98021
217.122	1913.53072
217.344	6455.12539
217.565	-59670.00169
217.786	1525.32358
218.007	1824.15533
218.228	-1256.56201
218.45	-1322.29479
218.671	-1266.5198
218.892	1168.59953
219.113	-17928.0554
219.334	-400.66288
219.555	-5534.08623
219.776	1699.26217
219.997	3459.98892
220.219	1140.78794
220.44	2246.99383
220.661	-3131.24845
220.882	3746.12551
221.103	-1167.49784
221.324	1064.59309
221.545	2273.79902
221.766	-5930.37816
221.987	3581.86583
222.208	-1819.804
222.429	3412.21457
222.65	-54.33114
222.87	-652.44794
223.091	7675.38439
223.312	2445.21627
223.533	6539.91955
223.754	1808.01426
223.975	1374.2068
224.196	-10658.14776
224.417	1055.90723
224.637	872.25063
224.858	-578.34073
225.079	6896.69196
225.3	602.65282
225.521	2075.91288
225.741	1565.18986
225.962	741.73466
226.183	275.70627
226.404	661.78219
226.624	601.54044
226.845	375.30957
227.066	411.32579
227.286	197.349
227.507	91.96039
227.728	79.42104
227.948	131.49704
228.169	38.8255
228.389	46.74089
228.61	22.74807
228.831	38.47421
229.051	3.31713
229.272	22.28072
229.492	31.10348
229.713	10.3148
229.933	24.78279
230.154	19.38853
230.374	31.36829
230.595	23.0471
230.815	16.73612
231.036	22.04316
231.256	-4.32225
231.477	43.30775
231.697	24.63536
231.917	22.89265
232.138	37.86555
232.358	76.27968
232.579	62.79685
232.799	14.92265
233.019	69.47975
233.24	77.89276
233.46	25.6461
233.68	40.57641
233.901	28.51191
234.121	18.12396
234.341	8.21163
234.561	-2.7323
234.782	17.40242
235.002	47.76756
235.222	-1.7641
235.442	42.29124
235.662	20.21234
235.883	42.8905
236.103	39.90199
236.323	26.00806
236.543	18.87341
236.763	30.83549
236.983	27.2777
237.203	31.78027
237.423	43.91357
237.643	63.90905
237.864	54.24794
238.084	15.23415
238.304	22.02168
238.524	32.3531
238.744	29.68242
238.964	46.56111
239.184	42.65302
239.404	47.40957
239.624	23.72537
239.843	42.61221
240.063	24.46545
240.283	17.07076
240.503	16.77328
240.723	17.33535
240.943	9.36494
241.163	13.79305
241.383	10.47384
241.603	5.03248
241.822	6.1565
242.042	5.259
242.262	6.07796
242.482	6.48888
242.702	8.11045
242.921	2.60945
243.141	5.56053
243.361	4.43726
243.581	7.67959
243.8	6.81
244.02	4.30914
244.24	7.47865
244.459	7.06704
244.679	14.23329
244.899	9.06088
245.118	11.49201
245.338	9.77312
245.558	10.77012
245.777	6.18096
245.997	7.29243
246.216	7.68239
246.436	4.21796
246.655	3.44288
246.875	2.50197
247.094	4.97591
247.314	1.60271
247.533	2.71003
247.753	3.58886
247.972	2.66808
248.192	1.10344
248.411	1.55312
248.631	3.44571
248.85	3.7827
249.07	2.93933
249.289	5.27825
249.508	3.60276
249.728	6.64569
249.947	6.66962
250.166	6.77044
250.386	3.57413
250.605	5.5432
250.824	8.58696
251.044	6.04931
251.263	20.53191
251.482	10.37934
251.701	10.3377
251.921	0.37057
252.14	3.43463
252.359	3.9107
252.578	7.62924
252.798	2.65817
253.017	7.66262
253.236	3.95995
253.455	5.2613
253.674	9.84483
253.893	4.44131
254.112	6.91291
254.331	10.09422
254.551	8.16832
254.77	3.53216
254.989	12.09286
255.208	9.99173
255.427	12.87514
255.646	9.94257
255.865	17.14963
256.084	7.27571
256.303	7.84954
256.522	11.20591
256.741	2.3893
256.96	3.90476
257.179	8.30435
257.397	8.5305
257.616	4.64776
257.835	4.92989
258.054	12.17907
258.273	7.37064
258.492	9.35235
258.711	5.53255
258.93	2.25018
259.148	3.22686
259.367	3.24128
259.586	4.424
259.805	2.05149
260.023	4.2357
260.242	3.31384
260.461	2.44914
260.68	1.2844
260.898	3.78462
261.117	1.16552
261.336	1.10234
261.554	3.1309
261.773	3.30449
261.992	0.81701
262.21	3.04774
262.429	3.95702
262.648	6.49926
262.866	7.55295
263.085	4.7446
263.303	4.66539
263.522	7.50937
263.74	8.13091
263.959	12.60607
264.178	6.36486
264.396	5.95876
264.615	4.34059
264.833	10.50443
265.051	8.44155
265.27	7.91854
265.488	9.16637
265.707	5.90417
265.925	9.25095
266.144	4.3247
266.362	5.33272
266.58	4.96272
266.799	4.24927
267.017	5.43005
267.235	4.66095
267.454	2.85631
267.672	1.8313
267.89	3.6042
268.109	3.92636
268.327	3.7789
268.545	0.7641
268.763	3.49298
268.982	1.78458
269.2	4.24145
269.418	2.74515
269.636	1.85446
269.854	3.49062
270.073	3.09565
270.291	1.63059
270.509	1.68064
270.727	3.68871
270.945	6.05136
271.163	6.51361
271.381	1.50359
271.599	2.52131
271.817	4.61773
272.036	1.65095
272.254	3.01965
272.472	2.24654
272.69	2.18687
272.908	2.14422
273.126	3.79601
273.344	4.69431
273.562	1.82884
273.779	2.40228
273.997	3.19417
274.215	3.77957
274.433	2.69966
274.651	4.07378
274.869	4.05647
275.087	2.48918
275.305	3.81627
275.523	2.07967
275.74	3.225
275.958	4.85672
276.176	6.80851
276.394	2.27049
276.612	2.90885
276.829	2.98084
277.047	2.53347
277.265	2.6522
277.483	3.42595
277.7	3.78927
277.918	2.91987
278.136	5.38589
278.353	2.92302
278.571	1.5429
278.789	4.39222
279.006	0.59416
279.224	2.77745
279.442	4.73165
279.659	3.13598
279.877	2.18452
280.094	4.59823
280.312	1.04856
280.529	2.97419
280.747	0.83508
280.964	2.1421
281.182	5.28375
281.399	2.48384
281.617	3.47922
281.834	2.42841
282.052	2.12087
282.269	2.77429
282.487	2.39474
282.704	1.58061
282.921	2.11495
283.139	2.9465
283.356	3.91037
283.574	3.5221
283.791	1.8305
284.008	4.80678
284.226	2.30459
284.443	3.00147
284.66	3.57974
284.877	2.93797
285.095	2.09423
285.312	1.45304
285.529	1.09175
285.746	0.77167
285.964	1.74334
286.181	1.1455
286.398	1.80551
286.615	2.37624
286.832	2.39181
287.05	0.68526
287.267	1.68954
287.484	2.43623
287.701	2.55751
287.918	2.40398
288.135	2.56677
288.352	0.98517
288.569	1.45638
288.786	2.28194
289.003	1.6988
289.22	2.52492
289.437	1.63962
289.654	2.64456
289.871	2.91554
290.088	2.53929
290.305	2.13105
290.522	1.60581
290.739	2.08075
290.956	2.96808
291.173	3.42127
291.39	3.08423
291.607	2.2579
291.824	1.73521
292.04	1.08902
292.257	2.72154
292.474	2.95913
292.691	1.86717
292.908	0.82249
293.125	1.90163
293.341	1.08125
293.558	4.73363
293.775	1.90144
293.992	1.88445
294.208	0.73093
294.425	1.17165
294.642	1.60741
294.858	2.80691
295.075	0.67382
295.292	1.78519
295.508	2.23515
295.725	3.48155
295.942	1.80475
296.158	1.23863
296.375	2.16769
296.591	1.64497
296.808	1.83652
297.024	2.21147
297.241	2.50615
297.458	2.72776
297.674	0.74019
297.891	2.25199
298.107	2.33806
298.323	1.69908
298.54	3.76711
298.756	2.41506
298.973	1.70761
299.189	4.12766
299.406	2.64036
299.622	3.93465
299.838	4.21062
300.055	3.92769
300.271	2.69446
300.487	2.73977
300.704	3.42153
300.92	2.90178
301.136	6.20267
301.353	4.88628
301.569	4.12414
301.785	4.56553
302.001	5.07495
302.218	4.79842
302.434	5.40313
302.65	3.67887
302.866	4.53666
303.083	6.97168
303.299	7.17921
303.515	5.13261
303.731	5.7847
303.947	4.46296
304.163	5.10091
304.379	5.5819
304.595	5.98879
304.812	5.05091
305.028	5.04427
305.244	5.28068
305.46	6.20974
305.676	6.70062
305.892	7.20115
306.108	6.39434
306.324	5.84545
306.54	7.76241
306.756	6.3398
306.972	6.3363
307.187	6.09778
307.403	6.89668
307.619	5.46854
307.835	7.05996
308.051	7.42034
308.267	5.45216
308.483	8.05811
308.699	7.03848
308.914	6.86467
309.13	6.79668
309.346	6.02181
309.562	6.20343
309.778	6.06613
309.993	7.46873
310.209	7.58679
310.425	6.29465
310.641	7.57848
310.856	6.7722
311.072	6.61099
311.288	7.48072
311.503	8.34007
311.719	6.25724
311.935	6.63555
312.15	8.57418
312.366	8.31215
312.581	8.33246
312.797	8.07181
313.013	8.61894
313.228	7.31867
313.444	7.11011
313.659	6.96235
313.875	7.90251
314.09	7.35547
314.306	8.51285
314.521	8.20314
314.737	8.2716
314.952	7.9631
315.168	7.9942
315.383	8.20844
315.599	6.94224
315.814	7.49821
316.029	8.32558
316.245	7.20123
316.46	6.19402
316.675	8.75586
316.891	9.54864
317.106	10.42353
317.321	8.0174
317.537	8.6823
317.752	8.58362
317.967	8.66381
318.183	7.31039
318.398	8.0049
318.613	8.88233
318.828	9.39176
319.043	8.48023
319.259	7.78711
319.474	8.1683
319.689	8.96856
319.904	6.64521
320.119	9.61425
320.334	7.97282
320.549	8.3745
320.765	9.4367
320.98	8.94209
321.195	8.41382
321.41	8.52081
321.625	9.1023
321.84	9.90458
322.055	9.71504
322.27	7.73641
322.485	7.29426
322.7	9.08094
322.915	9.27198
323.13	8.78645
323.345	10.51599
323.56	10.04242
323.775	9.62479
323.989	9.56908
324.204	9.17528
324.419	10.15152
324.634	8.41618
324.849	9.43115
325.064	11.56967
325.279	10.61973
325.493	9.94532
325.708	10.26447
325.923	8.68593
326.138	9.81974
326.352	10.84168
326.567	10.42647
326.782	9.25077
326.997	9.47406
327.211	10.17766
327.426	10.14373
327.641	9.75218
327.855	8.72808
328.07	10.83283
328.285	11.97369
328.499	9.49551
328.714	10.55931
328.928	9.81563
329.143	10.22002
329.358	11.10268
329.572	10.83707
329.787	11.86111
330.001	12.62441
330.216	8.53547
330.43	12.69708
330.645	11.28451
330.859	11.07731
331.074	9.05163
331.288	10.38733
331.503	12.38165
331.717	9.46525
331.931	10.36262
332.146	10.99642
332.36	12.66797
332.575	11.11757
332.789	10.68608
333.003	11.14306
333.218	11.49823
333.432	11.10179
333.646	11.77819
333.86	13.15094
334.075	12.84097
334.289	10.71812
334.503	9.42243
334.717	12.11192
334.932	10.9952
335.146	11.58109
335.36	9.51603
335.574	11.46681
335.788	10.6741
336.003	11.80268
336.217	12.34278
336.431	11.61746
336.645	11.13134
336.859	10.86444
337.073	11.88392
337.287	12.41239
337.501	10.78983
337.715	12.9743
337.929	12.91939
338.143	11.79177
338.357	12.48725
338.571	12.22818
338.785	13.63475
338.999	12.00456
339.213	12.12764
339.427	11.70418
339.641	13.57919
339.855	12.0527
340.069	11.62536
340.283	13.41212
340.497	13.7603
340.711	13.40863
340.924	12.86289
341.138	12.11619
341.352	11.60314
341.566	13.04265
341.78	11.89485
341.993	12.62382
342.207	12.60992
342.421	13.49088
342.635	13.21855
342.848	13.06652
343.062	11.04211
343.276	12.7612
343.49	14.92232
343.703	12.69571
343.917	14.05739
344.131	14.602
344.344	12.4984
344.558	13.10921
344.771	12.5744
344.985	14.5888
345.199	15.26325
345.412	14.01548
345.626	14.387
345.839	12.37977
346.053	12.9329
346.266	13.20001
346.48	14.4449
346.693	14.52545
346.907	14.45377
347.12	13.22103
347.334	14.10541
347.547	14.31265
347.76	14.01896
347.974	14.81162
348.187	14.10914
348.401	13.85803
348.614	13.13187
348.827	13.94116
349.041	14.57029
349.254	12.86861
349.467	14.02251
349.681	13.65055
349.894	13.45991
350.107	15.85092
350.32	16.28991
350.534	13.65867
350.747	14.52921
350.96	14.20616
351.173	14.1244
351.386	14.63183
351.6	14.36106
351.813	14.72837
352.026	14.71462
352.239	14.31499
352.452	14.31902
352.665	15.87487
352.878	14.66435
353.092	17.07398
353.305	15.8216
353.518	15.34504
353.731	14.11719
353.944	16.1195
354.157	15.02951
354.37	14.99771
354.583	13.78605
354.796	14.63235
355.009	16.22509
355.222	15.74122
355.435	15.71392
355.647	16.7036
355.86	15.25464
356.073	15.78496
356.286	15.30939
356.499	16.46233
356.712	16.74209
356.925	16.25134
357.138	16.42731
357.35	15.50035
357.563	15.81149
357.776	16.40551
357.989	16.34209
358.201	16.65725
358.414	16.55732
358.627	17.37463
358.84	16.19668
359.052	15.30603
359.265	15.74789
359.478	17.07754
359.69	14.48388
359.903	17.39372
360.116	17.27229
360.328	15.5218
360.541	17.29091
360.753	16.44079
360.966	16.84321
361.179	16.95828
361.391	16.67364
361.604	16.64566
361.816	16.77245
362.029	16.8584
362.241	16.69969
362.454	17.1704
362.666	16.5718
362.879	17.77181
363.091	17.01921
363.304	17.14059
363.516	16.99307
363.728	16.63397
363.941	17.5552
364.153	17.77224
364.366	16.03546
364.578	16.7948
364.79	17.94856
365.003	17.8525
365.215	17.18493
365.427	18.17168
365.639	18.43321
365.852	17.81623
366.064	18.75068
366.276	17.68284
366.488	17.94382
366.701	17.6977
366.913	17.3864
367.125	17.8328
367.337	17.13887
367.549	17.53862
367.762	17.66275
367.974	17.96232
368.186	17.74135
368.398	18.87987
368.61	18.11386
368.822	18.40989
369.034	17.73169
369.246	18.78566
369.458	20.32756
369.67	17.60587
369.882	19.33865
370.094	16.74432
370.306	19.25187
370.518	18.14473
370.73	18.13057
370.942	18.05615
371.154	18.50152
371.366	18.5135
371.578	19.13912
371.79	18.83466
372.002	19.70673
372.214	20.68487
372.425	18.4491
372.637	20.3665
372.849	19.28439
373.061	17.53874
373.273	19.21674
373.484	19.45387
373.696	19.52939
373.908	17.5459
374.12	19.54621
374.331	19.76328
374.543	18.1722
374.755	18.45405
374.967	19.14025
375.178	20.45562
375.39	19.04639
375.602	19.50032
375.813	17.82668
376.025	18.84257
376.236	19.41317
376.448	19.91031
376.66	19.58989
376.871	19.41776
377.083	20.12567
377.294	21.30412
377.506	19.29566
377.717	20.59391
377.929	20.09593
378.14	19.55383
378.352	20.22732
378.563	20.56424
378.775	20.95214
378.986	19.14075
379.197	19.94914
379.409	19.21342
379.62	20.11029
379.832	20.32491
380.043	20.01513
380.254	20.42765
380.466	19.08249
380.677	22.13446
380.888	21.86335
381.1	22.40964
381.311	22.51891
381.522	20.72576
381.733	22.45457
381.945	20.38828
382.156	19.74516
382.367	20.33711
382.578	22.77215
382.789	22.72992
383.001	19.85798
383.212	22.03273
383.423	22.04414
383.634	21.37276
383.845	21.42801
384.056	20.49047
384.267	20.79006
384.478	20.9264
384.69	20.10554
384.901	21.29983
385.112	21.121
385.323	22.47872
385.534	21.45267
385.745	21.62573
385.956	21.31218
386.167	20.45254
386.378	21.89205
386.588	21.07583
386.799	20.50803
387.01	20.13859
387.221	22.07912
387.432	21.53332
387.643	22.48703
387.854	21.18397
388.065	20.98397
388.275	21.05953
388.486	20.75131
388.697	21.58771
388.908	21.09465
389.119	22.48992
389.329	22.52182
389.54	21.85348
389.751	22.00785
389.962	22.70136
390.172	21.51101
390.383	21.81001
390.594	21.28192
390.804	21.38621
391.015	21.36002
391.226	22.19602
391.436	22.22554
391.647	22.11695
391.858	22.08078
392.068	20.82883
392.279	21.08063
392.489	22.41895
392.7	22.72564
392.91	21.66356
393.121	21.39857
393.331	22.36512
393.542	22.88088
393.752	22.88441
393.963	22.53229
394.173	22.68468
394.384	22.98464
394.594	22.44284
394.804	21.5196
395.015	22.3866
395.225	22.66069
395.436	21.74874
395.646	22.64791
395.856	22.41197
396.067	21.49773
396.277	23.1398
396.487	22.63746
396.697	23.17308
396.908	23.33793
397.118	23.22665
397.328	22.69374
397.538	23.19181
397.749	22.19363
397.959	23.49034
398.169	23.20274
398.379	21.78632
398.589	22.874
398.8	23.24092
399.01	22.92344
399.22	22.52605
399.43	24.35802
399.64	23.019
399.85	23.20169
400.06	23.09549
400.27	22.57526
400.48	22.62434
400.69	23.89604
400.9	22.63219
401.11	22.14674
401.32	23.17292
401.53	22.62843
401.74	23.76263
401.95	23.1719
402.16	23.06214
402.37	23.15107
402.58	22.54349
402.79	23.27767
403	23.54099
403.209	22.54899
403.419	23.82564
403.629	22.4789
403.839	23.86708
404.049	23.72576
404.258	23.04487
404.468	23.14488
404.678	23.76022
404.888	24.34417
405.097	23.43198
405.307	23.20554
405.517	23.98595
405.727	24.01072
405.936	22.95564
406.146	23.58956
406.356	24.37318
406.565	23.49003
406.775	23.17274
406.984	23.08134
407.194	24.80538
407.404	23.50611
407.613	23.98174
407.823	24.08823
408.032	24.5352
408.242	24.02211
408.451	23.1272
408.661	23.73462
408.87	24.37918
409.08	23.09043
409.289	23.97414
409.499	23.91669
409.708	23.60212
409.918	22.38412
410.127	24.0731
410.336	24.93642
410.546	24.44235
410.755	23.38468
410.964	23.52322
411.174	23.35181
411.383	24.1579
411.592	24.00447
411.802	23.19928
412.011	24.49092
412.22	23.9337
412.429	25.07074
412.639	24.79518
412.848	24.65658
413.057	25.23974
413.266	24.61424
413.475	23.99658
413.685	24.26193
413.894	24.90882
414.103	24.7192
414.312	24.45823
414.521	23.78986
414.73	24.28723
414.939	25.33486
415.148	24.32578
415.357	24.20389
415.566	24.3262
415.776	23.81291
415.985	24.0657
416.194	24.9113
416.403	25.50541
416.611	23.57524
416.82	23.93006
417.029	24.6836
417.238	24.20975
417.447	24.18049
417.656	24.70985
417.865	24.68034
418.074	25.41507
418.283	26.83198
418.492	28.50714
418.7	28.22803
418.909	31.31521
419.118	29.90675
419.327	30.65496
419.536	30.9226
419.744	31.74005
419.953	33.953
420.162	34.61814
420.371	34.86193
420.579	36.64643
420.788	37.5202
420.997	37.89928
421.205	38.58691
421.414	38.03477
421.623	38.66038
421.831	37.70915
422.04	38.15676
422.249	36.42512
422.457	36.4243
422.666	34.84565
422.874	35.88805
423.083	36.27897
423.291	36.59083
423.5	36.87587
423.708	38.17244
423.917	38.79519
424.125	37.90438
424.334	38.26272
424.542	40.2144
424.751	39.47532
424.959	38.28573
425.167	38.22592
425.376	37.67265
425.584	34.86696
425.793	33.78194
426.001	32.09031
426.209	31.22965
426.418	29.16899
426.626	27.41601
426.834	26.55476
427.042	25.8765
427.251	25.25154
427.459	25.89838
427.667	25.56235
427.875	24.56237
428.084	25.32942
428.292	26.45739
428.5	26.022
428.708	24.95081
428.916	25.19063
429.124	25.45825
429.333	25.48218
429.541	25.74569
429.749	26.03575
429.957	25.46308
430.165	27.32334
430.373	24.80661
430.581	25.79926
430.789	26.35435
430.997	25.59602
431.205	25.01073
431.413	25.8858
431.621	25.70605
431.829	26.09008
432.037	25.65243
432.245	26.33337
432.453	26.50817
432.661	26.05301
432.869	28.07773
433.076	27.22196
433.284	27.75838
433.492	29.05532
433.7	28.84998
433.908	28.14572
434.116	28.43517
434.323	27.66615
434.531	27.4976
434.739	27.04734
434.947	26.92083
435.154	26.93226
435.362	26.24672
435.57	26.12016
435.778	25.97781
435.985	26.50246
436.193	25.91153
436.401	27.03093
436.608	26.26535
436.816	26.3021
437.023	27.49602
437.231	27.49618
437.439	26.57977
437.646	26.9796
437.854	26.84869
438.061	27.00514
438.269	26.85085
438.476	27.16026
438.684	27.48031
438.891	28.61207
439.099	28.45375
439.306	28.89815
439.514	29.28725
439.721	31.83177
439.929	31.85944
440.136	33.59317
440.343	33.88877
440.551	34.02555
440.758	35.97609
440.965	33.72742
441.173	33.38315
441.38	33.17154
441.587	31.66335
441.795	31.39293
442.002	29.83676
442.209	29.3865
442.416	28.75265
442.624	28.00763
442.831	27.3675
443.038	26.74349
443.245	26.42231
443.452	26.75445
443.66	27.41092
443.867	26.75491
444.074	26.66379
444.281	27.82609
444.488	28.60735
444.695	29.49477
444.902	30.56788
445.109	33.34462
445.316	33.87215
445.523	35.4767
445.73	36.43511
445.937	37.62402
446.144	39.05226
446.351	39.91459
446.558	38.19563
446.765	41.67012
446.972	38.93348
447.179	38.97434
447.386	38.94672
447.593	35.802
447.8	36.87385
448.007	33.92178
448.214	32.00741
448.42	30.89769
448.627	30.19509
448.834	28.99256
449.041	28.40199
449.248	27.50829
449.454	27.64752
449.661	28.51367
449.868	26.97661
450.075	27.12395
450.281	26.55128
450.488	26.88372
450.695	26.92368
450.901	27.05358
451.108	27.28197
451.315	28.19003
451.521	27.0695
451.728	28.18889
451.935	27.33811
452.141	27.50619
452.348	27.65773
452.554	27.95672
452.761	27.52541
452.967	28.63819
453.174	27.80115
453.38	27.57603
453.587	27.09887
453.793	27.92479
454	27.85672
454.206	29.03918
454.413	28.49686
454.619	28.20688
454.825	27.37573
455.032	28.16613
455.238	28.43498
455.445	27.08232
455.651	27.76099
455.857	26.82121
456.064	27.84576
456.27	27.86607
456.476	27.57873
456.682	27.12081
456.889	27.92433
457.095	28.00195
457.301	29.03304
457.507	27.86642
457.714	27.73427
457.92	27.99907
458.126	27.33808
458.332	27.72929
458.538	28.59467
458.744	29.96446
458.951	31.8881
459.157	35.55219
459.363	35.99581
459.569	37.12447
459.775	37.71556
459.981	38.56002
460.187	38.99377
460.393	38.12722
460.599	37.48802
460.805	35.67792
461.011	33.14379
461.217	31.5181
461.423	29.14831
461.629	28.13348
461.835	28.39365
462.041	28.21393
462.247	29.252
462.453	28.17371
462.658	28.4651
462.864	28.96437
463.07	28.79421
463.276	28.40472
463.482	28.22629
463.688	29.25242
463.893	28.04586
464.099	28.66182
464.305	29.59327
464.511	28.42383
464.716	28.45167
464.922	29.0936
465.128	28.02918
465.333	29.5281
465.539	29.29282
465.745	28.68959
465.95	28.7644
466.156	30.6506
466.362	29.36936
466.567	28.94954
466.773	28.74583
466.978	30.14754
467.184	28.47662
467.389	28.28714
467.595	29.40095
467.8	28.66523
468.006	29.89212
468.211	29.89889
468.417	28.39193
468.622	29.67155
468.828	29.65963
469.033	29.30452
469.239	31.08939
469.444	28.85372
469.649	29.44122
469.855	29.35246
470.06	29.57219
470.266	28.61832
470.471	29.64196
470.676	29.32946
470.881	28.28589
471.087	30.55017
471.292	30.64292
471.497	28.35109
471.703	29.11609
471.908	28.97938
472.113	29.48267
472.318	30.13772
472.523	28.73553
472.729	29.60668
472.934	29.75303
473.139	29.49235
473.344	30.0817
473.549	30.49441
473.754	28.88889
473.959	31.23026
474.164	29.07866
474.369	29.35004
474.575	29.98212
474.78	29.6705
474.985	28.93563
475.19	28.43264
475.395	28.90063
475.6	29.2021
475.804	30.51506
476.009	29.52589
476.214	29.54797
476.419	28.99392
476.624	28.81766
476.829	29.10573
477.034	30.01033
477.239	29.23474
477.444	29.71893
477.648	30.28993
477.853	30.19696
478.058	29.48471
478.263	29.38651
478.468	29.04427
478.672	29.16392
478.877	30.51365
479.082	30.73334
479.287	29.97564
479.491	29.55108
479.696	29.22915
479.901	30.10954
480.105	30.06388
480.31	29.25648
480.515	29.67061
480.719	31.17666
480.924	29.50398
481.128	30.20437
481.333	31.78052
481.538	32.65368
481.742	34.85749
481.947	37.84143
482.151	41.30142
482.356	44.99315
482.56	52.0105
482.765	58.83141
482.969	69.80405
483.174	78.46501
483.378	88.94255
483.582	92.97503
483.787	96.91589
483.991	97.43076
484.196	97.52233
484.4	96.24264
484.604	94.13501
484.809	86.79035
485.013	80.17158
485.217	71.94004
485.422	64.10677
485.626	58.02557
485.83	55.37681
486.034	54.2506
486.239	56.02415
486.443	58.87107
486.647	61.1566
486.851	64.61106
487.055	69.40653
487.26	71.1354
487.464	73.64745
487.668	72.99578
487.872	74.38687
488.076	73.51807
488.28	70.19219
488.484	65.57158
488.688	62.71609
488.892	58.38219
489.096	53.84647
489.3	50.07526
489.504	46.72506
489.708	43.99967
489.912	43.25214
490.116	42.73565
490.32	43.54563
490.524	47.41478
490.728	50.83761
490.932	54.73111
491.136	58.53022
491.34	61.55257
491.544	62.25928
491.748	62.72747
491.951	61.92011
492.155	60.08898
492.359	57.30992
492.563	52.57613
492.767	48.72409
492.97	43.43962
493.174	38.64828
493.378	35.00703
493.582	31.65829
493.785	30.33717
493.989	29.69341
494.193	28.74953
494.396	27.48824
494.6	28.25923
494.804	28.15411
495.007	29.82524
495.211	29.89446
495.414	30.37488
495.618	30.41436
495.822	31.08437
496.025	30.30381
496.229	31.49945
496.432	31.51485
496.636	31.95832
496.839	32.31231
497.043	33.35581
497.246	32.62972
497.45	32.29527
497.653	32.609
497.856	31.83692
498.06	31.1059
498.263	30.61892
498.467	30.59707
498.67	31.2678
498.873	31.12118
499.077	30.80857
499.28	30.78983
499.483	31.21326
499.686	31.6416
499.89	30.90667
500.093	31.26553
500.296	30.43751
500.499	31.61775
500.703	30.88076
500.906	30.97119
501.109	31.90076
501.312	31.25232
501.515	30.95539
501.719	31.40331
501.922	31.59506
502.125	31.23926
502.328	31.05624
502.531	30.51288
502.734	31.11371
502.937	29.90735
503.14	31.12609
503.343	30.58599
503.546	31.27251
503.749	30.83453
503.952	31.48423
504.155	30.69935
504.358	31.70186
504.561	31.55859
504.764	30.36524
504.967	31.37786
505.17	31.17192
505.373	32.53376
505.576	30.98542
505.778	31.86926
505.981	30.39654
506.184	31.88282
506.387	30.15993
506.59	32.29628
506.793	31.74865
506.995	31.54089
507.198	29.99643
507.401	31.62651
507.604	31.5515
507.806	30.48416
508.009	30.57001
508.212	31.9304
508.414	30.76048
508.617	30.83847
508.82	31.31993
509.022	32.18133
509.225	31.65048
509.427	30.42215
509.63	32.21885
509.833	31.2582
510.035	31.13699
510.238	30.23984
510.44	32.05226
510.643	30.2455
510.845	32.48505
511.048	31.47218
511.25	31.01356
511.453	31.07435
511.655	31.52961
511.858	31.29095
512.06	31.91761
512.262	31.54538
512.465	32.05129
512.667	31.20726
512.869	30.87427
513.072	31.61558
513.274	32.10109
513.476	31.97043
513.679	32.20702
513.881	31.24566
514.083	32.51647
514.286	30.98892
514.488	31.30882
514.69	31.02103
514.892	31.05501
515.094	31.98071
515.297	31.40617
515.499	31.85511
515.701	31.23453
515.903	32.72926
516.105	32.85927
516.307	32.35453
516.509	30.38311
516.711	30.58188
516.913	31.4521
517.116	31.3489
517.318	31.1618
517.52	31.9001
517.722	32.11913
517.924	32.35414
518.126	34.21062
518.328	34.15607
518.529	35.41102
518.731	36.12601
518.933	34.06812
519.135	34.20339
519.337	34.54623
519.539	32.8914
519.741	30.91795
519.943	31.7021
520.145	31.26839
520.346	32.05891
520.548	31.61409
520.75	31.93292
520.952	31.48497
521.153	32.27123
521.355	32.29908
521.557	31.44485
521.759	31.79629
521.96	31.89786
522.162	31.34231
522.364	32.69285
522.565	31.4997
522.767	32.54842
522.969	32.6585
523.17	32.10096
523.372	31.93904
523.573	31.84912
523.775	31.64177
523.977	30.85034
524.178	33.16713
524.38	31.40097
524.581	32.18428
524.783	31.85049
524.984	33.87745
525.186	34.91833
525.387	36.78022
525.589	37.11198
525.79	37.61122
525.991	37.89075
526.193	38.84054
526.394	38.31793
526.596	39.79954
526.797	41.12377
526.998	41.02057
527.2	44.23586
527.401	49.96817
527.602	55.03444
527.803	62.91558
528.005	68.37
528.206	73.3523
528.407	76.65475
528.608	77.52513
528.81	77.66488
529.011	75.74454
529.212	75.44312
529.413	70.90946
529.614	65.60337
529.815	60.02315
530.017	54.36405
530.218	48.25785
530.419	43.55121
530.62	41.48235
530.821	39.50893
531.022	36.9095
531.223	37.82763
531.424	37.40046
531.625	38.13477
531.826	38.22955
532.027	40.56738
532.228	44.15824
532.429	46.42464
532.63	48.85417
532.831	51.70656
533.032	52.42182
533.233	53.92696
533.433	52.56745
533.634	52.78
533.835	50.90647
534.036	48.21292
534.237	45.08307
534.438	42.31418
534.638	38.07955
534.839	35.99681
535.04	34.55924
535.241	33.41863
535.441	34.90889
535.642	34.90961
535.843	35.34683
536.043	36.45436
536.244	37.27676
536.445	38.07285
536.645	39.01843
536.846	38.72977
537.047	38.22112
537.247	36.38047
537.448	34.88681
537.648	33.80881
537.849	32.20165
538.049	32.32579
538.25	32.5614
538.451	32.8137
538.651	31.63459
538.851	32.62911
539.052	33.28425
539.252	32.70352
539.453	32.06204
539.653	32.31456
539.854	32.85892
540.054	36.13683
540.254	41.27728
540.455	45.77933
540.655	48.69567
540.855	53.52622
541.056	56.46249
541.256	57.24185
541.456	58.60828
541.657	58.07669
541.857	57.80762
542.057	55.01469
542.257	52.33172
542.458	50.97945
542.658	47.39764
542.858	43.33923
543.058	41.5874
543.258	39.47232
543.458	36.25332
543.659	35.02781
543.859	35.0812
544.059	34.54051
544.259	32.53245
544.459	33.19178
544.659	32.4014
544.859	32.69912
545.059	32.14394
545.259	33.0467
545.459	32.82979
545.659	33.1635
545.859	32.52618
546.059	32.90283
546.259	32.44699
546.459	32.41193
546.659	32.26347
546.859	33.54658
547.059	33.2549
547.258	33.22826
547.458	33.37047
547.658	32.36518
547.858	32.20869
548.058	32.92056
548.258	32.53637
548.457	32.2105
548.657	34.57591
548.857	32.90607
549.057	33.69859
549.256	33.57508
549.456	32.54375
549.656	31.62985
549.855	34.71998
550.055	32.71897
550.255	34.88064
550.454	33.52368
550.654	33.62872
550.853	34.3956
551.053	33.82096
551.253	33.512
551.452	33.47828
551.652	32.51874
551.851	32.23977
552.051	33.09709
552.25	32.99469
552.45	32.87956
552.649	33.50144
552.849	32.72151
553.048	33.39256
553.248	33.82616
553.447	32.62574
553.646	33.7504
553.846	34.83709
554.045	33.8376
554.244	32.37661
554.444	34.72892
554.643	33.02401
554.842	34.52777
555.042	35.6124
555.241	33.00165
555.44	32.50739
555.64	34.5885
555.839	35.36408
556.038	33.88317
556.237	33.1962
556.436	33.76209
556.636	33.95669
556.835	33.09926
557.034	35.15365
557.233	33.772
557.432	32.86104
557.631	34.59405
557.83	33.3464
558.029	33.06184
558.228	32.73719
558.427	33.18906
558.626	34.18602
558.825	32.96492
559.024	33.45218
559.223	35.07599
559.422	33.20407
559.621	33.73364
559.82	31.75006
560.019	33.65517
560.218	33.41399
560.417	31.13355
560.616	33.10666
560.815	36.19866
561.014	32.48857
561.212	34.96106
561.411	33.62213
561.61	32.40155
561.809	33.45385
562.008	34.33195
562.206	33.35683
562.405	34.38019
562.604	33.2374
562.803	34.00558
563.001	33.24908
563.2	32.39756
563.399	33.87006
563.597	32.74019
563.796	33.5111
563.995	32.71235
564.193	34.37569
564.392	33.23451
564.59	35.45295
564.789	32.19122
564.988	33.22653
565.186	33.92844
565.385	33.01108
565.583	33.27828
565.782	33.54119
565.98	33.65312
566.179	33.36779
566.377	32.58467
566.575	33.4462
566.774	34.81986
566.972	34.40545
567.171	35.22547
567.369	34.52533
567.567	34.13504
567.766	33.85629
567.964	31.76306
568.162	33.94826
568.361	34.65971
568.559	33.73262
568.757	33.88916
568.956	33.96598
569.154	34.1249
569.352	34.10086
569.55	33.55946
569.748	33.69194
569.947	33.08962
570.145	32.87992
570.343	33.25516
570.541	34.80339
570.739	32.78534
570.937	33.30276
571.135	33.88603
571.333	35.4004
571.532	34.89076
571.73	33.9078
571.928	34.81622
572.126	34.20508
572.324	33.20212
572.522	34.93854
572.72	36.03457
572.918	33.99182
573.116	34.05752
573.313	33.73876
573.511	33.6281
573.709	32.88101
573.907	34.42282
574.105	33.63952
574.303	32.49187
574.501	32.46682
574.699	34.11101
574.896	34.21901
575.094	34.28038
575.292	32.37
575.49	34.17621
575.688	33.45397
575.885	34.89625
576.083	35.65463
576.281	34.25113
576.478	32.91341
576.676	34.27867
576.874	32.42787
577.071	33.53489
577.269	36.30607
577.467	34.05802
577.664	33.35576
577.862	35.56535
578.059	33.46037
578.257	34.83291
578.455	33.74517
578.652	34.44346
578.85	32.25034
579.047	34.19063
579.245	34.31911
579.442	33.77152
579.64	34.03731
579.837	32.52815
580.034	37.34016
580.232	33.95257
580.429	32.72313
580.627	35.10794
580.824	35.6021
581.021	35.0079
581.219	34.0361
581.416	33.4511
581.613	35.8201
581.811	36.44398
582.008	33.58406
582.205	35.41534
582.402	34.72936
582.6	36.16964
582.797	34.21187
582.994	34.8516
583.191	35.13667
583.388	34.1479
583.586	35.67172
583.783	35.25278
583.98	34.00646
584.177	34.69418
584.374	31.62842
584.571	34.40871
584.768	34.00829
584.965	33.42512
585.162	35.22175
585.359	36.32216
585.556	34.45558
585.753	35.07812
585.95	33.20616
586.147	33.59078
586.344	34.86011
586.541	34.25409
586.738	32.77508
586.935	34.33581
587.132	33.50559
587.329	35.18784
587.526	34.77846
587.722	39.38564
587.919	32.96419
588.116	34.89471
588.313	35.91439
588.51	36.87973
588.706	33.54317
588.903	35.11697
589.1	34.95107
589.297	36.3701
589.493	34.11776
589.69	35.46675
589.887	33.97556
590.083	32.9582
590.28	33.81824
590.477	35.33439
590.673	35.5891
590.87	35.64247
591.067	34.43294
591.263	35.17976
591.46	34.75664
591.656	33.78886
591.853	36.17704
592.049	33.53965
592.246	33.99687
592.442	35.85264
592.639	35.35537
592.835	33.65564
593.032	35.27738
593.228	32.24356
593.425	32.70529
593.621	32.08173
593.817	34.61688
594.014	33.55752
594.21	34.43465
594.406	35.31463
594.603	34.83944
594.799	33.53401
594.995	32.23351
595.192	35.45849
595.388	33.58857
595.584	34.02968
595.78	32.83141
595.977	36.39847
596.173	36.15294
596.369	34.13124
596.565	33.57601
596.761	33.04127
596.957	36.1734
597.154	33.85139
597.35	33.68771
597.546	33.86697
597.742	35.66282
597.938	34.59997
598.134	33.6934
598.33	34.89518
598.526	36.05335
598.722	34.45148
598.918	37.13313
599.114	35.01388
599.31	33.27565
599.506	34.36208
599.702	33.60711
599.898	35.1767
600.094	34.74795
600.29	35.4267
600.485	35.43412
600.681	33.55461
600.877	37.03801
601.073	34.77075
601.269	36.89971
601.465	35.98282
601.66	33.43827
601.856	32.6617
602.052	36.2225
602.248	34.38495
602.443	33.19904
602.639	33.53026
602.835	33.47619
603.03	33.4756
603.226	35.32825
603.422	33.4939
603.617	34.04772
603.813	33.90352
604.009	34.28947
604.204	35.69925
604.4	33.30165
604.595	35.46489
604.791	33.11341
604.986	34.67114
605.182	33.5435
605.377	34.17614
605.573	34.14456
605.768	34.15709
605.964	35.19745
606.159	35.40222
606.355	35.80071
606.55	34.31084
606.746	36.51336
606.941	34.47583
607.136	37.40856
607.332	38.07661
607.527	32.88259
607.722	35.03222
607.918	34.14517
608.113	33.92178
608.308	35.92656
608.503	35.75697
608.699	35.77469
608.894	35.51861
609.089	33.73913
609.284	35.42575
609.479	34.75337
609.675	35.7756
609.87	35.11994
610.065	35.81516
610.26	36.29074
610.455	35.75363
610.65	34.76289
610.845	35.15541
611.04	36.2871
611.235	34.96284
611.43	34.0587
611.625	33.33751
611.82	37.23294
612.015	34.3839
612.21	37.47966
612.405	32.93648
612.6	37.17095
612.795	36.59788
612.99	35.75696
613.185	34.07146
613.38	34.34849
613.575	35.19406
613.77	39.95466
613.965	32.84872
614.159	33.37393
614.354	37.51593
614.549	36.35084
614.744	36.47771
614.938	34.20531
615.133	32.78857
615.328	37.25353
615.523	36.37696
615.717	39.46527
615.912	33.40403
616.107	35.4552
616.301	35.68132
616.496	34.55003
616.691	37.60458
616.885	36.98984
617.08	40.11754
617.274	37.01393
617.469	38.87841
617.664	36.43581
617.858	35.18669
618.053	36.48802
618.247	35.42113
618.442	32.62958
618.636	37.86338
618.831	34.55075
619.025	34.72579
619.219	39.19821
619.414	31.47347
619.608	35.40043
619.803	35.70495
619.997	38.62022
620.191	37.65016
620.386	36.8266
620.58	35.98508
620.774	33.29447
620.969	33.46131
621.163	36.50024
621.357	34.19675
621.551	35.49727
621.746	36.08928
621.94	35.11214
622.134	40.95509
622.328	39.42766
622.522	33.22022
622.716	37.40232
622.911	37.23456
623.105	37.41571
623.299	36.89768
623.493	40.57832
623.687	34.92878
623.881	35.04372
624.075	35.9769
624.269	37.72423
624.463	32.48733
624.657	33.53298
624.851	36.37664
625.045	37.07694
625.239	37.47022
625.433	35.62056
625.627	38.25461
625.821	34.98046
626.015	34.9233
626.209	36.51179
626.403	34.12977
626.596	36.71437
626.79	37.33774
626.984	34.25226
627.178	36.95877
627.372	36.68638
627.565	37.1257
627.759	34.0419
627.953	34.54168
628.147	36.58015
628.34	37.41666
628.534	39.54131
628.728	36.33441
628.921	37.81706
629.115	36.73915
629.309	37.63804
629.502	38.00032
629.696	36.71964
629.89	36.16034
630.083	36.46345
630.277	37.18737
630.47	39.25612
630.664	35.60861
630.857	33.64307
631.051	37.77855
631.244	38.35571
631.438	37.47417
631.631	35.32426
631.825	38.70105
632.018	37.9656
632.212	39.76033
632.405	38.81011
632.598	35.09362
632.792	36.74102
632.985	33.13763
633.178	36.3711
633.372	35.95766
633.565	36.233
633.758	38.67751
633.952	34.94191
634.145	35.11296
634.338	35.89412
634.531	35.35405
634.724	35.76953
634.918	36.37457
635.111	35.79064
635.304	35.27975
635.497	41.39066
635.69	36.67411
635.883	38.5956
636.077	34.12613
636.27	37.12034
636.463	36.59261
636.656	36.86508
636.849	36.22121
637.042	37.82998
637.235	38.99569
637.428	38.36177
637.621	38.10551
637.814	39.38772
638.007	39.85012
638.2	40.16262
638.393	40.67918
638.586	34.32219
638.778	36.47523
638.971	36.89306
639.164	39.65231
639.357	37.13826
639.55	39.86956
639.743	38.44419
639.935	38.12441
640.128	40.74591
640.321	38.21662
640.514	37.1996
640.707	41.68329
640.899	38.70549
641.092	34.41266
641.285	53.08252
641.477	33.40976
641.67	42.39632
641.863	40.68499
642.055	38.14159
642.248	35.77696
642.441	36.53194
642.633	37.58998
642.826	40.17328
643.018	40.31168
643.211	42.678
643.403	41.55409
643.596	42.35551
643.788	41.25602
643.981	38.02614
644.173	39.98059
644.366	37.38712
644.558	33.02158
644.751	39.59326
644.943	35.03553
645.135	40.5581
645.328	41.22616
645.52	39.25191
645.712	41.01226
645.905	44.14475
646.097	35.09195
646.289	37.78412
646.482	43.80259
646.674	37.35062
646.866	40.77934
647.058	39.63846
647.251	35.60033
647.443	37.40884
647.635	37.04492
647.827	34.88557
648.019	36.42928
648.211	37.38765
648.404	37.71795
648.596	41.79738
648.788	38.41515
648.98	38.42417
649.172	39.25983
649.364	39.03127
649.556	34.28371
649.748	44.58106
649.94	36.0528
650.132	39.06288
650.324	36.24475
650.516	36.9528
650.708	40.65742
650.9	34.92694
651.092	37.26948
651.284	35.87057
651.476	35.96203
651.667	40.38976
651.859	40.98506
652.051	37.1246
652.243	37.64929
652.435	36.62694
652.627	39.21557
652.818	38.53225
653.01	34.30887
653.202	35.38402
653.394	37.1142
653.585	39.79791
653.777	48.70154
653.969	40.85487
654.16	40.93953
654.352	34.79856
654.544	37.76557
654.735	40.10141
654.927	39.17737
655.118	41.06896
655.31	40.06488
655.502	41.40942
655.693	36.89217
655.885	39.9784
656.076	42.01473
656.268	39.26534
656.459	42.10869
656.651	41.20549
656.842	37.45882
657.034	37.32528
657.225	40.12679
657.416	41.22373
657.608	42.2211
657.799	38.35072
657.99	41.4325
658.182	37.34023
658.373	37.04672
658.564	40.63998
658.756	38.56497
658.947	38.67776
659.138	36.3563
659.33	37.85669
659.521	36.89723
659.712	38.47248
659.903	37.96213
660.094	37.35942
660.286	35.38081
660.477	42.64104
660.668	39.89682
660.859	38.39738
661.05	34.82489
661.241	39.94685
661.432	40.007
661.623	37.96223
661.814	38.42731
662.006	35.39715
662.197	39.49301
662.388	42.21043
662.579	39.64701
662.77	42.28515
662.96	45.9631
663.151	40.60874
663.342	35.20329
663.533	41.82196
663.724	39.3133
663.915	44.35175
664.106	38.14719
664.297	44.45591
664.488	41.22607
664.678	37.32437
664.869	42.18675
665.06	42.49813
665.251	40.16321
665.442	41.31924
665.632	36.81223
665.823	43.97348
666.014	32.22597
666.204	42.09933
666.395	44.00158
666.586	47.49098
666.776	42.18949
666.967	44.86036
667.158	41.04084
667.348	42.87556
667.539	37.29799
667.729	42.35796
667.92	38.68878
668.111	42.27995
668.301	41.46483
668.492	40.46998
668.682	40.21399
668.873	40.1493
669.063	37.34964
669.253	41.91973
669.444	42.5558
669.634	39.71959
669.825	45.99653
670.015	42.71377
670.206	37.77143
670.396	45.21698
670.586	39.64606
670.777	41.91486
670.967	34.53322
671.157	38.96441
671.347	37.97203
671.538	44.77754
671.728	42.00584
671.918	46.84566
672.108	43.2466
672.299	39.72646
672.489	41.94829
672.679	39.46444
672.869	41.40264
673.059	46.89881
673.249	43.28319
673.44	38.15955
673.63	41.00675
673.82	44.05927
674.01	37.68508
674.2	41.74604
674.39	49.92553
674.58	43.63849
674.77	40.25651
674.96	41.06114
675.15	53.52134
675.34	45.64199
675.53	40.77181
675.72	40.81179
675.91	36.27314
676.099	47.48754
676.289	48.58954
676.479	43.92178
676.669	39.44097
676.859	42.14785
677.049	38.38218
677.238	40.90906
677.428	47.07456
677.618	42.62574
677.808	46.12683
677.997	42.63753
678.187	38.46084
678.377	41.22162
678.567	39.85748
678.756	39.54136
678.946	40.95554
679.136	37.31291
679.325	39.56667
679.515	39.06247
679.704	38.08004
679.894	43.63081
680.084	42.06847
680.273	44.76344
680.463	40.44708
680.652	39.33199
680.842	41.49514
681.031	44.54334
681.221	39.12842
681.41	43.75064
681.6	41.47021
681.789	44.04338
681.978	46.41387
682.168	42.67512
682.357	42.90958
682.547	43.76356
682.736	43.64543
682.925	47.44308
683.115	47.47013
683.304	46.13549
683.493	44.2021
683.682	44.9439
683.872	44.87245
684.061	47.04357
684.25	44.7432
684.439	49.46272
684.629	45.21225
684.818	55.86199
685.007	42.55066
685.196	41.77013
685.385	48.87587
685.574	44.12424
685.763	46.44678
685.952	44.16728
686.142	39.7679
686.331	48.27387
686.52	38.36682
686.709	50.19671
686.898	50.07189
687.087	47.54315
687.276	50.48096
687.465	49.10899
687.654	43.43481
687.842	49.66369
688.031	41.77846
688.22	51.12243
688.409	44.73188
688.598	44.76825
688.787	53.93785
688.976	44.8826
689.165	51.75144
689.353	43.18507
689.542	45.74572
689.731	48.98748
689.92	53.71587
690.108	47.6964
690.297	43.41656
690.486	46.36213
690.675	48.48149
690.863	52.68083
691.052	52.31992
691.241	46.30816
691.429	46.79848
691.618	52.79561
691.806	41.02923
691.995	43.22807
692.184	45.73827
692.372	42.95344
692.561	46.91221
692.749	45.93902
692.938	57.34585
693.126	48.35919
693.315	46.0125
693.503	49.8678
693.692	49.3225
693.88	50.21185
694.068	55.38999
694.257	46.88719
694.445	49.55617
694.634	38.26357
694.822	50.28902
695.01	51.52806
695.199	52.54285
695.387	52.20458
695.575	51.44487
695.763	45.9804
695.952	44.07253
696.14	41.87083
696.328	45.49463
696.516	46.83708
696.705	48.14382
696.893	47.27448
697.081	38.76495
697.269	49.93579
697.457	42.5581
697.645	41.819
697.833	48.07875
698.021	43.87813
698.21	44.16013
698.398	45.44162
698.586	41.85657
698.774	42.08268
698.962	44.09375
699.15	41.94651
699.338	40.64966
699.526	46.68212
699.714	42.73623
699.901	42.55052
700.089	49.03513
700.277	42.23967
700.465	44.44975
700.653	49.90864
700.841	47.59122
701.029	42.7565
701.217	51.42713
701.404	46.38147
701.592	53.79331
701.78	55.93339
701.968	46.55729
702.155	46.14743
702.343	41.16372
702.531	53.65882
702.718	49.13282
702.906	46.30353
703.094	44.97719
703.281	54.76243
703.469	48.31942
703.657	53.15814
703.844	62.40798
704.032	55.32237
704.219	45.24864
704.407	48.89622
704.595	54.57844
704.782	47.79947
704.97	45.77042
705.157	45.66162
705.345	56.31382
705.532	61.25024
705.719	51.53318
705.907	54.85536
706.094	49.59209
706.282	56.39511
706.469	47.11108
706.656	50.5694
706.844	47.75175
707.031	53.39985
707.218	49.03404
707.406	56.74892
707.593	53.14797
707.78	52.62171
707.968	49.16995
708.155	46.73979
708.342	52.17739
708.529	52.15853
708.716	50.98314
708.904	58.59283
709.091	53.04982
709.278	44.28212
709.465	62.04993
709.652	59.98808
709.839	57.71886
710.026	51.7242
710.213	44.18192
710.4	52.97675
710.587	54.97423
710.774	57.04833
710.961	56.60799
711.148	52.09887
711.335	56.95454
711.522	50.45594
711.709	53.42345
711.896	64.60806
712.083	56.40022
712.27	48.93795
712.457	54.21921
712.644	45.44841
712.831	62.91269
713.017	51.27697
713.204	55.85456
713.391	49.43206
713.578	57.37479
713.765	61.19067
713.951	54.31676
714.138	70.66919
714.325	55.17421
714.512	52.97131
714.698	47.73899
714.885	59.34638
715.072	54.26851
715.258	52.9425
715.445	48.67056
715.631	59.39703
715.818	39.58933
716.005	48.9007
716.191	56.00105
716.378	51.6521
716.564	57.80894
716.751	48.17853
716.937	49.10478
717.124	57.43447
717.31	49.75801
717.497	60.52475
717.683	49.13113
717.869	66.85729
718.056	50.9025
718.242	55.08475
718.429	52.06257
718.615	47.24997
718.801	53.38493
718.988	58.01253
719.174	57.54928
719.36	53.71082
719.547	61.3365
719.733	55.675
719.919	58.08908
720.105	61.21069
720.291	53.57477
720.478	54.06043
720.664	53.43827
720.85	52.06822
721.036	70.73201
721.222	65.55823
721.408	55.26011
721.595	65.38038
721.781	64.36047
721.967	61.84754
722.153	67.96552
722.339	57.49272
722.525	57.4105
722.711	50.8296
722.897	48.58809
723.083	51.89917
723.269	60.74349
723.455	74.22945
723.641	76.82031
723.827	55.83247
724.012	59.6275
724.198	53.20405
724.384	65.10897
724.57	59.32119
724.756	46.05967
724.942	44.52408
725.127	61.93756
725.313	65.30778
725.499	64.52083
725.685	70.85864
725.87	59.22729
726.056	50.73164
726.242	67.85154
726.428	44.59184
726.613	64.43018
726.799	56.47579
726.985	49.24205
727.17	46.85296
727.356	67.53593
727.541	49.35679
727.727	56.6688
727.913	61.39574
728.098	53.28718
728.284	62.25464
728.469	49.35815
728.655	51.36295
728.84	62.13026
729.026	62.27805
729.211	62.87132
729.397	58.88953
729.582	60.80711
729.767	57.00343
729.953	57.7479
730.138	63.47795
730.323	43.69908
730.509	50.95159
730.694	69.8219
730.879	61.89862
731.065	57.51273
731.25	71.61745
731.435	62.05079
731.621	47.10314
731.806	54.62343
731.991	57.76147
732.176	47.65276
732.361	67.82311
732.547	61.57321
732.732	47.70369
732.917	73.91412
733.102	49.03717
733.287	51.93603
733.472	56.66204
733.657	56.85783
733.842	47.56578
734.027	53.48989
734.212	55.5381
734.397	52.2037
734.582	57.22426
734.767	62.74067
734.952	67.27418
735.137	39.22792
735.322	69.97243
735.507	58.9938
735.692	57.87055
735.877	73.70818
736.062	72.60274
736.247	63.01068
736.431	55.50058
736.616	65.14147
736.801	60.54042
736.986	57.60635
737.171	51.54999
737.355	47.77119
737.54	65.895
737.725	59.50488
737.909	79.94149
738.094	54.21887
738.279	67.59182
738.463	56.32441
738.648	64.29042
738.833	62.91797
739.017	74.36805
739.202	56.83702
739.386	56.85716
739.571	53.95479
739.756	65.48848
739.94	58.21795
740.125	68.86319
740.309	54.6836
740.494	65.8786
740.678	59.04434
740.863	63.82298
741.047	60.41273
741.231	69.86102
741.416	55.19798
741.6	72.09555
741.785	52.6831
741.969	68.09036
742.153	71.11011
742.338	43.84539
742.522	58.42287
742.706	65.94712
742.89	50.90168
743.075	61.88108
743.259	69.39423
743.443	70.54147
743.627	70.86305
743.812	81.07199
743.996	38.24858
744.18	57.43141
744.364	56.45085
744.548	83.01705
744.732	58.0517
744.916	69.24208
745.1	68.27656
745.285	57.62351
745.469	65.65561
745.653	77.46699
745.837	48.70893
746.021	83.22361
746.205	70.12501
746.389	62.50194
746.573	61.3166
746.757	75.65037
746.94	59.8007
747.124	73.31439
747.308	49.94566
747.492	68.90282
747.676	58.89939
747.86	86.05594
748.044	59.16965
748.227	46.86374
748.411	100.02834
748.595	63.72968
748.779	55.51725
748.963	68.42139
749.146	64.16171
749.33	53.38832
749.514	52.96831
749.697	69.21969
749.881	55.42364
750.065	52.23636
750.248	62.67597
750.432	83.4803
750.616	63.54843
750.799	48.41709
750.983	84.75466
751.166	88.17938
751.35	48.70113
751.533	67.24824
751.717	76.67889
751.9	77.63416
752.084	60.75965
752.267	50.32611
752.451	57.95607
752.634	61.42777
752.818	67.83737
753.001	71.20244
753.184	75.17841
753.368	65.47026
753.551	30.73471
753.734	55.03931
753.918	82.93607
754.101	54.59007
754.284	67.19571
754.467	59.13656
754.651	57.49442
754.834	56.16295
755.017	73.88597
755.2	71.70867
755.384	52.8206
755.567	72.86649
755.75	73.75375
755.933	61.42892
756.116	66.15006
756.299	57.74259
756.482	51.61524
756.665	70.19617
756.848	63.59137
757.032	69.22872
757.215	50.78973
757.398	57.89126
757.581	54.80976
757.764	92.68775
757.947	61.24661
758.129	78.62301
758.312	35.64659
758.495	62.7804
758.678	63.17704
758.861	58.28503
759.044	84.9706
759.227	54.49558
759.41	58.25693
759.592	69.87664
759.775	63.25792
759.958	74.13233
760.141	53.37684
760.324	88.00252
760.506	80.15097
760.689	75.12896
760.872	91.23151
761.054	69.35674
761.237	57.56736
761.42	66.54652
761.602	73.44765
761.785	69.4518
761.968	75.74256
762.15	80.40096
762.333	59.56541
762.515	66.52072
762.698	57.20998
762.88	71.4382
763.063	64.62109
763.245	71.72971
763.428	57.13101
763.61	57.85039
763.793	51.41659
763.975	67.60109
764.158	60.61941
764.34	58.74288
764.522	55.20939
764.705	61.33569
764.887	74.82337
765.069	49.45384
765.252	70.88892
765.434	72.30384
765.616	62.6339
765.799	58.45242
765.981	71.71731
766.163	58.23214
766.345	75.47295
766.528	56.49895
766.71	41.13429
766.892	65.27586
767.074	79.48444
767.256	62.30821
767.438	82.80725
767.62	67.93583
767.802	83.97258
767.985	69.85
768.167	89.82176
768.349	61.47671
768.531	71.73594
768.713	69.85428
768.895	72.74029
769.077	71.50015
769.259	98.98898
769.441	128.0797
769.623	77.97456
769.804	90.65332
769.986	83.29856
770.168	99.20846
770.35	111.30132
770.532	91.36621
770.714	95.24643
770.896	97.16887
771.077	54.843
771.259	109.454
771.441	82.3028
771.623	110.26978
771.804	121.72738
771.986	57.61118
772.168	68.41989
772.35	102.33184
772.531	126.61135
772.713	84.19299
772.894	114.83744
773.076	86.41382
773.258	74.04727
773.439	108.47953
773.621	116.78204
773.802	68.02661
773.984	87.94428
774.166	84.3326
774.347	116.12311
774.529	106.42278
774.71	46.16655
774.891	83.27642
775.073	73.06439
775.254	114.41146
775.436	80.00775
775.617	130.0168
775.799	72.47874
775.98	112.46617
776.161	123.08359
776.343	120.00437
776.524	84.25191
776.705	75.97891
776.886	55.529
777.068	89.86089
777.249	145.22457
777.43	126.99937
777.611	63.61412
777.793	82.33578
777.974	118.89942
778.155	73.09962
778.336	69.35174
778.517	134.3909
778.698	67.5233
778.879	53.2784
779.061	34.40187
779.242	96.97315
779.423	89.84395
779.604	78.82598
779.785	83.26735
779.966	85.83588
780.147	106.03506
780.328	110.32839
780.509	139.16611
780.69	112.42488
780.871	75.31738
781.051	61.50858
781.232	90.10349
781.413	85.36085
781.594	78.40921
781.775	77.7103
781.956	71.6491
782.137	47.66885
782.317	72.3651
782.498	89.50203
782.679	93.02969
782.86	89.18219
783.04	69.30279
783.221	97.45459
783.402	125.11886
783.583	93.13322
783.763	102.51619
783.944	77.82365
784.124	59.9736
784.305	119.50136
784.486	93.74831
784.666	87.91962
784.847	61.68124
785.027	142.43523
785.208	72.71312
785.388	74.26403
785.569	73.12741
785.749	77.37569
785.93	71.5417
786.11	57.82208
786.291	95.05418
786.471	90.58933
786.652	103.80813
786.832	81.57686
787.012	93.51132
787.193	67.28364
787.373	92.8101
787.553	84.87559
787.734	91.72614
787.914	80.49611
788.094	99.07318
788.275	95.37
788.455	82.76761
788.635	61.36769
788.815	86.81711
788.995	70.42983
789.176	56.36939
789.356	67.70007
789.536	80.11797
789.716	96.99653
789.896	71.32203
790.076	72.31869
790.256	90.7117
790.436	43.26838
790.616	67.65412
790.796	90.85328
790.976	78.44301
791.156	67.88297
791.336	99.7309
791.516	90.91532
791.696	79.02852
791.876	56.87012
792.056	84.30463
792.236	104.99298
792.416	101.32569
792.596	92.05495
792.776	96.84803
792.956	100.54879
793.135	121.77606
793.315	63.60392
793.495	111.17522
793.675	105.43154
793.854	104.39663
794.034	104.21796
794.214	64.72866
794.394	105.17619
794.573	109.04089
794.753	87.68379
794.933	70.05637
795.112	94.50991
795.292	99.84872
795.472	123.77882
795.651	61.22425
795.831	88.8151
796.01	80.671
796.19	75.85117
796.369	86.97189
796.549	93.83717
796.728	85.22392
796.908	63.9972
797.087	64.04173
797.267	80.40618
797.446	60.10458
797.626	99.62381
797.805	93.56521
797.984	73.82616
798.164	102.90001
798.343	70.09958
798.522	88.2011
798.702	85.04115
798.881	60.78944
799.06	80.69089
799.239	51.67749
799.419	62.75607
799.598	119.00017
799.777	94.21309
799.956	108.29327
800.136	75.89036
800.315	68.19046
800.494	98.28598
800.673	107.50175
800.852	99.9427
801.031	111.26478
801.21	96.4036
801.389	79.6555
801.568	85.43624
801.747	125.62086
801.926	83.65269
802.105	121.64321
802.284	78.42377
802.463	119.47649
802.642	97.70386
802.821	91.35239
803	110.29019
803.179	107.42025
803.358	114.71279
803.537	74.85273
803.716	96.05188
803.895	79.09807
804.073	90.49104
804.252	73.70103
804.431	96.5104
804.61	84.72864
804.789	113.12123
804.967	76.39035
805.146	74.65395
805.325	133.43111
805.503	102.05927
805.682	59.11494
805.861	151.50983
806.039	119.49981
806.218	78.69212
806.397	97.39053
806.575	89.43981
806.754	96.69702
806.932	71.77773
807.111	119.81964
807.289	110.52188
807.468	91.58385
807.646	106.74782
807.825	102.49187
808.003	100.04958
808.182	113.51929
808.36	93.43051
808.539	72.25519
808.717	119.05158
808.895	71.62099
809.074	91.82062
809.252	92.51479
809.43	111.2366
809.609	119.33273
809.787	143.98018
809.965	86.56612
810.144	97.87404
810.322	92.86142
810.5	102.27121
810.678	90.98407
810.856	143.45773
811.035	124.59873
811.213	114.17734
811.391	121.56077
811.569	102.37247
811.747	172.2742
811.925	128.05798
812.103	76.88377
812.281	93.94315
812.459	144.16729
812.637	140.76511
812.816	114.17786
812.994	147.31294
813.171	129.49937
813.349	111.08576
813.527	128.4571
813.705	131.72114
813.883	147.45926
814.061	122.26766
814.239	140.74079
814.417	155.43308
814.595	114.6071
814.773	100.17105
814.95	104.29752
815.128	106.08772
815.306	98.02503
815.484	88.40848
815.662	75.42592
815.839	71.04335
816.017	83.53248
816.195	124.69756
816.372	86.34893
816.55	112.98924
816.728	135.02944
816.905	92.81688
817.083	138.35393
817.261	97.58218
817.438	166.05669
817.616	152.7856
817.793	78.73288
817.971	116.60433
818.148	112.20722
818.326	142.0408
818.503	105.08961
818.681	134.6809
818.858	93.93857
819.036	92.97919
819.213	102.96595
819.391	86.16634
819.568	79.58859
819.745	79.45365
819.923	112.5545
820.1	91.93227
820.277	80.68461
820.455	87.75198
820.632	89.9676
820.809	89.66192
820.986	70.04617
821.164	64.18082
821.341	60.06057
821.518	72.62616
821.695	62.88921
821.872	61.63789
822.05	58.53215
822.227	54.23414
822.404	55.35944
822.581	58.65979
822.758	55.39597
822.935	55.05113
823.112	57.64319
823.289	54.6063
823.466	57.5302
823.643	56.56156
823.82	60.70136
823.997	57.6834
824.174	61.38816
824.351	70.80333
824.528	68.64696
824.705	66.97395
824.882	70.17993
825.059	80.09868
825.236	65.03113
825.412	68.31767
825.589	75.92112
825.766	93.13017
825.943	68.4728
826.12	77.56638
826.296	64.35005
826.473	72.54998
826.65	71.82494
826.827	82.83604
827.003	66.63562
827.18	70.34853
827.357	75.94153
827.533	67.54512
827.71	53.6429
827.887	63.99225
828.063	68.09136
828.24	64.14832
828.416	72.11332
828.593	67.45278
828.769	83.04823
828.946	83.22996
829.122	85.91888
829.299	86.73585
829.475	58.22314
829.652	86.78932
829.828	118.39573
830.005	82.34121
830.181	107.06605
830.357	77.40989
830.534	111.94038
830.71	99.7279
830.886	107.0861
831.063	104.93111
831.239	126.35997
831.415	72.77931
831.592	132.15564
831.768	92.76414
831.944	81.94677
832.12	137.16178
832.296	127.93656
832.473	106.10034
832.649	81.07722
832.825	102.40043
833.001	72.61466
833.177	95.17468
833.353	87.59394
833.529	62.7556
833.705	79.72336
833.881	67.57784
834.058	72.1761
834.234	70.26181
834.41	69.64871
834.586	61.56166
834.761	66.57491
834.937	69.51142
835.113	70.23517
835.289	67.56157
835.465	73.87403
835.641	68.23739
835.817	72.44249
835.993	112.6338
836.169	69.79548
836.344	89.53754
836.52	96.10007
836.696	107.60811
836.872	84.58338
837.048	177.38035
837.223	93.34716
837.399	151.71875
837.575	129.19751
837.75	121.31003
837.926	164.23691
838.102	238.65895
838.277	207.82382
838.453	246.26124
838.628	244.83221
838.804	104.88713
838.98	240.5505
839.155	127.47222
839.331	167.8223
839.506	122.4783
839.682	121.21705
839.857	148.52101
840.033	167.68212
840.208	92.12027
840.384	58.86179
840.559	100.11987
840.734	131.41805
840.91	177.56061
841.085	115.12137
841.26	116.3725
841.436	102.25328
841.611	113.35645
841.786	156.19391
841.962	184.53727
842.137	152.8823
842.312	81.4255
842.487	122.18187
842.663	103.23405
842.838	124.45096
843.013	343.02464
843.188	217.22752
843.363	143.50333
843.538	324.57602
843.714	374.27678
843.889	344.03067
844.064	341.75796
844.239	248.04231
844.414	488.40271
844.589	273.94457
844.764	426.31227
844.939	401.13173
845.114	438.12742
845.289	444.9368
845.464	520.38876
845.639	379.73679
845.814	219.5405
845.989	339.51615
846.163	255.07624
846.338	342.78268
846.513	450.01533
846.688	260.83557
846.863	305.71873
847.038	261.11629
847.212	315.01313
847.387	372.47849
847.562	307.69624
847.737	479.77087
847.911	191.49514
848.086	189.76497
848.261	529.19274
848.435	290.03156
848.61	393.44573
848.785	211.02905
848.959	414.77961
849.134	517.78609
849.308	658.89894
849.483	335.08117
849.658	559.44837
849.832	270.69275
850.007	277.38447
850.181	690.66493
850.356	333.17153
850.53	797.90047
850.705	341.1314
850.879	190.63468
851.053	320.80985
851.228	306.60813
851.402	510.80549
851.577	528.49194
851.751	616.26745
851.925	372.51851
852.099	171.45574
852.274	256.59373
852.448	337.13571
852.622	482.09115
852.797	356.35127
852.971	332.06772
853.145	421.69346
853.319	757.58149
853.493	684.25493
853.668	560.59946
853.842	776.44082
854.016	507.53762
854.19	705.00855
854.364	400.60484
854.538	371.71083
854.712	744.34166
854.886	426.81196
855.06	348.6563
855.234	113.15112
855.408	644.45794
855.582	406.86323
855.756	628.0737
855.93	607.02622
856.104	643.4461
856.278	573.12728
856.452	372.85505
856.626	409.23667
856.8	914.71117
856.973	419.54121
857.147	495.55728
857.321	482.73599
857.495	557.36927
857.669	356.10601
857.842	447.29469
858.016	617.67868
858.19	287.04252
858.364	830.48401
858.537	396.64857
858.711	525.1761
858.885	414.25369
859.058	263.92656
859.232	186.71264
859.405	195.83704
859.579	498.54528
859.753	547.81103
859.926	241.85603
860.1	249.48086
860.273	403.75789
860.447	509.01751
860.62	406.80965
860.794	633.04371
860.967	377.44271
861.141	511.88745
861.314	823.0438
861.487	467.04438
861.661	488.9305
861.834	559.40467
862.008	708.83646
862.181	450.5529
862.354	535.00674
862.528	505.38233
862.701	340.10747
862.874	177.34657
863.047	367.53096
863.221	296.57153
863.394	198.48476
863.567	450.03857
863.74	186.54103
863.913	510.13199
864.087	537.94776
864.26	473.00938
864.433	364.51478
864.606	613.42773
864.779	380.98812
864.952	187.48251
865.125	444.40104
865.298	332.15638
865.471	353.66734
865.644	780.6944
865.817	543.30652
865.99	501.32999
866.163	487.96439
866.336	300.47307
866.509	348.8646
866.682	584.68513
866.855	767.37724
867.028	233.33678
867.2	390.53214
867.373	146.18934
867.546	419.93736
867.719	676.24613
867.892	456.30211
868.064	284.82466
868.237	345.24048
868.41	411.447
868.583	181.14834
868.755	260.71015
868.928	472.25356
869.101	828.85813
869.273	571.36684
869.446	528.21362
869.619	588.10071
869.791	393.07317
869.964	500.89237
870.136	875.63501
870.309	400.92923
870.481	445.33927
870.654	227.50428
870.826	356.52125
870.999	221.04729
871.171	438.44249
871.344	294.18942
871.516	305.22027
871.689	277.88882
871.861	349.46579
872.033	275.29772
872.206	285.32281
872.378	378.16798
872.55	373.17222
872.723	216.14798
872.895	335.96564
873.067	481.2667
873.24	404.15666
873.412	361.21951
873.584	410.65059
873.756	349.2434
873.928	487.59065
874.101	365.87964
874.273	432.53148
874.445	141.29407
874.617	269.96403
874.789	333.33073
874.961	381.1765
875.133	389.70361
875.305	405.06138
875.477	308.33778
875.649	178.52663
875.821	200.91435
875.993	647.83885
876.165	343.27328
876.337	395.93822
876.509	332.66195
876.681	408.20365
876.853	398.61826
877.025	390.48522
877.197	282.30158
877.369	186.98329
877.541	364.96157
877.712	131.32926
877.884	189.55639
878.056	369.31043
878.228	201.23124
878.4	412.36099
878.571	193.18912
878.743	138.37348
878.915	295.87355
879.086	175.99037
879.258	211.83673
879.43	202.08624
879.601	174.12157
879.773	173.78678
879.945	65.59622
880.116	87.6445
880.288	63.71874
880.459	68.84463
880.631	65.09887
880.802	69.66342
880.974	67.31808
881.145	59.15443
881.317	66.01325
881.488	60.33358
881.66	63.06418
881.831	60.55316
882.002	67.54022
882.174	61.80209
882.345	66.20405
882.517	53.88746
882.688	72.80995
882.859	66.37003
883.03	82.87169
883.202	80.03864
883.373	75.31559
883.544	70.894
883.715	97.19382
883.887	92.84337
884.058	82.23178
884.229	112.06871
884.4	108.93389
884.571	123.50441
884.742	111.62969
884.914	113.73918
885.085	149.53773
885.256	199.64116
885.427	176.33667
885.598	212.64683
885.769	203.7984
885.94	221.42702
886.111	148.81712
886.282	241.852
886.453	211.75981
886.624	153.72116
886.795	265.03378
886.966	222.8818
887.136	267.35802
887.307	182.16414
887.478	355.64889
887.649	319.07555
887.82	310.00442
887.991	264.69323
888.161	399.03872
888.332	418.7336
888.503	164.06723
888.674	433.43761
888.844	588.22827
889.015	378.00175
889.186	257.67861
889.356	537.91597
889.527	207.59602
889.698	705.61699
889.868	270.8079
890.039	403.47452
890.209	310.08904
890.38	428.17677
890.551	377.18585
890.721	449.37177
890.892	459.25663
891.062	427.40012
891.233	580.51223
891.403	470.40887
891.574	361.97044
891.744	303.95579
891.914	362.86014
892.085	405.78788
892.255	131.12918
892.425	490.20218
892.596	346.12161
892.766	411.48214
892.936	464.56789
893.107	435.83317
893.277	206.64128
893.447	242.70589
893.618	141.51376
893.788	226.70025
893.958	159.40466
894.128	138.88601
894.298	158.67037
894.468	192.46713
894.639	95.64599
894.809	84.15387
894.979	108.37226
895.149	132.37062
895.319	100.26897
895.489	139.66368
895.659	179.11959
895.829	118.93107
895.999	124.04769
896.169	107.4703
896.339	120.4587
896.509	229.39269
896.679	248.8443
896.849	281.76229
897.019	324.80724
897.189	267.7878
897.358	254.32283
897.528	402.88692
897.698	252.84334
897.868	345.29884
898.038	687.67402
898.208	663.08036
898.377	250.76904
898.547	1056.5903
898.717	1472.78578
898.886	470.02522
899.056	702.56055
899.226	1552.89797
899.395	791.2284
899.565	1287.23559
899.735	874.77177
899.904	941.91319
900.074	1032.41179
900.244	359.14956
900.413	1290.31164
900.583	437.62914
900.752	1314.00853
900.922	1119.52555
901.091	178.79709
901.261	1786.32168
901.43	555.59866
901.599	2366.29537
901.769	1465.36649
901.938	1105.33531
902.108	1695.90346
902.277	797.87041
902.446	440.13313
902.616	453.46489
902.785	576.06873
902.954	746.08619
903.124	579.9154
903.293	297.86963
903.462	162.91444
903.631	232.08517
903.801	177.88058
903.97	94.33543
904.139	148.37744
904.308	114.91731
904.477	95.49005
904.646	65.61494
904.816	98.20035
904.985	138.58562
905.154	191.68474
