Data from WindowProjectSample_Transmission__22__00022__012036708936924223.txt Node

Date: Mon May 05 17:17:44 EDT 2025
User: jessi
Spectrometer: SR400872
Trigger mode: 0
Integration Time (sec): 5.000010E-1
Scans to average: 20
Electric dark correction enabled: true
Nonlinearity correction enabled: true
Boxcar width: 0
XAxis mode: Wavelengths
Number of Pixels in Spectrum: 3648
>>>>>Begin Spectral Data<<<<<
184.909	20569.20514
185.132	-4986.46947
185.355	-3060.88481
185.578	-18179.21014
185.801	1253.48194
186.024	10369.79219
186.247	-1939.3585
186.47	1160.56463
186.693	366.63295
186.916	287.55818
187.139	-3680.21376
187.362	3484.03836
187.585	3973.49442
187.808	3802.41225
188.031	17.06594
188.254	-47422.76751
188.476	-722.25178
188.699	6179.81283
188.922	497.21682
189.145	-15629.21977
189.368	-611.54589
189.591	-1627.81574
189.813	2940.02063
190.036	-51417.101
190.259	-852.00828
190.482	-4472.35314
190.705	6759.36828
190.927	-2502.50759
191.15	12940.64905
191.373	3378.80258
191.595	-8394.80747
191.818	-3933.36566
192.041	-5080.76672
192.263	-3302.70985
192.486	-790.32023
192.709	-3944.99837
192.931	7512.01367
193.154	-27882.26775
193.377	-2801.03965
193.599	-2474.22504
193.822	-9713.37585
194.044	-1832.75509
194.267	1175.19156
194.489	240.3175
194.712	-44138.8859
194.934	-31506.75072
195.157	1067.11944
195.379	1271.8391
195.602	-7045.32935
195.824	-1295.62798
196.047	-8581.45228
196.269	2650.76544
196.492	-6433.28354
196.714	27095.69653
196.936	-8459.62924
197.159	-1157.31305
197.381	1130.93881
197.604	547.80179
197.826	11672.25581
198.048	-10647.35185
198.271	-2639.56871
198.493	7805.70151
198.715	2261.17647
198.938	-488.8107
199.16	7111.62059
199.382	-97196.14006
199.604	2567.17807
199.827	-1015.94194
200.049	-2946.72239
200.271	13894.85917
200.493	1191.09115
200.715	-39161.82366
200.938	-6015.57395
201.16	-4106.40181
201.382	19981.73187
201.604	2295.29165
201.826	2282.4564
202.048	-1793.50906
202.27	-1941.12484
202.492	-36498.79076
202.715	2923.76381
202.937	-4316.34087
203.159	-6352.13967
203.381	1393.62417
203.603	6516.199
203.825	6569.61884
204.047	2176.0305
204.269	-2935.16566
204.491	2173.2223
204.713	5935.38
204.935	-472892.65714
205.156	1145.45171
205.378	-2890.99472
205.6	1588.79889
205.822	149743.15292
206.044	-1079.81643
206.266	1605.27812
206.488	4685.59755
206.71	-5171.24447
206.932	1042.09321
207.153	12368.80819
207.375	-6683.52102
207.597	-38133.0461
207.819	-2767.11498
208.041	2474.12978
208.262	466.64722
208.484	699.6849
208.706	-757.98021
208.927	-764.67155
209.149	512.70697
209.371	-2723.54542
209.593	-286.59293
209.814	-771.30721
210.036	507.62276
210.258	-682.05183
210.479	1696.47428
210.701	1598.66545
210.922	3267.51424
211.144	-3767.59655
211.366	2081.77447
211.587	7231.75586
211.809	-8126.00167
212.03	2287.77721
212.252	448.04031
212.473	2012.52736
212.695	-6025.02585
212.916	2719.78335
213.138	-657.9023
213.359	3659.19722
213.581	5147.68526
213.802	-719.77795
214.024	1140.53433
214.245	2106.21876
214.466	1760.97162
214.688	-3233.77279
214.909	-1165.10382
215.131	-1673.40233
215.352	-3053.37092
215.573	14473.1679
215.795	5103.22353
216.016	5494.76986
216.237	789.27249
216.459	3404.78443
216.68	1771.10206
216.901	4978.43277
217.122	-2935.15366
217.344	-11158.49183
217.565	3380.53373
217.786	8798.39306
218.007	15674.98034
218.228	-713.77866
218.45	5570.28237
218.671	674.11297
218.892	38138.87249
219.113	1545.73452
219.334	-148.74608
219.555	9161.38906
219.776	3028.94142
219.997	22171.35564
220.219	2779.52978
220.44	-11131.5114
220.661	445.01588
220.882	1497.26001
221.103	-1014.94264
221.324	2180.52557
221.545	2198.18137
221.766	-8785.46911
221.987	934.22288
222.208	1735.2913
222.429	4172.08226
222.65	307.49656
222.87	18269.27269
223.091	727.04862
223.312	554.55938
223.533	1353.40413
223.754	1492.23503
223.975	1303.52562
224.196	1893.02133
224.417	1333.46162
224.637	588.49323
224.858	-41.67516
225.079	1033.2114
225.3	657.05613
225.521	3734.71348
225.741	459.53662
225.962	480.35333
226.183	137.60326
226.404	644.55916
226.624	409.89697
226.845	646.22366
227.066	397.53424
227.286	244.58888
227.507	114.82791
227.728	112.5486
227.948	237.48476
228.169	68.87105
228.389	79.04663
228.61	43.67554
228.831	62.54052
229.051	0.12655
229.272	38.70795
229.492	56.51668
229.713	11.64986
229.933	35.27364
230.154	29.65996
230.374	53.29619
230.595	36.20874
230.815	23.6604
231.036	38.01363
231.256	-8.22121
231.477	68.88212
231.697	39.64244
231.917	37.3359
232.138	55.20077
232.358	114.30857
232.579	96.96577
232.799	19.93503
233.019	98.7107
233.24	108.98596
233.46	36.79206
233.68	62.0016
233.901	40.22377
234.121	28.15684
234.341	13.32289
234.561	-5.5292
234.782	19.13603
235.002	67.87863
235.222	-4.69793
235.442	64.42754
235.662	31.72087
235.883	62.29267
236.103	50.02396
236.323	36.09335
236.543	27.86905
236.763	38.69806
236.983	42.96026
237.203	40.16812
237.423	55.75617
237.643	86.48416
237.864	71.86347
238.084	17.69779
238.304	24.32592
238.524	43.37623
238.744	36.08091
238.964	72.97568
239.184	59.05912
239.404	60.60604
239.624	34.76127
239.843	58.14219
240.063	36.22867
240.283	20.51617
240.503	24.62009
240.723	24.69331
240.943	14.12041
241.163	19.87647
241.383	8.66881
241.603	7.08071
241.822	9.41133
242.042	5.90333
242.262	7.98339
242.482	9.12541
242.702	10.38503
242.921	2.57355
243.141	6.58607
243.361	6.25452
243.581	9.68537
243.8	7.19922
244.02	5.25711
244.24	8.81152
244.459	8.50707
244.679	17.54882
244.899	11.51933
245.118	12.45674
245.338	12.14952
245.558	13.57228
245.777	8.98347
245.997	10.685
246.216	9.85963
246.436	5.96736
246.655	4.76246
246.875	2.99609
247.094	6.01279
247.314	2.05881
247.533	3.53448
247.753	4.15415
247.972	3.39743
248.192	1.02176
248.411	1.87643
248.631	3.46925
248.85	4.63984
249.07	3.73957
249.289	5.84205
249.508	4.86346
249.728	7.23346
249.947	6.53001
250.166	8.59181
250.386	4.14076
250.605	6.84995
250.824	10.97544
251.044	7.62787
251.263	27.87853
251.482	14.11765
251.701	11.63748
251.921	-0.08803
252.14	3.06984
252.359	4.01656
252.578	9.6725
252.798	3.51477
253.017	8.9162
253.236	4.01038
253.455	5.71778
253.674	10.26713
253.893	5.05617
254.112	7.36075
254.331	10.99498
254.551	8.9105
254.77	3.68828
254.989	13.12321
255.208	9.74114
255.427	14.84075
255.646	11.35207
255.865	21.30854
256.084	8.78392
256.303	10.69891
256.522	13.1876
256.741	2.79878
256.96	3.40413
257.179	7.09185
257.397	10.75772
257.616	5.65547
257.835	6.30618
258.054	14.91636
258.273	10.31557
258.492	10.96955
258.711	6.20017
258.93	3.04134
259.148	4.51287
259.367	4.5455
259.586	5.32921
259.805	2.36456
260.023	5.168
260.242	3.71005
260.461	2.6541
260.68	1.26468
260.898	4.35547
261.117	1.46124
261.336	0.89759
261.554	3.43259
261.773	3.22425
261.992	0.71944
262.21	3.21778
262.429	3.49843
262.648	7.2937
262.866	8.26303
263.085	5.60221
263.303	4.61836
263.522	8.29302
263.74	8.62877
263.959	15.02295
264.178	6.64374
264.396	6.37522
264.615	4.61648
264.833	10.82039
265.051	8.70438
265.27	10.90151
265.488	10.88107
265.707	5.90493
265.925	10.65401
266.144	4.74255
266.362	5.33824
266.58	5.43032
266.799	4.70965
267.017	5.65031
267.235	5.26304
267.454	3.3668
267.672	1.59721
267.89	4.04579
268.109	4.29235
268.327	4.41782
268.545	1.02542
268.763	3.96794
268.982	1.53368
269.2	4.21838
269.418	3.07612
269.636	1.76157
269.854	4.57909
270.073	3.00479
270.291	1.76327
270.509	1.90476
270.727	4.15642
270.945	7.09008
271.163	7.03435
271.381	1.27861
271.599	3.10545
271.817	5.37522
272.036	1.62194
272.254	3.17293
272.472	2.37691
272.69	2.5108
272.908	2.29777
273.126	4.53043
273.344	5.34889
273.562	1.82777
273.779	2.3871
273.997	3.77187
274.215	3.95136
274.433	2.80921
274.651	4.40628
274.869	4.64062
275.087	2.68663
275.305	3.848
275.523	2.41561
275.74	2.77831
275.958	5.23582
276.176	8.12557
276.394	2.47343
276.612	3.32994
276.829	3.10883
277.047	2.66953
277.265	2.97525
277.483	3.49467
277.7	4.40357
277.918	3.40826
278.136	6.20787
278.353	2.9004
278.571	1.64666
278.789	4.3269
279.006	1.04399
279.224	2.81277
279.442	5.2865
279.659	3.4308
279.877	2.42344
280.094	5.69732
280.312	1.221
280.529	3.21454
280.747	0.76347
280.964	2.61465
281.182	5.872
281.399	2.59862
281.617	3.91011
281.834	2.61261
282.052	1.76177
282.269	3.19732
282.487	2.35503
282.704	2.04854
282.921	2.18981
283.139	3.25625
283.356	3.85862
283.574	3.79665
283.791	1.73435
284.008	5.55792
284.226	2.94002
284.443	3.09075
284.66	4.40384
284.877	3.38564
285.095	2.09128
285.312	1.66738
285.529	0.84962
285.746	0.78386
285.964	2.00351
286.181	1.42572
286.398	1.92818
286.615	2.70952
286.832	2.62256
287.05	0.42328
287.267	1.76229
287.484	1.78986
287.701	2.59946
287.918	2.6639
288.135	2.6269
288.352	1.21546
288.569	1.35214
288.786	2.33353
289.003	1.99973
289.22	2.8686
289.437	1.59967
289.654	2.88516
289.871	3.02825
290.088	2.8537
290.305	2.2874
290.522	1.63243
290.739	1.91297
290.956	3.07632
291.173	3.42665
291.39	3.3148
291.607	2.3021
291.824	1.5774
292.04	1.13205
292.257	2.8833
292.474	3.19806
292.691	1.92238
292.908	0.91747
293.125	1.67067
293.341	1.0242
293.558	4.81828
293.775	2.00518
293.992	2.01561
294.208	0.80536
294.425	1.36764
294.642	1.97852
294.858	2.36556
295.075	0.65687
295.292	2.00353
295.508	2.24363
295.725	4.03134
295.942	1.63672
296.158	1.20122
296.375	2.01629
296.591	1.54807
296.808	1.68185
297.024	1.89167
297.241	2.14603
297.458	2.38075
297.674	0.21751
297.891	1.79134
298.107	1.48023
298.323	1.13921
298.54	3.05149
298.756	1.23558
298.973	0.65789
299.189	3.0232
299.406	1.20483
299.622	2.70647
299.838	2.68038
300.055	2.71189
300.271	0.65686
300.487	1.02052
300.704	1.22284
300.92	0.74979
301.136	4.3085
301.353	2.6534
301.569	1.84853
301.785	2.25201
302.001	2.60265
302.218	2.22127
302.434	2.28073
302.65	0.75528
302.866	1.41675
303.083	3.86869
303.299	3.68825
303.515	2.09284
303.731	2.10052
303.947	0.76219
304.163	1.33184
304.379	2.08309
304.595	2.46348
304.812	1.30071
305.028	1.32239
305.244	1.70052
305.46	2.76742
305.676	2.6548
305.892	3.15605
306.108	2.20879
306.324	1.53878
306.54	3.6952
306.756	2.4344
306.972	2.43538
307.187	1.75009
307.403	3.31018
307.619	1.62237
307.835	3.1006
308.051	3.47737
308.267	1.04392
308.483	2.95473
308.699	2.38378
308.914	1.9288
309.13	1.91823
309.346	0.62829
309.562	0.9541
309.778	0.70942
309.993	2.44258
310.209	1.97361
310.425	0.95436
310.641	1.79141
310.856	1.06468
311.072	0.90167
311.288	1.78969
311.503	1.90322
311.719	0.38705
311.935	0.25349
312.15	2.28279
312.366	1.87346
312.581	2.27371
312.797	1.91804
313.013	2.58391
313.228	1.35755
313.444	1.76764
313.659	1.28757
313.875	2.32441
314.09	1.75456
314.306	3.20439
314.521	2.69379
314.737	2.50642
314.952	1.91147
315.168	1.84183
315.383	2.30633
315.599	1.73037
315.814	1.68378
316.029	2.54631
316.245	0.91915
316.46	0.54006
316.675	3.08437
316.891	3.49655
317.106	4.5852
317.321	2.18609
317.537	2.41293
317.752	2.58904
317.967	2.75929
318.183	1.20457
318.398	1.53222
318.613	2.53687
318.828	3.35062
319.043	2.72284
319.259	1.80462
319.474	2.20377
319.689	3.09034
319.904	0.59618
320.119	2.49843
320.334	2.27905
320.549	1.71452
320.765	2.94013
320.98	2.20301
321.195	2.61263
321.41	1.89294
321.625	2.6217
321.84	3.71462
322.055	3.53452
322.27	1.56961
322.485	1.11782
322.7	2.16346
322.915	2.84573
323.13	1.24216
323.345	3.32343
323.56	2.85761
323.775	2.47242
323.989	2.32889
324.204	2.22362
324.419	2.83657
324.634	0.84571
324.849	1.75446
325.064	5.04484
325.279	2.78873
325.493	2.38291
325.708	2.70353
325.923	1.3257
326.138	1.45669
326.352	3.42324
326.567	2.87084
326.782	1.68258
326.997	1.38529
327.211	2.44849
327.426	2.38132
327.641	1.62725
327.855	0.63828
328.07	2.28131
328.285	3.48252
328.499	1.57836
328.714	2.2163
328.928	2.70134
329.143	1.86245
329.358	3.01593
329.572	2.99349
329.787	3.14312
330.001	4.26166
330.216	1.00278
330.43	3.70462
330.645	3.45396
330.859	2.82224
331.074	1.46563
331.288	2.08608
331.503	3.09584
331.717	1.02904
331.931	2.2854
332.146	2.17012
332.36	3.7206
332.575	2.40354
332.789	2.30323
333.003	2.2295
333.218	2.58546
333.432	1.43172
333.646	2.74389
333.86	3.51742
334.075	3.4378
334.289	1.62743
334.503	1.17891
334.717	2.3291
334.932	2.38123
335.146	3.05264
335.36	1.68946
335.574	2.55329
335.788	2.4187
336.003	2.94263
336.217	2.50646
336.431	2.46492
336.645	1.49432
336.859	0.91227
337.073	1.82274
337.287	2.18988
337.501	1.10838
337.715	2.25207
337.929	2.81595
338.143	1.02605
338.357	1.95515
338.571	1.25719
338.785	2.48686
338.999	1.66901
339.213	1.52079
339.427	0.82371
339.641	3.16442
339.855	1.87219
340.069	1.50642
340.283	2.83706
340.497	3.7136
340.711	2.2821
340.924	1.73575
341.138	1.06037
341.352	0.94726
341.566	2.1947
341.78	0.72556
341.993	1.67187
342.207	1.25647
342.421	2.16636
342.635	1.88386
342.848	1.58859
343.062	0.29559
343.276	1.40578
343.49	3.69112
343.703	1.38722
343.917	2.7612
344.131	2.77199
344.344	1.44226
344.558	1.68927
344.771	0.98452
344.985	3.28674
345.199	3.23583
345.412	2.10986
345.626	2.23169
345.839	0.62869
346.053	1.11445
346.266	1.07514
346.48	2.56541
346.693	2.2674
346.907	2.11403
347.12	1.09436
347.334	2.20689
347.547	2.13703
347.76	1.80271
347.974	2.83761
348.187	2.07262
348.401	1.61659
348.614	1.52912
348.827	1.57271
349.041	2.37645
349.254	0.57891
349.467	1.6302
349.681	0.79455
349.894	1.32915
350.107	2.85444
350.32	3.22663
350.534	0.6859
350.747	1.49257
350.96	1.16762
351.173	1.33854
351.386	1.50434
351.6	1.43892
351.813	1.36442
352.026	1.76878
352.239	0.84173
352.452	1.66453
352.665	2.609
352.878	1.77489
353.092	3.50029
353.305	2.56945
353.518	2.07639
353.731	1.15691
353.944	2.73296
354.157	1.42501
354.37	1.11874
354.583	1.02586
354.796	0.57263
355.009	2.662
355.222	2.05841
355.435	1.7942
355.647	2.48263
355.86	1.01859
356.073	1.78797
356.286	1.36416
356.499	2.26313
356.712	2.01313
356.925	2.21189
357.138	2.32533
357.35	0.98549
357.563	1.43218
357.776	1.76695
357.989	1.52132
358.201	2.01735
358.414	1.81691
358.627	2.76885
358.84	1.49441
359.052	0.72604
359.265	1.13966
359.478	2.4738
359.69	-0.10927
359.903	2.16828
360.116	2.37556
360.328	0.53415
360.541	2.30637
360.753	0.91038
360.966	1.29183
361.179	1.32062
361.391	1.21349
361.604	0.8843
361.816	1.2924
362.029	1.08222
362.241	0.96706
362.454	1.12542
362.666	0.9182
362.879	1.72656
363.091	1.37227
363.304	1.01844
363.516	1.4612
363.728	0.83998
363.941	2.02842
364.153	1.28947
364.366	0.07217
364.578	0.86505
364.79	1.84949
365.003	1.47871
365.215	1.13621
365.427	1.92737
365.639	2.29635
365.852	1.66311
366.064	3.31491
366.276	1.32261
366.488	1.88775
366.701	1.16443
366.913	1.46896
367.125	1.42343
367.337	1.03888
367.549	1.22679
367.762	1.69149
367.974	1.61151
368.186	1.0647
368.398	2.18345
368.61	2.01915
368.822	2.0903
369.034	1.58063
369.246	1.97824
369.458	3.80768
369.67	1.00704
369.882	2.87625
370.094	0.42272
370.306	2.89823
370.518	1.41296
370.73	1.11944
370.942	1.06099
371.154	1.53162
371.366	1.19869
371.578	1.79484
371.79	1.03827
372.002	2.43099
372.214	2.93393
372.425	1.66856
372.637	2.54548
372.849	1.89889
373.061	0.28398
373.273	1.97529
373.484	1.88127
373.696	2.22123
373.908	0.28537
374.12	2.63497
374.331	1.85078
374.543	1.2288
374.755	1.02981
374.967	1.77984
375.178	2.1833
375.39	1.39373
375.602	1.72572
375.813	0.72097
376.025	0.93591
376.236	1.67932
376.448	1.85379
376.66	1.3662
376.871	1.30065
377.083	2.60905
377.294	2.65541
377.506	1.36743
377.717	2.57034
377.929	1.82101
378.14	1.2552
378.352	1.9421
378.563	1.92221
378.775	2.56911
378.986	1.15516
379.197	1.75339
379.409	1.27742
379.62	2.23975
379.832	2.11017
380.043	1.55198
380.254	1.79384
380.466	0.99625
380.677	3.72902
380.888	3.23685
381.1	3.49314
381.311	3.47963
381.522	1.79411
381.733	3.82874
381.945	1.66806
382.156	1.82649
382.367	1.51652
382.578	3.73077
382.789	3.68974
383.001	1.58752
383.212	2.83974
383.423	2.95078
383.634	2.73489
383.845	2.32886
384.056	1.65443
384.267	2.00811
384.478	1.90838
384.69	1.17813
384.901	2.20821
385.112	2.17281
385.323	3.031
385.534	2.26402
385.745	2.18219
385.956	2.17692
386.167	1.36343
386.378	2.36401
386.588	1.3494
386.799	1.56067
387.01	0.9646
387.221	2.55617
387.432	1.95639
387.643	3.27492
387.854	1.86551
388.065	1.8357
388.275	2.044
388.486	1.81429
388.697	1.92567
388.908	1.81257
389.119	2.83969
389.329	3.19505
389.54	2.1186
389.751	2.37458
389.962	3.02351
390.172	2.37781
390.383	1.87661
390.594	1.80769
390.804	1.74273
391.015	1.87466
391.226	2.30659
391.436	2.48049
391.647	2.37726
391.858	2.59338
392.068	1.20979
392.279	1.60931
392.489	2.39938
392.7	3.0043
392.91	1.66786
393.121	1.82444
393.331	2.5984
393.542	3.06948
393.752	2.73194
393.963	2.61419
394.173	2.46106
394.384	2.71662
394.594	2.43365
394.804	1.7414
395.015	2.5086
395.225	2.75999
395.436	1.85306
395.646	2.85281
395.856	1.97971
396.067	1.60748
396.277	3.08815
396.487	2.8319
396.697	2.82045
396.908	2.91532
397.118	2.91526
397.328	2.78222
397.538	3.24943
397.749	2.10653
397.959	3.16986
398.169	3.0892
398.379	1.88584
398.589	3.10258
398.8	2.77724
399.01	2.65797
399.22	2.52749
399.43	4.27188
399.64	2.65035
399.85	3.29944
400.06	2.80703
400.27	2.31354
400.48	2.78377
400.69	3.87345
400.9	2.44868
401.11	2.35813
401.32	3.40931
401.53	2.58985
401.74	3.96536
401.95	3.33665
402.16	2.39279
402.37	3.18118
402.58	2.66061
402.79	3.46409
403	3.70762
403.209	2.62384
403.419	3.64673
403.629	2.67771
403.839	3.68298
404.049	3.60297
404.258	2.82793
404.468	2.6575
404.678	3.44959
404.888	3.86295
405.097	2.89094
405.307	3.14251
405.517	3.68348
405.727	3.45691
405.936	3.03122
406.146	3.49467
406.356	4.13153
406.565	3.35102
406.775	3.00679
406.984	3.13919
407.194	4.39176
407.404	3.3955
407.613	3.76871
407.823	3.90982
408.032	4.01359
408.242	4.02761
408.451	3.18994
408.661	3.58061
408.87	4.71761
409.08	3.13371
409.289	3.68375
409.499	3.71001
409.708	3.6819
409.918	2.43448
410.127	3.72842
410.336	4.62804
410.546	4.07211
410.755	3.46097
410.964	3.57764
411.174	3.17129
411.383	4.01691
411.592	4.01559
411.802	3.25877
412.011	4.2446
412.22	3.70957
412.429	4.87252
412.639	4.76059
412.848	4.54408
413.057	4.64547
413.266	4.62574
413.475	3.92444
413.685	4.32278
413.894	4.59149
414.103	4.70283
414.312	4.61779
414.521	3.88836
414.73	4.01498
414.939	5.37651
415.148	4.44594
415.357	4.28976
415.566	3.97212
415.776	3.97801
415.985	4.01435
416.194	4.76828
416.403	5.33083
416.611	3.55222
416.82	4.04899
417.029	4.41372
417.238	4.0637
417.447	3.92292
417.656	4.32516
417.865	4.06304
418.074	4.32237
418.283	4.47053
418.492	5.09354
418.7	4.93229
418.909	5.7624
419.118	4.92672
419.327	5.27352
419.536	5.05797
419.744	5.0209
419.953	6.04394
420.162	6.19167
420.371	5.50343
420.579	5.74269
420.788	6.53358
420.997	6.65033
421.205	6.82524
421.414	6.6026
421.623	6.6715
421.831	6.3951
422.04	6.91261
422.249	6.15323
422.457	6.57524
422.666	5.97831
422.874	6.77372
423.083	6.78425
423.291	6.76963
423.5	6.62942
423.708	6.87768
423.917	7.22171
424.125	6.82889
424.334	6.7078
424.542	8.24895
424.751	7.70637
424.959	7.39824
425.167	7.78993
425.376	7.48814
425.584	6.62083
425.793	6.66043
426.001	5.91723
426.209	6.31547
426.418	5.3849
426.626	5.19568
426.834	5.11413
427.042	5.43316
427.251	5.08523
427.459	5.84991
427.667	5.41431
427.875	4.76958
428.084	5.11445
428.292	6.04344
428.5	5.68691
428.708	4.8511
428.916	4.85579
429.124	5.40955
429.333	5.15832
429.541	5.19905
429.749	5.42436
429.957	5.41639
430.165	7.02604
430.373	4.64828
430.581	5.5884
430.789	6.30506
430.997	5.18902
431.205	4.97477
431.413	5.62474
431.621	5.25336
431.829	5.87429
432.037	5.39205
432.245	5.78681
432.453	5.8073
432.661	5.48923
432.869	6.62229
433.076	5.24052
433.284	5.56749
433.492	6.04356
433.7	6.32688
433.908	5.58333
434.116	5.72354
434.323	5.86335
434.531	5.69695
434.739	6.07373
434.947	6.27347
435.154	6.15254
435.362	5.71606
435.57	5.59096
435.778	5.39176
435.985	5.92095
436.193	5.50741
436.401	6.40576
436.608	5.68381
436.816	5.4367
437.023	6.50427
437.231	6.66252
437.439	5.95315
437.646	6.19964
437.854	5.95072
438.061	6.22539
438.269	5.75939
438.476	6.20172
438.684	5.8817
438.891	5.85405
439.099	5.5993
439.306	5.35282
439.514	5.47934
439.721	6.39268
439.929	5.94991
440.136	6.73108
440.343	6.78403
440.551	6.59488
440.758	8.12635
440.965	6.99686
441.173	6.72887
441.38	6.48761
441.587	6.56951
441.795	6.31551
442.002	6.24927
442.209	6.25052
442.416	6.43736
442.624	6.4528
442.831	6.2275
443.038	5.81712
443.245	5.51394
443.452	5.82013
443.66	6.35938
443.867	5.69961
444.074	5.74886
444.281	5.7754
444.488	5.95189
444.695	6.03086
444.902	5.86538
445.109	6.7172
445.316	6.52346
445.523	6.68091
445.73	6.73254
445.937	7.51039
446.144	7.82137
446.351	8.15736
446.558	7.40883
446.765	8.72271
446.972	8.45176
447.179	7.93778
447.386	8.61906
447.593	7.32133
447.8	8.04202
448.007	7.01454
448.214	6.64762
448.42	6.25577
448.627	6.77839
448.834	6.21109
449.041	6.12622
449.248	6.09437
449.454	6.52969
449.661	7.08014
449.868	5.92911
450.075	5.97819
450.281	5.15819
450.488	5.52388
450.695	5.68291
450.901	5.75467
451.108	5.83688
451.315	6.50945
451.521	5.91711
451.728	6.70693
451.935	5.75356
452.141	6.06112
452.348	6.02157
452.554	6.04948
452.761	5.86953
452.967	6.95897
453.174	6.29589
453.38	6.39299
453.587	5.60869
453.793	6.2402
454	6.7521
454.206	7.31145
454.413	6.64465
454.619	6.46831
454.825	5.80923
455.032	6.50119
455.238	6.58694
455.445	5.58103
455.651	6.22489
455.857	5.31702
456.064	6.05821
456.27	5.93859
456.476	5.96737
456.682	5.56979
456.889	6.34109
457.095	6.40051
457.301	7.49356
457.507	6.2613
457.714	6.24044
457.92	6.29208
458.126	5.87282
458.332	6.15872
458.538	6.03896
458.744	6.16863
458.951	6.1196
459.157	7.8876
459.363	7.11357
459.569	7.28712
459.775	8.00445
459.981	7.5238
460.187	7.96704
460.393	8.25783
460.599	8.59136
460.805	7.69915
461.011	7.18518
461.217	7.24538
461.423	7.03715
461.629	6.4489
461.835	6.76814
462.041	6.45563
462.247	7.25581
462.453	6.30209
462.658	6.35463
462.864	6.69875
463.07	6.59122
463.276	6.43255
463.482	6.38875
463.688	7.07948
463.893	6.07655
464.099	6.2677
464.305	7.15726
464.511	6.13647
464.716	6.2618
464.922	6.79686
465.128	6.00229
465.333	7.28851
465.539	6.77148
465.745	6.3879
465.95	6.46203
466.156	8.05961
466.362	7.08813
466.567	6.45342
466.773	6.16229
466.978	7.30364
467.184	6.02376
467.389	5.54903
467.595	6.65125
467.8	6.13393
468.006	7.29666
468.211	7.06346
468.417	5.89814
468.622	6.62928
468.828	6.92046
469.033	6.82449
469.239	7.96181
469.444	6.32404
469.649	7.02219
469.855	6.45904
470.06	6.58192
470.266	6.04653
470.471	6.88467
470.676	6.78864
470.881	5.66131
471.087	7.2456
471.292	8.06044
471.497	5.9665
471.703	6.44929
471.908	6.31962
472.113	6.5589
472.318	6.98642
472.523	6.08425
472.729	6.80243
472.934	6.84761
473.139	6.31347
473.344	6.80679
473.549	7.19841
473.754	6.2544
473.959	8.05387
474.164	6.20487
474.369	6.56362
474.575	7.01322
474.78	6.74141
474.985	6.25613
475.19	5.75142
475.395	6.14767
475.6	6.57756
475.804	7.35823
476.009	6.65486
476.214	6.60247
476.419	6.55216
476.624	5.79828
476.829	6.27084
477.034	7.00976
477.239	6.33037
477.444	7.02075
477.648	6.93981
477.853	6.90768
478.058	6.57863
478.263	6.32641
478.468	6.17427
478.672	6.22423
478.877	7.40359
479.082	7.52103
479.287	7.01109
479.491	6.70541
479.696	6.3129
479.901	7.04159
480.105	7.09572
480.31	6.53984
480.515	6.79311
480.719	7.83937
480.924	6.53882
481.128	6.31157
481.333	6.89676
481.538	6.94168
481.742	6.99058
481.947	7.85477
482.151	8.49221
482.356	9.04742
482.56	10.60463
482.765	11.67244
482.969	13.84828
483.174	15.62724
483.378	18.21304
483.582	18.87619
483.787	20.69698
483.991	21.2415
484.196	21.7124
484.4	21.61694
484.604	22.29935
484.809	20.32728
485.013	19.47223
485.217	17.73035
485.422	15.96951
485.626	14.42876
485.83	13.3595
486.034	12.69198
486.239	12.8257
486.443	13.04255
486.647	13.03812
486.851	13.97027
487.055	15.0905
487.26	14.86764
487.464	15.66389
487.668	15.35905
487.872	15.97713
488.076	16.35041
488.28	15.70413
488.484	14.91964
488.688	14.49059
488.892	13.96379
489.096	13.01937
489.3	11.92457
489.504	11.20573
489.708	10.65274
489.912	10.33498
490.116	9.99782
490.32	9.43143
490.524	10.24047
490.728	10.8853
490.932	11.28221
491.136	11.91216
491.34	13.04007
491.544	13.33249
491.748	13.37071
491.951	13.53331
492.155	13.26159
492.359	13.04471
492.563	11.95762
492.767	11.37555
492.97	10.29393
493.174	9.32349
493.378	8.53494
493.582	7.41761
493.785	7.23468
493.989	7.25856
494.193	7.21052
494.396	7.00305
494.6	7.47834
494.804	7.03334
495.007	6.65452
495.211	6.81854
495.414	6.84437
495.618	7.13034
495.822	7.59639
496.025	7.04545
496.229	7.31736
496.432	6.72302
496.636	7.08273
496.839	7.01098
497.043	7.76648
497.246	7.26088
497.45	6.90745
497.653	7.11276
497.856	7.19467
498.06	6.73026
498.263	7.05505
498.467	6.98904
498.67	7.47901
498.873	7.25032
499.077	7.02816
499.28	6.96989
499.483	7.14494
499.686	7.4231
499.89	7.16128
500.093	7.49731
500.296	6.66565
500.499	7.81086
500.703	7.01346
500.906	7.27484
501.109	7.8104
501.312	7.04355
501.515	6.95927
501.719	7.20033
501.922	7.74705
502.125	7.08139
502.328	6.95474
502.531	6.5065
502.734	6.96086
502.937	6.1566
503.14	7.06203
503.343	6.61844
503.546	6.89485
503.749	6.64828
503.952	7.38356
504.155	6.64023
504.358	7.23876
504.561	7.0845
504.764	6.49545
504.967	7.08498
505.17	7.02482
505.373	7.80858
505.576	7.00367
505.778	7.41295
505.981	6.68698
506.184	7.63649
506.387	6.18468
506.59	7.99607
506.793	7.58678
506.995	7.32673
507.198	6.22811
507.401	7.34312
507.604	7.24503
507.806	6.59299
508.009	6.71913
508.212	7.47455
508.414	6.73093
508.617	6.89448
508.82	7.17733
509.022	7.73125
509.225	7.17252
509.427	6.50739
509.63	7.78639
509.833	7.15372
510.035	6.86944
510.238	6.51908
510.44	7.75582
510.643	6.24697
510.845	7.98698
511.048	7.32722
511.25	6.93307
511.453	7.07107
511.655	7.27254
511.858	7.01286
512.06	7.53708
512.262	7.21086
512.465	7.61007
512.667	6.88593
512.869	6.60805
513.072	7.34987
513.274	7.43872
513.476	7.37223
513.679	7.54036
513.881	6.64798
514.083	7.90678
514.286	6.74025
514.488	6.78771
514.69	6.62389
514.892	6.52599
515.094	7.39168
515.297	6.83605
515.499	7.16686
515.701	6.60282
515.903	7.91618
516.105	7.99099
516.307	7.47973
516.509	6.16449
516.711	6.54831
516.913	7.09819
517.116	7.13269
517.318	6.89409
517.52	7.68434
517.722	7.40124
517.924	6.54186
518.126	7.3941
518.328	7.00171
518.529	7.65179
518.731	8.51301
518.933	7.1991
519.135	7.38322
519.337	8.06777
519.539	7.51677
519.741	6.58988
519.943	7.11547
520.145	7.12128
520.346	7.56849
520.548	7.00767
520.75	7.37526
520.952	7.12298
521.153	7.38302
521.355	7.34558
521.557	6.71153
521.759	7.22005
521.96	7.1098
522.162	6.66085
522.364	7.74737
522.565	6.83856
522.767	7.49036
522.969	7.60032
523.17	7.35935
523.372	7.3388
523.573	6.94386
523.775	7.03987
523.977	6.77932
524.178	8.20489
524.38	6.91838
524.581	7.51758
524.783	7.15081
524.984	7.48993
525.186	7.34631
525.387	7.80796
525.589	7.842
525.79	7.81086
525.991	7.77483
526.193	8.42764
526.394	7.87091
526.596	8.68023
526.797	8.95392
526.998	8.53825
527.2	8.81256
527.401	10.45861
527.602	11.20509
527.803	13.0261
528.005	13.86222
528.206	15.09577
528.407	15.99487
528.608	16.17648
528.81	16.71393
529.011	16.38207
529.212	17.25347
529.413	16.22273
529.614	15.44622
529.815	14.55379
530.017	13.60033
530.218	12.03729
530.419	10.62935
530.62	10.33493
530.821	9.65739
531.022	8.49765
531.223	8.98743
531.424	8.81237
531.625	8.74782
531.826	8.41094
532.027	8.81831
532.228	9.84324
532.429	9.7675
532.63	10.11121
532.831	10.87142
533.032	11.08079
533.233	11.83075
533.433	11.64122
533.634	11.91657
533.835	11.33323
534.036	10.82825
534.237	10.56842
534.438	9.86771
534.638	8.88905
534.839	8.43344
535.04	8.33739
535.241	7.61215
535.441	8.46554
535.642	7.94582
535.843	7.38631
536.043	7.61834
536.244	7.80895
536.445	8.02982
536.645	8.7763
536.846	8.52182
537.047	9.01376
537.247	7.93314
537.448	7.74797
537.648	7.68194
537.849	7.44787
538.049	7.37149
538.25	7.74956
538.451	7.62346
538.651	7.05337
538.851	7.80377
539.052	8.01336
539.252	7.74685
539.453	7.40301
539.653	7.53076
539.854	7.40281
540.054	7.4168
540.254	8.78101
540.455	9.61528
540.655	9.64679
540.855	11.01272
541.056	11.91214
541.256	11.88256
541.456	12.90429
541.657	12.52303
541.857	13.33245
542.057	12.16508
542.257	11.76309
542.458	12.05696
542.658	11.77235
542.858	10.12256
543.058	10.23393
543.258	9.62213
543.458	8.35771
543.659	7.94984
543.859	8.39783
544.059	8.07615
544.259	7.54423
544.459	8.15322
544.659	7.33495
544.859	7.75855
545.059	7.25533
545.259	7.84623
545.459	7.57673
545.659	7.94616
545.859	7.47857
546.059	7.67633
546.259	7.13712
546.459	6.8667
546.659	7.0481
546.859	7.81544
547.059	7.59964
547.258	7.69099
547.458	7.73053
547.658	6.99617
547.858	6.97276
548.058	7.49548
548.258	7.35131
548.457	7.01606
548.657	8.70267
548.857	7.25716
549.057	7.91382
549.256	7.59373
549.456	7.08191
549.656	6.2451
549.855	8.45021
550.055	7.07483
550.255	8.38538
550.454	7.5396
550.654	7.84881
550.853	8.31531
551.053	7.77473
551.253	7.45274
551.452	7.60584
551.652	6.55926
551.851	6.38798
552.051	7.03461
552.25	6.93778
552.45	6.91225
552.649	7.06291
552.849	6.85835
553.048	7.36867
553.248	7.77937
553.447	6.70936
553.646	7.81568
553.846	8.87346
554.045	8.15675
554.244	6.63623
554.444	8.07002
554.643	6.82883
554.842	8.28227
555.042	8.36781
555.241	6.91145
555.44	6.67654
555.64	7.4798
555.839	8.28987
556.038	7.46025
556.237	6.919
556.436	7.36711
556.636	7.49856
556.835	6.71005
557.034	8.12771
557.233	7.16727
557.432	6.28617
557.631	7.83029
557.83	7.08375
558.029	6.8959
558.228	6.8498
558.427	6.66196
558.626	7.50838
558.825	6.68433
559.024	7.16124
559.223	8.30794
559.422	7.10921
559.621	7.54019
559.82	5.81027
560.019	7.24172
560.218	6.95894
560.417	5.51215
560.616	6.8532
560.815	9.39716
561.014	6.32148
561.212	8.26507
561.411	7.20413
561.61	6.33018
561.809	7.02997
562.008	8.34461
562.206	7.02692
562.405	7.52678
562.604	7.19819
562.803	7.31365
563.001	7.2708
563.2	6.43209
563.399	7.54871
563.597	6.48436
563.796	7.17068
563.995	6.42647
564.193	7.65458
564.392	6.9041
564.59	8.55676
564.789	6.03741
564.988	7.00274
565.186	7.2951
565.385	7.07422
565.583	7.05253
565.782	7.19041
565.98	7.05899
566.179	7.14116
566.377	6.67695
566.575	6.71785
566.774	8.15983
566.972	7.82585
567.171	8.54561
567.369	8.18912
567.567	7.39246
567.766	7.33321
567.964	6.01104
568.162	7.74447
568.361	8.0923
568.559	7.063
568.757	7.37804
568.956	7.22043
569.154	7.24276
569.352	7.71356
569.55	7.16209
569.748	7.16846
569.947	6.64669
570.145	6.61554
570.343	6.65113
570.541	8.19259
570.739	6.30679
570.937	7.21283
571.135	7.55006
571.333	8.76911
571.532	8.63021
571.73	7.35394
571.928	7.9909
572.126	7.72824
572.324	7.06358
572.522	8.04953
572.72	9.02358
572.918	7.28996
573.116	7.58229
573.313	7.18934
573.511	7.27969
573.709	7.01905
573.907	7.92307
574.105	6.96958
574.303	6.27055
574.501	6.30805
574.699	7.65829
574.896	7.50983
575.094	7.72815
575.292	6.49174
575.49	7.79979
575.688	7.20705
575.885	8.12639
576.083	8.86878
576.281	7.70081
576.478	6.72478
576.676	7.68981
576.874	6.3601
577.071	7.29262
577.269	8.78165
577.467	7.28481
577.664	7.2531
577.862	7.87846
578.059	6.66538
578.257	7.79041
578.455	7.09967
578.652	7.32843
578.85	5.91988
579.047	7.43401
579.245	7.07378
579.442	7.19108
579.64	6.96218
579.837	5.8648
580.034	9.24873
580.232	7.05723
580.429	6.36083
580.627	7.51089
580.824	8.1453
581.021	7.80066
581.219	6.77993
581.416	6.77456
581.613	8.33245
581.811	8.13707
582.008	6.57185
582.205	7.96674
582.402	7.47455
582.6	8.90764
582.797	7.38055
582.994	7.73652
583.191	7.90614
583.388	7.3113
583.586	7.89035
583.783	8.19929
583.98	6.35392
584.177	7.36454
584.374	5.26961
584.571	6.97896
584.768	7.27145
584.965	6.90063
585.162	7.86855
585.359	8.55245
585.556	7.31847
585.753	7.75372
585.95	6.28371
586.147	6.65987
586.344	7.64707
586.541	7.14064
586.738	6.5581
586.935	7.12635
587.132	6.75861
587.329	8.14977
587.526	7.26794
587.722	11.4598
587.919	6.28251
588.116	7.61674
588.313	8.41566
588.51	9.04293
588.706	7.0173
588.903	7.5846
589.1	7.95301
589.297	9.73194
589.493	7.23225
589.69	7.82004
589.887	6.89446
590.083	6.42708
590.28	6.84665
590.477	8.11428
590.673	7.70738
590.87	8.42594
591.067	6.67859
591.263	7.78663
591.46	7.68965
591.656	7.16341
591.853	8.76869
592.049	6.69025
592.246	6.84557
592.442	8.23962
592.639	8.38786
592.835	6.48414
593.032	7.70246
593.228	5.99496
593.425	6.2939
593.621	6.1593
593.817	7.61176
594.014	6.51024
594.21	7.59429
594.406	8.27219
594.603	7.60074
594.799	6.88133
594.995	5.589
595.192	8.34386
595.388	7.03883
595.584	7.01515
595.78	6.23519
595.977	9.73281
596.173	8.7916
596.369	6.98319
596.565	6.45455
596.761	6.34701
596.957	8.24556
597.154	6.83989
597.35	6.95616
597.546	6.86489
597.742	7.66926
597.938	7.56763
598.134	6.66505
598.33	7.6246
598.526	8.31035
598.722	7.756
598.918	9.06468
599.114	7.90822
599.31	6.35169
599.506	7.29018
599.702	6.74749
599.898	7.6867
600.094	8.12191
600.29	8.21245
600.485	8.04601
600.681	6.7267
600.877	8.85552
601.073	7.56348
601.269	9.28571
601.465	8.74417
601.66	6.75594
601.856	5.88593
602.052	9.50772
602.248	7.23459
602.443	5.74848
602.639	6.33917
602.835	6.85065
603.03	6.74061
603.226	8.22333
603.422	6.65053
603.617	7.12043
603.813	7.06558
604.009	6.88606
604.204	8.38071
604.4	6.35411
604.595	8.31082
604.791	6.72256
604.986	7.68753
605.182	6.7828
605.377	7.17289
605.573	7.14639
605.768	7.48614
605.964	7.92685
606.159	8.05444
606.355	8.4576
606.55	7.13186
606.746	8.39645
606.941	7.4896
607.136	9.13336
607.332	10.09791
607.527	6.42552
607.722	7.75334
607.918	7.22837
608.113	6.66899
608.308	8.20132
608.503	7.90912
608.699	7.7843
608.894	7.90951
609.089	6.80968
609.284	7.80321
609.479	7.22649
609.675	8.13186
609.87	7.33347
610.065	8.08977
610.26	8.22836
610.455	8.09822
610.65	7.44718
610.845	7.89525
611.04	8.29908
611.235	7.38895
611.43	7.4426
611.625	6.64061
611.82	8.7983
612.015	6.9997
612.21	9.24109
612.405	6.28477
612.6	9.40865
612.795	9.19299
612.99	8.45773
613.185	6.68843
613.38	7.01212
613.575	7.77149
613.77	10.76065
613.965	6.31494
614.159	6.97465
614.354	9.19255
614.549	8.81049
614.744	8.44163
614.938	6.5551
615.133	6.44035
615.328	9.35652
615.523	9.05254
615.717	10.65186
615.912	7.29383
616.107	7.94675
616.301	7.41319
616.496	6.9834
616.691	9.59338
616.885	8.69166
617.08	10.87199
617.274	8.83128
617.469	9.89927
617.664	8.6904
617.858	7.37341
618.053	8.34611
618.247	7.61221
618.442	5.58387
618.636	9.55487
618.831	7.14255
619.025	7.19338
619.219	11.12922
619.414	4.61235
619.608	7.70395
619.803	7.0922
619.997	10.45564
620.191	9.10464
620.386	8.28323
620.58	7.79228
620.774	5.9429
620.969	6.18238
621.163	8.12656
621.357	6.53612
621.551	7.60072
621.746	7.84663
621.94	7.69158
622.134	11.66523
622.328	10.25846
622.522	6.26574
622.716	8.93092
622.911	9.19922
623.105	9.02908
623.299	8.44141
623.493	11.5527
623.687	7.21607
623.881	7.44684
624.075	8.88896
624.269	9.23746
624.463	5.78572
624.657	6.22795
624.851	8.76519
625.045	8.76779
625.239	8.98677
625.433	7.23537
625.627	9.97519
625.821	7.43633
626.015	7.01363
626.209	8.21378
626.403	6.10707
626.596	8.3605
626.79	8.70199
626.984	6.63735
627.178	8.56123
627.372	8.27617
627.565	8.70405
627.759	6.58378
627.953	6.70441
628.147	8.36822
628.34	8.81167
628.534	10.60928
628.728	7.69059
628.921	9.02666
629.115	8.9067
629.309	9.09977
629.502	9.4424
629.696	8.44552
629.89	8.01498
630.083	8.3628
630.277	8.59793
630.47	10.09955
630.664	7.74129
630.857	6.34785
631.051	9.0467
631.244	9.5992
631.438	9.25297
631.631	7.36998
631.825	9.81478
632.018	8.76578
632.212	10.65878
632.405	9.72517
632.598	7.40715
632.792	8.30937
632.985	5.43187
633.178	7.59258
633.372	8.00715
633.565	7.85787
633.758	9.63708
633.952	7.10697
634.145	7.01197
634.338	8.02797
634.531	7.65888
634.724	7.37779
634.918	8.23171
635.111	7.86769
635.304	7.75354
635.497	11.3784
635.69	8.90107
635.883	9.91412
636.077	6.9911
636.27	8.74391
636.463	8.66836
636.656	8.66708
636.849	8.02911
637.042	8.97769
637.235	11.01465
637.428	9.38205
637.621	8.98053
637.814	10.53975
638.007	10.43756
638.2	10.4936
638.393	11.18363
638.586	6.87834
638.778	7.92757
638.971	8.36073
639.164	10.73847
639.357	9.03716
639.55	10.83855
639.743	9.76135
639.935	9.21857
640.128	11.77521
640.321	9.87872
640.514	9.32035
640.707	12.25672
640.899	9.76553
641.092	6.55089
641.285	24.59303
641.477	6.1613
641.67	12.78484
641.863	10.71324
642.055	9.46426
642.248	8.78135
642.441	8.42724
642.633	9.56182
642.826	10.27748
643.018	11.05528
643.211	11.96371
643.403	12.09094
643.596	12.54752
643.788	12.38488
643.981	8.28912
644.173	10.25362
644.366	8.49663
644.558	6.28866
644.751	10.41554
644.943	7.4145
645.135	11.67244
645.328	11.87467
645.52	10.4041
645.712	10.84865
645.905	14.4474
646.097	7.35071
646.289	9.8951
646.482	12.85928
646.674	8.08585
646.866	11.12883
647.058	10.39132
647.251	7.60088
647.443	8.3688
647.635	8.79612
647.827	7.88729
648.019	7.46706
648.211	9.02637
648.404	9.58284
648.596	11.90216
648.788	10.17396
648.98	9.96812
649.172	10.42996
649.364	9.98594
649.556	7.01107
649.748	13.54181
649.94	8.49622
650.132	10.66142
650.324	8.27082
650.516	8.39621
650.708	11.30283
650.9	7.2921
651.092	6.92333
651.284	7.27501
651.476	7.40357
651.667	10.65948
651.859	11.7602
652.051	9.40123
652.243	9.9212
652.435	8.8257
652.627	10.36237
652.818	10.5123
653.01	7.3617
653.202	8.43618
653.394	8.89055
653.585	10.53499
653.777	17.12485
653.969	12.43567
654.16	11.70667
654.352	8.1159
654.544	9.80557
654.735	11.76371
654.927	9.915
655.118	12.26239
655.31	11.07291
655.502	11.82908
655.693	9.32872
655.885	10.6939
656.076	12.4557
656.268	10.19612
656.459	12.49506
656.651	12.1375
656.842	9.07974
657.034	8.79099
657.225	11.54566
657.416	12.39571
657.608	12.23257
657.799	10.03644
657.99	11.98022
658.182	8.74315
658.373	8.53908
658.564	11.99728
658.756	10.33304
658.947	9.51068
659.138	8.31293
659.33	8.94695
659.521	8.66782
659.712	9.5814
659.903	9.20811
660.094	8.70212
660.286	7.42707
660.477	12.77119
660.668	10.72514
660.859	9.79318
661.05	7.67749
661.241	10.79755
661.432	10.4975
661.623	9.61757
661.814	9.83729
662.006	7.25373
662.197	10.95315
662.388	12.1269
662.579	10.62845
662.77	12.62081
662.96	15.41789
663.151	12.00883
663.342	7.07865
663.533	11.28559
663.724	10.24905
663.915	13.89565
664.106	10.22448
664.297	13.9569
664.488	11.79377
664.678	9.21021
664.869	12.21312
665.06	12.10149
665.251	10.91519
665.442	11.62829
665.632	8.59846
665.823	14.66525
666.014	5.57237
666.204	11.63855
666.395	13.13137
666.586	15.22758
666.776	12.10429
666.967	14.66865
667.158	10.88702
667.348	13.74148
667.539	8.96557
667.729	13.02791
667.92	9.31441
668.111	12.87443
668.301	12.30266
668.492	10.45972
668.682	10.91169
668.873	10.60781
669.063	8.31594
669.253	11.41409
669.444	13.66101
669.634	10.50088
669.825	14.39195
670.015	13.5813
670.206	9.6115
670.396	15.09292
670.586	10.8032
670.777	12.08402
670.967	6.84123
671.157	10.29893
671.347	9.87747
671.538	14.28022
671.728	12.61622
671.918	14.99169
672.108	13.16277
672.299	10.68555
672.489	11.94424
672.679	9.6397
672.869	12.38863
673.059	15.88745
673.249	11.88084
673.44	9.25852
673.63	11.30567
673.82	13.60102
674.01	9.32038
674.2	12.56381
674.39	17.72334
674.58	12.75567
674.77	12.14041
674.96	11.12023
675.15	20.35693
675.34	14.11723
675.53	11.90125
675.72	10.44899
675.91	7.75816
676.099	15.76675
676.289	16.90146
676.479	14.06397
676.669	10.5555
676.859	12.7296
677.049	10.16006
677.238	12.12054
677.428	15.54709
677.618	12.91217
677.808	16.02121
677.997	12.97779
678.187	9.77877
678.377	11.57298
678.567	10.27761
678.756	10.89457
678.946	11.16187
679.136	8.91743
679.325	10.21831
679.515	10.08224
679.704	8.95104
679.894	13.54562
680.084	12.52039
680.273	14.25743
680.463	9.71488
680.652	9.6079
680.842	11.51093
681.031	13.52718
681.221	10.3149
681.41	12.59009
681.6	11.36394
681.789	13.15424
681.978	14.32683
682.168	12.82344
682.357	12.61196
682.547	13.00233
682.736	12.63629
682.925	14.83139
683.115	15.14125
683.304	13.433
683.493	12.42743
683.682	13.32047
683.872	13.42894
684.061	15.2028
684.25	13.89701
684.439	17.9875
684.629	14.33363
684.818	20.43416
685.007	12.86218
685.196	11.72737
685.385	17.36176
685.574	13.89136
685.763	14.00457
685.952	13.38535
686.142	10.17695
686.331	16.557
686.52	9.52309
686.709	18.37606
686.898	17.58111
687.087	14.6618
687.276	17.03341
687.465	16.16089
687.654	12.3161
687.842	16.81429
688.031	10.1008
688.22	16.74872
688.409	13.85105
688.598	13.93674
688.787	19.57176
688.976	13.76903
689.165	18.37366
689.353	12.74119
689.542	15.21321
689.731	16.49185
689.92	19.18011
690.108	15.52777
690.297	13.04259
690.486	14.08743
690.675	15.53103
690.863	18.45686
691.052	17.75434
691.241	14.85132
691.429	14.49842
691.618	17.72095
691.806	11.23892
691.995	13.85053
692.184	13.50514
692.372	13.49816
692.561	14.30252
692.749	14.69978
692.938	23.74736
693.126	15.57
693.315	13.73615
693.503	16.32622
693.692	17.42915
693.88	16.71767
694.068	20.38415
694.257	15.00351
694.445	16.40438
694.634	9.82465
694.822	17.09281
695.01	17.52524
695.199	20.92435
695.387	18.95722
695.575	18.25076
695.763	14.31566
695.952	13.62916
696.14	10.37209
696.328	13.3056
696.516	15.03323
696.705	15.46004
696.893	15.19384
697.081	10.45659
697.269	17.00405
697.457	11.801
697.645	11.06916
697.833	16.39201
698.021	11.98708
698.21	12.66597
698.398	13.18619
698.586	10.82437
698.774	10.4849
698.962	13.45232
699.15	11.05914
699.338	9.6674
699.526	14.66162
699.714	11.7523
699.901	11.8459
700.089	15.55731
700.277	11.96441
700.465	13.11402
700.653	15.62782
700.841	14.71479
701.029	12.34224
701.217	18.31549
701.404	14.45986
701.592	18.82572
701.78	21.318
701.968	14.00578
702.155	14.51226
702.343	11.69658
702.531	19.37556
702.718	15.86358
702.906	13.54781
703.094	13.69688
703.281	18.9242
703.469	14.25982
703.657	18.82978
703.844	25.8913
704.032	21.93974
704.219	14.61409
704.407	17.49162
704.595	20.86565
704.782	17.85834
704.97	16.06606
705.157	15.35693
705.345	22.73558
705.532	27.77207
705.719	19.45693
705.907	22.34006
706.094	18.18267
706.282	26.14827
706.469	18.90987
706.656	20.34339
706.844	18.92768
707.031	23.63939
707.218	21.52657
707.406	25.95478
707.593	23.39926
707.78	22.78889
707.968	21.40597
708.155	18.92853
708.342	23.15944
708.529	23.30399
708.716	22.26894
708.904	26.75227
709.091	22.91123
709.278	17.87539
709.465	27.27576
709.652	26.27247
709.839	25.71554
710.026	21.35945
710.213	15.44095
710.4	21.41029
710.587	22.89749
710.774	23.71453
710.961	24.48515
711.148	21.07558
711.335	23.35876
711.522	20.34236
711.709	22.37492
711.896	27.87407
712.083	24.63791
712.27	18.33721
712.457	21.69062
712.644	16.61384
712.831	28.36826
713.017	21.99186
713.204	23.3341
713.391	18.62564
713.578	24.19264
713.765	25.77851
713.951	21.87938
714.138	31.65905
714.325	21.48465
714.512	19.64357
714.698	16.51661
714.885	24.53317
715.072	19.89129
715.258	19.0081
715.445	16.77031
715.631	22.72813
715.818	10.3267
716.005	16.80696
716.191	21.05316
716.378	16.66534
716.564	21.27691
716.751	15.43517
716.937	16.95025
717.124	22.32672
717.31	15.1985
717.497	26.00649
717.683	15.6098
717.869	26.76889
718.056	16.91403
718.242	20.60178
718.429	18.30475
718.615	14.30857
718.801	18.6456
718.988	23.31324
719.174	20.31017
719.36	17.59876
719.547	24.57153
719.733	20.63506
719.919	20.56858
720.105	21.57562
720.291	18.82579
720.478	20.12896
720.664	18.18604
720.85	17.28405
721.036	30.82651
721.222	26.46522
721.408	19.03977
721.595	26.47932
721.781	25.66863
721.967	24.73169
722.153	26.4869
722.339	22.78901
722.525	21.47187
722.711	16.00664
722.897	13.75083
723.083	18.66208
723.269	24.32787
723.455	32.33129
723.641	37.9874
723.827	20.92904
724.012	21.46636
724.198	20.38624
724.384	25.86644
724.57	21.79364
724.756	14.57473
724.942	12.00968
725.127	25.32233
725.313	26.17387
725.499	26.09459
725.685	29.0351
725.87	21.98736
726.056	16.69924
726.242	25.81263
726.428	13.90394
726.613	24.43368
726.799	18.83219
726.985	16.27061
727.17	13.97174
727.356	29.65578
727.541	17.08102
727.727	19.6824
727.913	23.90585
728.098	18.59834
728.284	24.03062
728.469	16.32523
728.655	17.10976
728.84	25.44606
729.026	24.10515
729.211	24.18324
729.397	22.22221
729.582	24.4908
729.767	20.10112
729.953	22.13481
730.138	26.4685
730.323	10.88496
730.509	15.78318
730.694	28.31658
730.879	23.43393
731.065	21.87756
731.25	31.89206
731.435	24.12594
731.621	15.0011
731.806	18.82831
731.991	22.15977
732.176	15.1628
732.361	28.14037
732.547	22.35856
732.732	14.40817
732.917	31.43446
733.102	15.72787
733.287	18.41824
733.472	20.92727
733.657	20.53177
733.842	14.90922
734.027	18.74095
734.212	19.96228
734.397	18.00244
734.582	21.36913
734.767	25.48999
734.952	27.89777
735.137	10.69243
735.322	28.03051
735.507	22.46127
735.692	21.95253
735.877	32.66631
736.062	30.54339
736.247	23.1343
736.431	20.9547
736.616	26.50395
736.801	23.37351
736.986	22.12966
737.171	17.28854
737.355	15.86385
737.54	28.80346
737.725	22.12436
737.909	35.8012
738.094	19.64443
738.279	25.86324
738.463	21.28387
738.648	25.25623
738.833	23.38973
739.017	34.01833
739.202	20.94608
739.386	20.69192
739.571	17.50644
739.756	26.74072
739.94	21.98543
740.125	25.74595
740.309	18.35645
740.494	25.77769
740.678	23.4981
740.863	24.92818
741.047	23.66343
741.231	30.36198
741.416	19.50661
741.6	29.70914
741.785	18.8539
741.969	27.28231
742.153	30.50962
742.338	12.81326
742.522	22.61708
742.706	27.24696
742.89	16.95111
743.075	22.75526
743.259	29.65571
743.443	28.92628
743.627	29.92788
743.812	36.09723
743.996	14.10391
744.18	22.18244
744.364	21.19349
744.548	36.57357
744.732	22.25265
744.916	28.49892
745.1	26.15594
745.285	21.233
745.469	27.20943
745.653	32.15569
745.837	16.90483
746.021	36.01433
746.205	30.02125
746.389	24.44434
746.573	21.47709
746.757	31.82001
746.94	20.49924
747.124	30.34307
747.308	18.38925
747.492	30.70187
747.676	19.07079
747.86	37.83057
748.044	20.97417
748.227	14.24325
748.411	47.23219
748.595	23.94573
748.779	19.68232
748.963	26.29273
749.146	24.41606
749.33	19.90425
749.514	18.64108
749.697	31.12792
749.881	20.02217
750.065	17.69483
750.248	24.29846
750.432	38.50824
750.616	23.59316
750.799	17.79382
750.983	39.37417
751.166	39.73888
751.35	16.33389
751.533	27.58176
751.717	33.53558
751.9	33.44888
752.084	22.51705
752.267	20.19143
752.451	19.47702
752.634	24.27633
752.818	27.54037
753.001	29.23344
753.184	32.33397
753.368	26.19578
753.551	5.95482
753.734	18.67683
753.918	40.85071
754.101	21.43216
754.284	28.3852
754.467	21.60671
754.651	20.44661
754.834	20.23279
755.017	31.1227
755.2	31.52772
755.384	18.70547
755.567	28.39688
755.75	30.60782
755.933	22.16023
756.116	29.71357
756.299	20.66512
756.482	19.58769
756.665	28.17826
756.848	24.13547
757.032	26.74445
757.215	16.93388
757.398	19.26239
757.581	19.76319
757.764	43.52343
757.947	24.0294
758.129	30.18769
758.312	9.18579
758.495	23.59851
758.678	23.16773
758.861	22.94227
759.044	37.28441
759.227	18.37276
759.41	18.92984
759.592	29.50689
759.775	23.05974
759.958	31.09779
760.141	17.04183
760.324	40.27614
760.506	33.76459
760.689	30.36988
760.872	39.44406
761.054	27.04847
761.237	23.6535
761.42	26.43535
761.602	29.5882
761.785	26.86895
761.968	32.32076
762.15	36.9286
762.333	24.4291
762.515	28.45167
762.698	22.08702
762.88	30.87367
763.063	27.75121
763.245	32.75649
763.428	19.306
763.61	21.38528
763.793	17.1999
763.975	26.27513
764.158	22.44794
764.34	21.17388
764.522	18.19835
764.705	22.80709
764.887	33.88507
765.069	14.93597
765.252	27.97005
765.434	28.31896
765.616	25.37155
765.799	19.44568
765.981	28.90879
766.163	18.92784
766.345	33.12506
766.528	21.88916
766.71	10.85392
766.892	25.92638
767.074	32.69224
767.256	23.93661
767.438	36.47852
767.62	26.12789
767.802	41.79721
767.985	29.46332
768.167	38.65416
768.349	22.05459
768.531	29.59798
768.713	28.6338
768.895	31.91203
769.077	27.25854
769.259	45.71246
769.441	61.64069
769.623	30.52468
769.804	36.86058
769.986	34.87089
770.168	42.31144
770.35	52.47945
770.532	39.9265
770.714	44.90889
770.896	43.91488
771.077	18.24174
771.259	45.11353
771.441	38.21345
771.623	46.90348
771.804	59.55578
771.986	19.64574
772.168	30.3393
772.35	42.38072
772.531	58.31669
772.713	37.98595
772.894	49.6999
773.076	37.70943
773.258	31.43447
773.439	50.78164
773.621	56.97001
773.802	26.00205
773.984	31.24754
774.166	40.6937
774.347	55.03169
774.529	47.71152
774.71	17.64683
774.891	34.25994
775.073	32.35518
775.254	51.8258
775.436	31.4475
775.617	63.64036
775.799	32.64633
775.98	51.11553
776.161	57.23895
776.343	59.45491
776.524	36.43795
776.705	34.69723
776.886	18.90071
777.068	39.40155
777.249	88.96987
777.43	61.90302
777.611	25.40288
777.793	33.9399
777.974	59.60242
778.155	31.3647
778.336	25.78627
778.517	66.66255
778.698	29.25592
778.879	18.82999
779.061	10.04223
779.242	43.88343
779.423	43.4361
779.604	32.31581
779.785	33.46279
779.966	39.65902
780.147	52.21518
780.328	50.43084
780.509	69.52939
780.69	49.00112
780.871	29.7399
781.051	21.77803
781.232	39.36489
781.413	40.63575
781.594	34.95774
781.775	32.79617
781.956	29.65227
782.137	16.94672
782.317	31.56773
782.498	39.14307
782.679	37.89898
782.86	40.77199
783.04	28.91928
783.221	39.64658
783.402	62.4987
783.583	38.0341
783.763	49.51804
783.944	32.54426
784.124	22.24453
784.305	59.27638
784.486	47.52833
784.666	37.75148
784.847	22.55291
785.027	82.41623
785.208	29.94616
785.388	31.0899
785.569	30.57587
785.749	35.45035
785.93	33.85658
786.11	22.60296
786.291	44.20652
786.471	42.51957
786.652	48.43721
786.832	35.60162
787.012	39.75329
787.193	24.68054
787.373	38.73012
787.553	33.00071
787.734	40.72356
787.914	33.68734
788.094	50.48026
788.275	41.87173
788.455	33.22937
788.635	25.13439
788.815	42.55713
788.995	26.46382
789.176	22.01252
789.356	29.58865
789.536	36.29527
789.716	41.99749
789.896	30.34123
790.076	30.87278
790.256	41.91362
790.436	14.45018
790.616	26.4537
790.796	40.74311
790.976	33.31769
791.156	29.25749
791.336	43.47567
791.516	41.00223
791.696	35.74595
791.876	22.70613
792.056	38.6307
792.236	49.92162
792.416	46.84877
792.596	43.09286
792.776	42.17134
792.956	44.10272
793.135	60.91797
793.315	26.76048
793.495	52.76807
793.675	47.56816
793.854	46.15832
794.034	49.32064
794.214	25.21484
794.394	47.21862
794.573	52.61286
794.753	38.97547
794.933	27.39079
795.112	40.50633
795.292	50.04994
795.472	59.16342
795.651	24.51912
795.831	36.86996
796.01	34.72483
796.19	34.41976
796.369	36.76043
796.549	42.76331
796.728	35.35735
796.908	22.06525
797.087	25.19654
797.267	35.95082
797.446	25.12237
797.626	42.50938
797.805	43.33397
797.984	28.10689
798.164	47.517
798.343	27.5996
798.522	41.28869
798.702	39.32945
798.881	24.21934
799.06	34.72003
799.239	16.93678
799.419	27.91595
799.598	59.86164
799.777	43.89714
799.956	51.67089
800.136	32.89411
800.315	27.11815
800.494	41.83762
800.673	50.86328
800.852	46.12673
801.031	51.99862
801.21	44.37177
801.389	33.48934
801.568	39.82659
801.747	61.42444
801.926	37.95399
802.105	55.53129
802.284	30.36957
802.463	57.40379
802.642	39.97457
802.821	40.84543
803	55.68958
803.179	48.94752
803.358	49.5639
803.537	29.80354
803.716	38.23178
803.895	31.37167
804.073	35.22012
804.252	28.22966
804.431	44.01773
804.61	37.06291
804.789	48.45209
804.967	32.08545
805.146	31.29273
805.325	67.75271
805.503	44.82477
805.682	23.79485
805.861	82.80194
806.039	57.24216
806.218	32.51064
806.397	41.17871
806.575	37.81202
806.754	42.42912
806.932	26.88945
807.111	51.42642
807.289	49.53173
807.468	39.88618
807.646	49.81397
807.825	43.5757
808.003	41.68066
808.182	51.11685
808.36	39.0498
808.539	28.80887
808.717	57.94127
808.895	30.62745
809.074	44.50331
809.252	38.87186
809.43	48.25429
809.609	54.97983
809.787	64.6879
809.965	36.73981
810.144	41.31729
810.322	37.28191
810.5	44.77552
810.678	34.69253
810.856	69.34671
811.035	53.53909
811.213	48.23684
811.391	56.57036
811.569	40.71679
811.747	90.32366
811.925	56.12078
812.103	33.25539
812.281	37.07172
812.459	64.69209
812.637	63.56756
812.816	52.24364
812.994	71.08722
813.171	59.05944
813.349	45.54081
813.527	52.59373
813.705	60.38753
813.883	75.5554
814.061	53.6292
814.239	63.96499
814.417	71.75444
814.595	50.81338
814.773	46.97508
814.95	43.39601
815.128	48.073
815.306	42.94937
815.484	41.18676
815.662	28.31896
815.839	24.69979
816.017	36.73753
816.195	57.27249
816.372	35.0762
816.55	51.54443
816.728	63.63974
816.905	40.09445
817.083	66.10223
817.261	41.45286
817.438	86.93767
817.616	66.65716
817.793	35.53368
817.971	51.68198
818.148	51.6074
818.326	60.73017
818.503	45.80173
818.681	65.53194
818.858	37.05782
819.036	43.67923
819.213	44.79747
819.391	34.6282
819.568	34.59599
819.745	29.03975
819.923	51.96282
820.1	36.77834
820.277	30.88416
820.455	37.62968
820.632	39.15226
820.809	43.42704
820.986	27.84891
821.164	22.57023
821.341	21.20943
821.518	31.29023
821.695	22.37771
821.872	20.17367
822.05	17.99729
822.227	14.90696
822.404	15.62461
822.581	17.77245
822.758	15.2103
822.935	15.43417
823.112	17.36494
823.289	14.56678
823.466	17.47169
823.643	16.64813
823.82	19.6424
823.997	17.8677
824.174	20.2159
824.351	26.95766
824.528	25.19851
824.705	23.17816
824.882	25.10955
825.059	31.93448
825.236	23.97689
825.412	24.81463
825.589	29.92605
825.766	42.26664
825.943	27.2932
826.12	31.17917
826.296	22.59602
826.473	28.80176
826.65	28.06379
826.827	33.7898
827.003	23.00818
827.18	25.46372
827.357	28.5479
827.533	23.9206
827.71	14.47991
827.887	21.19999
828.063	24.58987
828.24	21.08187
828.416	27.26274
828.593	23.25438
828.769	32.21757
828.946	33.22138
829.122	33.97998
829.299	33.3092
829.475	21.16164
829.652	31.63139
829.828	51.97833
830.005	35.52656
830.181	46.33132
830.357	34.85997
830.534	48.82001
830.71	36.92166
830.886	48.83089
831.063	46.66815
831.239	57.16211
831.415	31.8145
831.592	61.74202
831.768	38.25788
831.944	31.44481
832.12	65.68614
832.296	59.21552
832.473	50.34155
832.649	35.59252
832.825	51.94026
833.001	32.42372
833.177	44.56419
833.353	41.11157
833.529	24.19309
833.705	37.20747
833.881	24.6031
834.058	23.77565
834.234	26.60752
834.41	25.85339
834.586	20.34417
834.761	24.4355
834.937	27.11843
835.113	27.84038
835.289	24.7798
835.465	28.54234
835.641	25.51057
835.817	28.75312
835.993	47.74296
836.169	24.65202
836.344	38.27075
836.52	41.69335
836.696	40.18033
836.872	32.91187
837.048	88.41648
837.223	35.21838
837.399	66.85875
837.575	53.01437
837.75	50.93588
837.926	69.59788
838.102	101.31367
838.277	81.12451
838.453	112.98218
838.628	112.3483
838.804	45.63211
838.98	98.02656
839.155	51.21392
839.331	70.71513
839.506	49.55949
839.682	50.90996
839.857	69.8754
840.033	82.84793
840.208	38.94156
840.384	22.35755
840.559	41.01538
840.734	60.37982
840.91	78.78556
841.085	48.00565
841.26	48.424
841.436	43.70883
841.611	40.50415
841.786	63.59239
841.962	83.4669
842.137	49.86326
842.312	34.47967
842.487	48.92378
842.663	38.98684
842.838	50.69876
843.013	151.56508
843.188	75.40988
843.363	62.02308
843.538	126.72609
843.714	129.39998
843.889	129.41846
844.064	142.6675
844.239	111.33065
844.414	127.40732
844.589	86.88299
844.764	165.12367
844.939	155.13481
845.114	176.24568
845.289	169.39598
845.464	221.88786
845.639	145.44148
845.814	72.75083
845.989	91.17732
846.163	109.71413
846.338	114.19647
846.513	155.46826
846.688	106.89864
846.863	103.44352
847.038	102.49303
847.212	112.64414
847.387	120.14642
847.562	117.39432
847.737	151.81966
847.911	56.07077
848.086	65.5943
848.261	242.62965
848.435	101.42186
848.61	151.83615
848.785	78.15681
848.959	160.90244
849.134	212.01072
849.308	219.82473
849.483	117.91792
849.658	182.30235
849.832	101.13835
850.007	90.67309
850.181	245.54235
850.356	92.11043
850.53	225.48606
850.705	78.57468
850.879	43.08956
851.053	108.66212
851.228	101.34811
851.402	134.63985
851.577	164.16591
851.751	185.83572
851.925	124.05069
852.099	58.86187
852.274	85.92481
852.448	113.1676
852.622	123.837
852.797	121.87423
852.971	112.52204
853.145	120.71462
853.319	348.10761
853.493	174.41427
853.668	103.39946
853.842	215.67338
854.016	180.78911
854.19	211.03571
854.364	127.2387
854.538	138.70967
854.712	180.36857
854.886	115.46491
855.06	108.39771
855.234	38.08492
855.408	191.9239
855.582	162.79769
855.756	165.52211
855.93	213.79785
856.104	147.21105
856.278	167.10056
856.452	122.0926
856.626	158.77717
856.8	257.60295
856.973	150.82075
857.147	140.00681
857.321	143.17756
857.495	175.61144
857.669	123.70714
857.842	102.25051
858.016	178.93517
858.19	89.46795
858.364	281.1501
858.537	105.75789
858.711	127.10116
858.885	110.36383
859.058	101.36743
859.232	54.4574
859.405	68.17768
859.579	166.57282
859.753	145.93934
859.926	89.5812
860.1	69.78207
860.273	122.95047
860.447	203.9661
860.62	108.98214
860.794	249.78665
860.967	140.10933
861.141	172.48402
861.314	258.33791
861.487	153.03066
861.661	199.68138
861.834	199.15115
862.008	181.93565
862.181	130.15427
862.354	130.84879
862.528	155.80045
862.701	103.38862
862.874	72.37761
863.047	106.36682
863.221	108.37618
863.394	54.65433
863.567	199.76624
863.74	44.3288
863.913	165.61344
864.087	146.14458
864.26	169.71299
864.433	124.45226
864.606	219.67163
864.779	124.95463
864.952	61.35004
865.125	103.04699
865.298	116.91436
865.471	119.10144
865.644	255.87011
865.817	204.77546
865.99	168.7639
866.163	186.13341
866.336	110.35247
866.509	133.73769
866.682	109.40996
866.855	186.06855
867.028	86.03826
867.2	159.71617
867.373	56.20886
867.546	135.731
867.719	264.25346
867.892	161.17081
868.064	92.21063
868.237	152.36084
868.41	125.34384
868.583	74.84731
868.755	79.1047
868.928	128.10302
869.101	267.04149
869.273	188.61605
869.446	159.78609
869.619	190.1678
869.791	124.47952
869.964	182.43151
870.136	170.23219
870.309	137.61505
870.481	143.62406
870.654	63.70636
870.826	136.53012
870.999	111.97371
871.171	180.35567
871.344	109.10875
871.516	131.87493
871.689	95.04721
871.861	137.18916
872.033	93.87935
872.206	113.22871
872.378	182.54719
872.55	115.70447
872.723	79.98357
872.895	115.38778
873.067	185.34166
873.24	203.45181
873.412	106.63444
873.584	119.79347
873.756	111.52063
873.928	147.65072
874.101	153.18225
874.273	165.50925
874.445	59.15247
874.617	77.69323
874.789	134.82597
874.961	108.47976
875.133	160.22328
875.305	132.61336
875.477	86.74868
875.649	72.45363
875.821	93.70005
875.993	222.70559
876.165	88.32548
876.337	147.88562
876.509	115.95717
876.681	149.45897
876.853	142.38392
877.025	139.6079
877.197	94.22062
877.369	89.98816
877.541	178.88355
877.712	48.79299
877.884	82.21927
878.056	157.56523
878.228	88.63413
878.4	152.65115
878.571	89.13273
878.743	61.83184
878.915	142.0414
879.086	85.39477
879.258	103.76073
879.43	94.57232
879.601	81.31366
879.773	86.16018
879.945	22.29409
880.116	38.11981
880.288	25.07403
880.459	27.20501
880.631	20.72216
880.802	25.01038
880.974	23.93324
881.145	17.4171
881.317	22.89099
881.488	17.20457
881.66	19.24477
881.831	17.64498
882.002	24.5407
882.174	17.814
882.345	23.03387
882.517	13.40051
882.688	26.37094
882.859	23.35363
883.03	36.29808
883.202	34.18107
883.373	29.54817
883.544	29.88919
883.715	51.6732
883.887	41.94094
884.058	36.8817
884.229	52.23929
884.4	53.72142
884.571	59.48113
884.742	54.65194
884.914	57.01705
885.085	80.87325
885.256	100.78051
885.427	81.35644
885.598	99.11791
885.769	105.91347
885.94	100.46563
886.111	67.2176
886.282	115.66922
886.453	96.46507
886.624	67.96085
886.795	113.48062
886.966	94.37361
887.136	127.29567
887.307	84.292
887.478	159.8084
887.649	139.49866
887.82	140.76589
887.991	113.2694
888.161	155.54949
888.332	151.07146
888.503	74.60576
888.674	192.92123
888.844	210.82938
889.015	169.37841
889.186	81.80106
889.356	196.14146
889.527	70.65496
889.698	341.8305
889.868	112.85226
890.039	146.95505
890.209	123.71147
890.38	172.61511
890.551	145.68163
890.721	212.31919
890.892	171.46901
891.062	119.82214
891.233	151.35572
891.403	113.73863
891.574	92.55541
891.744	118.04024
891.914	157.93488
892.085	136.95287
892.255	47.22225
892.425	206.49033
892.596	155.19546
892.766	148.28644
892.936	207.89016
893.107	171.9813
893.277	93.80665
893.447	73.22562
893.618	55.99767
893.788	114.04137
893.958	63.75729
894.128	62.30278
894.298	72.6025
894.468	97.71969
894.639	44.16816
894.809	32.22017
894.979	51.77595
895.149	58.67967
895.319	47.56167
895.489	67.53016
895.659	84.7394
895.829	53.31269
895.999	58.75814
896.169	42.87408
896.339	52.94106
896.509	109.70608
896.679	125.79806
896.849	121.51375
897.019	167.28167
897.189	129.73292
897.358	116.11355
897.528	178.90706
897.698	63.86657
897.868	163.33948
898.038	268.89875
898.208	255.92905
898.377	78.42745
898.547	260.92507
898.717	405.37485
898.886	155.89385
899.056	247.70481
899.226	382.31523
899.395	233.80433
899.565	286.29263
899.735	192.28051
899.904	310.55342
900.074	278.36375
900.244	120.64674
900.413	500.43895
900.583	126.56725
900.752	179.00394
900.922	302.94102
901.091	36.58416
901.261	258.93751
901.43	240.40783
901.599	243.31766
901.769	531.87488
901.938	282.19925
902.108	276.67438
902.277	352.72673
902.446	100.44605
902.616	121.26582
902.785	166.58203
902.954	274.50431
903.124	180.67101
903.293	146.81979
903.462	88.15736
903.631	114.63845
903.801	82.29641
903.97	45.40242
904.139	75.979
904.308	57.45556
904.477	46.98546
904.646	27.60424
904.816	45.71422
904.985	63.78318
905.154	97.02983
