Data from WindowProjectSample_Transmission__4__00004__04622544248406729.txt Node

Date: Mon May 05 16:36:29 EDT 2025
User: jessi
Spectrometer: SR400872
Trigger mode: 0
Integration Time (sec): 5.000010E-1
Scans to average: 20
Electric dark correction enabled: true
Nonlinearity correction enabled: true
Boxcar width: 0
XAxis mode: Wavelengths
Number of Pixels in Spectrum: 3648
>>>>>Begin Spectral Data<<<<<
184.909	19339.60418
185.132	-4701.52024
185.355	-2840.97456
185.578	-16630.21346
185.801	1458.60419
186.024	9273.32613
186.247	-1563.85114
186.47	1136.18982
186.693	363.6701
186.916	195.882
187.139	-3350.96861
187.362	3186.46324
187.585	4443.82619
187.808	3002.74788
188.031	144.9205
188.254	-40869.83482
188.476	-614.02126
188.699	5724.73398
188.922	592.77786
189.145	-13792.4224
189.368	-606.21399
189.591	-1303.54915
189.813	2807.44544
190.036	-47760.32357
190.259	-760.57914
190.482	-4255.28611
190.705	6422.28447
190.927	-2354.83714
191.15	12177.76748
191.373	3101.08445
191.595	-7650.34131
191.818	-3805.27892
192.041	-6743.18098
192.263	-2927.80593
192.486	-764.90576
192.709	-3691.41168
192.931	7107.20338
193.154	-25342.02121
193.377	-2551.01781
193.599	-2340.47874
193.822	-8162.19692
194.044	-1755.80708
194.267	985.3274
194.489	330.68677
194.712	-39071.4643
194.934	-28733.13268
195.157	1149.76143
195.379	1248.35842
195.602	-6377.42497
195.824	-1213.262
196.047	-7857.96571
196.269	2436.58622
196.492	-5844.63481
196.714	24774.19328
196.936	-8053.77347
197.159	-1047.39583
197.381	911.89523
197.604	334.62315
197.826	10602.19977
198.048	-10414.35113
198.271	-2489.44293
198.493	6840.51767
198.715	2080.2611
198.938	-414.32356
199.16	6795.90789
199.382	-94114.35248
199.604	2473.47429
199.827	-973.90629
200.049	-2728.16388
200.271	13061.20249
200.493	1114.49778
200.715	-35010.25364
200.938	-5632.13912
201.16	-3982.83521
201.382	19021.86915
201.604	2074.85877
201.826	2007.54441
202.048	-1671.81636
202.27	-1731.39549
202.492	-34507.33225
202.715	2806.87035
202.937	-4137.51718
203.159	-5686.59238
203.381	1402.55643
203.603	6315.97812
203.825	5708.40392
204.047	2054.91059
204.269	-2566.05719
204.491	1902.21615
204.713	5360.22531
204.935	-448786.58679
205.156	1051.55016
205.378	-2746.51126
205.6	1473.67586
205.822	140696.71048
206.044	-921.60316
206.266	1377.78853
206.488	4158.76788
206.71	-4749.49388
206.932	1006.89402
207.153	11233.49458
207.375	-6335.2298
207.597	-34702.00698
207.819	-2528.04931
208.041	2253.93674
208.262	433.39952
208.484	685.562
208.706	-689.59669
208.927	-768.95181
209.149	475.4463
209.371	-2587.22604
209.593	-151.69227
209.814	-690.51421
210.036	508.82874
210.258	-615.07856
210.479	1485.17797
210.701	1492.23071
210.922	2917.37031
211.144	-3667.00026
211.366	1888.00162
211.587	5583.53
211.809	-7282.01826
212.03	2244.82825
212.252	371.22626
212.473	1949.9006
212.695	-5130.92481
212.916	2612.41104
213.138	-642.34559
213.359	3398.69947
213.581	4565.85988
213.802	-627.2688
214.024	1042.50746
214.245	1831.9648
214.466	2607.12951
214.688	-2796.70766
214.909	-1109.69911
215.131	-1528.65191
215.352	-2877.52221
215.573	13716.03648
215.795	4653.89823
216.016	5106.55563
216.237	710.27739
216.459	3088.11185
216.68	1580.03575
216.901	4684.0509
217.122	-2840.59879
217.344	-10622.26547
217.565	3136.45616
217.786	8213.66929
218.007	14999.14977
218.228	-685.11987
218.45	5093.95083
218.671	636.94216
218.892	32356.83037
219.113	1337.80597
219.334	-325.07311
219.555	8421.78565
219.776	2762.55454
219.997	21138.59456
220.219	2325.78448
220.44	-9349.48163
220.661	401.08852
220.882	1297.877
221.103	-983.20036
221.324	2090.3048
221.545	2033.35866
221.766	-8206.9526
221.987	766.08805
222.208	1458.11276
222.429	3989.23647
222.65	171.93171
222.87	16266.32123
223.091	650.18182
223.312	547.25399
223.533	1164.01779
223.754	1369.28239
223.975	1228.09437
224.196	1781.23752
224.417	1167.23569
224.637	551.54923
224.858	45.02518
225.079	1047.22048
225.3	627.62794
225.521	3576.83416
225.741	429.7734
225.962	460.01139
226.183	129.77179
226.404	599.78644
226.624	393.48536
226.845	596.27394
227.066	370.69302
227.286	226.62519
227.507	108.28698
227.728	106.3205
227.948	216.06685
228.169	63.44867
228.389	79.36229
228.61	44.03331
228.831	57.56987
229.051	-1.38375
229.272	35.81905
229.492	52.76038
229.713	13.08276
229.933	33.63615
230.154	29.57803
230.374	49.34833
230.595	34.65642
230.815	20.53444
231.036	36.39023
231.256	-8.15476
231.477	63.93372
231.697	33.23364
231.917	33.63639
232.138	49.49601
232.358	96.10262
232.579	95.79157
232.799	17.90283
233.019	91.76523
233.24	104.55389
233.46	34.47231
233.68	56.91094
233.901	36.80538
234.121	25.65442
234.341	8.28269
234.561	-2.49314
234.782	17.28416
235.002	60.29492
235.222	-3.27082
235.442	59.19257
235.662	28.58307
235.883	55.77698
236.103	44.55276
236.323	33.10629
236.543	25.65328
236.763	34.57136
236.983	40.49103
237.203	36.87503
237.423	53.22475
237.643	81.58367
237.864	65.43557
238.084	16.29077
238.304	25.0211
238.524	44.94862
238.744	36.89728
238.964	68.29337
239.184	53.67786
239.404	57.92308
239.624	31.86915
239.843	53.8484
240.063	33.7408
240.283	19.26174
240.503	23.34472
240.723	22.92733
240.943	13.37215
241.163	18.50923
241.383	12.85252
241.603	7.18298
241.822	9.14248
242.042	5.67801
242.262	7.33284
242.482	9.03118
242.702	9.45264
242.921	2.42084
243.141	6.04376
243.361	5.64714
243.581	8.00776
243.8	6.20657
244.02	4.82607
244.24	8.40852
244.459	8.22252
244.679	16.15681
244.899	10.16122
245.118	11.61314
245.338	10.48433
245.558	12.9108
245.777	7.40628
245.997	9.71217
246.216	9.59617
246.436	5.46664
246.655	4.71962
246.875	2.97933
247.094	5.66716
247.314	1.81206
247.533	3.39946
247.753	3.91873
247.972	3.03496
248.192	0.82142
248.411	1.54215
248.631	3.14322
248.85	4.13437
249.07	3.53208
249.289	5.09452
249.508	4.38611
249.728	6.89361
249.947	6.26034
250.166	7.85075
250.386	3.67214
250.605	5.98588
250.824	10.09704
251.044	6.93802
251.263	26.10063
251.482	13.42227
251.701	10.46005
251.921	-0.29647
252.14	3.04668
252.359	3.69133
252.578	9.28264
252.798	3.07044
253.017	7.94822
253.236	3.76606
253.455	4.94653
253.674	9.50656
253.893	4.60256
254.112	6.98663
254.331	9.95436
254.551	8.4671
254.77	2.75007
254.989	12.45309
255.208	8.18887
255.427	13.8743
255.646	10.50826
255.865	20.55974
256.084	7.4118
256.303	9.78191
256.522	11.93655
256.741	2.52923
256.96	2.84588
257.179	7.28315
257.397	10.25984
257.616	5.75868
257.835	5.65437
258.054	13.96252
258.273	9.71011
258.492	10.21655
258.711	6.29827
258.93	2.76766
259.148	4.15769
259.367	4.12539
259.586	4.98207
259.805	2.23152
260.023	4.77914
260.242	3.58508
260.461	2.44358
260.68	1.22511
260.898	4.0194
261.117	1.22304
261.336	0.82237
261.554	3.05116
261.773	3.09561
261.992	0.77108
262.21	2.99819
262.429	3.18539
262.648	6.51269
262.866	7.32877
263.085	5.12524
263.303	4.37569
263.522	7.52896
263.74	8.17029
263.959	14.17104
264.178	6.22572
264.396	5.95325
264.615	4.31613
264.833	9.58325
265.051	7.80502
265.27	9.91404
265.488	9.95343
265.707	5.65236
265.925	9.55858
266.144	4.37355
266.362	5.14555
266.58	4.84661
266.799	4.49667
267.017	5.69056
267.235	4.75027
267.454	3.07418
267.672	1.55069
267.89	3.72212
268.109	4.13579
268.327	3.96824
268.545	0.96814
268.763	3.51093
268.982	1.14222
269.2	3.64479
269.418	3.15064
269.636	1.83321
269.854	4.01659
270.073	2.84071
270.291	1.72418
270.509	1.6217
270.727	3.91231
270.945	6.74067
271.163	6.57486
271.381	1.20943
271.599	2.79026
271.817	4.95881
272.036	1.6731
272.254	2.79611
272.472	2.12383
272.69	2.33003
272.908	2.05581
273.126	4.18565
273.344	4.78718
273.562	1.51187
273.779	2.44181
273.997	3.38091
274.215	3.72272
274.433	2.56888
274.651	3.91455
274.869	4.14256
275.087	2.50987
275.305	3.67315
275.523	2.14079
275.74	2.64522
275.958	4.98279
276.176	7.32185
276.394	2.06083
276.612	2.98436
276.829	2.96117
277.047	2.47688
277.265	2.70352
277.483	3.08423
277.7	4.00513
277.918	3.30934
278.136	5.72411
278.353	2.5184
278.571	1.59741
278.789	3.99739
279.006	0.72016
279.224	2.85822
279.442	4.66153
279.659	3.04624
279.877	2.17708
280.094	5.61329
280.312	0.90263
280.529	2.92106
280.747	0.83963
280.964	2.41497
281.182	5.51106
281.399	2.44148
281.617	3.48876
281.834	2.31774
282.052	1.71266
282.269	2.85046
282.487	2.26941
282.704	1.78438
282.921	2.06145
283.139	3.07989
283.356	3.83049
283.574	3.46507
283.791	1.63201
284.008	5.07509
284.226	2.65176
284.443	2.98678
284.66	4.13864
284.877	3.0319
285.095	1.97254
285.312	1.38955
285.529	0.84748
285.746	0.65373
285.964	1.86118
286.181	1.32826
286.398	1.74726
286.615	2.49953
286.832	2.34325
287.05	0.42145
287.267	1.60957
287.484	1.68506
287.701	2.34814
287.918	2.49391
288.135	2.59848
288.352	1.09109
288.569	1.32332
288.786	2.27668
289.003	1.82631
289.22	2.81328
289.437	1.4425
289.654	2.65811
289.871	2.81387
290.088	2.68212
290.305	2.15482
290.522	1.57432
290.739	1.80828
290.956	2.84594
291.173	3.13635
291.39	3.23942
291.607	2.21821
291.824	1.62704
292.04	1.16408
292.257	2.60844
292.474	3.03645
292.691	1.78519
292.908	0.74783
293.125	1.62244
293.341	1.11101
293.558	4.45679
293.775	1.78842
293.992	2.08148
294.208	0.86007
294.425	1.39931
294.642	1.92868
294.858	3.02158
295.075	0.69947
295.292	1.94845
295.508	2.45292
295.725	4.19119
295.942	2.11779
296.158	1.67728
296.375	2.61185
296.591	2.08721
296.808	2.38269
297.024	2.82294
297.241	3.13021
297.458	3.31156
297.674	1.47273
297.891	2.93676
298.107	2.87859
298.323	2.38414
298.54	4.60791
298.756	2.85408
298.973	2.35277
299.189	4.71348
299.406	3.12496
299.622	4.6827
299.838	4.53286
300.055	4.64023
300.271	3.04284
300.487	3.23259
300.704	3.67269
300.92	3.196
301.136	6.69682
301.353	4.99168
301.569	4.40823
301.785	4.91384
302.001	5.3426
302.218	4.8725
302.434	5.39065
302.65	3.79361
302.866	4.60636
303.083	6.88881
303.299	7.12768
303.515	5.24264
303.731	5.71127
303.947	4.18226
304.163	5.05804
304.379	5.75038
304.595	6.11183
304.812	4.97274
305.028	5.07278
305.244	5.43196
305.46	6.379
305.676	6.54121
305.892	7.00974
306.108	6.37866
306.324	5.53695
306.54	7.4276
306.756	6.39334
306.972	6.22008
307.187	6.173
307.403	7.19771
307.619	5.76487
307.835	7.05988
308.051	7.55023
308.267	5.55386
308.483	7.50657
308.699	6.77533
308.914	6.5776
309.13	6.46143
309.346	5.71879
309.562	5.93619
309.778	5.841
309.993	7.24695
310.209	7.32158
310.425	6.14817
310.641	7.22949
310.856	6.49635
311.072	6.50645
311.288	7.2163
311.503	7.68487
311.719	6.00852
311.935	6.11695
312.15	8.00481
312.366	7.68523
312.581	7.83815
312.797	7.5249
313.013	8.14059
313.228	6.95681
313.444	7.13253
313.659	6.75531
313.875	7.71543
314.09	7.10727
314.306	8.32395
314.521	8.0297
314.737	7.9973
314.952	7.492
315.168	7.48425
315.383	7.79002
315.599	7.17543
315.814	7.22268
316.029	7.98126
316.245	6.7764
316.46	5.99079
316.675	8.36655
316.891	9.04056
317.106	9.85477
317.321	7.58061
317.537	8.30358
317.752	8.32713
317.967	8.46163
318.183	6.80331
318.398	7.30158
318.613	8.3444
318.828	8.79951
319.043	8.24857
319.259	7.57434
319.474	7.87553
319.689	8.92008
319.904	6.21447
320.119	8.65884
320.334	7.89767
320.549	7.55989
320.765	8.76313
320.98	8.08871
321.195	8.127
321.41	7.79131
321.625	8.49345
321.84	9.31599
322.055	9.0803
322.27	7.49656
322.485	6.97326
322.7	8.4744
322.915	8.56619
323.13	7.67269
323.345	9.55452
323.56	9.11422
323.775	9.00931
323.989	8.72894
324.204	8.58138
324.419	9.54345
324.634	7.55552
324.849	8.52041
325.064	11.50214
325.279	9.41753
325.493	8.82977
325.708	9.27314
325.923	8.0015
326.138	8.4099
326.352	9.8419
326.567	9.51822
326.782	8.15706
326.997	8.33996
327.211	9.12935
327.426	8.81156
327.641	8.44641
327.855	7.56252
328.07	9.07242
328.285	10.27969
328.499	8.29093
328.714	8.81718
328.928	8.89018
329.143	8.7075
329.358	9.62969
329.572	9.58481
329.787	9.8763
330.001	10.88067
330.216	7.56033
330.43	10.6229
330.645	9.81009
330.859	9.54243
331.074	7.92818
331.288	8.75949
331.503	10.10085
331.717	8.00745
331.931	9.00471
332.146	9.33171
332.36	10.54801
332.575	9.22417
332.789	9.1134
333.003	9.40092
333.218	9.48263
333.432	8.64885
333.646	9.95506
333.86	10.73717
334.075	10.22624
334.289	8.65196
334.503	7.98968
334.717	9.50797
334.932	9.14045
335.146	9.69054
335.36	8.27338
335.574	9.64198
335.788	9.2828
336.003	9.82405
336.217	9.79307
336.431	9.64383
336.645	8.80547
336.859	8.44013
337.073	9.25705
337.287	9.77649
337.501	8.34166
337.715	10.0864
337.929	10.26413
338.143	8.82702
338.357	9.54422
338.571	9.39937
338.785	10.4696
338.999	9.25197
339.213	9.12649
339.427	8.70112
339.641	10.64906
339.855	9.13409
340.069	8.82839
340.283	10.46378
340.497	11.09804
340.711	10.11876
340.924	9.60564
341.138	8.95775
341.352	8.75564
341.566	9.83246
341.78	8.56576
341.993	9.28912
342.207	9.30594
342.421	10.02892
342.635	9.63041
342.848	9.64922
343.062	8.02018
343.276	9.39085
343.49	11.16328
343.703	9.39856
343.917	10.81458
344.131	10.98986
344.344	9.19957
344.558	9.6495
344.771	8.81771
344.985	11.24846
345.199	11.27587
345.412	10.29861
345.626	10.463
345.839	9.05154
346.053	9.27297
346.266	9.48695
346.48	10.56014
346.693	10.51765
346.907	10.3202
347.12	9.41684
347.334	10.14935
347.547	10.35209
347.76	9.90234
347.974	10.77681
348.187	10.14276
348.401	9.75986
348.614	9.20964
348.827	9.69065
349.041	10.2803
349.254	8.82552
349.467	9.63652
349.681	9.47514
349.894	9.41661
350.107	11.14416
350.32	11.62833
350.534	9.29041
350.747	9.97613
350.96	9.71848
351.173	9.76935
351.386	10.0434
351.6	9.6553
351.813	9.93292
352.026	10.04386
352.239	9.50013
352.452	9.95533
352.665	11.22882
352.878	10.26753
353.092	11.93864
353.305	10.89282
353.518	10.55747
353.731	9.67645
353.944	11.27476
354.157	10.33569
354.37	10.17033
354.583	9.62982
354.796	9.80666
355.009	11.23132
355.222	10.97905
355.435	10.6368
355.647	11.6221
355.86	10.2987
356.073	11.02438
356.286	10.46448
356.499	11.57646
356.712	11.39597
356.925	11.58665
357.138	11.5953
357.35	10.67372
357.563	10.77851
357.776	11.47171
357.989	11.18583
358.201	11.66665
358.414	11.55243
358.627	12.36151
358.84	11.17117
359.052	10.51518
359.265	10.76998
359.478	11.98933
359.69	9.55926
359.903	11.93328
360.116	12.10274
360.328	10.46628
360.541	12.03941
360.753	11.07047
360.966	11.40166
361.179	11.61004
361.391	11.57434
361.604	11.48148
361.816	11.66911
362.029	11.70875
362.241	11.3754
362.454	11.85066
362.666	11.36394
362.879	12.37901
363.091	11.70666
363.304	11.68484
363.516	11.70792
363.728	11.19731
363.941	12.14646
364.153	12.02439
364.366	10.57498
364.578	11.32624
364.79	11.98456
365.003	12.05091
365.215	11.39159
365.427	12.34794
365.639	12.55378
365.852	11.90638
366.064	13.24036
366.276	11.91154
366.488	12.02483
366.701	11.82072
366.913	11.82329
367.125	11.92783
367.337	11.45349
367.549	11.78121
367.762	11.99808
367.974	11.93494
368.186	11.84665
368.398	12.59287
368.61	12.24981
368.822	12.51725
369.034	11.70811
369.246	12.63979
369.458	14.20367
369.67	11.61612
369.882	13.29916
370.094	11.00343
370.306	13.16906
370.518	12.0998
370.73	11.92999
370.942	12.03455
371.154	12.33633
371.366	12.31623
371.578	12.75255
371.79	12.55617
372.002	13.28327
372.214	14.1031
372.425	12.57118
372.637	13.81974
372.849	12.87732
373.061	11.52134
373.273	12.93703
373.484	12.80315
373.696	13.08555
373.908	11.42376
374.12	13.32607
374.331	13.09661
374.543	12.34159
374.755	12.22393
374.967	12.84676
375.178	13.53129
375.39	12.63912
375.602	13.17677
375.813	11.8928
376.025	12.60433
376.236	13.23231
376.448	13.34852
376.66	13.0715
376.871	13.16909
377.083	14.10227
377.294	14.69807
377.506	13.12953
377.717	14.47048
377.929	13.77015
378.14	13.42199
378.352	13.79267
378.563	14.00418
378.775	14.64434
378.986	13.01841
379.197	13.71636
379.409	13.08128
379.62	13.99448
379.832	13.98227
380.043	13.54905
380.254	14.00307
380.466	12.9908
380.677	15.68623
380.888	14.97551
381.1	15.52536
381.311	15.46834
381.522	14.19273
381.733	15.65316
381.945	14.15124
382.156	13.94396
382.367	13.82924
382.578	15.83718
382.789	15.99612
383.001	13.74314
383.212	15.39146
383.423	15.19067
383.634	15.1062
383.845	14.98878
384.056	14.37721
384.267	14.45937
384.478	14.61386
384.69	13.83381
384.901	14.91107
385.112	14.7859
385.323	15.84673
385.534	15.07897
385.745	15.12989
385.956	14.74227
386.167	14.34387
386.378	15.07141
386.588	14.52247
386.799	14.39873
387.01	14.04933
387.221	15.42027
387.432	15.11228
387.643	15.96807
387.854	15.04794
388.065	14.90541
388.275	14.97953
388.486	14.70603
388.697	15.08414
388.908	14.86096
389.119	16.01361
389.329	16.02675
389.54	15.29348
389.751	15.37087
389.962	16.12669
390.172	15.31349
390.383	15.45237
390.594	14.94076
390.804	15.07797
391.015	15.15077
391.226	15.67811
391.436	16.06131
391.647	15.99352
391.858	16.06961
392.068	14.96605
392.279	15.16111
392.489	15.95581
392.7	16.42159
392.91	15.47518
393.121	15.33351
393.331	16.16143
393.542	16.5416
393.752	16.29611
393.963	16.28942
394.173	16.29181
394.384	16.29131
394.594	16.25967
394.804	15.52531
395.015	16.41228
395.225	16.49182
395.436	15.68146
395.646	16.40814
395.856	16.11909
396.067	15.38232
396.277	16.53457
396.487	16.44287
396.697	16.43546
396.908	16.40441
397.118	16.56311
397.328	16.39271
397.538	16.93637
397.749	15.83521
397.959	16.80553
398.169	16.57493
398.379	15.62821
398.589	16.68378
398.8	16.67305
399.01	16.64963
399.22	16.40378
399.43	17.88122
399.64	16.57803
399.85	16.85658
400.06	16.65838
400.27	16.09996
400.48	16.68173
400.69	17.39837
400.9	16.46426
401.11	16.03846
401.32	17.16854
401.53	16.40872
401.74	17.53639
401.95	16.93534
402.16	16.47806
402.37	16.94872
402.58	16.56713
402.79	17.12287
403	17.54568
403.209	16.51894
403.419	17.75225
403.629	16.5226
403.839	17.63168
404.049	17.73175
404.258	16.91024
404.468	16.74999
404.678	17.60443
404.888	17.99722
405.097	17.04796
405.307	17.14884
405.517	17.66187
405.727	17.63452
405.936	17.18607
406.146	17.54463
406.356	18.13367
406.565	17.30227
406.775	17.23475
406.984	17.17399
407.194	18.48184
407.404	17.29187
407.613	17.85652
407.823	17.8827
408.032	18.05045
408.242	17.91255
408.451	17.17806
408.661	17.3126
408.87	18.41419
409.08	17.0637
409.289	17.66857
409.499	17.74395
409.708	17.67979
409.918	16.46541
410.127	17.86377
410.336	18.63624
410.546	18.18741
410.755	17.59161
410.964	17.68265
411.174	17.26049
411.383	18.04485
411.592	17.97258
411.802	17.30217
412.011	18.04368
412.22	17.76543
412.429	18.755
412.639	18.63528
412.848	18.32823
413.057	18.79296
413.266	18.53534
413.475	17.78451
413.685	18.21254
413.894	18.54368
414.103	18.65313
414.312	18.46057
414.521	17.82697
414.73	18.26504
414.939	19.41841
415.148	18.43631
415.357	18.3658
415.566	18.22013
415.776	18.18773
415.985	18.29644
416.194	18.80956
416.403	19.61917
416.611	17.84463
416.82	18.35597
417.029	18.70291
417.238	18.33533
417.447	18.24606
417.656	18.5496
417.865	18.3715
418.074	18.66896
418.283	18.87462
418.492	19.3256
418.7	19.22896
418.909	20.37549
419.118	19.68757
419.327	20.18903
419.536	20.27638
419.744	20.68094
419.953	22.13844
420.162	22.80416
420.371	22.67436
420.579	23.84051
420.788	24.56714
420.997	24.70197
421.205	25.67372
421.414	25.32496
421.623	25.71518
421.831	25.28606
422.04	25.74265
422.249	24.67175
422.457	24.63545
422.666	23.48189
422.874	24.27334
423.083	24.30472
423.291	24.36817
423.5	24.64399
423.708	25.24811
423.917	25.78705
424.125	25.47246
424.334	25.53113
424.542	27.13784
424.751	26.95156
424.959	26.26239
425.167	25.93316
425.376	25.82682
425.584	23.8694
425.793	23.40379
426.001	22.24934
426.209	21.67664
426.418	20.32844
426.626	19.58433
426.834	19.31774
427.042	19.75773
427.251	19.4581
427.459	20.22381
427.667	19.78458
427.875	19.08455
428.084	19.39279
428.292	20.34147
428.5	20.05621
428.708	19.30357
428.916	19.17741
429.124	19.79524
429.333	19.57788
429.541	19.61047
429.749	19.8979
429.957	19.75776
430.165	21.33297
430.373	19.09574
430.581	19.95321
430.789	20.65677
430.997	19.65297
431.205	19.52743
431.413	20.03223
431.621	19.79676
431.829	20.37235
432.037	19.92378
432.245	20.2972
432.453	20.31461
432.661	20.07962
432.869	21.06859
433.076	19.85467
433.284	20.20547
433.492	20.63176
433.7	20.99878
433.908	20.33922
434.116	20.53972
434.323	20.47303
434.531	20.2645
434.739	20.68091
434.947	20.85201
435.154	20.75074
435.362	20.40478
435.57	20.19341
435.778	19.94248
435.985	20.49516
436.193	20.1382
436.401	20.98442
436.608	20.34953
436.816	20.16627
437.023	21.16969
437.231	21.32748
437.439	20.57225
437.646	20.73956
437.854	20.73454
438.061	20.97775
438.269	20.54428
438.476	20.94498
438.684	20.66407
438.891	20.61307
439.099	20.49266
439.306	20.2449
439.514	20.37473
439.721	21.60057
439.929	21.69038
440.136	22.76505
440.343	23.04212
440.551	23.19266
440.758	24.84906
440.965	23.34775
441.173	23.02683
441.38	23.1044
441.587	22.18101
441.795	22.15333
442.002	21.31959
442.209	21.12492
442.416	21.11452
442.624	21.18842
442.831	20.98952
443.038	20.75115
443.245	20.40906
443.452	20.71522
443.66	21.19763
443.867	20.65164
444.074	20.62749
444.281	20.63853
444.488	20.96338
444.695	21.12553
444.902	20.92303
445.109	22.39343
445.316	22.79302
445.523	23.7818
445.73	24.53535
445.937	25.72352
446.144	26.51876
446.351	27.37706
446.558	26.20399
446.765	28.81467
446.972	27.44066
447.179	27.37086
447.386	27.44418
447.593	25.26446
447.8	26.1995
448.007	23.92824
448.214	22.89475
448.42	21.9579
448.627	21.80474
448.834	21.34913
449.041	21.24609
449.248	21.23608
449.454	21.61277
449.661	22.02055
449.868	21.06543
450.075	21.03163
450.281	20.31585
450.488	20.81599
450.695	20.92905
450.901	21.02911
451.108	21.03727
451.315	21.78666
451.521	21.09087
451.728	21.87428
451.935	20.94494
452.141	21.33595
452.348	21.455
452.554	21.39476
452.761	21.12607
452.967	22.28449
453.174	21.49776
453.38	21.70016
453.587	21.01154
453.793	21.68076
454	21.96537
454.206	22.58893
454.413	21.99606
454.619	21.73808
454.825	21.21524
455.032	21.96639
455.238	22.05811
455.445	21.02043
455.651	21.62098
455.857	20.83583
456.064	21.30842
456.27	21.51652
456.476	21.42594
456.682	21.03587
456.889	21.78854
457.095	21.8252
457.301	22.7591
457.507	21.71453
457.714	21.65027
457.92	21.78763
458.126	21.41613
458.332	21.6667
458.538	21.58651
458.744	21.69107
458.951	21.85016
459.157	24.39142
459.363	24.52489
459.569	25.45751
459.775	26.26904
459.981	26.62543
460.187	27.33258
460.393	27.25286
460.599	27.0445
460.805	25.6657
461.011	24.20228
461.217	23.23378
461.423	22.65187
461.629	22.00659
461.835	22.32766
462.041	21.9229
462.247	22.86014
462.453	21.94617
462.658	22.05929
462.864	22.34931
463.07	22.18313
463.276	22.14445
463.482	22.07579
463.688	22.75902
463.893	21.94871
464.099	22.10038
464.305	22.85606
464.511	22.00374
464.716	22.03491
464.922	22.58269
465.128	21.81673
465.333	23.08947
465.539	22.59551
465.745	22.23838
465.95	22.38969
466.156	23.67916
466.362	22.8475
466.567	22.28485
466.773	22.05406
466.978	23.02229
467.184	21.92118
467.389	21.48341
467.595	22.52209
467.8	22.17604
468.006	23.24238
468.211	23.10882
468.417	21.91697
468.622	22.76682
468.828	22.75027
469.033	22.70855
469.239	23.74644
469.444	22.28692
469.649	23.0003
469.855	22.4961
470.06	22.55854
470.266	22.20867
470.471	22.84438
470.676	22.64516
470.881	21.76788
471.087	23.41679
471.292	23.92188
471.497	22.16763
471.703	22.55634
471.908	22.42186
472.113	22.66269
472.318	23.10364
472.523	22.25333
472.729	22.93031
472.934	22.9719
473.139	22.65667
473.344	22.90683
473.549	23.37308
473.754	22.38208
473.959	24.21879
474.164	22.3021
474.369	22.71016
474.575	23.14348
474.78	22.70407
474.985	22.47762
475.19	21.82287
475.395	22.47174
475.6	22.84806
475.804	23.48411
476.009	22.9349
476.214	22.80637
476.419	22.77441
476.624	22.07623
476.829	22.55055
477.034	23.13839
477.239	22.61657
477.444	23.3537
477.648	23.35383
477.853	23.17371
478.058	22.84433
478.263	22.75169
478.468	22.57167
478.672	22.653
478.877	23.73914
479.082	23.79978
479.287	23.33561
479.491	23.06494
479.696	22.6153
479.901	23.20746
480.105	23.39815
480.31	22.67064
480.515	23.07188
480.719	23.99946
480.924	22.88551
481.128	22.5782
481.333	23.34061
481.538	23.24244
481.742	24.23627
481.947	26.13024
482.151	28.19679
482.356	30.67648
482.56	35.07618
482.765	39.31704
482.969	46.06118
483.174	52.37404
483.378	59.81392
483.582	63.51918
483.787	67.6854
483.991	70.23727
484.196	71.38005
484.4	70.87662
484.604	70.74159
484.809	66.20901
485.013	62.07125
485.217	56.47681
485.422	50.78153
485.626	45.69388
485.83	42.69077
486.034	40.83674
486.239	41.21294
486.443	42.19165
486.647	43.33649
486.851	45.42179
487.055	48.46156
487.26	49.93984
487.464	52.02455
487.668	52.25546
487.872	53.94455
488.076	53.71184
488.28	52.16328
488.484	49.57817
488.688	47.94123
488.892	45.08682
489.096	41.72037
489.3	38.79567
489.504	36.05596
489.708	33.76583
489.912	32.58187
490.116	31.71128
490.32	31.54483
490.524	33.63924
490.728	35.54949
490.932	37.99708
491.136	40.51956
491.34	42.81271
491.544	43.92259
491.748	44.71006
491.951	44.98093
492.155	44.33263
492.359	42.90642
492.563	40.28573
492.767	37.73711
492.97	34.13124
493.174	30.62851
493.378	27.85913
493.582	25.00541
493.785	23.5249
493.989	23.5492
494.193	23.52749
494.396	23.41232
494.6	23.91802
494.804	23.47227
495.007	23.30188
495.211	23.34582
495.414	23.46943
495.618	23.69045
495.822	24.1899
496.025	23.71759
496.229	23.95925
496.432	23.48363
496.636	23.82366
496.839	23.78478
497.043	24.49129
497.246	24.01598
497.45	23.81816
497.653	24.11001
497.856	24.02785
498.06	23.59061
498.263	23.94156
498.467	23.71297
498.67	24.25144
498.873	24.18498
499.077	23.84458
499.28	23.91135
499.483	24.0912
499.686	24.25904
499.89	24.10574
500.093	24.46652
500.296	23.69837
500.499	24.56636
500.703	23.85735
500.906	24.24063
501.109	24.71732
501.312	24.07223
501.515	23.85256
501.719	24.16105
501.922	24.42023
502.125	24.15782
502.328	23.88482
502.531	23.59262
502.734	23.92747
502.937	23.26945
503.14	24.16702
503.343	23.8226
503.546	24.02581
503.749	23.8175
503.952	24.53431
504.155	23.79619
504.358	24.38709
504.561	24.17391
504.764	23.63899
504.967	24.21087
505.17	24.1742
505.373	24.89736
505.576	24.25427
505.778	24.4961
505.981	23.7521
506.184	24.80318
506.387	23.458
506.59	25.15279
506.793	24.6626
506.995	24.46494
507.198	23.46099
507.401	24.50796
507.604	24.584
507.806	23.82215
508.009	24.0019
508.212	24.72603
508.414	23.94374
508.617	24.06438
508.82	24.30917
509.022	25.06667
509.225	24.44205
509.427	23.76456
509.63	24.977
509.833	24.40435
510.035	24.00359
510.238	23.72756
510.44	25.04827
510.643	23.62762
510.845	25.19326
511.048	24.4888
511.25	24.12205
511.453	24.31543
511.655	24.53355
511.858	24.24333
512.06	24.75199
512.262	24.59112
512.465	24.90611
512.667	24.32127
512.869	23.95403
513.072	24.65862
513.274	24.90126
513.476	24.71067
513.679	24.98176
513.881	24.1156
514.083	25.26919
514.286	24.24657
514.488	24.13111
514.69	23.97932
514.892	23.88222
515.094	24.77429
515.297	24.22223
515.499	24.64419
515.701	24.1035
515.903	25.24011
516.105	25.24578
516.307	24.82762
516.509	23.81522
516.711	23.99196
516.913	24.51982
517.116	24.54238
517.318	24.38186
517.52	25.17763
517.722	24.7761
517.924	24.19229
518.126	24.89246
518.328	24.78407
518.529	25.8387
518.731	26.60669
518.933	25.15892
519.135	25.41046
519.337	25.8354
519.539	25.01733
519.741	24.11628
519.943	24.60835
520.145	24.53241
520.346	25.14367
520.548	24.49023
520.75	24.74825
520.952	24.55235
521.153	24.93901
521.355	24.94256
521.557	24.38983
521.759	24.77846
521.96	24.65181
522.162	24.27391
522.364	25.19279
522.565	24.47832
522.767	25.06119
522.969	25.25779
523.17	25.07571
523.372	24.93793
523.573	24.6169
523.775	24.682
523.977	24.42725
524.178	25.67253
524.38	24.56047
524.581	25.05107
524.783	24.69502
524.984	25.1526
525.186	25.14886
525.387	26.24407
525.589	26.70108
525.79	27.30389
525.991	27.7386
526.193	28.5673
526.394	28.29913
526.596	29.2305
526.797	29.96493
526.998	29.84536
527.2	31.69078
527.401	35.01714
527.602	38.09155
527.803	43.24974
528.005	47.15924
528.206	50.76657
528.407	53.78568
528.608	55.40402
528.81	56.49712
529.011	56.51026
529.212	57.1987
529.413	54.66862
529.614	51.37156
529.815	47.80412
530.017	43.94003
530.218	39.03992
530.419	35.30133
530.62	33.19057
530.821	31.20187
531.022	29.01706
531.223	29.19292
531.424	28.25268
531.625	28.48374
531.826	28.19059
532.027	29.48229
532.228	31.59835
532.429	33.04766
532.63	34.75682
532.831	36.79697
533.032	37.7969
533.233	39.17996
533.433	39.04414
533.634	39.45649
533.835	38.59414
534.036	37.20423
534.237	35.62679
534.438	33.42282
534.638	30.50443
534.839	28.66769
535.04	27.25994
535.241	26.00026
535.441	26.48434
535.642	26.2704
535.843	26.12441
536.043	26.71669
536.244	27.28614
536.445	27.93487
536.645	28.85235
536.846	28.6125
537.047	28.8901
537.247	27.79351
537.448	26.90995
537.648	26.02206
537.849	25.41454
538.049	25.20135
538.25	25.52683
538.451	25.44108
538.651	24.82834
538.851	25.57023
539.052	25.76789
539.252	25.4215
539.453	25.25806
539.653	25.43644
539.854	25.31595
540.054	25.51946
540.254	28.89732
540.455	31.87306
540.655	33.88784
540.855	37.76653
541.056	40.03064
541.256	41.17911
541.456	42.76589
541.657	43.23691
541.857	43.62101
542.057	42.13392
542.257	40.82064
542.458	39.85752
542.658	37.56459
542.858	34.54543
543.058	32.67327
543.258	31.12963
543.458	28.8508
543.659	27.77425
543.859	27.44963
544.059	26.51396
544.259	25.59447
544.459	25.99481
544.659	25.35368
544.859	25.64639
545.059	25.26524
545.259	25.69955
545.459	25.55308
545.659	25.90202
545.859	25.5811
546.059	25.82575
546.259	25.22683
546.459	25.05384
546.659	25.29582
546.859	26.11671
547.059	25.91059
547.258	25.98194
547.458	25.91883
547.658	25.18074
547.858	25.04147
548.058	25.78266
548.258	25.4381
548.457	25.16993
548.657	26.78929
548.857	25.48811
549.057	26.02324
549.256	25.70475
549.456	25.26072
549.656	24.592
549.855	26.47957
550.055	25.21139
550.255	26.50681
550.454	25.73313
550.654	25.95515
550.853	26.43544
551.053	25.92332
551.253	25.80806
551.452	26.01845
551.652	25.11912
551.851	24.69634
552.051	25.42814
552.25	25.32756
552.45	25.36819
552.649	25.48569
552.849	25.28812
553.048	25.77056
553.248	26.22495
553.447	25.16498
553.646	25.99656
553.846	27.12462
554.045	26.30594
554.244	24.97013
554.444	26.51212
554.643	25.21843
554.842	26.63376
555.042	26.74784
555.241	25.11829
555.44	24.99197
555.64	26.0644
555.839	26.52342
556.038	26.05505
556.237	25.15187
556.436	25.62224
556.636	25.85602
556.835	25.25026
557.034	26.45193
557.233	25.45619
557.432	24.82835
557.631	26.34871
557.83	25.54786
558.029	25.26125
558.228	25.12927
558.427	25.20015
558.626	25.83896
558.825	25.02238
559.024	25.46135
559.223	26.82084
559.422	25.39235
559.621	25.97661
559.82	24.20566
560.019	25.50349
560.218	25.33645
560.417	24.29556
560.616	25.42332
560.815	27.54846
561.014	24.69087
561.212	26.60437
561.411	25.82075
561.61	24.96248
561.809	25.44524
562.008	26.85205
562.206	25.30691
562.405	26.06401
562.604	25.47798
562.803	25.86131
563.001	25.57336
563.2	24.75411
563.399	25.88842
563.597	24.86339
563.796	25.55956
563.995	24.94738
564.193	26.20227
564.392	25.49142
564.59	26.97885
564.789	24.43653
564.988	25.6446
565.186	26.0616
565.385	25.72852
565.583	25.55974
565.782	25.81426
565.98	25.67443
566.179	25.67715
566.377	25.37204
566.575	25.37843
566.774	26.83208
566.972	26.30684
567.171	27.16674
567.369	26.84704
567.567	25.97351
567.766	26.12402
567.964	24.67863
568.162	26.14365
568.361	26.57903
568.559	25.59161
568.757	26.03327
568.956	25.97123
569.154	25.87199
569.352	26.17236
569.55	25.77073
569.748	25.87617
569.947	25.37632
570.145	25.13262
570.343	25.23007
570.541	26.67376
570.739	25.15271
570.937	25.75864
571.135	26.28612
571.333	27.25751
571.532	27.24047
571.73	26.19918
571.928	26.63246
572.126	26.34956
572.324	25.89365
572.522	26.60422
572.72	27.69415
572.918	25.94777
573.116	26.44678
573.313	25.76667
573.511	25.97379
573.709	25.59029
573.907	26.6544
574.105	25.73984
574.303	25.12915
574.501	24.94665
574.699	26.3891
574.896	26.18611
575.094	26.40642
575.292	25.20352
575.49	26.75162
575.688	25.83764
575.885	26.78429
576.083	27.56128
576.281	26.40509
576.478	25.42588
576.676	26.37438
576.874	25.10314
577.071	25.91947
577.269	27.42989
577.467	25.93463
577.664	25.79187
577.862	26.66793
578.059	25.43983
578.257	26.39525
578.455	25.63731
578.652	25.88256
578.85	24.47413
579.047	25.83117
579.245	25.38967
579.442	25.72991
579.64	25.60321
579.837	24.71333
580.034	27.77334
580.232	25.70887
580.429	25.00584
580.627	26.1969
580.824	26.85265
581.021	26.23082
581.219	25.38499
581.416	25.52673
581.613	27.03068
581.811	27.0236
582.008	25.41688
582.205	26.59494
582.402	26.24423
582.6	27.50482
582.797	25.87557
582.994	26.08561
583.191	26.59023
583.388	25.75182
583.586	26.59567
583.783	26.68587
583.98	25.10777
584.177	25.86732
584.374	24.09623
584.571	25.63421
584.768	25.7916
584.965	25.49895
585.162	26.5234
585.359	27.03753
585.556	25.86351
585.753	26.31589
585.95	24.99294
586.147	25.23319
586.344	26.48161
586.541	25.62062
586.738	24.87732
586.935	25.79793
587.132	25.28869
587.329	26.57711
587.526	26.00078
587.722	29.65264
587.919	24.9999
588.116	26.20368
588.313	26.92165
588.51	27.65048
588.706	25.82554
588.903	26.43656
589.1	26.89803
589.297	28.29191
589.493	26.25216
589.69	26.49892
589.887	25.67397
590.083	25.31612
590.28	25.62213
590.477	26.90055
590.673	26.61239
590.87	27.11251
591.067	25.60167
591.263	26.3698
591.46	26.32514
591.656	25.94876
591.853	27.25563
592.049	25.44479
592.246	25.61714
592.442	26.75184
592.639	27.24722
592.835	25.26965
593.032	26.53381
593.228	24.80887
593.425	25.11964
593.621	24.96824
593.817	26.40076
594.014	25.48792
594.21	26.34182
594.406	27.03083
594.603	26.60131
594.799	25.56955
594.995	24.70619
595.192	27.07658
595.388	25.81736
595.584	25.9397
595.78	25.04254
595.977	28.52071
596.173	27.50591
596.369	26.17141
596.565	25.73756
596.761	25.50004
596.957	27.23212
597.154	25.97479
597.35	25.88221
597.546	25.8046
597.742	26.95981
597.938	26.60481
598.134	25.87593
598.33	26.46729
598.526	27.23753
598.722	26.30005
598.918	27.69127
599.114	26.44298
599.31	25.14896
599.506	26.08308
599.702	25.29539
599.898	26.02825
600.094	26.6141
600.29	26.66543
600.485	26.59686
600.681	25.41181
600.877	27.40403
601.073	26.36368
601.269	27.9683
601.465	27.59029
601.66	25.44152
601.856	24.73778
602.052	28.15112
602.248	26.21121
602.443	24.84557
602.639	25.54381
602.835	25.77496
603.03	25.63145
603.226	27.20825
603.422	25.86217
603.617	26.25914
603.813	26.33954
604.009	26.11848
604.204	27.45945
604.4	25.70654
604.595	27.31127
604.791	25.8696
604.986	26.80789
605.182	25.9121
605.377	26.31022
605.573	26.2462
605.768	26.67068
605.964	27.14805
606.159	26.98352
606.355	27.22518
606.55	26.122
606.746	27.21286
606.941	26.29228
607.136	27.97513
607.332	28.79326
607.527	25.32731
607.722	26.57507
607.918	26.21905
608.113	25.69047
608.308	27.23183
608.503	26.77053
608.699	26.80023
608.894	27.1234
609.089	26.25245
609.284	27.1286
609.479	26.61249
609.675	27.36716
609.87	26.63963
610.065	27.39019
610.26	27.49332
610.455	27.36133
610.65	26.75416
610.845	27.03661
611.04	27.32605
611.235	26.57193
611.43	26.33629
611.625	25.54303
611.82	27.89863
612.015	25.83474
612.21	28.10262
612.405	25.34515
612.6	27.86633
612.795	27.99624
612.99	27.00085
613.185	25.65774
613.38	25.93442
613.575	26.62502
613.77	29.35368
613.965	25.25507
614.159	26.03348
614.354	27.93882
614.549	27.48331
614.744	26.86947
614.938	25.63846
615.133	25.46074
615.328	28.15318
615.523	27.59764
615.717	29.63165
615.912	25.88919
616.107	26.65219
616.301	26.42718
616.496	25.9255
616.691	28.27318
616.885	27.08286
617.08	29.56733
617.274	27.47657
617.469	28.50053
617.664	27.25189
617.858	26.2342
618.053	27.22938
618.247	26.68737
618.442	24.52956
618.636	28.27543
618.831	26.10814
619.025	26.13293
619.219	29.53689
619.414	23.87512
619.608	26.44174
619.803	26.12663
619.997	28.93374
620.191	27.64261
620.386	26.94025
620.58	26.54212
620.774	25.00112
620.969	25.1743
621.163	26.92719
621.357	25.91053
621.551	26.47593
621.746	27.03956
621.94	26.30384
622.134	30.1964
622.328	28.75798
622.522	25.11498
622.716	27.75965
622.911	27.86947
623.105	27.65551
623.299	27.4683
623.493	30.15272
623.687	26.05273
623.881	26.22111
624.075	27.48887
624.269	28.27548
624.463	24.8194
624.657	25.11772
624.851	27.60055
625.045	27.85245
625.239	28.02921
625.433	26.7844
625.627	29.12157
625.821	26.71814
626.015	26.46145
626.209	27.56841
626.403	25.78153
626.596	27.96439
626.79	28.28501
626.984	26.16722
627.178	28.03832
627.372	27.90763
627.565	27.92536
627.759	26.01592
627.953	26.18855
628.147	27.65458
628.34	28.3179
628.534	29.79937
628.728	27.16572
628.921	27.97193
629.115	27.95097
629.309	28.07263
629.502	28.18929
629.696	27.02121
629.89	26.92048
630.083	27.62212
630.277	27.55525
630.47	28.89735
630.664	26.76075
630.857	25.39614
631.051	27.98348
631.244	28.39283
631.438	28.08726
631.631	26.55307
631.825	28.78258
632.018	27.66315
632.212	29.20016
632.405	28.76494
632.598	26.46987
632.792	27.5382
632.985	24.71286
633.178	27.32672
633.372	27.28469
633.565	27.06027
633.758	28.69936
633.952	26.47295
634.145	26.30587
634.338	26.94414
634.531	26.82415
634.724	26.65966
634.918	27.25916
635.111	27.26812
635.304	26.89381
635.497	30.28693
635.69	27.60761
635.883	28.65545
636.077	26.29283
636.27	27.99566
636.463	27.82431
636.656	27.69623
636.849	26.86045
637.042	27.99918
637.235	29.639
637.428	28.11497
637.621	27.66561
637.814	29.16031
638.007	29.20829
638.2	28.70089
638.393	29.52847
638.586	25.7213
638.778	26.68912
638.971	26.69462
639.164	29.12578
639.357	27.38037
639.55	29.04919
639.743	28.10336
639.935	27.71328
640.128	30.65921
640.321	28.78743
640.514	27.84723
640.707	29.94093
640.899	28.23319
641.092	25.32524
641.285	42.48187
641.477	24.86057
641.67	30.87325
641.863	29.23735
642.055	27.82988
642.248	27.4388
642.441	26.88943
642.633	28.40723
642.826	28.69216
643.018	29.1852
643.211	30.23488
643.403	30.11998
643.596	30.86063
643.788	30.57562
643.981	27.02118
644.173	28.89343
644.366	27.18954
644.558	25.22649
644.751	29.23076
644.943	25.78715
645.135	29.66389
645.328	29.69633
645.52	28.75305
645.712	29.17054
645.905	31.8494
646.097	25.97286
646.289	27.98908
646.482	31.05807
646.674	26.50323
646.866	29.43937
647.058	28.38896
647.251	26.30654
647.443	26.76764
647.635	27.47842
647.827	25.95427
648.019	26.32479
648.211	27.14843
648.404	27.75222
648.596	30.53447
648.788	28.28325
648.98	27.90707
649.172	28.81458
649.364	28.47618
649.556	25.31034
649.748	32.32309
649.94	26.46306
650.132	29.12838
650.324	26.59591
650.516	27.17183
650.708	29.8637
650.9	25.86797
651.092	27.42698
651.284	26.13716
651.476	26.55917
651.667	29.30205
651.859	30.4664
652.051	27.97809
652.243	28.242
652.435	27.54585
652.627	29.03316
652.818	28.94053
653.01	25.99043
653.202	26.70067
653.394	27.26492
653.585	29.00294
653.777	35.12142
653.969	30.28663
654.16	30.0396
654.352	26.63595
654.544	28.12121
654.735	29.5367
654.927	28.56502
655.118	30.47051
655.31	29.27114
655.502	30.29638
655.693	28.12685
655.885	29.17594
656.076	30.61378
656.268	28.76083
656.459	30.4949
656.651	30.52446
656.842	27.59352
657.034	27.03912
657.225	29.90947
657.416	30.75885
657.608	30.89354
657.799	28.71334
657.99	30.97022
658.182	28.40492
658.373	28.20498
658.564	30.80913
658.756	29.66731
658.947	29.00675
659.138	27.95535
659.33	28.43436
659.521	28.24067
659.712	29.20588
659.903	29.26443
660.094	28.23114
660.286	26.51086
660.477	31.66002
660.668	29.92879
660.859	28.76679
661.05	27
661.241	29.43147
661.432	28.86212
661.623	28.03304
661.814	27.66148
662.006	26.39568
662.197	29.1814
662.388	30.74546
662.579	29.1621
662.77	30.8225
662.96	33.39419
663.151	29.79332
663.342	26.01419
663.533	29.48018
663.724	28.84684
663.915	32.27905
664.106	28.58633
664.297	32.01196
664.488	29.94647
664.678	27.31529
664.869	30.63177
665.06	29.95705
665.251	29.05555
665.442	29.93627
665.632	26.69079
665.823	32.1727
666.014	23.95327
666.204	30.06376
666.395	31.07861
666.586	33.10485
666.776	30.42542
666.967	33.06927
667.158	29.48019
667.348	31.35716
667.539	27.6445
667.729	30.72317
667.92	27.98625
668.111	31.08804
668.301	30.49751
668.492	28.7638
668.682	29.79905
668.873	29.62677
669.063	27.27389
669.253	30.13499
669.444	32.16123
669.634	29.34925
669.825	33.16402
670.015	31.71902
670.206	28.14948
670.396	32.8117
670.586	29.02036
670.777	30.61029
670.967	25.991
671.157	28.52576
671.347	27.83593
671.538	32.08034
671.728	30.68851
671.918	33.1508
672.108	31.21825
672.299	28.67444
672.489	29.66205
672.679	27.84387
672.869	30.23429
673.059	34.43818
673.249	30.32173
673.44	27.02338
673.63	29.10786
673.82	31.19441
674.01	27.83432
674.2	30.57072
674.39	35.31611
674.58	30.9504
674.77	29.83451
674.96	28.84273
675.15	37.66255
675.34	32.22222
675.53	29.37548
675.72	29.21612
675.91	26.71353
676.099	34.06105
676.289	34.58906
676.479	32.04824
676.669	28.56495
676.859	30.49129
677.049	29.07332
677.238	29.89166
677.428	33.73573
677.618	30.46016
677.808	34.41886
677.997	31.47552
678.187	28.76031
678.377	30.48777
678.567	29.36174
678.756	29.65461
678.946	30.93098
679.136	28.38841
679.325	29.88947
679.515	29.00594
679.704	28.4244
679.894	32.74685
680.084	31.79703
680.273	33.28726
680.463	29.51027
680.652	29.07529
680.842	30.84692
681.031	32.68531
681.221	29.38423
681.41	32.15476
681.6	30.51179
681.789	32.16625
681.978	33.03594
682.168	31.28332
682.357	31.00811
682.547	31.57989
682.736	31.39465
682.925	33.22875
683.115	33.68529
683.304	32.39262
683.493	30.95596
683.682	31.39763
683.872	31.79117
684.061	33.11235
684.25	31.87232
684.439	36.00539
684.629	32.96904
684.818	38.69951
685.007	31.23918
685.196	30.56175
685.385	35.90726
685.574	31.71324
685.763	32.06604
685.952	31.48772
686.142	28.65906
686.331	34.61974
686.52	28.10072
686.709	36.08773
686.898	35.41317
687.087	33.61217
687.276	35.48663
687.465	34.49692
687.654	31.32681
687.842	35.28416
688.031	29.93033
688.22	35.04529
688.409	32.46891
688.598	31.98739
688.787	37.86686
688.976	32.31391
689.165	36.8887
689.353	31.38073
689.542	33.34222
689.731	34.47102
689.92	37.37984
690.108	33.69141
690.297	31.34803
690.486	32.52399
690.675	33.99032
690.863	36.24063
691.052	35.59405
691.241	32.78125
691.429	33.1982
691.618	35.85212
691.806	29.78294
691.995	31.87721
692.184	33.06557
692.372	31.62859
692.561	33.08357
692.749	33.01617
692.938	40.81653
693.126	33.47847
693.315	31.49501
693.503	34.59864
693.692	35.15042
693.88	34.09055
694.068	37.96096
694.257	33.36318
694.445	34.89182
694.634	27.4646
694.822	34.85486
695.01	35.94084
695.199	38.29211
695.387	36.53778
695.575	36.16233
695.763	31.96139
695.952	31.90454
696.14	29.53621
696.328	31.58912
696.516	33.01112
696.705	34.38844
696.893	33.79122
697.081	29.12829
697.269	35.1769
697.457	30.72062
697.645	30.29745
697.833	35.73852
698.021	31.93562
698.21	32.69849
698.398	33.16691
698.586	31.2064
698.774	30.93026
698.962	33.69585
699.15	31.48903
699.338	30.41435
699.526	35.08072
699.714	31.95847
699.901	32.04808
700.089	35.52
700.277	31.36337
700.465	32.84816
700.653	35.00991
700.841	34.1393
701.029	31.32046
701.217	37.34024
701.404	33.00464
701.592	37.76933
701.78	39.95755
701.968	33.13249
702.155	33.11165
702.343	29.97329
702.531	37.47394
702.718	34.23923
702.906	31.86263
703.094	31.40662
703.281	37.15378
703.469	33.46528
703.657	36.74062
703.844	42.55944
704.032	39.72303
704.219	33.25869
704.407	35.3782
704.595	38.94263
704.782	35.11723
704.97	34.46421
705.157	34.03898
705.345	40.88721
705.532	45.45474
705.719	38.49697
705.907	40.73107
706.094	37.87197
706.282	44.24826
706.469	37.8872
706.656	38.65048
706.844	38.05371
707.031	42.96602
707.218	41.03566
707.406	44.72176
707.593	42.14293
707.78	41.52153
707.968	39.96059
708.155	38.21836
708.342	42.14808
708.529	42.39424
708.716	42.01958
708.904	45.95149
709.091	43.32104
709.278	37.63742
709.465	47.4892
709.652	44.6913
709.839	44.57487
710.026	40.55287
710.213	35.30498
710.4	40.46282
710.587	41.6773
710.774	43.41024
710.961	43.01956
711.148	40.19363
711.335	42.53983
711.522	39.82705
711.709	41.19522
711.896	47.0907
712.083	43.5344
712.27	37.7881
712.457	41.56938
712.644	36.23774
712.831	46.88985
713.017	40.59984
713.204	42.68471
713.391	37.64212
713.578	42.57376
713.765	44.58628
713.951	40.2517
714.138	50.27674
714.325	40.18395
714.512	38.77421
714.698	35.43372
714.885	43.13788
715.072	38.53834
715.258	37.4482
715.445	35.02182
715.631	41.78782
715.818	29.3643
716.005	35.61653
716.191	39.34472
716.378	36.2241
716.564	40.36122
716.751	33.92759
716.937	35.8691
717.124	39.94235
717.31	33.79733
717.497	44.07134
717.683	34.63761
717.869	44.63815
718.056	34.49381
718.242	38.15821
718.429	36.19209
718.615	32.68832
718.801	35.73829
718.988	40.49453
719.174	38.58742
719.36	35.73003
719.547	41.76388
719.733	37.58682
719.919	37.93882
720.105	39.12369
720.291	37.05497
720.478	36.97424
720.664	36.86402
720.85	35.21578
721.036	47.87176
721.222	43.3028
721.408	37.39372
721.595	43.68471
721.781	42.98627
721.967	41.29717
722.153	44.12342
722.339	39.72946
722.525	39.31105
722.711	33.64937
722.897	33.38326
723.083	36.09488
723.269	41.47035
723.455	49.0602
723.641	54.48457
723.827	38.11006
724.012	39.109
724.198	37.11287
724.384	42.89917
724.57	39.6462
724.756	32.76568
724.942	30.92796
725.127	42.25066
725.313	43.22536
725.499	43.07873
725.685	45.76534
725.87	39.60157
726.056	35.07169
726.242	43.45576
726.428	32.35807
726.613	41.36325
726.799	35.90502
726.985	33.81205
727.17	31.58319
727.356	46.78567
727.541	34.06595
727.727	37.68929
727.913	41.46147
728.098	36.41064
728.284	41.63918
728.469	33.7896
728.655	35.91488
728.84	43.13067
729.026	42.20733
729.211	40.96234
729.397	40.47639
729.582	42.07034
729.767	38.51939
729.953	40.31125
730.138	44.16281
730.323	30.76595
730.509	34.43024
730.694	45.97385
730.879	41.63136
731.065	39.63634
731.25	49.2458
731.435	41.75102
731.621	32.67273
731.806	36.96728
731.991	39.07473
732.176	33.70481
732.361	46.10297
732.547	40.57905
732.732	33.58973
732.917	49.41166
733.102	34.47348
733.287	36.51826
733.472	38.76997
733.657	37.92959
733.842	33.22122
734.027	36.4266
734.212	38.5258
734.397	35.90799
734.582	39.40383
734.767	43.55903
734.952	45.35794
735.137	29.37946
735.322	45.57496
735.507	41.6575
735.692	39.24914
735.877	47.96624
736.062	47.49988
736.247	41.04419
736.431	38.7008
736.616	43.57992
736.801	40.17011
736.986	39.24846
737.171	34.96369
737.355	34.27892
737.54	45.79338
737.725	39.24994
737.909	52.02137
738.094	37.10953
738.279	44.25335
738.463	38.06216
738.648	41.90574
738.833	42.94995
739.017	49.40808
739.202	38.40102
739.386	38.08523
739.571	35.28088
739.756	43.59354
739.94	38.28071
740.125	41.45941
740.309	35.70993
740.494	44.2247
740.678	40.40962
740.863	42.85785
741.047	39.9671
741.231	47.35632
741.416	36.66031
741.6	47.80295
741.785	35.95765
741.969	44.49809
742.153	47.47208
742.338	32.21711
742.522	39.89356
742.706	43.34361
742.89	34.14548
743.075	40.26837
743.259	46.42833
743.443	46.08082
743.627	47.0925
743.812	50.95533
743.996	32.44904
744.18	38.07796
744.364	37.67713
744.548	53.08371
744.732	38.54079
744.916	45.76219
745.1	43.55626
745.285	39.52422
745.469	43.97727
745.653	48.12544
745.837	34.18911
746.021	52.66699
746.205	46.72785
746.389	41.15536
746.573	39.71738
746.757	50.24697
746.94	38.94564
747.124	46.82422
747.308	35.47996
747.492	46.7763
747.676	35.75521
747.86	55.12315
748.044	38.40687
748.227	32.56492
748.411	62.24667
748.595	40.66105
748.779	36.19949
748.963	42.68468
749.146	41.52788
749.33	40.18705
749.514	36.03013
749.697	46.32021
749.881	38.1228
750.065	35.74408
750.248	42.20251
750.432	55.70133
750.616	40.49945
750.799	35.42634
750.983	55.70697
751.166	54.92511
751.35	33.14031
751.533	43.73083
751.717	50.97684
751.9	50.00796
752.084	40.24309
752.267	35.72135
752.451	38.54704
752.634	42.04691
752.818	45.17015
753.001	46.62645
753.184	48.00642
753.368	44.07103
753.551	24.46441
753.734	36.80447
753.918	54.63318
754.101	39.15554
754.284	46.18508
754.467	39.27898
754.651	38.58691
754.834	36.02076
755.017	47.35033
755.2	49.2057
755.384	36.20055
755.567	46.35299
755.75	46.02654
755.933	39.11299
756.116	46.85654
756.299	37.74665
756.482	37.56441
756.665	45.32961
756.848	40.2072
757.032	43.77921
757.215	33.69055
757.398	36.46925
757.581	36.51259
757.764	59.19149
757.947	40.66245
758.129	46.87606
758.312	27.34639
758.495	40.21361
758.678	41.43927
758.861	38.21113
759.044	53.18349
759.227	36.06528
759.41	38.2181
759.592	47.02895
759.775	40.1302
759.958	46.75472
760.141	34.88116
760.324	58.13474
760.506	51.394
760.689	47.24231
760.872	55.02573
761.054	44.89132
761.237	40.92354
761.42	42.74697
761.602	47.1291
761.785	43.89286
761.968	50.2319
762.15	53.28158
762.333	40.97218
762.515	45.33729
762.698	39.84157
762.88	48.53884
763.063	44.34226
763.245	49.42561
763.428	37.37955
763.61	40.37824
763.793	36.53777
763.975	45.10732
764.158	41.19529
764.34	39.84045
764.522	38.60565
764.705	42.22185
764.887	52.72435
765.069	35.14228
765.252	46.5149
765.434	46.51396
765.616	43.57983
765.799	38.20609
765.981	47.47139
766.163	39.15994
766.345	51.08131
766.528	39.47855
766.71	30.48461
766.892	43.46708
767.074	51.74321
767.256	41.4857
767.438	53.69234
767.62	44.31031
767.802	57.76466
767.985	47.07635
768.167	55.96275
768.349	39.88997
768.531	47.22136
768.713	44.96718
768.895	48.99889
769.077	45.4487
769.259	61.12811
769.441	76.82794
769.623	48.58461
769.804	54.15799
769.986	50.1209
770.168	57.01638
770.35	68.83482
770.532	55.08255
770.714	59.78819
770.896	58.32242
771.077	36.48173
771.259	61.32551
771.441	54.79433
771.623	64.66918
771.804	73.68157
771.986	36.94986
772.168	48.01269
772.35	61.20245
772.531	77.06337
772.713	56.14281
772.894	66.16153
773.076	52.22501
773.258	48.02873
773.439	65.85241
773.621	73.5835
773.802	44.77899
773.984	47.35441
774.166	55.95507
774.347	69.63345
774.529	65.25592
774.71	35.15649
774.891	51.72521
775.073	46.85382
775.254	67.61642
775.436	46.23346
775.617	79.81628
775.799	47.17132
775.98	65.75799
776.161	73.00367
776.343	74.33466
776.524	53.02408
776.705	51.78638
776.886	35.635
777.068	57.96472
777.249	102.37104
777.43	75.33833
777.611	42.95533
777.793	50.42308
777.974	74.40076
778.155	48.47013
778.336	43.21452
778.517	83.24865
778.698	45.69581
778.879	36.68363
779.061	28.43494
779.242	59.60395
779.423	60.92753
779.604	48.21785
779.785	51.29152
779.966	56.21206
780.147	66.41007
780.328	65.64737
780.509	84.44755
780.69	65.80589
780.871	47.1853
781.051	40.0926
781.232	56.60921
781.413	55.4089
781.594	50.39182
781.775	50.26732
781.956	46.08311
782.137	33.74968
782.317	47.99897
782.498	55.68324
782.679	55.60363
782.86	57.07897
783.04	47.60119
783.221	56.61775
783.402	76.44567
783.583	53.53967
783.763	63.18029
783.944	48.24791
784.124	40.92604
784.305	75.26052
784.486	62.08193
784.666	52.94078
784.847	38.85622
785.027	94.6571
785.208	48.36056
785.388	48.04396
785.569	48.77928
785.749	53.6916
785.93	51.27556
786.11	40.6484
786.291	61.55969
786.471	56.89105
786.652	65.73932
786.832	52.21414
787.012	57.81503
787.193	44.07161
787.373	55.56802
787.553	50.3824
787.734	57.49125
787.914	50.8307
788.094	65.59706
788.275	58.91102
788.455	50.77417
788.635	43.92869
788.815	56.12243
788.995	43.53516
789.176	39.60794
789.356	46.77005
789.536	51.7626
789.716	58.91487
789.896	47.0402
790.076	48.92865
790.256	57.06828
790.436	32.86499
790.616	44.18003
790.796	58.55424
790.976	50.15722
791.156	47.37813
791.336	59.20274
791.516	58.8893
791.696	52.08025
791.876	40.50539
792.056	54.38856
792.236	64.41734
792.416	63.31217
792.596	58.01579
792.776	59.33763
792.956	62.46459
793.135	75.56628
793.315	45.54298
793.495	66.79427
793.675	63.86059
793.854	62.59518
794.034	65.68645
794.214	44.43144
794.394	62.227
794.573	69.68984
794.753	57.18457
794.933	44.76484
795.112	57.40972
795.292	65.52448
795.472	75.01609
795.651	40.51112
795.831	53.48601
796.01	53.72881
796.19	51.88369
796.369	55.17565
796.549	59.4395
796.728	53.55453
796.908	40.94009
797.087	42.02175
797.267	50.85134
797.446	42.02797
797.626	59.64332
797.805	60.13887
797.984	47.37605
798.164	64.5062
798.343	45.18043
798.522	56.54834
798.702	56.07794
798.881	42.53105
799.06	51.23633
799.239	36.01615
799.419	44.6029
799.598	77.27517
799.777	58.66916
799.956	69.26098
800.136	51.14527
800.315	44.57555
800.494	58.61428
800.673	67.27597
800.852	62.4199
801.031	66.36603
801.21	60.27501
801.389	50.32161
801.568	56.33952
801.747	79.53075
801.926	54.69002
802.105	71.27272
802.284	48.45714
802.463	73.58894
802.642	58.63049
802.821	57.54364
803	73.24931
803.179	65.13576
803.358	67.17684
803.537	47.94035
803.716	54.37455
803.895	48.75892
804.073	53.65524
804.252	45.46013
804.431	60.77438
804.61	53.89885
804.789	64.33684
804.967	48.56421
805.146	50.46077
805.325	81.31921
805.503	59.03191
805.682	41.09893
805.861	97.04291
806.039	71.79944
806.218	50.41014
806.397	57.36826
806.575	54.99392
806.754	58.97259
806.932	45.27011
807.111	67.31908
807.289	66.73648
807.468	57.48619
807.646	68.66351
807.825	64.22763
808.003	55.09732
808.182	67.24094
808.36	57.70606
808.539	46.15001
808.717	73.11344
808.895	47.61532
809.074	60.08051
809.252	56.53512
809.43	63.15692
809.609	68.26404
809.787	72.2159
809.965	52.79094
810.144	55.88566
810.322	56.48384
810.5	61.93289
810.678	52.57905
810.856	83.92756
811.035	71.54549
811.213	65.00948
811.391	74.39445
811.569	60.63613
811.747	105.88428
811.925	72.00567
812.103	51.9556
812.281	56.88076
812.459	78.88881
812.637	81.9407
812.816	67.32776
812.994	86.23809
813.171	75.44636
813.349	64.8889
813.527	68.93917
813.705	76.86785
813.883	94.55119
814.061	67.68304
814.239	81.82312
814.417	84.22961
814.595	63.6975
814.773	62.5456
814.95	61.66129
815.128	64.01422
815.306	62.71653
815.484	56.99854
815.662	49.5659
815.839	45.96121
816.017	54.24233
816.195	75.81303
816.372	54.42107
816.55	68.85505
816.728	79.7898
816.905	56.82663
817.083	79.68876
817.261	57.4866
817.438	103.62288
817.616	80.81038
817.793	52.83997
817.971	70.40077
818.148	67.86213
818.326	77.75371
818.503	62.64656
818.681	81.76402
818.858	55.61057
819.036	59.18441
819.213	59.70377
819.391	51.67055
819.568	52.34753
819.745	48.28265
819.923	68.76297
820.1	55.94207
820.277	49.36296
820.455	55.1207
820.632	58.19392
820.809	60.47179
820.986	47.65906
821.164	42.25217
821.341	41.85979
821.518	51.24977
821.695	44.43977
821.872	43.11754
822.05	40.32937
822.227	37.94017
822.404	38.74631
822.581	40.71971
822.758	38.74195
822.935	39.1097
823.112	40.95037
823.289	38.42755
823.466	41.15504
823.643	40.27442
823.82	43.25988
823.997	41.62451
824.174	43.6865
824.351	50.47036
824.528	49.17548
824.705	47.26211
824.882	49.30727
825.059	55.33222
825.236	47.03288
825.412	48.25676
825.589	51.78803
825.766	63.29522
825.943	49.80158
826.12	53.2482
826.296	44.88231
826.473	50.33234
826.65	50.09898
826.827	55.12457
827.003	44.40047
827.18	47.09287
827.357	50.08424
827.533	46.2961
827.71	37.65265
827.887	44.17645
828.063	47.22348
828.24	43.30161
828.416	48.53687
828.593	44.48404
828.769	53.49538
828.946	53.012
829.122	55.55545
829.299	53.21443
829.475	44.30883
829.652	53.07741
829.828	71.63812
830.005	53.53006
830.181	65.88514
830.357	56.50007
830.534	69.7926
830.71	57.02323
830.886	68.40277
831.063	67.55592
831.239	78.39478
831.415	49.34567
831.592	77.35463
831.768	58.18398
831.944	52.67824
832.12	80.36601
832.296	77.79333
832.473	69.03422
832.649	53.87605
832.825	70.13266
833.001	49.8321
833.177	63.13293
833.353	58.35437
833.529	43.97692
833.705	56.79032
833.881	44.48734
834.058	44.51304
834.234	46.75886
834.41	46.3405
834.586	41.20204
834.761	45.58968
834.937	47.9314
835.113	47.64783
835.289	45.08434
835.465	48.14682
835.641	45.46658
835.817	49.62474
835.993	67.19124
836.169	47.69423
836.344	59.16874
836.52	62.8954
836.696	58.79521
836.872	53.72047
837.048	105.02274
837.223	57.38636
837.399	86.04896
837.575	71.87869
837.75	70.69713
837.926	86.1515
838.102	120.21263
838.277	100.52381
838.453	127.55231
838.628	127.7368
838.804	63.04772
838.98	114.18411
839.155	70.63834
839.331	87.00486
839.506	68.49082
839.682	68.86517
839.857	89.1078
840.033	99.28053
840.208	61.86591
840.384	39.14772
840.559	57.76003
840.734	77.26835
840.91	94.70138
841.085	65.1021
841.26	66.06192
841.436	61.58525
841.611	62.32409
841.786	81.78577
841.962	102.04482
842.137	71.65178
842.312	57.40501
842.487	66.02575
842.663	59.37463
842.838	68.72177
843.013	164.76036
843.188	90.64005
843.363	101.50561
843.538	142.34959
843.714	144.18813
843.889	146.54524
844.064	153.67139
844.239	126.1724
844.414	143.80242
844.589	100.04829
844.764	174.60354
844.939	170.45036
845.114	185.3798
845.289	177.05553
845.464	233.64761
845.639	161.38701
845.814	97.13877
845.989	105.02727
846.163	130.11392
846.338	134.58462
846.513	170.11041
846.688	123.61578
846.863	127.57396
847.038	110.76987
847.212	121.38699
847.387	129.52415
847.562	135.95379
847.737	160.81949
847.911	79.51636
848.086	86.59417
848.261	223.05076
848.435	114.86129
848.61	165.40326
848.785	93.19419
848.959	170.69813
849.134	227.50883
849.308	231.42036
849.483	133.90099
849.658	190.73483
849.832	114.69338
850.007	105.19893
850.181	251.01232
850.356	108.47714
850.53	243.3457
850.705	95.26197
850.879	59.81924
851.053	129.21828
851.228	111.14929
851.402	143.01244
851.577	178.59821
851.751	195.20424
851.925	139.76733
852.099	75.27411
852.274	99.20167
852.448	131.85938
852.622	155.64287
852.797	133.93078
852.971	126.50609
853.145	134.98158
853.319	360.45522
853.493	185.87
853.668	110.37304
853.842	230.72885
854.016	182.31232
854.19	211.67763
854.364	141.8103
854.538	151.07145
854.712	194.23127
854.886	126.42405
855.06	119.92623
855.234	59.11785
855.408	204.12256
855.582	177.11903
855.756	175.64562
855.93	226.4311
856.104	160.03721
856.278	179.63295
856.452	139.4772
856.626	172.88039
856.8	258.52583
856.973	162.34772
857.147	150.80576
857.321	154.90081
857.495	182.8473
857.669	130.78305
857.842	121.48413
858.016	189.60972
858.19	106.16876
858.364	287.93036
858.537	119.07604
858.711	140.4161
858.885	126.50631
859.058	117.48732
859.232	72.44805
859.405	84.51785
859.579	173.67933
859.753	149.88552
859.926	111.5955
860.1	86.70901
860.273	137.00149
860.447	207.00024
860.62	123.19338
860.794	248.63641
860.967	149.12455
861.141	191.26191
861.314	268.94132
861.487	167.67272
861.661	217.27724
861.834	210.63395
862.008	186.10976
862.181	141.9364
862.354	144.15591
862.528	161.8324
862.701	111.45666
862.874	96.06211
863.047	130.11518
863.221	124.71645
863.394	75.781
863.567	217.82182
863.74	67.72302
863.913	179.76273
864.087	152.5624
864.26	188.18897
864.433	136.75514
864.606	225.36039
864.779	137.98906
864.952	83.19556
865.125	117.83482
865.298	136.21024
865.471	139.54877
865.644	264.36468
865.817	216.71696
865.99	179.29401
866.163	203.29393
866.336	122.89576
866.509	145.58272
866.682	122.38426
866.855	200.37706
867.028	92.45643
867.2	171.18056
867.373	84.05931
867.546	149.53147
867.719	272.27126
867.892	173.42608
868.064	109.854
868.237	164.13591
868.41	141.75419
868.583	89.92564
868.755	100.28532
868.928	149.93072
869.101	272.35991
869.273	200.27589
869.446	169.52299
869.619	194.79428
869.791	135.34584
869.964	192.13331
870.136	176.3357
870.309	149.54885
870.481	154.24427
870.654	87.42302
870.826	149.98343
870.999	128.54326
871.171	190.42347
871.344	124.65609
871.516	129.13607
871.689	110.72065
871.861	152.3378
872.033	112.32376
872.206	132.03746
872.378	200.30791
872.55	130.0348
872.723	90.0783
872.895	137.93496
873.067	193.63282
873.24	217.21769
873.412	120.12559
873.584	133.19963
873.756	126.25396
873.928	164.28989
874.101	167.94168
874.273	178.75235
874.445	77.04049
874.617	98.22359
874.789	154.35083
874.961	130.99696
875.133	168.71162
875.305	145.04483
875.477	107.58859
875.649	90.16456
875.821	108.07221
875.993	232.04713
876.165	102.1352
876.337	163.01548
876.509	130.11347
876.681	156.97812
876.853	152.58514
877.025	153.00904
877.197	110.36823
877.369	103.26675
877.541	187.6864
877.712	71.41667
877.884	94.46352
878.056	177.66505
878.228	103.33598
878.4	164.43179
878.571	103.53881
878.743	76.47531
878.915	158.19005
879.086	102.66326
879.258	120.28097
879.43	111.18426
879.601	102.00844
879.773	104.40935
879.945	43.27552
880.116	58.72843
880.288	45.53869
880.459	47.78004
880.631	43.12849
880.802	46.81391
880.974	45.69199
881.145	39.34173
881.317	44.75958
881.488	40.24567
881.66	42.97109
881.831	41.0789
882.002	47.9936
882.174	41.51918
882.345	46.63355
882.517	37.84322
882.688	50.38446
882.859	46.94118
883.03	59.74509
883.202	57.93808
883.373	54.82577
883.544	54.92932
883.715	75.81263
883.887	66.39059
884.058	61.52423
884.229	78.07032
884.4	79.15436
884.571	85.89219
884.742	79.13166
884.914	84.51752
885.085	104.53288
885.256	123.9434
885.427	106.04365
885.598	121.32534
885.769	124.92983
885.94	122.63459
886.111	91.53422
886.282	137.69776
886.453	118.04889
886.624	89.35515
886.795	135.33165
886.966	119.15716
887.136	140.65359
887.307	110.73913
887.478	171.98649
887.649	154.90909
887.82	159.28966
887.991	131.12174
888.161	170.00887
888.332	163.9519
888.503	97.22823
888.674	215.51254
888.844	223.07229
889.015	180.79857
889.186	91.95899
889.356	219.11185
889.527	101.42695
889.698	352.37137
889.868	130.136
890.039	164.13015
890.209	141.56986
890.38	184.95583
890.551	156.23712
890.721	215.01197
890.892	180.60248
891.062	133.52767
891.233	161.77473
891.403	130.63735
891.574	111.4785
891.744	137.98693
891.914	176.90365
892.085	153.96084
892.255	70.80608
892.425	220.18666
892.596	179.64426
892.766	160.87581
892.936	215.89487
893.107	181.28577
893.277	114.7573
893.447	91.82627
893.618	75.98314
893.788	128.50627
893.958	80.83105
894.128	85.38708
894.298	86.84684
894.468	111.79063
894.639	62.51553
894.809	53.44768
894.979	69.82418
895.149	77.67936
895.319	67.544
895.489	78.74835
895.659	99.14624
895.829	75.68195
895.999	80.55916
896.169	65.92931
896.339	72.07511
896.509	127.67324
896.679	144.4676
896.849	137.77689
897.019	188.63738
897.189	154.63255
897.358	138.67706
897.528	194.648
897.698	84.57155
897.868	182.3046
898.038	280.86191
898.208	262.05364
898.377	109.95935
898.547	269.94694
898.717	412.03762
898.886	179.78155
899.056	261.01458
899.226	376.99757
899.395	252.76041
899.565	301.15278
899.735	205.21882
899.904	327.41563
900.074	272.92576
900.244	152.39048
900.413	484.66997
900.583	136.06205
900.752	198.05963
900.922	307.04674
901.091	48.459
901.261	269.93155
901.43	250.7777
901.599	258.11386
901.769	526.24326
901.938	295.13736
902.108	288.12977
902.277	367.61358
902.446	108.76736
902.616	129.27796
902.785	181.16632
902.954	290.25227
903.124	192.9763
903.293	166.99294
903.462	102.4992
903.631	128.45517
903.801	100.8215
903.97	64.05403
904.139	92.6196
904.308	76.3294
904.477	65.0653
904.646	50.02427
904.816	66.34493
904.985	83.86032
905.154	113.42617
