Data from WindowProjectSample3_Transmission__62__00062.txt Node

Date: Sun May 04 11:39:24 EDT 2025
User: jessi
Spectrometer: SR400872
Trigger mode: 0
Integration Time (sec): 5.000050E-1
Scans to average: 20
Electric dark correction enabled: true
Nonlinearity correction enabled: true
Boxcar width: 0
XAxis mode: Wavelengths
Number of Pixels in Spectrum: 3648
>>>>>Begin Spectral Data<<<<<
184.909	-1411.89048
185.132	-1263.12691
185.355	-1569.59861
185.578	-1538.78862
185.801	1294.38973
186.024	-1289.4027
186.247	-24046.23693
186.47	-2360.92409
186.693	-2029.093
186.916	-744.56028
187.139	-984.02428
187.362	-1207.95954
187.585	-1149.12341
187.808	-1118.75358
188.031	554.75874
188.254	-1158.34963
188.476	-887.37872
188.699	-1048.59938
188.922	316.14858
189.145	-999.19378
189.368	6662.56017
189.591	3637.61235
189.813	-4405.58864
190.036	-1358.09279
190.259	-8167.84045
190.482	-3362.85371
190.705	-2841.10924
190.927	-1961.60842
191.15	-1334.53359
191.373	-3648.62849
191.595	32355.54222
191.818	-3081.95573
192.041	-1018.89461
192.263	-1692.09809
192.486	-796.26641
192.709	-1934.12038
192.931	-4890.51372
193.154	-1339.72267
193.377	-1693.61059
193.599	1353.69734
193.822	8454.88476
194.044	-10070.46052
194.267	-3938.72425
194.489	17.49643
194.712	-1803.75064
194.934	-2665.03121
195.157	-546.91287
195.379	-4780.36455
195.602	-1592.74321
195.824	-2471.85098
196.047	2757.16139
196.269	-1279.06977
196.492	-1408.84653
196.714	-928.11804
196.936	-2165.98438
197.159	-4006.5881
197.381	-1204.34181
197.604	-7097.56334
197.826	-2307.77025
198.048	-2269.50057
198.271	-1486.72949
198.493	-2324.78732
198.715	-3159.00976
198.938	-8344.81303
199.16	-4778.53254
199.382	-1495.62393
199.604	-1610.92994
199.827	-3622.88261
200.049	-18982.95805
200.271	-1174.73793
200.493	-4425.79079
200.715	-1053.278
200.938	-903.4277
201.16	-942.32292
201.382	-2961.18109
201.604	-3756.5745
201.826	-1148.89696
202.048	-1719.7506
202.27	-1152.71638
202.492	-1477.64445
202.715	-1758.87649
202.937	-4282.61154
203.159	-4980.54879
203.381	6200.15001
203.603	-1407.94973
203.825	5651.30654
204.047	-2769.10939
204.269	3535.36316
204.491	-2281.87314
204.713	-1461.2285
204.935	-1021.64949
205.156	-3885.16587
205.378	-2626.72655
205.6	-1596.76392
205.822	-1632.71123
206.044	1274.13894
206.266	-19626.59369
206.488	-1349.22329
206.71	-2999.76427
206.932	24691.09637
207.153	-1340.10482
207.375	-2766.87076
207.597	-1315.20822
207.819	-1508.73823
208.041	-1289.59087
208.262	-1452.34179
208.484	-1906.85092
208.706	-9141.66277
208.927	-1928.36595
209.149	-10447.1236
209.371	-1331.56281
209.593	1150.21728
209.814	-2440.26962
210.036	451.19636
210.258	-1306.68088
210.479	-2866.07473
210.701	-6005.53464
210.922	-2654.68832
211.144	4225.88204
211.366	-2121.63005
211.587	1791.66599
211.809	-2332.9312
212.03	167987.72161
212.252	493.52182
212.473	-39254.73577
212.695	3153.81794
212.916	-3070.48914
213.138	798.70772
213.359	-1168.70744
213.581	-9094.89438
213.802	-1271.45305
214.024	-5715.29916
214.245	3394.53831
214.466	536.42871
214.688	-2282.66269
214.909	-1707.11533
215.131	-3343.72099
215.352	17934.10388
215.573	-1619.34719
215.795	-4431.20835
216.016	-1898.91651
216.237	1225.9566
216.459	10563.27145
216.68	-1616.61492
216.901	-3702.56504
217.122	19791.05517
217.344	-1784.70936
217.565	-1890.77358
217.786	-2310.04087
218.007	4874.0644
218.228	6262.3054
218.45	-2851.87121
218.671	20001.94004
218.892	-3373.81578
219.113	-7607.30502
219.334	-79.43633
219.555	-13276.46576
219.776	-2257.04459
219.997	-2387.17534
220.219	-2658.7798
220.44	7703.23902
220.661	9748.85247
220.882	-5414.22536
221.103	2257.9562
221.324	7609.95081
221.545	-9602.55013
221.766	-2438.74592
221.987	1162.39145
222.208	1736.16422
222.429	-1591.57238
222.65	280.74628
222.87	725.06709
223.091	3411.865
223.312	553.79475
223.533	5808.2894
223.754	-4897.61762
223.975	1731.07931
224.196	1150.18075
224.417	6091.82724
224.637	681.1588
224.858	62.40202
225.079	760.85965
225.3	502.17635
225.521	-2095.5185
225.741	595.27159
225.962	613.75544
226.183	119.26366
226.404	1304.60487
226.624	465.39062
226.845	693.3547
227.066	499.53354
227.286	277.06136
227.507	121.15652
227.728	107.943
227.948	202.60529
228.169	63.00432
228.389	67.70639
228.61	42.6465
228.831	54.93754
229.051	6.04116
229.272	32.72829
229.492	48.2541
229.713	14.58074
229.933	34.75945
230.154	31.46755
230.374	48.4153
230.595	37.03387
230.815	22.42549
231.036	35.22415
231.256	-3.20652
231.477	64.5727
231.697	38.40957
231.917	41.18339
232.138	55.39543
232.358	113.14005
232.579	89.52486
232.799	16.53687
233.019	84.75456
233.24	98.8679
233.46	35.92661
233.68	50.42989
233.901	37.24288
234.121	24.24731
234.341	11.24154
234.561	-4.29972
234.782	17.84438
235.002	59.59119
235.222	-0.09613
235.442	51.24707
235.662	28.0665
235.883	54.37821
236.103	41.46886
236.323	30.36626
236.543	25.25606
236.763	34.20739
236.983	36.63089
237.203	33.6913
237.423	50.0094
237.643	74.71077
237.864	63.43201
238.084	17.49177
238.304	22.02485
238.524	39.69705
238.744	33.38834
238.964	56.24934
239.184	48.56197
239.404	54.74213
239.624	28.11877
239.843	46.20973
240.063	29.20795
240.283	17.97972
240.503	20.47777
240.723	20.70424
240.943	13.56675
241.163	16.92829
241.383	11.97159
241.603	6.79832
241.822	7.59973
242.042	5.58038
242.262	7.23107
242.482	8.0811
242.702	9.16985
242.921	3.05603
243.141	6.19684
243.361	5.79345
243.581	8.39976
243.8	7.24391
244.02	4.66723
244.24	8.2768
244.459	7.9906
244.679	15.85782
244.899	9.98884
245.118	11.3607
245.338	10.92548
245.558	12.11114
245.777	7.27578
245.997	8.41953
246.216	8.78527
246.436	5.29983
246.655	3.55176
246.875	3.05433
247.094	5.52622
247.314	2.03912
247.533	3.51918
247.753	3.86982
247.972	3.11754
248.192	1.14439
248.411	1.9008
248.631	3.12876
248.85	4.05691
249.07	3.87014
249.289	5.76816
249.508	4.04798
249.728	6.42672
249.947	6.37042
250.166	8.19938
250.386	4.00617
250.605	5.78717
250.824	10.0367
251.044	6.59046
251.263	19.40668
251.482	11.67736
251.701	9.55986
251.921	0.60176
252.14	3.52612
252.359	4.13536
252.578	8.54708
252.798	3.25234
253.017	7.59363
253.236	3.86281
253.455	5.29272
253.674	10.11389
253.893	4.59088
254.112	7.5242
254.331	9.79944
254.551	8.09888
254.77	4.02132
254.989	11.20939
255.208	8.79576
255.427	13.37163
255.646	11.27678
255.865	16.93854
256.084	7.20922
256.303	9.62079
256.522	11.72248
256.741	2.80136
256.96	3.14481
257.179	7.10757
257.397	9.00081
257.616	5.36921
257.835	5.37156
258.054	12.94182
258.273	8.80348
258.492	9.05082
258.711	5.93996
258.93	2.79877
259.148	4.03915
259.367	3.8099
259.586	4.76146
259.805	2.18797
260.023	4.15052
260.242	3.08073
260.461	2.48201
260.68	1.22547
260.898	3.66506
261.117	1.27833
261.336	0.97358
261.554	3.16605
261.773	3.20859
261.992	0.78562
262.21	3.06773
262.429	3.30307
262.648	5.90812
262.866	6.95517
263.085	4.92951
263.303	4.28063
263.522	7.70152
263.74	7.29243
263.959	12.51454
264.178	6.70333
264.396	5.56167
264.615	4.08746
264.833	9.41036
265.051	8.10692
265.27	9.4027
265.488	8.75061
265.707	5.33688
265.925	8.92105
266.144	4.43669
266.362	4.80394
266.58	4.85063
266.799	4.39954
267.017	5.05388
267.235	4.59752
267.454	3.12304
267.672	1.66448
267.89	3.74233
268.109	4.16875
268.327	4.11924
268.545	0.93003
268.763	3.61351
268.982	1.68149
269.2	4.28575
269.418	2.97501
269.636	2.20389
269.854	3.91276
270.073	2.77888
270.291	1.81246
270.509	1.86295
270.727	3.75222
270.945	6.1506
271.163	5.90137
271.381	1.46188
271.599	2.72361
271.817	4.32698
272.036	1.64786
272.254	3.06237
272.472	2.0758
272.69	2.23831
272.908	2.27706
273.126	3.48306
273.344	4.66633
273.562	1.66355
273.779	2.45508
273.997	3.82415
274.215	3.59549
274.433	2.54052
274.651	4.08495
274.869	3.85465
275.087	2.41276
275.305	3.72577
275.523	2.35573
275.74	2.63013
275.958	4.80066
276.176	6.60568
276.394	2.23661
276.612	2.97482
276.829	2.86965
277.047	2.49662
277.265	2.70908
277.483	3.12195
277.7	3.67288
277.918	3.10959
278.136	5.29557
278.353	2.67931
278.571	1.74672
278.789	4.20537
279.006	0.95786
279.224	2.70148
279.442	4.33997
279.659	3.1382
279.877	1.99628
280.094	4.56249
280.312	0.976
280.529	3.14711
280.747	1.16022
280.964	2.42076
281.182	4.80818
281.399	2.56858
281.617	3.09608
281.834	2.18714
282.052	1.64425
282.269	2.81411
282.487	2.10377
282.704	1.99038
282.921	1.84079
283.139	2.87071
283.356	3.65875
283.574	3.35213
283.791	1.64822
284.008	4.40117
284.226	2.78067
284.443	2.99472
284.66	3.63891
284.877	3.20004
285.095	1.94628
285.312	1.49468
285.529	0.92679
285.746	0.83639
285.964	1.88675
286.181	1.19434
286.398	1.70355
286.615	2.44488
286.832	2.37194
287.05	0.61194
287.267	1.69216
287.484	1.68432
287.701	2.42858
287.918	2.34323
288.135	2.31792
288.352	1.04806
288.569	1.34332
288.786	2.2165
289.003	1.60129
289.22	2.68643
289.437	1.62892
289.654	2.54676
289.871	2.52611
290.088	2.51303
290.305	2.05809
290.522	1.76191
290.739	1.76
290.956	2.71076
291.173	3.09923
291.39	2.98014
291.607	2.00716
291.824	1.54472
292.04	1.33615
292.257	2.71652
292.474	2.78909
292.691	1.90331
292.908	1.09225
293.125	1.59861
293.341	1.13895
293.558	4.22958
293.775	2.07332
293.992	2.27425
294.208	0.88914
294.425	1.49153
294.642	1.84498
294.858	2.51483
295.075	0.93532
295.292	1.99441
295.508	2.40423
295.725	3.22236
295.942	1.98478
296.158	1.58167
296.375	2.30949
296.591	1.87812
296.808	1.86881
297.024	2.27407
297.241	2.47331
297.458	2.60555
297.674	0.93499
297.891	2.25358
298.107	2.04639
298.323	1.54003
298.54	3.07718
298.756	1.95565
298.973	1.31343
299.189	3.30353
299.406	1.99845
299.622	3.22741
299.838	3.30566
300.055	3.00791
300.271	1.4629
300.487	1.77044
300.704	1.95614
300.92	1.56426
301.136	4.1272
301.353	3.34249
301.569	2.63956
301.785	2.80564
302.001	3.06143
302.218	2.89019
302.434	3.00539
302.65	1.70612
302.866	2.19983
303.083	4.42395
303.299	4.35436
303.515	2.62932
303.731	3.04892
303.947	1.76789
304.163	2.2933
304.379	2.83917
304.595	3.02186
304.812	2.28675
305.028	2.00687
305.244	2.39558
305.46	3.30747
305.676	3.43049
305.892	3.7363
306.108	3.23
306.324	2.60169
306.54	4.19429
306.756	3.16265
306.972	3.08285
307.187	2.67002
307.403	3.85062
307.619	2.21485
307.835	3.63681
308.051	3.70509
308.267	1.99474
308.483	3.58584
308.699	3.09967
308.914	2.71039
309.13	2.72049
309.346	1.57656
309.562	1.97171
309.778	1.65984
309.993	3.14954
310.209	2.7625
310.425	1.83834
310.641	2.60731
310.856	2.0834
311.072	1.91224
311.288	2.54088
311.503	2.87809
311.719	1.49223
311.935	1.47809
312.15	3.04905
312.366	2.89861
312.581	3.15335
312.797	2.7421
313.013	3.31655
313.228	2.30675
313.444	2.65317
313.659	2.11452
313.875	3.10344
314.09	2.62446
314.306	3.82525
314.521	3.21323
314.737	3.33743
314.952	2.89067
315.168	2.90568
315.383	2.94809
315.599	2.51637
315.814	2.60551
316.029	3.3384
316.245	1.98132
316.46	1.41665
316.675	3.6407
316.891	4.31903
317.106	5.02684
317.321	3.09931
317.537	3.18136
317.752	3.42413
317.967	3.50758
318.183	2.20321
318.398	2.51456
318.613	3.47267
318.828	3.84308
319.043	3.39558
319.259	2.56475
319.474	2.97018
319.689	3.67164
319.904	1.43668
320.119	3.57338
320.334	3.02831
320.549	2.60188
320.765	3.82437
320.98	3.21381
321.195	3.39488
321.41	2.80442
321.625	3.47996
321.84	4.10867
322.055	4.19615
322.27	2.37634
322.485	1.99072
322.7	3.12767
322.915	3.57953
323.13	2.32963
323.345	3.97618
323.56	3.41227
323.775	3.32984
323.989	3.2118
324.204	2.95457
324.419	3.43746
324.634	1.86741
324.849	2.78279
325.064	4.35609
325.279	3.61357
325.493	3.16555
325.708	3.49692
325.923	2.30047
326.138	2.49987
326.352	4.07797
326.567	3.50772
326.782	2.58831
326.997	2.40989
327.211	3.38635
327.426	3.12121
327.641	2.68832
327.855	1.74951
328.07	3.43704
328.285	4.36677
328.499	2.67955
328.714	3.15256
328.928	3.39763
329.143	2.97171
329.358	3.99222
329.572	3.64201
329.787	4.00254
330.001	4.95511
330.216	1.87789
330.43	4.48911
330.645	4.16149
330.859	3.60962
331.074	2.27222
331.288	3.02493
331.503	4.31732
331.717	2.06901
331.931	2.97469
332.146	3.21138
332.36	4.63691
332.575	3.27501
332.789	3.09017
333.003	2.94175
333.218	3.36456
333.432	2.46559
333.646	3.65825
333.86	4.32983
334.075	4.40756
334.289	2.59965
334.503	2.04226
334.717	3.61605
334.932	3.46279
335.146	3.72518
335.36	2.58205
335.574	3.56857
335.788	3.41781
336.003	3.87903
336.217	3.79822
336.431	3.20101
336.645	2.68451
336.859	2.22328
337.073	3.0624
337.287	3.19262
337.501	2.21665
337.715	3.27543
337.929	3.37206
338.143	2.17895
338.357	2.94707
338.571	2.62131
338.785	3.57781
338.999	2.5975
339.213	2.69652
339.427	2.15009
339.641	4.04561
339.855	2.75747
340.069	2.48214
340.283	3.79709
340.497	4.24761
340.711	3.47657
340.924	3.01716
341.138	2.49552
341.352	2.08005
341.566	3.12573
341.78	1.81688
341.993	2.60024
342.207	2.35792
342.421	3.27183
342.635	2.97774
342.848	2.59884
343.062	1.30796
343.276	2.6138
343.49	4.5333
343.703	2.49491
343.917	3.73867
344.131	3.8218
344.344	2.62388
344.558	2.72361
344.771	2.30006
344.985	3.86207
345.199	4.26371
345.412	3.30492
345.626	3.43064
345.839	1.83271
346.053	2.36306
346.266	2.31528
346.48	3.47176
346.693	3.32184
346.907	3.33829
347.12	2.41146
347.334	3.12512
347.547	3.35486
347.76	2.90705
347.974	3.90454
348.187	3.26851
348.401	2.88181
348.614	2.54819
348.827	2.8828
349.041	3.43174
349.254	1.86052
349.467	2.92749
349.681	2.34274
349.894	2.64538
350.107	3.87988
350.32	4.46327
350.534	2.08394
350.747	2.95001
350.96	2.47322
351.173	2.60086
351.386	2.74815
351.6	2.6498
351.813	2.72793
352.026	3.03356
352.239	2.28837
352.452	2.89678
352.665	3.92643
352.878	2.79831
353.092	4.53785
353.305	3.58983
353.518	3.08107
353.731	2.3543
353.944	3.70952
354.157	2.75994
354.37	2.69984
354.583	2.2821
354.796	2.14616
355.009	3.8366
355.222	3.19844
355.435	3.20504
355.647	3.884
355.86	2.59853
356.073	3.12216
356.286	2.83003
356.499	3.71973
356.712	3.53225
356.925	3.31843
357.138	3.85758
357.35	2.56762
357.563	2.85739
357.776	3.2365
357.989	3.1723
358.201	3.48821
358.414	3.42645
358.627	3.90261
358.84	3.03057
359.052	2.39753
359.265	2.60982
359.478	3.72755
359.69	1.58957
359.903	3.82991
360.116	3.78871
360.328	2.20805
360.541	3.69161
360.753	2.81144
360.966	2.98699
361.179	3.05359
361.391	3.03597
361.604	2.89437
361.816	3.25907
362.029	3.18549
362.241	2.91019
362.454	3.14997
362.666	2.80379
362.879	3.52341
363.091	3.10966
363.304	2.90843
363.516	3.17535
363.728	2.57531
363.941	3.53317
364.153	3.23572
364.366	2.04446
364.578	2.59469
364.79	3.56558
365.003	3.47192
365.215	3.0358
365.427	3.65844
365.639	4.03675
365.852	3.44765
366.064	4.32713
366.276	3.12982
366.488	3.55674
366.701	3.24396
366.913	3.22196
367.125	3.34679
367.337	3.23548
367.549	3.06047
367.762	3.39309
367.974	3.34075
368.186	3.24175
368.398	4.13886
368.61	3.78191
368.822	3.92973
369.034	3.32366
369.246	4.01297
369.458	5.04394
369.67	2.97201
369.882	4.60499
370.094	2.25762
370.306	4.34082
370.518	3.29246
370.73	3.34387
370.942	3.15133
371.154	3.5701
371.366	3.37281
371.578	3.96141
371.79	3.44655
372.002	4.31132
372.214	4.98111
372.425	3.72643
372.637	4.7239
372.849	4.01375
373.061	2.39343
373.273	4.10652
373.484	4.03159
373.696	4.26561
373.908	2.3423
374.12	4.38227
374.331	4.14442
374.543	3.43337
374.755	3.15457
374.967	3.81427
375.178	4.48187
375.39	3.71749
375.602	3.94362
375.813	3.06661
376.025	3.2922
376.236	3.90724
376.448	4.02445
376.66	3.82728
376.871	3.90397
377.083	4.46311
377.294	4.96315
377.506	3.8069
377.717	4.96155
377.929	4.28638
378.14	3.81734
378.352	4.39913
378.563	4.52444
378.775	4.93476
378.986	3.66045
379.197	4.40036
379.409	3.72836
379.62	4.63546
379.832	4.22909
380.043	4.14114
380.254	4.4996
380.466	3.51353
380.677	5.87881
380.888	5.67004
381.1	5.97283
381.311	5.95044
381.522	4.53844
381.733	6.11701
381.945	4.34936
382.156	4.28192
382.367	3.98092
382.578	6.1949
382.789	6.25242
383.001	3.98945
383.212	5.61071
383.423	5.56616
383.634	5.23839
383.845	5.01699
384.056	4.38448
384.267	4.74562
384.478	4.67142
384.69	4.09803
384.901	5.10154
385.112	4.88234
385.323	5.86112
385.534	4.99281
385.745	5.01355
385.956	5.04037
386.167	4.32174
386.378	5.26644
386.588	4.40683
386.799	4.45965
387.01	4.02315
387.221	5.47531
387.432	5.04164
387.643	6.03152
387.854	4.77572
388.065	4.77853
388.275	4.86771
388.486	4.6607
388.697	5.13261
388.908	4.8302
389.119	5.70002
389.329	6.07089
389.54	5.14804
389.751	5.30877
389.962	5.86024
390.172	5.2511
390.383	5.10516
390.594	4.78968
390.804	4.93197
391.015	5.00241
391.226	5.37
391.436	5.70299
391.647	5.53793
391.858	5.73508
392.068	4.50877
392.279	4.8881
392.489	5.63818
392.7	5.97542
392.91	4.96879
393.121	4.97871
393.331	5.7153
393.542	6.18181
393.752	5.84108
393.963	5.82258
394.173	5.74432
394.384	6.00748
394.594	5.70632
394.804	5.04108
395.015	5.69676
395.225	6.1181
395.436	5.15136
395.646	5.93003
395.856	5.50047
396.067	4.91779
396.277	6.20105
396.487	5.96155
396.697	6.03503
396.908	6.1701
397.118	6.14742
397.328	5.82229
397.538	6.27558
397.749	5.43232
397.959	6.47797
398.169	6.05124
398.379	5.10303
398.589	6.1868
398.8	6.11086
399.01	6.10543
399.22	5.83672
399.43	7.15447
399.64	5.9757
399.85	6.27225
400.06	5.98654
400.27	5.58823
400.48	5.94684
400.69	6.62377
400.9	5.83424
401.11	5.53066
401.32	6.49916
401.53	5.68293
401.74	6.96844
401.95	6.34271
402.16	5.87495
402.37	6.45099
402.58	5.87619
402.79	6.49425
403	6.56576
403.209	5.7939
403.419	6.80071
403.629	5.88131
403.839	6.78478
404.049	6.745
404.258	6.03957
404.468	5.90716
404.678	6.70791
404.888	6.89691
405.097	6.16132
405.307	6.25641
405.517	6.73706
405.727	6.71065
405.936	6.25563
406.146	6.6355
406.356	7.22842
406.565	6.46037
406.775	6.28279
406.984	6.32551
407.194	7.55863
407.404	6.61661
407.613	6.83596
407.823	6.97468
408.032	7.35654
408.242	7.08797
408.451	6.26447
408.661	6.5197
408.87	7.57322
409.08	6.20244
409.289	6.83836
409.499	6.78011
409.708	6.6405
409.918	5.48265
410.127	6.81359
410.336	7.49811
410.546	7.09884
410.755	6.5469
410.964	6.4475
411.174	6.36273
411.383	7.06809
411.592	6.95663
411.802	6.34367
412.011	7.31574
412.22	6.71355
412.429	7.69954
412.639	7.52623
412.848	7.50748
413.057	7.79151
413.266	7.45614
413.475	6.94487
413.685	7.25679
413.894	7.35252
414.103	7.50989
414.312	7.25847
414.521	6.82235
414.73	7.08758
414.939	7.81824
415.148	7.20858
415.357	7.18336
415.566	6.9191
415.776	6.91108
415.985	6.94165
416.194	7.51496
416.403	8.10445
416.611	6.53918
416.82	7.10004
417.029	7.64946
417.238	7.5271
417.447	7.68164
417.656	8.33344
417.865	8.40612
418.074	8.68259
418.283	9.5087
418.492	10.45083
418.7	10.2184
418.909	11.68609
419.118	10.6756
419.327	11.12138
419.536	11.08046
419.744	11.08651
419.953	12.46283
420.162	12.74344
420.371	12.01264
420.579	12.7348
420.788	13.68096
420.997	13.72761
421.205	14.23162
421.414	13.56367
421.623	13.82133
421.831	13.26538
422.04	14.03154
422.249	12.89746
422.457	13.26528
422.666	12.42025
422.874	13.35651
423.083	13.45891
423.291	13.49605
423.5	13.50284
423.708	13.91718
423.917	14.47565
424.125	13.87745
424.334	13.75676
424.542	15.57656
424.751	14.7805
424.959	14.45538
425.167	14.42709
425.376	14.31535
425.584	12.8562
425.793	12.78439
426.001	11.73808
426.209	11.86692
426.418	10.62399
426.626	9.97783
426.834	9.60362
427.042	9.57325
427.251	9.0352
427.459	9.69527
427.667	8.71714
427.875	7.67302
428.084	7.98792
428.292	8.50171
428.5	8.2266
428.708	7.34595
428.916	7.44416
429.124	7.85926
429.333	7.81011
429.541	7.82034
429.749	7.97075
429.957	7.99572
430.165	9.11328
430.373	7.26454
430.581	7.93944
430.789	8.59928
430.997	7.74616
431.205	7.69786
431.413	8.25903
431.621	8.02988
431.829	8.65399
432.037	8.83624
432.245	9.05839
432.453	9.44198
432.661	9.46278
432.869	10.87907
433.076	9.634
433.284	10.25373
433.492	10.95884
433.7	11.21027
433.908	10.27098
434.116	10.65633
434.323	10.27817
434.531	10.17362
434.739	10.10018
434.947	9.86325
435.154	9.75012
435.362	8.94882
435.57	8.76939
435.778	8.62898
435.985	8.84039
436.193	8.48342
436.401	9.46135
436.608	8.62302
436.816	8.31772
437.023	9.72683
437.231	9.81397
437.439	9.38696
437.646	9.6719
437.854	9.48369
438.061	9.65203
438.269	9.77371
438.476	10.23965
438.684	10.23879
438.891	10.53118
439.099	10.42756
439.306	10.2351
439.514	10.56494
439.721	12.10942
439.929	11.68451
440.136	12.62991
440.343	12.71645
440.551	12.49633
440.758	14.03181
440.965	12.82497
441.173	12.60635
441.38	12.20198
441.587	12.01457
441.795	11.69628
442.002	11.38771
442.209	11.10269
442.416	10.90717
442.624	10.62061
442.831	10.25874
443.038	9.64463
443.245	9.29897
443.452	9.34401
443.66	10.17619
443.867	9.63512
444.074	9.72406
444.281	10.14827
444.488	10.5406
444.695	11.01811
444.902	11.23876
445.109	12.53099
445.316	12.42974
445.523	12.93032
445.73	13.01341
445.937	14.09185
446.144	14.66244
446.351	15.08133
446.558	13.78891
446.765	15.84076
446.972	15.08218
447.179	14.46068
447.386	15.11205
447.593	13.28969
447.8	14.25719
448.007	12.62332
448.214	11.96438
448.42	11.37538
448.627	11.79492
448.834	10.9978
449.041	10.59675
449.248	10.16051
449.454	10.1824
449.661	10.35061
449.868	8.9574
450.075	8.83704
450.281	7.8415
450.488	8.04416
450.695	8.14534
450.901	8.26094
451.108	8.47739
451.315	9.09543
451.521	8.47746
451.728	9.56468
451.935	8.57042
452.141	8.99737
452.348	9.17546
452.554	9.02474
452.761	9.20863
452.967	10.01176
453.174	9.45852
453.38	9.34009
453.587	8.42242
453.793	9.12369
454	9.05459
454.206	9.7306
454.413	9.14549
454.619	8.71809
454.825	8.31979
455.032	8.77581
455.238	9.03389
455.445	7.96434
455.651	8.55337
455.857	7.74021
456.064	8.41046
456.27	8.43883
456.476	8.39668
456.682	7.91512
456.889	8.62114
457.095	8.79647
457.301	9.44336
457.507	8.55968
457.714	8.77317
457.92	8.90594
458.126	8.95957
458.332	9.87094
458.538	10.24816
458.744	10.91722
458.951	11.62545
459.157	13.75528
459.363	13.53797
459.569	13.79317
459.775	14.4633
459.981	13.94059
460.187	14.50031
460.393	14.58712
460.599	14.53269
460.805	13.44894
461.011	12.46512
461.217	12.19373
461.423	11.13295
461.629	10.22563
461.835	9.99259
462.041	9.09142
462.247	9.6872
462.453	8.65741
462.658	8.62227
462.864	9.03787
463.07	8.71331
463.276	8.76039
463.482	8.83119
463.688	9.40346
463.893	8.49435
464.099	8.532
464.305	9.46857
464.511	8.54325
464.716	8.71338
464.922	9.19177
465.128	8.30675
465.333	9.60102
465.539	9.02506
465.745	8.76213
465.95	8.7992
466.156	10.14389
466.362	9.42093
466.567	8.76572
466.773	8.55579
466.978	9.58886
467.184	8.51287
467.389	7.98448
467.595	9.05243
467.8	8.52785
468.006	9.52094
468.211	9.40743
468.417	8.34126
468.622	9.15219
468.828	9.12483
469.033	9.02317
469.239	10.19566
469.444	8.61012
469.649	9.27654
469.855	8.88249
470.06	8.90062
470.266	8.44704
470.471	9.18221
470.676	9.10663
470.881	8.16873
471.087	9.71121
471.292	9.69259
471.497	8.31424
471.703	8.92591
471.908	8.65536
472.113	9.01373
472.318	9.27372
472.523	8.38773
472.729	9.2175
472.934	9.08297
473.139	8.83077
473.344	9.19474
473.549	9.54959
473.754	8.6142
473.959	9.95697
474.164	8.71513
474.369	8.98947
474.575	9.32547
474.78	9.10044
474.985	8.67519
475.19	8.19549
475.395	8.65896
475.6	9.02733
475.804	9.59431
476.009	9.04567
476.214	8.91724
476.419	8.72171
476.624	8.26143
476.829	8.64609
477.034	9.43124
477.239	8.93488
477.444	9.44825
477.648	9.79941
477.853	9.8015
478.058	9.43519
478.263	9.33482
478.468	9.00774
478.672	9.03844
478.877	10.33187
479.082	10.34102
479.287	9.79963
479.491	9.48812
479.696	9.09641
479.901	9.93159
480.105	10.1508
480.31	9.58122
480.515	10.1012
480.719	11.82537
480.924	10.69098
481.128	10.83238
481.333	11.99132
481.538	12.35887
481.742	12.87172
481.947	14.16054
482.151	15.47682
482.356	16.68651
482.56	19.59548
482.765	21.76523
482.969	25.76964
483.174	29.2407
483.378	33.53566
483.582	34.67631
483.787	36.67887
483.991	37.41874
484.196	37.44268
484.4	36.56315
484.604	36.16454
484.809	32.90387
485.013	30.59266
485.217	27.66092
485.422	24.51973
485.626	22.41327
485.83	21.17167
486.034	20.7747
486.239	21.46896
486.443	22.09341
486.647	22.96672
486.851	24.36664
487.055	26.28482
487.26	26.47609
487.464	27.64465
487.668	27.24361
487.872	27.77495
488.076	27.69611
488.28	26.47819
488.484	24.67673
488.688	23.66166
488.892	22.53727
489.096	20.8489
489.3	19.0834
489.504	17.91492
489.708	17.17342
489.912	16.80364
490.116	16.4328
490.32	16.34786
490.524	18.00288
490.728	19.27041
490.932	20.48575
491.136	21.6343
491.34	23.15645
491.544	23.69432
491.748	23.46795
491.951	23.26303
492.155	22.56627
492.359	21.81067
492.563	19.70211
492.767	18.35847
492.97	16.54415
493.174	14.65955
493.378	13.47394
493.582	11.92427
493.785	11.66552
493.989	11.29626
494.193	10.75415
494.396	10.22541
494.6	10.50867
494.804	10.06983
495.007	9.84149
495.211	9.84478
495.414	10.13225
495.618	10.72409
495.822	11.46077
496.025	11.32584
496.229	12.00649
496.432	11.56081
496.636	12.03788
496.839	12.13056
497.043	13.01626
497.246	12.44872
497.45	12.02318
497.653	12.20303
497.856	12.11573
498.06	11.41546
498.263	11.33616
498.467	10.93835
498.67	11.61392
498.873	11.0845
499.077	10.47752
499.28	10.26312
499.483	10.48761
499.686	10.52532
499.89	10.09306
500.093	10.02782
500.296	9.18697
500.499	9.977
500.703	9.27836
500.906	9.35811
501.109	10.06741
501.312	9.2822
501.515	9.20454
501.719	9.46468
501.922	9.86569
502.125	9.47872
502.328	9.19498
502.531	8.80969
502.734	9.38089
502.937	8.4492
503.14	9.33815
503.343	8.86203
503.546	9.14736
503.749	9.04723
503.952	9.62399
504.155	8.98055
504.358	9.62152
504.561	9.46661
504.764	8.8337
504.967	9.42349
505.17	9.36164
505.373	10.11758
505.576	9.40061
505.778	9.68802
505.981	9.00513
506.184	10.01858
506.387	8.63697
506.59	10.19149
506.793	9.97551
506.995	9.61067
507.198	8.51838
507.401	9.56755
507.604	9.8645
507.806	9.50856
508.009	9.69692
508.212	10.54969
508.414	10.11824
508.617	10.37454
508.82	10.6097
509.022	11.41833
509.225	10.70957
509.427	9.88552
509.63	11.19828
509.833	10.4892
510.035	10.34808
510.238	9.56788
510.44	10.91121
510.643	9.32246
510.845	11.14162
511.048	10.4246
511.25	9.93035
511.453	10.15848
511.655	10.55558
511.858	10.08192
512.06	10.6707
512.262	10.23949
512.465	10.76831
512.667	9.94726
512.869	9.43739
513.072	9.93602
513.274	9.96616
513.476	9.79826
513.679	9.82838
513.881	9.08374
514.083	10.26305
514.286	9.18603
514.488	9.16047
514.69	9.0553
514.892	8.86119
515.094	9.82477
515.297	9.13081
515.499	9.42093
515.701	9.12211
515.903	10.26044
516.105	10.21976
516.307	9.78275
516.509	8.6528
516.711	9.0579
516.913	9.65254
517.116	10.1822
517.318	10.51226
517.52	11.77324
517.722	12.1852
517.924	11.62063
518.126	12.93994
518.328	12.65019
518.529	13.42401
518.731	14.17776
518.933	12.69832
519.135	12.77481
519.337	13.24165
519.539	12.39577
519.741	10.94409
519.943	10.93199
520.145	10.38709
520.346	10.66262
520.548	9.77655
520.75	9.92023
520.952	9.38584
521.153	9.65129
521.355	9.79288
521.557	9.00496
521.759	9.5603
521.96	9.51896
522.162	8.96503
522.364	9.99884
522.565	9.11184
522.767	9.77819
522.969	10.06529
523.17	9.6846
523.372	9.66011
523.573	9.22749
523.775	9.40667
523.977	9.30029
524.178	10.70408
524.38	10.28652
524.581	11.6173
524.783	11.75816
524.984	12.90862
525.186	13.1432
525.387	13.96149
525.589	13.93196
525.79	13.99128
525.991	14.04482
526.193	14.73327
526.394	13.91787
526.596	15.00662
526.797	15.32611
526.998	15.21197
527.2	15.88888
527.401	18.73787
527.602	20.30147
527.803	23.70289
528.005	25.35362
528.206	27.27965
528.407	28.56536
528.608	28.64171
528.81	28.85347
529.011	27.89595
529.212	28.55484
529.413	26.59708
529.614	24.65716
529.815	23.05058
530.017	20.87666
530.218	18.64961
530.419	16.68744
530.62	15.86396
530.821	15.11322
531.022	13.7397
531.223	14.4761
531.424	14.34407
531.625	14.61234
531.826	14.52113
532.027	15.31908
532.228	17.01675
532.429	17.34266
532.63	18.18241
532.831	19.40794
533.032	19.59866
533.233	20.48297
533.433	19.90952
533.634	20.11959
533.835	18.86317
534.036	18.09926
534.237	17.26695
534.438	15.94061
534.638	14.22859
534.839	13.62949
535.04	13.3249
535.241	12.57847
535.441	13.72495
535.642	13.34849
535.843	13.13607
536.043	13.41596
536.244	13.85734
536.445	14.10646
536.645	15.00633
536.846	14.64131
537.047	14.72723
537.247	13.44721
537.448	13.14329
537.648	12.72576
537.849	11.84655
538.049	11.27808
538.25	10.94378
538.451	10.50495
538.651	9.61941
538.851	10.18105
539.052	10.68526
539.252	10.76744
539.453	10.64652
539.653	11.45058
539.854	12.33378
540.054	13.50777
540.254	15.70357
540.455	17.35661
540.655	17.88783
540.855	20.04261
541.056	21.17768
541.256	21.16376
541.456	22.24912
541.657	21.52269
541.857	22.10172
542.057	20.23622
542.257	19.32663
542.458	19.38472
542.658	18.22861
542.858	16.12481
543.058	16.13891
543.258	15.24927
543.458	13.5382
543.659	12.87019
543.859	13.58956
544.059	13.03368
544.259	12.0898
544.459	12.18773
544.659	11.19279
544.859	11.38029
545.059	10.78089
545.259	11.3694
545.459	11.03804
545.659	11.70752
545.859	11.31921
546.059	11.75794
546.259	11.28806
546.459	11.10444
546.659	11.19101
546.859	11.82333
547.059	11.70669
547.258	11.37089
547.458	10.9194
547.658	9.86158
547.858	9.35399
548.058	9.78934
548.258	9.62755
548.457	9.32294
548.657	11.03874
548.857	9.61029
549.057	10.09872
549.256	10.07336
549.456	9.53587
549.656	8.62365
549.855	10.61622
550.055	9.46313
550.255	10.67931
550.454	9.95271
550.654	10.10883
550.853	10.40382
551.053	10.11824
551.253	9.84024
551.452	9.78659
551.652	9.00579
551.851	8.79816
552.051	9.49582
552.25	9.32883
552.45	9.16749
552.649	9.48912
552.849	9.15272
553.048	9.57091
553.248	10.0015
553.447	9.16081
553.646	10.07319
553.846	10.44259
554.045	10.27188
554.244	8.98146
554.444	10.85696
554.643	9.25549
554.842	10.58065
555.042	10.93271
555.241	9.33426
555.44	9.14548
555.64	9.92838
555.839	10.97083
556.038	10.00457
556.237	9.2214
556.436	9.65305
556.636	9.90022
556.835	9.11975
557.034	10.74949
557.233	9.49071
557.432	8.85892
557.631	10.42027
557.83	9.57016
558.029	9.35926
558.228	9.32713
558.427	9.07598
558.626	9.85862
558.825	9.11189
559.024	9.67867
559.223	10.7995
559.422	9.54049
559.621	9.95354
559.82	8.14267
560.019	9.61765
560.218	9.5095
560.417	7.95077
560.616	9.39104
560.815	11.63934
561.014	8.68748
561.212	10.55083
561.411	9.78016
561.61	8.75215
561.809	9.37849
562.008	10.51121
562.206	9.42767
562.405	10.07119
562.604	9.51563
562.803	9.66137
563.001	9.5144
563.2	8.79054
563.399	9.76936
563.597	8.79907
563.796	9.57221
563.995	8.9938
564.193	9.94383
564.392	9.40622
564.59	10.92164
564.789	8.50608
564.988	9.33052
565.186	9.62908
565.385	9.38153
565.583	9.28388
565.782	9.47978
565.98	9.27263
566.179	9.54496
566.377	8.97122
566.575	9.27199
566.774	10.37907
566.972	10.12419
567.171	10.98554
567.369	10.36829
567.567	9.83068
567.766	10.03335
567.964	8.42612
568.162	10.00021
568.361	10.17908
568.559	9.63243
568.757	9.99607
568.956	9.64955
569.154	9.5782
569.352	10.04561
569.55	9.70847
569.748	9.71108
569.947	9.20436
570.145	9.08714
570.343	8.93839
570.541	10.11955
570.739	8.79032
570.937	9.52003
571.135	9.8691
571.333	10.55266
571.532	10.50102
571.73	9.7206
571.928	10.1795
572.126	9.81645
572.324	9.40152
572.522	10.40129
572.72	11.38731
572.918	9.74361
573.116	9.86355
573.313	9.73185
573.511	9.66463
573.709	9.42394
573.907	10.04325
574.105	9.4625
574.303	8.59893
574.501	8.70623
574.699	9.93911
574.896	9.95326
575.094	10.12152
575.292	8.87363
575.49	10.33771
575.688	9.48365
575.885	10.58326
576.083	10.98093
576.281	10.11197
576.478	9.2892
576.676	10.16446
576.874	8.8939
577.071	9.65096
577.269	11.42609
577.467	9.63831
577.664	9.549
577.862	10.28216
578.059	8.98018
578.257	10.33705
578.455	9.52925
578.652	9.67838
578.85	8.31472
579.047	9.76679
579.245	9.68281
579.442	9.65031
579.64	9.61582
579.837	8.32156
580.034	11.53918
580.232	9.33594
580.429	8.81924
580.627	9.96079
580.824	10.67266
581.021	10.20171
581.219	9.42492
581.416	9.02664
581.613	10.88404
581.811	10.78476
582.008	9.04638
582.205	10.40331
582.402	9.76208
582.6	11.27459
582.797	9.75439
582.994	9.96084
583.191	10.25162
583.388	9.56994
583.586	10.36323
583.783	10.47693
583.98	9.22686
584.177	9.98391
584.374	7.74375
584.571	9.5877
584.768	9.52293
584.965	9.52035
585.162	10.18505
585.359	11.04973
585.556	9.68302
585.753	9.93179
585.95	8.82837
586.147	9.07959
586.344	10.16339
586.541	9.44179
586.738	8.82382
586.935	9.65785
587.132	9.16688
587.329	10.46379
587.526	9.46921
587.722	13.4415
587.919	8.7672
588.116	10.04799
588.313	10.91995
588.51	11.54992
588.706	9.56347
588.903	10.2721
589.1	10.51405
589.297	11.93831
589.493	9.67037
589.69	10.18686
589.887	9.44799
590.083	8.89376
590.28	9.19034
590.477	10.39861
590.673	10.35221
590.87	10.78009
591.067	9.68109
591.263	10.16476
591.46	10.18168
591.656	9.46226
591.853	10.79973
592.049	9.01691
592.246	9.51601
592.442	10.8096
592.639	10.23625
592.835	9.05041
593.032	10.18192
593.228	8.70535
593.425	8.63446
593.621	8.5157
593.817	9.84679
594.014	9.19316
594.21	9.80872
594.406	10.44418
594.603	10.27689
594.799	9.3111
594.995	7.97096
595.192	10.71862
595.388	9.55467
595.584	9.5428
595.78	8.52529
595.977	11.0452
596.173	10.96965
596.369	9.55328
596.565	9.00521
596.761	8.77835
596.957	10.753
597.154	9.25512
597.35	9.4087
597.546	9.24756
597.742	10.3548
597.938	10.1048
598.134	9.20612
598.33	10.01675
598.526	11.16454
598.722	10.15837
598.918	11.37164
599.114	10.23895
599.31	9.14439
599.506	9.90561
599.702	9.23004
599.898	10.08111
600.094	10.56537
600.29	10.50439
600.485	10.65725
600.681	9.27888
600.877	11.44696
601.073	9.78613
601.269	11.22728
601.465	10.83462
601.66	9.13611
601.856	8.18742
602.052	10.94373
602.248	9.45472
602.443	8.37631
602.639	8.89555
602.835	8.89338
603.03	9.08237
603.226	10.4311
603.422	8.99927
603.617	9.55442
603.813	9.39626
604.009	9.36867
604.204	10.73158
604.4	8.66576
604.595	10.5383
604.791	9.06253
604.986	10.09742
605.182	9.38197
605.377	9.6302
605.573	9.5945
605.768	9.91978
605.964	10.43482
606.159	10.38317
606.355	10.91656
606.55	9.68729
606.746	10.90022
606.941	9.74854
607.136	11.64204
607.332	12.29533
607.527	8.91017
607.722	9.99183
607.918	9.70349
608.113	9.22011
608.308	10.47188
608.503	10.1228
608.699	10.14195
608.894	10.28115
609.089	9.13619
609.284	9.96779
609.479	9.54393
609.675	10.39678
609.87	9.57856
610.065	10.45991
610.26	10.69986
610.455	10.5976
610.65	9.83598
610.845	10.00392
611.04	10.87256
611.235	9.84164
611.43	9.61032
611.625	8.85008
611.82	11.35595
612.015	9.17073
612.21	11.35978
612.405	8.62665
612.6	11.61614
612.795	11.07396
612.99	10.49605
613.185	8.71978
613.38	9.21491
613.575	10.26139
613.77	12.6443
613.965	8.53373
614.159	9.30125
614.354	11.21851
614.549	10.85072
614.744	10.75567
614.938	9.04054
615.133	8.5755
615.328	11.33297
615.523	11.07924
615.717	12.84526
615.912	9.35595
616.107	10.19339
616.301	9.71567
616.496	9.50636
616.691	11.61987
616.885	10.78357
617.08	13.01864
617.274	11.14988
617.469	12.20836
617.664	10.64305
617.858	9.61173
618.053	10.59616
618.247	9.82522
618.442	8.23879
618.636	11.39671
618.831	9.47881
619.025	9.56281
619.219	12.71502
619.414	6.93734
619.608	10.31918
619.803	9.44665
619.997	12.4217
620.191	11.39653
620.386	10.57302
620.58	10.08715
620.774	8.29719
620.969	8.71973
621.163	10.48013
621.357	8.9617
621.551	9.77379
621.746	10.13946
621.94	9.91115
622.134	13.76566
622.328	12.32904
622.522	8.39115
622.716	11.1745
622.911	11.20617
623.105	11.35472
623.299	10.6657
623.493	13.68583
623.687	9.46168
623.881	9.5737
624.075	10.68714
624.269	11.54202
624.463	8.28659
624.657	8.56388
624.851	10.59915
625.045	11.16473
625.239	11.31164
625.433	9.72833
625.627	11.52979
625.821	9.64017
626.015	9.29352
626.209	10.31803
626.403	8.87691
626.596	10.63981
626.79	11.04424
626.984	8.95563
627.178	10.60881
627.372	10.62324
627.565	11.00277
627.759	8.64585
627.953	9.0073
628.147	10.80536
628.34	10.93193
628.534	12.57688
628.728	9.99076
628.921	11.18441
629.115	10.88485
629.309	11.46865
629.502	11.30774
629.696	10.541
629.89	10.23512
630.083	10.66198
630.277	10.96024
630.47	12.37506
630.664	10.00192
630.857	8.78132
631.051	11.27851
631.244	11.60063
631.438	11.42078
631.631	9.43131
631.825	11.98423
632.018	11.19129
632.212	12.71214
632.405	11.75017
632.598	9.70208
632.792	10.60654
632.985	7.70003
633.178	10.06705
633.372	10.3297
633.565	10.36926
633.758	11.88839
633.952	9.54753
634.145	9.27988
634.338	9.75006
634.531	9.78827
634.724	9.86588
634.918	10.56898
635.111	10.29087
635.304	10.27383
635.497	13.17994
635.69	10.79336
635.883	11.87784
636.077	9.1793
636.27	11.07091
636.463	10.53204
636.656	10.96226
636.849	10.3768
637.042	11.13758
637.235	12.26377
637.428	11.55052
637.621	10.98214
637.814	12.37037
638.007	12.59042
638.2	12.62717
638.393	13.39264
638.586	9.04699
638.778	9.97465
638.971	10.81317
639.164	13.01784
639.357	11.28329
639.55	12.62482
639.743	11.84875
639.935	11.8801
640.128	13.22718
640.321	11.63529
640.514	11.06494
640.707	14.05587
640.899	11.76206
641.092	8.49702
641.285	20.23005
641.477	8.15551
641.67	14.25815
641.863	12.63824
642.055	11.45245
642.248	10.92965
642.441	10.47889
642.633	11.74657
642.826	13.05934
643.018	12.86872
643.211	13.81614
643.403	13.62773
643.596	14.57609
643.788	13.9076
643.981	10.8652
644.173	12.33632
644.366	10.80393
644.558	8.8248
644.751	12.76262
644.943	9.2305
645.135	13.81572
645.328	13.53777
645.52	12.24765
645.712	12.88701
645.905	15.90835
646.097	9.70664
646.289	11.60356
646.482	14.25403
646.674	10.45577
646.866	13.40801
647.058	12.56959
647.251	9.90074
647.443	10.88906
647.635	11.67886
647.827	9.8306
648.019	10.12158
648.211	11.64047
648.404	11.52397
648.596	13.84974
648.788	11.90231
648.98	12.06826
649.172	12.36531
649.364	11.86356
649.556	8.84856
649.748	16.04696
649.94	9.92147
650.132	12.23556
650.324	10.16817
650.516	10.3754
650.708	13.48464
650.9	9.18318
651.092	9.03277
651.284	9.31584
651.476	9.95646
651.667	12.72798
651.859	13.1998
652.051	11.29786
652.243	11.92416
652.435	10.64034
652.627	12.17957
652.818	12.41181
653.01	9.07675
653.202	10.0635
653.394	10.67645
653.585	12.42446
653.777	18.63519
653.969	13.78369
654.16	13.64929
654.352	9.89323
654.544	11.64371
654.735	13.37151
654.927	12.06975
655.118	14.24449
655.31	13.17861
655.502	13.66432
655.693	11.19137
655.885	12.74662
656.076	14.19163
656.268	12.01325
656.459	13.81682
656.651	13.98922
656.842	10.89907
657.034	10.60344
657.225	13.01185
657.416	14.12474
657.608	13.81861
657.799	11.2709
657.99	13.37764
658.182	10.70645
658.373	10.70682
658.564	12.58775
658.756	11.80562
658.947	11.43822
659.138	10.12943
659.33	10.70542
659.521	10.40615
659.712	11.4493
659.903	11.25059
660.094	10.78334
660.286	9.17182
660.477	14.96605
660.668	12.95271
660.859	12.05717
661.05	9.63696
661.241	12.93086
661.432	13.08172
661.623	11.26828
661.814	11.43125
662.006	9.40283
662.197	12.97302
662.388	14.06163
662.579	12.65419
662.77	14.67494
662.96	16.98173
663.151	13.49401
663.342	9.20043
663.533	13.57113
663.724	12.47186
663.915	15.26516
664.106	12.34645
664.297	15.64928
664.488	13.64371
664.678	11.48644
664.869	13.71553
665.06	14.24005
665.251	12.96939
665.442	13.44094
665.632	10.81881
665.823	15.72283
666.014	7.27364
666.204	13.50541
666.395	14.90506
666.586	17.43959
666.776	14.04521
666.967	15.81358
667.158	13.02857
667.348	15.23993
667.539	10.61557
667.729	13.9918
667.92	11.38362
668.111	14.30486
668.301	13.21974
668.492	12.42056
668.682	12.8556
668.873	12.29254
669.063	10.39888
669.253	13.17322
669.444	13.88411
669.634	12.62868
669.825	16.22936
670.015	14.76942
670.206	11.20703
670.396	16.48551
670.586	12.26299
670.777	13.95658
670.967	8.99319
671.157	12.52973
671.347	11.96485
671.538	15.44542
671.728	13.7135
671.918	16.73855
672.108	15.14548
672.299	12.92494
672.489	13.59592
672.679	11.5462
672.869	13.74503
673.059	16.66595
673.249	13.70985
673.44	11.06361
673.63	12.88893
673.82	15.12492
674.01	11.24819
674.2	14.16162
674.39	19.3228
674.58	14.41914
674.77	13.79645
674.96	12.70657
675.15	21.43613
675.34	15.87293
675.53	13.09858
675.72	12.7981
675.91	10.24116
676.099	17.06302
676.289	17.12708
676.479	15.54258
676.669	12.60611
676.859	14.21244
677.049	11.38358
677.238	13.35633
677.428	17.14828
677.618	13.93683
677.808	15.19716
677.997	14.60919
678.187	11.12193
678.377	13.40411
678.567	12.29218
678.756	12.40475
678.946	13.04914
679.136	10.65438
679.325	11.56317
679.515	11.20754
679.704	10.75772
679.894	14.1605
680.084	13.35559
680.273	15.35234
680.463	11.52238
680.652	11.66677
680.842	13.10375
681.031	15.06732
681.221	11.6844
681.41	14.85111
681.6	13.0833
681.789	15.02848
681.978	16.11415
682.168	13.77595
682.357	14.01785
682.547	15.02967
682.736	14.26879
682.925	16.56849
683.115	16.11157
683.304	15.86353
683.493	14.72461
683.682	15.10098
683.872	14.90779
684.061	16.85564
684.25	15.32615
684.439	17.92005
684.629	15.64764
684.818	21.77146
685.007	13.93166
685.196	13.62593
685.385	17.36125
685.574	15.23042
685.763	15.83385
685.952	14.93172
686.142	11.79973
686.331	17.80293
686.52	11.06069
686.709	17.85095
686.898	17.88489
687.087	15.85631
687.276	18.71474
687.465	16.80909
687.654	14.91556
687.842	18.22923
688.031	12.01716
688.22	17.41361
688.409	15.30898
688.598	15.4775
688.787	21.12597
688.976	15.10056
689.165	19.03188
689.353	13.86296
689.542	15.45615
689.731	16.43555
689.92	19.87072
690.108	17.55268
690.297	14.20182
690.486	15.18403
690.675	17.21794
690.863	19.59917
691.052	19.39815
691.241	16.4369
691.429	15.87786
691.618	19.44751
691.806	12.85843
691.995	14.62537
692.184	15.55206
692.372	14.56017
692.561	15.97052
692.749	15.51665
692.938	21.54596
693.126	17.05474
693.315	14.36599
693.503	17.20549
693.692	16.93228
693.88	18.77296
694.068	21.7073
694.257	15.48583
694.445	17.00163
694.634	10.77252
694.822	18.30574
695.01	19.4363
695.199	18.83516
695.387	20.01715
695.575	19.44824
695.763	15.79494
695.952	14.79605
696.14	12.05382
696.328	14.39711
696.516	15.55145
696.705	16.21741
696.893	16.20459
697.081	11.19754
697.269	16.9231
697.457	12.81034
697.645	12.37558
697.833	17.05767
698.021	13.09498
698.21	13.50943
698.398	14.625
698.586	12.31614
698.774	12.07793
698.962	14.09568
699.15	12.61054
699.338	11.44425
699.526	15.93036
699.714	13.62007
699.901	14.18232
700.089	17.6773
700.277	13.65576
700.465	15.11903
700.653	17.44972
700.841	17.16818
701.029	13.56154
701.217	18.80243
701.404	16.43467
701.592	20.33434
701.78	21.05063
701.968	15.10926
702.155	15.25417
702.343	13.02175
702.531	19.98565
702.718	17.4304
702.906	15.89246
703.094	14.95443
703.281	19.39393
703.469	16.49088
703.657	19.78181
703.844	25.87968
704.032	21.27856
704.219	15.12455
704.407	17.80918
704.595	20.44001
704.782	17.57891
704.97	16.17051
705.157	15.87342
705.345	21.97964
705.532	24.48388
705.719	18.25528
705.907	21.65663
706.094	17.74769
706.282	21.89599
706.469	16.25732
706.656	17.7923
706.844	16.24816
707.031	20.01263
707.218	17.66222
707.406	22.60552
707.593	19.45753
707.78	19.40184
707.968	16.96892
708.155	15.27592
708.342	18.91353
708.529	19.23274
708.716	17.64896
708.904	22.8938
709.091	20.08838
709.278	14.64238
709.465	24.37781
709.652	23.49986
709.839	22.23784
710.026	19.06986
710.213	13.30087
710.4	19.75567
710.587	20.96948
710.774	22.48228
710.961	21.57133
711.148	19.04453
711.335	21.75917
711.522	17.87478
711.709	19.33902
711.896	25.75385
712.083	21.78065
712.27	15.68533
712.457	19.32893
712.644	14.44844
712.831	25.04737
713.017	19.04933
713.204	20.91166
713.391	17.49603
713.578	23.12415
713.765	23.07806
713.951	20.52648
714.138	29.31514
714.325	21.28644
714.512	19.56996
714.698	16.42065
714.885	24.6379
715.072	20.14715
715.258	19.63975
715.445	17.19625
715.631	23.4984
715.818	11.20817
716.005	17.35067
716.191	21.26316
716.378	18.35141
716.564	23.13891
716.751	16.6908
716.937	17.54155
717.124	23.39177
717.31	17.16351
717.497	24.365
717.683	17.23726
717.869	28.5159
718.056	17.84638
718.242	21.54902
718.429	19.51573
718.615	15.82116
718.801	20.13179
718.988	23.6152
719.174	21.7136
719.36	20.12684
719.547	24.84649
719.733	20.63499
719.919	22.33682
720.105	23.59248
720.291	19.89517
720.478	20.96581
720.664	19.75322
720.85	18.8057
721.036	31.71139
721.222	25.55861
721.408	20.61065
721.595	28.27009
721.781	27.60152
721.967	24.46533
722.153	27.52185
722.339	24.06639
722.525	21.8763
722.711	17.10928
722.897	16.73055
723.083	19.23143
723.269	25.28791
723.455	31.30685
723.641	32.44387
723.827	21.93121
724.012	23.81092
724.198	20.272
724.384	27.07748
724.57	23.48125
724.756	16.12622
724.942	14.29699
725.127	24.94356
725.313	27.37016
725.499	27.45659
725.685	28.71171
725.87	23.13887
726.056	17.99081
726.242	27.5812
726.428	15.44137
726.613	25.91674
726.799	20.40282
726.985	18.06262
727.17	15.75459
727.356	27.37841
727.541	18.11977
727.727	21.16568
727.913	24.30079
728.098	19.60781
728.284	24.89891
728.469	17.10968
728.655	18.65327
728.84	24.53922
729.026	26.06489
729.211	25.8847
729.397	23.61198
729.582	24.77938
729.767	21.64798
729.953	22.93443
730.138	25.77843
730.323	13.48131
730.509	17.81706
730.694	29.6698
730.879	23.59924
731.065	22.81455
731.25	31.35604
731.435	24.7486
731.621	15.69442
731.806	19.28277
731.991	22.86435
732.176	16.01663
732.361	27.58992
732.547	22.92705
732.732	16.03419
732.917	32.29682
733.102	17.52319
733.287	18.85644
733.472	22.52097
733.657	21.99891
733.842	16.33458
734.027	21.20513
734.212	22.51049
734.397	19.41301
734.582	23.06832
734.767	26.59042
734.952	28.36738
735.137	11.98184
735.322	29.14565
735.507	24.11581
735.692	24.17452
735.877	32.55672
736.062	29.61312
736.247	24.63608
736.431	22.36306
736.616	28.08278
736.801	22.88594
736.986	22.83942
737.171	19.18965
737.355	18.36465
737.54	27.86498
737.725	22.78237
737.909	36.05701
738.094	20.60911
738.279	27.68422
738.463	21.50173
738.648	26.16068
738.833	24.78394
739.017	30.97651
739.202	20.79726
739.386	23.12383
739.571	16.20002
739.756	26.31066
739.94	23.79437
740.125	27.81196
740.309	19.33935
740.494	27.61379
740.678	23.76755
740.863	26.1552
741.047	24.64478
741.231	29.65363
741.416	19.44903
741.6	31.33984
741.785	20.30256
741.969	27.04961
742.153	29.39228
742.338	14.32729
742.522	23.60207
742.706	26.65512
742.89	18.24012
743.075	24.37122
743.259	31.24426
743.443	27.85598
743.627	30.52335
743.812	35.84881
743.996	16.17365
744.18	22.54379
744.364	21.62139
744.548	36.52015
744.732	22.17175
744.916	27.68091
745.1	26.60545
745.285	22.20422
745.469	26.36856
745.653	32.84674
745.837	16.95379
746.021	36.63948
746.205	30.39743
746.389	24.66084
746.573	22.92881
746.757	32.38429
746.94	22.30247
747.124	30.61004
747.308	18.65502
747.492	30.66148
747.676	19.8102
747.86	37.35636
748.044	21.47562
748.227	15.46437
748.411	43.69623
748.595	25.8562
748.779	19.39789
748.963	27.28868
749.146	25.58755
749.33	20.3789
749.514	18.52487
749.697	30.2561
749.881	22.20986
750.065	19.60364
750.248	25.17381
750.432	38.14926
750.616	24.57172
750.799	18.02846
750.983	35.47429
751.166	40.60696
751.35	17.55985
751.533	28.71194
751.717	30.91619
751.9	34.52948
752.084	23.45647
752.267	19.95265
752.451	21.15591
752.634	25.12682
752.818	29.05788
753.001	29.85405
753.184	30.54474
753.368	27.0398
753.551	8.90267
753.734	20.91672
753.918	36.30705
754.101	20.96487
754.284	29.42706
754.467	23.10174
754.651	21.20568
754.834	19.80629
755.017	31.79144
755.2	30.24269
755.384	19.27393
755.567	31.20364
755.75	31.51855
755.933	24.01873
756.116	26.43731
756.299	22.76432
756.482	20.27471
756.665	28.72098
756.848	24.21208
757.032	28.25243
757.215	17.36735
757.398	21.3165
757.581	21.08519
757.764	42.30626
757.947	24.41006
758.129	33.62484
758.312	11.50176
758.495	25.4076
758.678	26.00842
758.861	23.39078
759.044	36.12981
759.227	21.35059
759.41	21.12377
759.592	28.72607
759.775	24.26497
759.958	31.54539
760.141	19.02152
760.324	39.05213
760.506	34.15292
760.689	31.5335
760.872	40.34876
761.054	28.58553
761.237	23.68008
761.42	28.82844
761.602	30.43351
761.785	27.92618
761.968	31.70254
762.15	36.01741
762.333	24.46214
762.515	27.94719
762.698	22.3321
762.88	29.90591
763.063	26.68417
763.245	28.61554
763.428	19.91659
763.61	21.99975
763.793	17.96281
763.975	26.27963
764.158	22.59265
764.34	21.5964
764.522	19.90322
764.705	23.77692
764.887	31.69003
765.069	17.37139
765.252	29.03678
765.434	29.74166
765.616	25.719
765.799	21.91874
765.981	29.25427
766.163	20.10087
766.345	31.52339
766.528	22.08426
766.71	13.26117
766.892	26.67301
767.074	33.65103
767.256	23.94001
767.438	37.09226
767.62	28.23391
767.802	39.75298
767.985	30.59748
768.167	40.35464
768.349	23.83251
768.531	29.62829
768.713	28.05253
768.895	32.34766
769.077	29.22114
769.259	42.39069
769.441	61.21247
769.623	33.40486
769.804	38.81427
769.986	36.73878
770.168	44.44615
770.35	51.34074
770.532	37.92438
770.714	42.95035
770.896	43.16077
771.077	22.26813
771.259	45.53242
771.441	36.98551
771.623	48.77531
771.804	57.69442
771.986	19.85017
772.168	30.47639
772.35	44.8963
772.531	60.84947
772.713	35.22534
772.894	48.45739
773.076	34.4645
773.258	31.17721
773.439	45.55565
773.621	53.61288
773.802	27.21486
773.984	31.52433
774.166	38.83592
774.347	49.81778
774.529	46.24445
774.71	20.17219
774.891	35.37931
775.073	32.93944
775.254	51.43584
775.436	30.18592
775.617	55.54121
775.799	30.83595
775.98	50.78981
776.161	56.12166
776.343	53.38237
776.524	36.12527
776.705	33.73241
776.886	20.90855
777.068	37.76605
777.249	63.26258
777.43	57.32301
777.611	26.45991
777.793	33.7667
777.974	52.59564
778.155	32.01232
778.336	29.48445
778.517	59.85744
778.698	29.51469
778.879	19.79727
779.061	12.80123
779.242	39.88947
779.423	42.82021
779.604	32.53326
779.785	35.99457
779.966	37.62012
780.147	47.01568
780.328	49.18229
780.509	68.89619
780.69	44.46655
780.871	29.27264
781.051	23.6157
781.232	39.87126
781.413	37.60208
781.594	35.3412
781.775	33.88359
781.956	30.22288
782.137	19.07783
782.317	31.03506
782.498	41.16958
782.679	38.47987
782.86	38.02532
783.04	30.16715
783.221	40.30482
783.402	56.7893
783.583	39.41366
783.763	44.3158
783.944	31.76931
784.124	24.07493
784.305	53.11868
784.486	41.39493
784.666	36.7982
784.847	22.05497
785.027	63.70758
785.208	30.24521
785.388	30.92173
785.569	32.81172
785.749	34.28788
785.93	31.91869
786.11	23.75473
786.291	42.90915
786.471	37.2485
786.652	46.56479
786.832	35.44513
787.012	39.66542
787.193	26.7479
787.373	37.77767
787.553	34.22666
787.734	40.41171
787.914	33.1277
788.094	42.80618
788.275	41.41079
788.455	33.67234
788.635	24.96578
788.815	39.39044
788.995	26.68174
789.176	23.63296
789.356	29.90191
789.536	35.07459
789.716	43.66961
789.896	29.84993
790.076	32.41651
790.256	38.5561
790.436	16.84
790.616	28.20226
790.796	38.88216
790.976	31.964
791.156	29.4099
791.336	43.68549
791.516	40.8999
791.696	34.70201
791.876	22.89315
792.056	38.10475
792.236	46.32808
792.416	43.29871
792.596	40.7666
792.776	41.72807
792.956	41.43583
793.135	52.24125
793.315	28.02504
793.495	49.03759
793.675	43.21471
793.854	44.79264
794.034	46.42126
794.214	26.96739
794.394	44.36886
794.573	49.03888
794.753	37.4025
794.933	28.19626
795.112	39.78304
795.292	44.70849
795.472	57.25134
795.651	24.54772
795.831	36.06628
796.01	33.7106
796.19	35.27601
796.369	36.84096
796.549	42.91687
796.728	33.75424
796.908	23.79977
797.087	26.5821
797.267	33.41631
797.446	25.95675
797.626	43.61877
797.805	42.09121
797.984	29.24195
798.164	43.78777
798.343	27.83823
798.522	41.33275
798.702	37.29804
798.881	25.29676
799.06	35.39676
799.239	18.48145
799.419	27.96078
799.598	53.22671
799.777	40.92001
799.956	50.50186
800.136	33.29638
800.315	29.76931
800.494	40.55554
800.673	48.92469
800.852	43.93362
801.031	46.22084
801.21	43.06538
801.389	32.96653
801.568	38.08928
801.747	56.34829
801.926	37.81725
802.105	53.88529
802.284	31.41214
802.463	54.4314
802.642	40.90698
802.821	40.21476
803	51.16035
803.179	46.48681
803.358	51.81382
803.537	31.81951
803.716	36.85584
803.895	30.54672
804.073	36.35058
804.252	30.19755
804.431	41.18742
804.61	35.07903
804.789	49.47276
804.967	31.74172
805.146	31.0869
805.325	56.83876
805.503	44.05266
805.682	22.78411
805.861	65.49539
806.039	50.97827
806.218	32.48882
806.397	40.42696
806.575	37.35401
806.754	40.95942
806.932	28.78354
807.111	53.62796
807.289	45.94543
807.468	40.74339
807.646	49.98414
807.825	46.28095
808.003	39.7144
808.182	47.8722
808.36	40.16819
808.539	30.01324
808.717	53.78178
808.895	28.98343
809.074	42.33454
809.252	38.35581
809.43	44.9394
809.609	50.19051
809.787	57.49099
809.965	37.36998
810.144	39.26776
810.322	38.22519
810.5	44.72253
810.678	35.95632
810.856	64.85364
811.035	50.76875
811.213	47.32967
811.391	55.67581
811.569	41.94184
811.747	74.56857
811.925	53.37407
812.103	29.67573
812.281	37.27475
812.459	59.56052
812.637	63.28674
812.816	50.97685
812.994	63.08768
813.171	51.43705
813.349	45.72681
813.527	51.76229
813.705	58.38738
813.883	71.5763
814.061	54.47509
814.239	64.14467
814.417	68.00197
814.595	44.8142
814.773	45.63389
814.95	42.57564
815.128	45.12287
815.306	34.56681
815.484	38.59522
815.662	31.69851
815.839	28.81231
816.017	31.3841
816.195	57.41001
816.372	35.71834
816.55	47.02779
816.728	58.05811
816.905	37.37199
817.083	63.03769
817.261	40.50614
817.438	65.48408
817.616	62.93655
817.793	34.62552
817.971	52.27808
818.148	47.70017
818.326	58.05474
818.503	46.54731
818.681	56.32316
818.858	33.94055
819.036	39.04738
819.213	43.24748
819.391	32.43354
819.568	30.93411
819.745	30.6168
819.923	50.01685
820.1	35.81602
820.277	30.46013
820.455	35.26991
820.632	36.47168
820.809	36.70033
820.986	26.04173
821.164	22.20138
821.341	19.87095
821.518	25.79222
821.695	20.45089
821.872	19.94177
822.05	18.25798
822.227	15.26705
822.404	16.28798
822.581	18.52778
822.758	16.32487
822.935	16.45639
823.112	18.55159
823.289	15.92117
823.466	18.95066
823.643	17.84424
823.82	20.94838
823.997	19.55619
824.174	22.5576
824.351	27.00311
824.528	26.02127
824.705	24.35068
824.882	26.31302
825.059	32.57525
825.236	23.46754
825.412	24.98305
825.589	29.48791
825.766	38.07774
825.943	26.24883
826.12	30.43853
826.296	21.59134
826.473	25.5677
826.65	26.07684
826.827	31.1485
827.003	22.46257
827.18	24.44039
827.357	27.89924
827.533	25.1438
827.71	15.75391
827.887	22.17831
828.063	24.96591
828.24	23.18152
828.416	29.60264
828.593	24.44557
828.769	32.87394
828.946	36.55605
829.122	37.41449
829.299	33.99662
829.475	23.12933
829.652	34.11495
829.828	54.03684
830.005	34.33945
830.181	46.12966
830.357	34.70361
830.534	48.67547
830.71	37.33379
830.886	44.29644
831.063	46.53224
831.239	55.41575
831.415	28.09537
831.592	56.62202
831.768	36.37724
831.944	32.7537
832.12	55.03425
832.296	48.81058
832.473	45.76741
832.649	33.17765
832.825	42.97326
833.001	27.71091
833.177	40.30778
833.353	36.70179
833.529	23.05755
833.705	31.28181
833.881	25.36542
834.058	25.12254
834.234	26.48129
834.41	25.91492
834.586	21.72402
834.761	26.61911
834.937	28.00738
835.113	29.72739
835.289	26.82577
835.465	31.31245
835.641	27.56893
835.817	31.03166
835.993	51.01616
836.169	27.80912
836.344	39.57711
836.52	44.61029
836.696	41.37692
836.872	31.8965
837.048	76.87956
837.223	35.30406
837.399	66.41721
837.575	52.74235
837.75	50.05345
837.926	64.90392
838.102	101.96396
838.277	80.59829
838.453	96.31627
838.628	96.61943
838.804	45.01922
838.98	91.79572
839.155	47.0297
839.331	66.58136
839.506	47.64739
839.682	46.4116
839.857	57.29977
840.033	66.19279
840.208	38.38974
840.384	22.22882
840.559	37.86268
840.734	54.47116
840.91	76.70964
841.085	48.12098
841.26	47.10356
841.436	43.83468
841.611	43.70064
841.786	65.89593
841.962	79.05691
842.137	55.168
842.312	35.37511
842.487	47.94025
842.663	38.35044
842.838	45.41595
843.013	140.08569
843.188	72.61468
843.363	59.33132
843.538	119.94418
843.714	114.59482
843.889	124.53132
844.064	119.92914
844.239	105.21312
844.414	134.6107
844.589	83.72695
844.764	140.2382
844.939	141.18907
845.114	163.99389
845.289	163.14826
845.464	178.43141
845.639	135.61743
845.814	76.52379
845.989	90.5922
846.163	98.20538
846.338	116.21147
846.513	153.88982
846.688	104.0837
846.863	106.18497
847.038	94.10131
847.212	106.64852
847.387	106.47998
847.562	117.06179
847.737	140.76077
847.911	58.95804
848.086	74.8561
848.261	218.00071
848.435	96.43301
848.61	142.40389
848.785	74.18279
848.959	137.61183
849.134	183.45225
849.308	218.63528
849.483	112.95378
849.658	166.46229
849.832	96.28163
850.007	85.52427
850.181	223.88667
850.356	83.45944
850.53	198.59121
850.705	68.41526
850.879	51.20588
851.053	99.47368
851.228	96.93113
851.402	128.6715
851.577	167.12375
851.751	167.13282
851.925	112.68047
852.099	54.94018
852.274	85.62704
852.448	103.12051
852.622	141.13077
852.797	109.69347
852.971	106.70412
853.145	114.57184
853.319	245.58109
853.493	174.8389
853.668	91.47453
853.842	204.54035
854.016	162.33709
854.19	192.59973
854.364	118.98359
854.538	129.5366
854.712	161.20882
854.886	116.60602
855.06	97.55299
855.234	45.88086
855.408	182.72016
855.582	158.75
855.756	167.68433
855.93	197.96697
856.104	122.9327
856.278	156.45955
856.452	104.19784
856.626	136.35772
856.8	223.82053
856.973	135.32514
857.147	125.38508
857.321	137.80452
857.495	159.02749
857.669	116.20611
857.842	99.27573
858.016	161.93468
858.19	79.10628
858.364	296.66256
858.537	104.13937
858.711	123.82373
858.885	106.30353
859.058	91.2653
859.232	54.04439
859.405	65.1936
859.579	156.87083
859.753	132.75387
859.926	80.47417
860.1	57.99824
860.273	107.65994
860.447	181.5886
860.62	110.16824
860.794	212.44261
860.967	133.32553
861.141	179.96212
861.314	246.42229
861.487	128.13234
861.661	173.92824
861.834	199.47635
862.008	159.58946
862.181	113.41527
862.354	117.18439
862.528	144.52474
862.701	96.7264
862.874	65.12983
863.047	103.8798
863.221	96.36509
863.394	55.46334
863.567	175.34424
863.74	47.28818
863.913	164.98622
864.087	138.28456
864.26	150.71101
864.433	108.23347
864.606	216.65192
864.779	110.84915
864.952	57.29775
865.125	96.66487
865.298	116.82581
865.471	117.24408
865.644	192.12139
865.817	162.10731
865.99	156.60598
866.163	198.3336
866.336	97.4221
866.509	111.8691
866.682	95.55385
866.855	172.05591
867.028	71.02125
867.2	135.3784
867.373	49.6845
867.546	121.06461
867.719	205.39099
867.892	129.35266
868.064	81.30707
868.237	132.20455
868.41	116.93628
868.583	80.91869
868.755	71.26966
868.928	104.8414
869.101	238.26087
869.273	162.11778
869.446	130.46901
869.619	176.59889
869.791	109.07104
869.964	163.79078
870.136	149.84859
870.309	126.53138
870.481	119.97239
870.654	63.11599
870.826	133.74266
870.999	95.49682
871.171	134.81775
871.344	87.06941
871.516	113.89502
871.689	78.37157
871.861	114.61135
872.033	79.36188
872.206	98.6951
872.378	162.40567
872.55	101.08468
872.723	64.78358
872.895	99.69206
873.067	163.23035
873.24	162.65033
873.412	91.5313
873.584	103.56244
873.756	93.04715
873.928	121.28825
874.101	125.35637
874.273	135.03293
874.445	52.14091
874.617	71.4394
874.789	122.08558
874.961	96.9224
875.133	134.02989
875.305	108.66904
875.477	79.41862
875.649	64.44902
875.821	81.94929
875.993	166.21561
876.165	71.44071
876.337	121.11936
876.509	111.06235
876.681	115.13355
876.853	119.29924
877.025	115.12499
877.197	80.5258
877.369	74.20799
877.541	136.67016
877.712	42.91727
877.884	65.0489
878.056	118.2215
878.228	64.09078
878.4	125.40035
878.571	69.04406
878.743	51.27008
878.915	99.09584
879.086	65.09328
879.258	79.59541
879.43	66.9718
879.601	60.20006
879.773	66.76389
879.945	20.81759
880.116	30.41192
880.288	20.9114
880.459	23.22201
880.631	19.58425
880.802	22.49738
880.974	21.66824
881.145	16.62805
881.317	21.36108
881.488	16.92008
881.66	19.00508
881.831	17.63119
882.002	22.55189
882.174	18.07799
882.345	22.02304
882.517	14.40858
882.688	26.00547
882.859	21.87721
883.03	31.51984
883.202	31.3848
883.373	27.56409
883.544	27.03368
883.715	40.37461
883.887	35.72816
884.058	30.22154
884.229	42.73965
884.4	42.4759
884.571	48.39688
884.742	40.65542
884.914	43.49538
885.085	60.44581
885.256	78.59688
885.427	64.09921
885.598	75.3364
885.769	73.41693
885.94	77.3095
886.111	53.44703
886.282	90.59572
886.453	70.21041
886.624	57.31616
886.795	89.44892
886.966	75.80879
887.136	99.21469
887.307	65.79339
887.478	129.52572
887.649	100.9396
887.82	112.73882
887.991	95.53111
888.161	125.62882
888.332	115.06723
888.503	63.46324
888.674	159.83861
888.844	180.97206
889.015	135.89861
889.186	64.10788
889.356	171.7569
889.527	65.52083
889.698	229.3887
889.868	84.07303
890.039	125.03755
890.209	102.76996
890.38	134.77078
890.551	117.66495
890.721	172.35228
890.892	134.80553
891.062	99.4906
891.233	125.47509
891.403	95.77841
891.574	80.13054
891.744	100.53806
891.914	116.74458
892.085	102.86717
892.255	42.12911
892.425	152.95813
892.596	117.89978
892.766	121.65617
892.936	157.03051
893.107	133.19789
893.277	74.26492
893.447	59.95916
893.618	40.03276
893.788	81.96061
893.958	48.91897
894.128	45.00664
894.298	53.44911
894.468	68.61302
894.639	36.18856
894.809	25.98767
894.979	39.49964
895.149	45.77975
895.319	39.07827
895.489	52.60865
895.659	65.03317
895.829	44.58834
895.999	49.31412
896.169	38.09103
896.339	45.74218
896.509	86.77231
896.679	98.70412
896.849	100.86845
897.019	131.71555
897.189	101.83951
897.358	92.65294
897.528	137.00458
897.698	45.67086
897.868	119.59406
898.038	203.5217
898.208	209.98064
898.377	60.68984
898.547	201.72428
898.717	250.19085
898.886	117.90873
899.056	210.89218
899.226	273.88181
899.395	167.25905
899.565	240.45436
899.735	158.84404
899.904	247.41479
900.074	215.32026
900.244	89.60636
900.413	350.45928
900.583	83.62753
900.752	147.16226
900.922	269.2086
901.091	26.5474
901.261	198.17348
901.43	196.5854
901.599	176.71318
901.769	439.3428
901.938	245.32602
902.108	203.65203
902.277	284.65286
902.446	82.79101
902.616	87.98643
902.785	111.96823
902.954	194.04386
903.124	123.14428
903.293	92.89873
903.462	56.67866
903.631	78.06441
903.801	62.1661
903.97	36.56669
904.139	53.34612
904.308	43.80772
904.477	37.49233
904.646	23.99924
904.816	30.30709
904.985	51.50649
905.154	75.0193
