Data from WindowProjectSample3_Transmission__15__00015.txt Node

Date: Sun May 04 09:56:53 EDT 2025
User: jessi
Spectrometer: SR400872
Trigger mode: 0
Integration Time (sec): 5.000070E-1
Scans to average: 10
Electric dark correction enabled: true
Nonlinearity correction enabled: true
Boxcar width: 0
XAxis mode: Wavelengths
Number of Pixels in Spectrum: 3648
>>>>>Begin Spectral Data<<<<<
184.909	-5718.1546
185.132	11146.94704
185.355	-8439.16692
185.578	-55252.14366
185.801	4742.83713
186.024	-133885.66154
186.247	-688.23676
186.47	1514.34471
186.693	827.41023
186.916	-658.45011
187.139	-2638936.14799
187.362	-2670.88437
187.585	8352.73572
187.808	2006.19269
188.031	-59.67649
188.254	4871.11982
188.476	-1946.94084
188.699	2476.16496
188.922	426.44282
189.145	-6153.78809
189.368	-4170.12906
189.591	1748.59782
189.813	-145277.03146
190.036	9524.00184
190.259	1524.31346
190.482	5621.53424
190.705	16285.86759
190.927	17219.42057
191.15	-4015.73282
191.373	2073.13665
191.595	1513.88356
191.818	17103.86652
192.041	1085.178
192.263	-8289.63265
192.486	-1926.32135
192.709	2793.7106
192.931	-3447.64517
193.154	13433.56059
193.377	2691.94741
193.599	26691.93588
193.822	2126.79084
194.044	2123.29554
194.267	1031.94421
194.489	-202.17804
194.712	3689.59527
194.934	34132.43177
195.157	-639.27239
195.379	10721.66451
195.602	1881.08733
195.824	4669.64106
196.047	6578.96798
196.269	14666.16865
196.492	-11787.27866
196.714	3856.76091
196.936	6994.03662
197.159	10467.71083
197.381	4363.74212
197.604	2026833.49445
197.826	1981.52144
198.048	2029.42851
198.271	9836.259
198.493	1988.42063
198.715	2692.1608
198.938	8138.33398
199.16	3670.47317
199.382	9941.73851
199.604	9711.25332
199.827	1723.65197
200.049	3181.18595
200.271	20793.94889
200.493	1910.48861
200.715	7426.06749
200.938	7997.08494
201.16	-3761.14501
201.382	32624.91015
201.604	4123.69254
201.826	8209.60719
202.048	4332.19839
202.27	2002.8406
202.492	5944.86851
202.715	19407.07691
202.937	4128.82569
203.159	1591.15909
203.381	2151.69362
203.603	2767.74517
203.825	-1672.71489
204.047	-22668.85029
204.269	3599.73827
204.491	7294.325
204.713	-1775423.40208
204.935	2335.09692
205.156	4102.50703
205.378	1501.12087
205.6	40773.08629
205.822	4912.34235
206.044	3452.00684
206.266	6200.21098
206.488	1568.72028
206.71	9411.61869
206.932	1373.3727
207.153	29917.09981
207.375	15656.65843
207.597	12417.52974
207.819	39218.51588
208.041	-45677.5433
208.262	1133.35008
208.484	14109.88378
208.706	3754.85451
208.927	2323.39262
209.149	942.06402
209.371	3639.54042
209.593	1356.00139
209.814	9975.65648
210.036	-495455.22182
210.258	1670.07121
210.479	2221.37606
210.701	3544.39199
210.922	-5634.5848
211.144	-3195.0646
211.366	4935.75287
211.587	2629.94855
211.809	5908.72288
212.03	-66897.87708
212.252	508.63354
212.473	917.72136
212.695	708.72417
212.916	1272.03809
213.138	653.04611
213.359	5108.14242
213.581	2898.65612
213.802	875.72322
214.024	7544.90839
214.245	-13579.03562
214.466	417.42047
214.688	3758.36273
214.909	10314.32805
215.131	4292.94045
215.352	2793.57141
215.573	11774.50237
215.795	2199.65249
216.016	1939.17253
216.237	-730994.39657
216.459	2002.7122
216.68	5598.47788
216.901	3083.86726
217.122	770.96234
217.344	3007.13833
217.565	7253.5356
217.786	3701.80228
218.007	964.65737
218.228	2207.65429
218.45	-16460.73945
218.671	44937.6689
218.892	21192.95406
219.113	1627.81711
219.334	5593.90211
219.555	-7627.83377
219.776	1849.66831
219.997	4121.27981
220.219	1216.89683
220.44	1519.7705
220.661	1574.6165
220.882	5736.81296
221.103	1402.61863
221.324	7982.57234
221.545	3153.86719
221.766	3113.91819
221.987	1250.06659
222.208	991.36323
222.429	2270.38365
222.65	200.721
222.87	820.03748
223.091	1683.09725
223.312	1100.90839
223.533	2083.71373
223.754	1563.97558
223.975	1762.80051
224.196	1030.26307
224.417	5576.07568
224.637	634.75642
224.858	111.18089
225.079	1234.38378
225.3	630.09963
225.521	2266.79936
225.741	644.43552
225.962	641.35741
226.183	193.34422
226.404	1014.7871
226.624	569.18047
226.845	629.83282
227.066	450.15478
227.286	324.87002
227.507	180.3239
227.728	151.21558
227.948	273.38882
228.169	99.21373
228.389	104.41112
228.61	60.59894
228.831	84.4869
229.051	6.8649
229.272	50.84326
229.492	72.64578
229.713	22.07536
229.933	53.40896
230.154	45.0423
230.374	75.35239
230.595	57.86122
230.815	32.86637
231.036	60.49763
231.256	-7.85162
231.477	96.28513
231.697	52.02523
231.917	58.60312
232.138	85.69871
232.358	158.3392
232.579	151.22376
232.799	29.4017
233.019	132.06644
233.24	160.44439
233.46	56.28673
233.68	88.46892
233.901	59.02135
234.121	43.08734
234.341	16.37099
234.561	-1.35393
234.782	36.70776
235.002	99.68095
235.222	-0.29332
235.442	89.26184
235.662	46.05686
235.883	86.69718
236.103	78.27142
236.323	59.04642
236.543	41.2288
236.763	61.23701
236.983	64.29093
237.203	63.68329
237.423	84.06508
237.643	124.01415
237.864	112.37553
238.084	30.91777
238.304	41.07273
238.524	68.72016
238.744	58.20877
238.964	100.83764
239.184	90.76509
239.404	91.60794
239.624	50.78469
239.843	85.40947
240.063	50.58177
240.283	31.56322
240.503	37.81328
240.723	35.84503
240.943	20.85817
241.163	28.75123
241.383	21.45077
241.603	10.99456
241.822	14.08495
242.042	9.40664
242.262	11.70124
242.482	13.25888
242.702	15.32106
242.921	5.23541
243.141	11.29785
243.361	10.22893
243.581	14.317
243.8	12.19506
244.02	8.83119
244.24	15.19845
244.459	15.17102
244.679	28.78176
244.899	18.43103
245.118	21.63607
245.338	19.67333
245.558	21.59028
245.777	12.3765
245.997	14.1621
246.216	14.71078
246.436	9.0735
246.655	6.1868
246.875	4.43975
247.094	8.44486
247.314	3.32674
247.533	5.51162
247.753	6.36774
247.972	5.56835
248.192	1.77401
248.411	3.28657
248.631	5.70115
248.85	7.21954
249.07	6.11063
249.289	9.74117
249.508	7.44201
249.728	11.82262
249.947	12.00276
250.166	12.757
250.386	7.84734
250.605	10.26841
250.824	17.63562
251.044	13.18544
251.263	36.03314
251.482	20.48468
251.701	16.46876
251.921	0.26261
252.14	6.10389
252.359	6.08695
252.578	14.66745
252.798	5.45012
253.017	13.97873
253.236	7.73606
253.455	9.28619
253.674	18.09301
253.893	8.48122
254.112	12.94115
254.331	17.85862
254.551	16.21283
254.77	7.17656
254.989	20.87019
255.208	18.53314
255.427	23.62048
255.646	20.53145
255.865	31.07271
256.084	14.17055
256.303	15.47497
256.522	21.20324
256.741	4.90824
256.96	3.88052
257.179	12.36662
257.397	16.36892
257.616	9.52365
257.835	8.73978
258.054	22.49571
258.273	15.24699
258.492	16.57438
258.711	9.57498
258.93	4.54295
259.148	6.23671
259.367	5.93725
259.586	8.00475
259.805	3.66356
260.023	6.98779
260.242	5.47386
260.461	3.96485
260.68	2.19924
260.898	6.63259
261.117	2.1638
261.336	1.4442
261.554	5.82777
261.773	5.81026
261.992	1.34478
262.21	5.6667
262.429	6.49407
262.648	10.7416
262.866	12.57107
263.085	8.53757
263.303	7.43832
263.522	13.00467
263.74	13.51956
263.959	22.67182
264.178	11.52884
264.396	10.16658
264.615	7.91387
264.833	17.44127
265.051	14.7909
265.27	15.87344
265.488	16.84418
265.707	9.03308
265.925	15.78604
266.144	7.86393
266.362	9.01649
266.58	8.87552
266.799	7.22424
267.017	8.78097
267.235	7.71423
267.454	5.2262
267.672	3.07127
267.89	7.35148
268.109	7.22749
268.327	6.79802
268.545	1.85235
268.763	6.14054
268.982	3.1181
269.2	7.44736
269.418	4.65893
269.636	3.64811
269.854	7.39328
270.073	5.5413
270.291	2.70038
270.509	3.06505
270.727	6.76941
270.945	10.93458
271.163	10.80998
271.381	2.75779
271.599	4.58193
271.817	7.75361
272.036	2.88572
272.254	4.55607
272.472	3.6769
272.69	4.00632
272.908	3.98349
273.126	6.47263
273.344	8.15184
273.562	3.02246
273.779	3.92303
273.997	5.99916
274.215	6.43902
274.433	4.81918
274.651	7.08091
274.869	7.22193
275.087	4.44589
275.305	6.39305
275.523	3.84355
275.74	4.83069
275.958	8.20208
276.176	12.25819
276.394	3.81786
276.612	5.06962
276.829	5.48164
277.047	4.57163
277.265	4.74606
277.483	5.88327
277.7	6.35565
277.918	5.39985
278.136	9.34839
278.353	4.40596
278.571	2.62036
278.789	7.31731
279.006	2.05763
279.224	3.93635
279.442	7.22351
279.659	5.2255
279.877	3.82788
280.094	8.47395
280.312	1.8867
280.529	5.20119
280.747	1.97641
280.964	4.16609
281.182	8.63034
281.399	4.48316
281.617	5.56858
281.834	3.83355
282.052	3.00916
282.269	4.77337
282.487	4.05079
282.704	3.47702
282.921	3.57319
283.139	5.05953
283.356	6.48394
283.574	5.64769
283.791	3.10786
284.008	7.91284
284.226	4.5343
284.443	5.25641
284.66	6.38387
284.877	5.10343
285.095	3.06522
285.312	2.58636
285.529	1.56096
285.746	1.39251
285.964	3.38357
286.181	2.15304
286.398	3.04238
286.615	4.18648
286.832	3.89603
287.05	0.99406
287.267	2.98944
287.484	2.98808
287.701	4.2615
287.918	3.9968
288.135	4.22689
288.352	2.03183
288.569	2.22451
288.786	3.68248
289.003	3.04348
289.22	4.37037
289.437	2.60096
289.654	4.37276
289.871	4.47709
290.088	4.38006
290.305	3.4182
290.522	2.77502
290.739	3.20137
290.956	4.58753
291.173	5.60015
291.39	5.49735
291.607	3.74354
291.824	2.91871
292.04	2.0262
292.257	4.50549
292.474	4.75919
292.691	3.29999
292.908	1.80235
293.125	2.63126
293.341	1.84766
293.558	7.64539
293.775	3.25393
293.992	3.1649
294.208	1.38897
294.425	2.19192
294.642	2.8258
294.858	4.38744
295.075	1.22834
295.292	3.02525
295.508	3.82565
295.725	5.55854
295.942	2.60933
296.158	1.87707
296.375	3.09816
296.591	2.36882
296.808	2.32206
297.024	2.8196
297.241	3.23306
297.458	3.47661
297.674	0.29838
297.891	2.85456
298.107	2.26999
298.323	1.70439
298.54	4.13839
298.756	2.10782
298.973	0.94917
299.189	4.52159
299.406	1.80905
299.622	4.52009
299.838	4.43292
300.055	3.98562
300.271	1.0814
300.487	1.72771
300.704	1.71967
300.92	1.04565
301.136	5.74149
301.353	4.52705
301.569	3.29423
301.785	3.54672
302.001	4.14067
302.218	3.81212
302.434	3.62413
302.65	1.17754
302.866	2.38297
303.083	5.92909
303.299	5.65754
303.515	2.84305
303.731	3.24512
303.947	1.08027
304.163	2.01063
304.379	3.25734
304.595	3.79695
304.812	2.14605
305.028	1.8893
305.244	2.50909
305.46	4.32503
305.676	3.85941
305.892	4.88505
306.108	3.2544
306.324	2.6773
306.54	5.69976
306.756	3.83001
306.972	3.65679
307.187	2.48102
307.403	5.3224
307.619	2.52574
307.835	4.72406
308.051	4.9699
308.267	1.45284
308.483	4.32715
308.699	3.56557
308.914	3.23182
309.13	2.98303
309.346	0.84965
309.562	1.63798
309.778	0.91676
309.993	3.64474
310.209	2.61452
310.425	1.39623
310.641	2.39892
310.856	1.36534
311.072	1.54297
311.288	2.79929
311.503	2.91955
311.719	0.81592
311.935	0.35063
312.15	3.26702
312.366	2.8147
312.581	3.37537
312.797	2.81185
313.013	3.84727
313.228	2.24435
313.444	3.00579
313.659	2.00609
313.875	3.55757
314.09	2.7932
314.306	5.01441
314.521	4.18328
314.737	3.76679
314.952	3.11823
315.168	2.97676
315.383	3.78164
315.599	2.67862
315.814	2.58607
316.029	3.96294
316.245	1.13713
316.46	0.96578
316.675	4.87028
316.891	5.62481
317.106	6.82228
317.321	3.86519
317.537	3.80722
317.752	3.82057
317.967	4.10149
318.183	2.14332
318.398	2.52781
318.613	4.2317
318.828	4.84335
319.043	4.3461
319.259	2.75138
319.474	3.40598
319.689	4.76231
319.904	0.69918
320.119	4.07827
320.334	3.6833
320.549	2.8084
320.765	4.60597
320.98	3.338
321.195	4.28157
321.41	2.76065
321.625	4.42567
321.84	5.57531
322.055	5.60919
322.27	2.31129
322.485	1.87467
322.7	3.3381
322.915	4.69644
323.13	1.91067
323.345	5.0362
323.56	3.43764
323.775	3.92222
323.989	3.81039
324.204	3.39992
324.419	4.28668
324.634	1.24281
324.849	2.74079
325.064	5.93572
325.279	4.36278
325.493	3.99835
325.708	4.43229
325.923	2.08874
326.138	1.95262
326.352	5.24431
326.567	4.45667
326.782	2.51585
326.997	2.12183
327.211	4.07807
327.426	3.69458
327.641	2.59309
327.855	0.94618
328.07	3.73443
328.285	5.39293
328.499	2.70407
328.714	3.63431
328.928	4.42284
329.143	3.27911
329.358	4.41548
329.572	4.89096
329.787	4.76774
330.001	6.60544
330.216	1.50757
330.43	5.35549
330.645	5.53189
330.859	4.28563
331.074	2.20627
331.288	3.55596
331.503	4.76859
331.717	1.77029
331.931	3.1316
332.146	3.3058
332.36	5.66375
332.575	3.98141
332.789	3.70822
333.003	2.77862
333.218	3.99924
333.432	2.22564
333.646	4.08315
333.86	5.1388
334.075	5.66275
334.289	2.36452
334.503	1.92512
334.717	3.8371
334.932	3.42362
335.146	4.87887
335.36	2.82059
335.574	4.45302
335.788	4.36609
336.003	5.3776
336.217	4.25362
336.431	4.29286
336.645	2.64514
336.859	1.67624
337.073	2.77826
337.287	3.42796
337.501	1.86677
337.715	3.35769
337.929	3.88959
338.143	1.58272
338.357	3.0125
338.571	1.78421
338.785	3.53062
338.999	2.61564
339.213	2.52387
339.427	1.48465
339.641	4.74869
339.855	2.90164
340.069	2.43972
340.283	4.70328
340.497	5.55882
340.711	3.73477
340.924	2.56623
341.138	1.76353
341.352	1.28329
341.566	3.28624
341.78	0.94939
341.993	2.48493
342.207	1.46138
342.421	3.24286
342.635	2.71974
342.848	2.34858
343.062	0.4174
343.276	2.17253
343.49	5.78898
343.703	2.12427
343.917	4.00627
344.131	4.15799
344.344	2.15174
344.558	2.33009
344.771	2.02545
344.985	4.7707
345.199	4.94884
345.412	3.28215
345.626	3.28768
345.839	0.88792
346.053	1.59712
346.266	1.80703
346.48	4.00705
346.693	3.34377
346.907	3.64174
347.12	1.85576
347.334	3.44019
347.547	3.36566
347.76	2.52444
347.974	4.36897
348.187	3.41545
348.401	2.66034
348.614	2.19267
348.827	2.39446
349.041	3.66862
349.254	0.91159
349.467	2.58016
349.681	1.3496
349.894	2.20691
350.107	4.40336
350.32	4.74653
350.534	0.90013
350.747	2.3897
350.96	1.90966
351.173	2.07916
351.386	2.4279
351.6	2.51473
351.813	2.13901
352.026	2.93673
352.239	0.96975
352.452	2.5506
352.665	3.70655
352.878	2.39119
353.092	5.2583
353.305	3.57013
353.518	2.90091
353.731	1.78777
353.944	3.96356
354.157	2.05238
354.37	1.64238
354.583	1.52618
354.796	0.93323
355.009	4.14518
355.222	2.73247
355.435	2.82315
355.647	3.89076
355.86	1.43371
356.073	2.56594
356.286	2.16
356.499	3.45624
356.712	2.92245
356.925	3.16917
357.138	3.87174
357.35	1.54372
357.563	2.32146
357.776	2.60627
357.989	1.93678
358.201	3.18356
358.414	2.78389
358.627	3.98974
358.84	2.33714
359.052	1.23488
359.265	1.32293
359.478	3.75342
359.69	-0.41279
359.903	3.09499
360.116	3.25097
360.328	0.6306
360.541	3.22597
360.753	1.32969
360.966	1.59995
361.179	1.84983
361.391	1.63262
361.604	1.11743
361.816	1.71617
362.029	1.53461
362.241	1.3565
362.454	1.55253
362.666	1.30393
362.879	2.237
363.091	2.06571
363.304	1.32105
363.516	2.33724
363.728	0.9407
363.941	2.96101
364.153	1.46843
364.366	-0.13824
364.578	1.11228
364.79	2.78429
365.003	2.10126
365.215	1.95579
365.427	2.58768
365.639	3.65533
365.852	2.53217
366.064	4.41162
366.276	1.69531
366.488	2.82246
366.701	1.7971
366.913	2.19674
367.125	2.00935
367.337	1.75535
367.549	1.85245
367.762	2.48938
367.974	2.44077
368.186	1.36178
368.398	3.4812
368.61	2.91088
368.822	2.99081
369.034	2.2613
369.246	3.08043
369.458	4.90365
369.67	1.31852
369.882	4.36491
370.094	0.23687
370.306	4.09175
370.518	1.85434
370.73	1.49091
370.942	1.41222
371.154	1.74035
371.366	1.56676
371.578	2.52729
371.79	1.26211
372.002	3.5617
372.214	4.01529
372.425	2.40457
372.637	3.60699
372.849	2.5156
373.061	0.13645
373.273	2.61284
373.484	2.7175
373.696	3.13256
373.908	-0.09798
374.12	3.18957
374.331	2.74665
374.543	1.33445
374.755	1.23291
374.967	2.33897
375.178	3.06158
375.39	1.9229
375.602	2.38584
375.813	0.74257
376.025	0.89978
376.236	2.02586
376.448	2.37133
376.66	1.46426
376.871	1.48785
377.083	3.12523
377.294	3.22424
377.506	1.60452
377.717	3.49011
377.929	2.34173
378.14	1.01928
378.352	2.67584
378.563	2.50115
378.775	3.45684
378.986	1.40448
379.197	2.0943
379.409	1.69432
379.62	3.11954
379.832	2.39928
380.043	1.81513
380.254	2.24322
380.466	0.96531
380.677	5.03056
380.888	4.5549
381.1	4.83093
381.311	4.32005
381.522	1.99195
381.733	5.33622
381.945	1.73152
382.156	2.52972
382.367	1.5529
382.578	5.0433
382.789	4.9845
383.001	1.69739
383.212	3.36223
383.423	3.75587
383.634	3.3331
383.845	2.46877
384.056	1.69051
384.267	2.05745
384.478	1.76518
384.69	0.88956
384.901	2.71631
385.112	2.49015
385.323	3.64527
385.534	2.51707
385.745	2.27964
385.956	2.63215
386.167	0.9756
386.378	2.56206
386.588	0.82761
386.799	1.23157
387.01	0.2091
387.221	2.94011
387.432	1.8758
387.643	4.16273
387.854	1.94555
388.065	1.66959
388.275	1.76525
388.486	1.7598
388.697	1.9961
388.908	1.86619
389.119	3.31969
389.329	3.88276
389.54	2.1959
389.751	2.19794
389.962	3.38147
390.172	2.45172
390.383	1.43914
390.594	1.33057
390.804	1.38412
391.015	1.35383
391.226	2.03099
391.436	2.47064
391.647	2.35578
391.858	2.71308
392.068	0.46018
392.279	0.79544
392.489	1.99704
392.7	3.05078
392.91	0.78743
393.121	1.18489
393.331	2.4146
393.542	3.19743
393.752	2.38867
393.963	2.02667
394.173	2.07207
394.384	2.56105
394.594	2.00053
394.804	0.80536
395.015	2.14828
395.225	2.60694
395.436	0.76492
395.646	2.67757
395.856	1.06351
396.067	0.69804
396.277	3.03006
396.487	2.35001
396.697	2.01032
396.908	2.86644
397.118	2.65421
397.328	2.26899
397.538	3.01362
397.749	1.15701
397.959	3.07912
398.169	2.924
398.379	0.87153
398.589	2.88804
398.8	2.00927
399.01	1.89665
399.22	1.82862
399.43	4.56813
399.64	1.60232
399.85	2.7945
400.06	1.8605
400.27	1.28829
400.48	2.10869
400.69	3.53024
400.9	1.64283
401.11	1.50142
401.32	3.12148
401.53	1.56466
401.74	3.74243
401.95	2.96005
402.16	1.07957
402.37	2.45821
402.58	1.48232
402.79	2.67399
403	3.04456
403.209	1.54932
403.419	2.84769
403.629	1.60706
403.839	2.78662
404.049	3.00466
404.258	1.2054
404.468	1.1617
404.678	2.61779
404.888	2.67099
405.097	1.18139
405.307	2.00194
405.517	2.58745
405.727	2.2389
405.936	1.54217
406.146	2.34809
406.356	3.41577
406.565	2.08063
406.775	1.49565
406.984	1.59003
407.194	3.75431
407.404	2.26093
407.613	2.51991
407.823	2.90995
408.032	3.28071
408.242	3.38593
408.451	1.78253
408.661	2.03813
408.87	3.8366
409.08	1.71007
409.289	2.44954
409.499	2.38476
409.708	2.28298
409.918	0.24823
410.127	2.20936
410.336	3.79451
410.546	2.92609
410.755	1.83265
410.964	1.84914
411.174	1.4825
411.383	2.75914
411.592	2.81732
411.802	1.4294
412.011	3.33427
412.22	2.3614
412.429	3.82928
412.639	3.49414
412.848	3.56381
413.057	4.0177
413.266	3.46659
413.475	2.30483
413.685	3.07312
413.894	3.12527
414.103	3.56951
414.312	3.13981
414.521	2.37911
414.73	2.49616
414.939	4.29546
415.148	2.91811
415.357	2.68372
415.566	1.90698
415.776	1.93526
415.985	1.81299
416.194	3.06775
416.403	3.82884
416.611	1.14076
416.82	1.60512
417.029	2.27895
417.238	1.48173
417.447	1.36093
417.656	1.66886
417.865	1.37036
418.074	1.66229
418.283	1.90263
418.492	2.65983
418.7	2.51559
418.909	3.16276
419.118	2.00781
419.327	2.26189
419.536	1.98245
419.744	1.37566
419.953	2.68187
420.162	2.54511
420.371	1.34859
420.579	1.20227
420.788	2.36858
420.997	2.41538
421.205	2.39967
421.414	2.03993
421.623	2.05939
421.831	1.59959
422.04	2.5704
422.249	1.39923
422.457	2.28667
422.666	1.62646
422.874	2.74543
423.083	2.68036
423.291	2.55441
423.5	2.06652
423.708	2.40301
423.917	2.79787
424.125	2.21526
424.334	1.85446
424.542	3.89274
424.751	2.96157
424.959	2.81303
425.167	3.18456
425.376	3.12851
425.584	2.29922
425.793	2.76282
426.001	1.63819
426.209	3.0373
426.418	1.95294
426.626	2.2001
426.834	1.90075
427.042	2.59182
427.251	2.02957
427.459	3.33632
427.667	2.81089
427.875	1.58734
428.084	2.26219
428.292	3.60143
428.5	3.06526
428.708	1.89284
428.916	1.87413
429.124	2.82396
429.333	2.41559
429.541	2.37637
429.749	2.56884
429.957	2.63794
430.165	4.61907
430.373	1.56499
430.581	2.73125
430.789	3.82622
430.997	2.23696
431.205	2.08829
431.413	2.72264
431.621	2.31171
431.829	3.1369
432.037	2.22673
432.245	3.04955
432.453	2.72158
432.661	2.31348
432.869	4.19899
433.076	1.72336
433.284	2.3009
433.492	2.99335
433.7	3.55469
433.908	2.12848
434.116	2.59756
434.323	2.66614
434.531	2.58112
434.739	3.10197
434.947	3.44552
435.154	3.12395
435.362	2.96324
435.57	2.41804
435.778	2.27331
435.985	3.22755
436.193	2.31588
436.401	3.75273
436.608	2.91142
436.816	2.3826
437.023	4.21102
437.231	4.1388
437.439	2.94416
437.646	3.10761
437.854	3.19562
438.061	3.41572
438.269	2.47574
438.476	3.2294
438.684	2.88854
438.891	2.36225
439.099	2.14087
439.306	1.60061
439.514	1.88618
439.721	2.85711
439.929	2.04572
440.136	2.93998
440.343	2.74109
440.551	2.34009
440.758	4.1331
440.965	3.06466
441.173	2.74907
441.38	2.22553
441.587	3.03716
441.795	2.33915
442.002	3.06225
442.209	3.12102
442.416	3.35762
442.624	3.33419
442.831	3.2747
443.038	2.54085
443.245	2.2142
443.452	2.43905
443.66	3.56041
443.867	2.29992
444.074	2.38153
444.281	2.15075
444.488	2.6116
444.695	2.6349
444.902	2.34285
445.109	3.08423
445.316	2.37079
445.523	2.23245
445.73	1.91195
445.937	2.54339
446.144	3.05749
446.351	3.00289
446.558	2.08277
446.765	3.36068
446.972	3.41476
447.179	2.63028
447.386	3.688
447.593	2.44605
447.8	3.60027
448.007	2.57789
448.214	2.82308
448.42	2.42368
448.627	3.80215
448.834	2.8485
449.041	2.63231
449.248	2.72663
449.454	3.78385
449.661	4.52324
449.868	2.7956
450.075	2.48589
450.281	1.42166
450.488	2.17005
450.695	2.41986
450.901	2.39492
451.108	2.60149
451.315	3.76215
451.521	3.01716
451.728	3.77681
451.935	2.47108
452.141	2.82544
452.348	2.87643
452.554	2.71444
452.761	2.6917
452.967	4.24995
453.174	3.10864
453.38	3.17287
453.587	1.97033
453.793	3.02187
454	3.78759
454.206	4.68467
454.413	4.16815
454.619	3.40925
454.825	2.52382
455.032	3.59381
455.238	3.96331
455.445	2.12045
455.651	3.26446
455.857	1.52384
456.064	2.87226
456.27	2.7943
456.476	2.92979
456.682	1.93659
456.889	3.48666
457.095	3.53405
457.301	5.05672
457.507	2.98825
457.714	3.17892
457.92	2.92044
458.126	2.38642
458.332	2.64521
458.538	2.36808
458.744	2.41935
458.951	2.39495
459.157	3.93361
459.363	2.64763
459.569	2.51827
459.775	3.32349
459.981	2.21955
460.187	2.72854
460.393	3.28884
460.599	3.82306
460.805	3.00129
461.011	3.12366
461.217	3.99163
461.423	4.22715
461.629	2.95255
461.835	3.84046
462.041	2.91529
462.247	4.75758
462.453	3.07757
462.658	3.32918
462.864	3.8752
463.07	3.54436
463.276	3.56173
463.482	3.52798
463.688	4.42448
463.893	2.74418
464.099	3.13511
464.305	4.67164
464.511	2.79196
464.716	3.3125
464.922	3.90229
465.128	2.63127
465.333	4.855
465.539	3.83132
465.745	3.09864
465.95	3.5888
466.156	5.75127
466.362	4.33458
466.567	3.22699
466.773	2.96789
466.978	4.7181
467.184	2.5839
467.389	1.62199
467.595	3.90425
467.8	2.66491
468.006	4.64748
468.211	4.37462
468.417	2.62375
468.622	3.90324
468.828	3.93517
469.033	3.64147
469.239	5.95498
469.444	2.90843
469.649	4.21996
469.855	3.22371
470.06	3.69317
470.266	2.53958
470.471	3.93455
470.676	3.86449
470.881	2.17692
471.087	4.55916
471.292	5.25752
471.497	2.46264
471.703	3.26967
471.908	3.00867
472.113	3.60775
472.318	4.0395
472.523	2.60572
472.729	3.78386
472.934	4.05027
473.139	3.17646
473.344	3.96661
473.549	4.70667
473.754	2.90049
473.959	5.41479
474.164	2.91787
474.369	3.22465
474.575	4.2673
474.78	3.64239
474.985	3.24415
475.19	2.09474
475.395	2.84307
475.6	3.27629
475.804	4.54346
476.009	3.41948
476.214	3.53817
476.419	3.0866
476.624	2.10269
476.829	2.64425
477.034	3.81046
477.239	2.57731
477.444	3.43258
477.648	3.71387
477.853	3.91213
478.058	2.9968
478.263	2.74506
478.468	2.28295
478.672	2.65131
478.877	4.27366
479.082	4.94345
479.287	3.5917
479.491	3.46736
479.696	2.30605
479.901	4.11997
480.105	3.8519
480.31	2.67853
480.515	3.101
480.719	5.0007
480.924	2.63781
481.128	2.2245
481.333	3.10361
481.538	3.15207
481.742	2.58935
481.947	3.14713
482.151	3.20457
482.356	3.0293
482.56	3.87538
482.765	3.90091
482.969	4.90783
483.174	5.52394
483.378	6.68567
483.582	6.27423
483.787	7.09037
483.991	6.93133
484.196	7.17004
484.4	6.96603
484.604	7.46412
484.809	6.21135
485.013	6.39937
485.217	5.58505
485.422	4.90503
485.626	4.54929
485.83	4.36646
486.034	4.08407
486.239	4.30815
486.443	4.25694
486.647	4.06182
486.851	4.85041
487.055	5.34047
487.26	4.58989
487.464	5.20353
487.668	4.35734
487.872	4.38625
488.076	5.20557
488.28	4.6122
488.484	4.33243
488.688	4.31346
488.892	4.50637
489.096	4.3668
489.3	3.69377
489.504	3.61411
489.708	3.84057
489.912	3.82113
490.116	3.71173
490.32	2.94538
490.524	3.74512
490.728	3.81368
490.932	3.71607
491.136	3.58271
491.34	4.6312
491.544	4.76531
491.748	4.11658
491.951	4.35895
492.155	4.03086
492.359	4.33346
492.563	3.41966
492.767	3.25318
492.97	3.29853
493.174	2.9249
493.378	3.31331
493.582	2.82767
493.785	3.33672
493.989	3.60187
494.193	3.65642
494.396	3.24698
494.6	4.02659
494.804	3.29937
495.007	2.85887
495.211	2.98266
495.414	3.17414
495.618	3.3613
495.822	4.27905
496.025	3.12978
496.229	3.77528
496.432	2.55438
496.636	3.1628
496.839	3.04539
497.043	4.40774
497.246	3.1749
497.45	2.85357
497.653	2.99677
497.856	3.42704
498.06	2.32816
498.263	3.02923
498.467	2.74832
498.67	4.07495
498.873	3.61076
499.077	2.98163
499.28	3.09802
499.483	3.53177
499.686	4.01667
499.89	3.62134
500.093	3.93841
500.296	2.95652
500.499	4.60006
500.703	3.38944
500.906	3.50726
501.109	5.00186
501.312	3.60339
501.515	3.31112
501.719	3.81473
501.922	4.82258
502.125	3.81314
502.328	3.30059
502.531	2.55954
502.734	3.50647
502.937	1.87677
503.14	3.47719
503.343	2.55364
503.546	3.0678
503.749	2.80249
503.952	3.74921
504.155	2.68386
504.358	3.89075
504.561	3.26728
504.764	2.48583
504.967	3.35919
505.17	3.48848
505.373	4.84931
505.576	3.43161
505.778	3.89317
505.981	2.86166
506.184	4.3856
506.387	2.06681
506.59	4.82715
506.793	4.25871
506.995	3.61775
507.198	1.87691
507.401	3.43722
507.604	3.75377
507.806	2.43365
508.009	2.61949
508.212	3.57718
508.414	2.81802
508.617	2.60174
508.82	3.10554
509.022	4.15794
509.225	3.51854
509.427	1.90526
509.63	4.30908
509.833	3.18953
510.035	2.98378
510.238	2.02249
510.44	4.19548
510.643	1.50882
510.845	4.99059
511.048	3.54301
511.25	2.96881
511.453	3.08975
511.655	3.60719
511.858	2.95653
512.06	3.88026
512.262	3.33498
512.465	3.89739
512.667	2.69281
512.869	2.43341
513.072	3.54603
513.274	4.0577
513.476	3.82474
513.679	4.02923
513.881	2.40739
514.083	4.7085
514.286	2.81248
514.488	2.96512
514.69	2.5681
514.892	2.28413
515.094	3.76757
515.297	3.12046
515.499	3.56295
515.701	2.53902
515.903	4.73968
516.105	4.60722
516.307	3.86395
516.509	1.72502
516.711	2.13946
516.913	3.37988
517.116	2.98581
517.318	2.72852
517.52	3.8291
517.722	3.33241
517.924	2.08328
518.126	3.15822
518.328	2.24116
518.529	3.2353
518.731	4.24096
518.933	2.41582
519.135	2.8578
519.337	3.89314
519.539	3.32804
519.741	1.77715
519.943	3.00119
520.145	2.90732
520.346	3.63013
520.548	2.92576
520.75	3.36428
520.952	2.92975
521.153	3.44864
521.355	3.70426
521.557	2.36562
521.759	3.47572
521.96	3.34863
522.162	2.55507
522.364	4.18821
522.565	2.63808
522.767	3.90297
522.969	4.43096
523.17	3.5391
523.372	3.72998
523.573	2.54169
523.775	3.0502
523.977	2.27015
524.178	4.38623
524.38	2.47618
524.581	3.62982
524.783	2.56754
524.984	3.46386
525.186	2.70685
525.387	3.27751
525.589	2.80597
525.79	2.43821
525.991	2.20702
526.193	3.02248
526.394	1.71956
526.596	2.9451
526.797	2.77964
526.998	2.37922
527.2	1.94429
527.401	3.34049
527.602	3.14754
527.803	4.44957
528.005	4.00765
528.206	4.57564
528.407	4.71268
528.608	4.25689
528.81	4.50354
529.011	3.86255
529.212	5.07346
529.413	4.20828
529.614	3.9442
529.815	4.12961
530.017	3.97647
530.218	3.41824
530.419	2.76904
530.62	3.11646
530.821	3.22193
531.022	2.23108
531.223	3.56825
531.424	3.44795
531.625	3.1627
531.826	2.99417
532.027	2.89646
532.228	3.66399
532.429	3.1301
532.63	2.88168
532.831	3.26426
533.032	3.18121
533.233	3.67606
533.433	3.44082
533.634	3.65035
533.835	3.10711
534.036	2.62365
534.237	2.75628
534.438	2.67827
534.638	2.37358
534.839	2.64465
535.04	3.5004
535.241	2.65778
535.441	4.09577
535.642	3.20472
535.843	2.19934
536.043	2.17265
536.244	2.37471
536.445	2.38124
536.645	3.46858
536.846	2.84418
537.047	3.79155
537.247	2.20958
537.448	2.83764
537.648	3.00871
537.849	3.11389
538.049	3.0764
538.25	3.9201
538.451	3.50421
538.651	2.53517
538.851	3.59402
539.052	4.28313
539.252	3.92446
539.453	3.05988
539.653	3.02234
539.854	2.93148
540.054	2.73148
540.254	3.32521
540.455	3.45543
540.655	2.62439
540.855	3.23755
541.056	3.80777
541.256	3.15551
541.456	4.18819
541.657	3.12647
541.857	4.18718
542.057	2.7097
542.257	2.68485
542.458	3.45233
542.658	3.69407
542.858	2.32132
543.058	3.75412
543.258	3.3012
543.458	2.24109
543.659	2.0222
543.859	3.60466
544.059	3.47379
544.259	2.8692
544.459	3.82558
544.659	2.75447
544.859	3.49716
545.059	2.68542
545.259	3.61543
545.459	3.41573
545.659	3.75394
545.859	3.1579
546.059	3.18239
546.259	2.30224
546.459	1.73679
546.659	2.23979
546.859	3.46785
547.059	3.53314
547.258	3.54684
547.458	3.50561
547.658	2.40635
547.858	2.48264
548.058	3.69987
548.258	3.39106
548.457	2.73083
548.657	6.12109
548.857	3.41036
549.057	4.54817
549.256	4.20935
549.456	3.61605
549.656	1.97984
549.855	5.53415
550.055	3.64899
550.255	5.74955
550.454	4.18486
550.654	4.87742
550.853	5.19764
551.053	4.93909
551.253	4.34322
551.452	4.28738
551.652	2.60486
551.851	2.23512
552.051	3.29703
552.25	3.36715
552.45	2.75991
552.649	3.29496
552.849	2.77213
553.048	3.66929
553.248	4.20987
553.447	2.80344
553.646	4.66596
553.846	5.5765
554.045	5.03634
554.244	2.59074
554.444	5.67977
554.643	3.12563
554.842	5.57753
555.042	6.42424
555.241	3.42773
555.44	3.11801
555.64	4.16921
555.839	5.95571
556.038	4.69828
556.237	3.71886
556.436	3.92615
556.636	4.61388
556.835	3.19298
557.034	5.81856
557.233	3.93626
557.432	2.93446
557.631	5.2623
557.83	4.04705
558.029	3.8276
558.228	3.87808
558.427	3.09615
558.626	4.61926
558.825	3.32785
559.024	4.49782
559.223	6.39462
559.422	4.1583
559.621	4.97248
559.82	1.56592
560.019	4.35973
560.218	3.71187
560.417	0.91902
560.616	3.52061
560.815	7.83204
561.014	2.499
561.212	5.24687
561.411	4.32015
561.61	2.35889
561.809	3.93183
562.008	5.81622
562.206	3.94709
562.405	4.80058
562.604	4.00624
562.803	4.43926
563.001	4.01778
563.2	2.64308
563.399	4.80946
563.597	2.89325
563.796	4.3848
563.995	2.726
564.193	4.73003
564.392	3.47457
564.59	6.56658
564.789	1.77924
564.988	3.54527
565.186	4.06783
565.385	3.39429
565.583	3.25359
565.782	3.60482
565.98	3.20189
566.179	3.63856
566.377	2.34285
566.575	2.54439
566.774	4.77431
566.972	4.66735
567.171	5.93304
567.369	5.41946
567.567	4.0298
567.766	4.40688
567.964	1.62373
568.162	4.73169
568.361	5.291
568.559	3.94085
568.757	4.48132
568.956	4.35812
569.154	3.86266
569.352	5.15455
569.55	3.99206
569.748	4.02758
569.947	2.92464
570.145	3.08442
570.343	2.5155
570.541	5.14174
570.739	2.40006
570.937	4.01821
571.135	4.08018
571.333	5.67507
571.532	5.34186
571.73	4.02924
571.928	4.87001
572.126	4.26343
572.324	3.20487
572.522	5.21778
572.72	6.71701
572.918	3.68176
573.116	4.1748
573.313	3.87042
573.511	3.60354
573.709	3.42901
573.907	4.51019
574.105	3.52532
574.303	1.96132
574.501	2.29731
574.699	3.97449
574.896	4.02468
575.094	4.33608
575.292	2.46966
575.49	4.98381
575.688	4.11174
575.885	5.57568
576.083	6.17093
576.281	4.25789
576.478	3.58432
576.676	4.95751
576.874	2.84516
577.071	3.91901
577.269	7.33488
577.467	4.33453
577.664	4.54559
577.862	5.338
578.059	3.80135
578.257	5.36094
578.455	4.53248
578.652	4.47435
578.85	2.51385
579.047	4.72154
579.245	4.4067
579.442	4.72639
579.64	4.64379
579.837	2.14737
580.034	7.73005
580.232	4.20977
580.429	3.44123
580.627	5.63175
580.824	6.50065
581.021	5.25367
581.219	4.37548
581.416	3.66379
581.613	6.62007
581.811	6.37606
582.008	3.56592
582.205	5.86441
582.402	5.2894
582.6	7.13757
582.797	5.06862
582.994	5.66161
583.191	6.19133
583.388	5.18622
583.586	5.89638
583.783	6.92122
583.98	3.73162
584.177	5.18576
584.374	1.2243
584.571	4.81231
584.768	5.07197
584.965	4.68841
585.162	6.13525
585.359	7.50384
585.556	5.25115
585.753	5.58896
585.95	3.47996
586.147	3.84106
586.344	6.01714
586.541	4.79915
586.738	3.42031
586.935	4.80583
587.132	4.2061
587.329	6.64871
587.526	4.99651
587.722	12.14055
587.919	3.08488
588.116	5.72869
588.313	7.3784
588.51	8.00733
588.706	4.74037
588.903	5.87343
589.1	6.19495
589.297	9.08604
589.493	4.83413
589.69	5.7009
589.887	4.32654
590.083	3.40761
590.28	3.96284
590.477	6.49566
590.673	6.05168
590.87	6.85215
591.067	4.43387
591.263	6.02837
591.46	5.63236
591.656	4.95315
591.853	7.09154
592.049	4.1188
592.246	4.21185
592.442	7.20253
592.639	7.288
592.835	3.59736
593.032	5.9625
593.228	2.86711
593.425	2.99515
593.621	3.0269
593.817	5.21669
594.014	4.37221
594.21	5.37133
594.406	6.37291
594.603	5.57909
594.799	4.51136
594.995	1.58293
595.192	6.25796
595.388	4.28564
595.584	4.09201
595.78	2.71169
595.977	7.6476
596.173	6.84156
596.369	4.13222
596.565	3.07973
596.761	2.54778
596.957	6.07732
597.154	3.19745
597.35	3.63484
597.546	3.37996
597.742	5.09645
597.938	5.32003
598.134	3.37076
598.33	5.31788
598.526	7.34542
598.722	6.00423
598.918	7.84894
599.114	6.33657
599.31	4.33195
599.506	5.82825
599.702	4.13606
599.898	5.99477
600.094	7.01634
600.29	6.55006
600.485	6.7527
600.681	4.90733
600.877	8.3361
601.073	5.48899
601.269	8.57406
601.465	7.34252
601.66	3.83801
601.856	2.65195
602.052	7.76528
602.248	4.30206
602.443	2.02393
602.639	3.09617
602.835	3.60031
603.03	3.50859
603.226	5.89691
603.422	3.15793
603.617	4.03476
603.813	3.82246
604.009	3.422
604.204	5.74266
604.4	2.28973
604.595	5.5566
604.791	2.9547
604.986	4.55863
605.182	3.21801
605.377	3.55776
605.573	3.79682
605.768	4.74709
605.964	5.85416
606.159	6.09161
606.355	7.01274
606.55	4.89694
606.746	6.59246
606.941	5.39657
607.136	8.44124
607.332	10.05138
607.527	3.31501
607.722	6.01487
607.918	5.22189
608.113	3.89562
608.308	6.01704
608.503	5.69933
608.699	5.4757
608.894	5.43635
609.089	3.61203
609.284	4.96544
609.479	3.83434
609.675	5.55552
609.87	4.07151
610.065	5.47516
610.26	6.334
610.455	6.03388
610.65	4.567
610.845	5.32225
611.04	6.81997
611.235	5.34112
611.43	4.90558
611.625	3.12521
611.82	7.93061
612.015	4.15249
612.21	8.48859
612.405	3.31735
612.6	9.55376
612.795	8.4534
612.99	7.51014
613.185	4.26617
613.38	4.70792
613.575	6.86346
613.77	10.95514
613.965	2.97849
614.159	4.45582
614.354	8.87847
614.549	8.14692
614.744	7.28038
614.938	4.18944
615.133	4.13104
615.328	8.26855
615.523	8.5824
615.717	11.82901
615.912	5.07437
616.107	6.47786
616.301	5.91074
616.496	4.74661
616.691	9.66824
616.885	7.91379
617.08	11.13861
617.274	8.93482
617.469	10.48987
617.664	7.5266
617.858	5.64437
618.053	6.77972
618.247	6.27573
618.442	2.07535
618.636	8.82774
618.831	5.67664
619.025	5.48689
619.219	11.69771
619.414	0.08606
619.608	6.58004
619.803	4.56124
619.997	11.06061
620.191	9.41953
620.386	7.50152
620.58	6.71437
620.774	3.10589
620.969	3.14916
621.163	6.61668
621.357	3.9881
621.551	6.23424
621.746	6.83468
621.94	6.68996
622.134	14.11127
622.328	11.06879
622.522	3.92387
622.716	9.17205
622.911	8.67296
623.105	8.10933
623.299	7.52291
623.493	13.31549
623.687	4.98421
623.881	6.20381
624.075	8.10037
624.269	9.21623
624.463	3.29728
624.657	3.24623
624.851	7.99413
625.045	8.4244
625.239	8.33077
625.433	5.06583
625.627	9.42317
625.821	5.04905
626.015	4.40243
626.209	5.90382
626.403	3.36125
626.596	7.03034
626.79	7.32059
626.984	3.59196
627.178	7.08986
627.372	7.04559
627.565	7.87213
627.759	2.78423
627.953	3.88822
628.147	6.99734
628.34	7.74039
628.534	10.37832
628.728	5.67718
628.921	8.83318
629.115	8.18532
629.309	8.23498
629.502	8.82577
629.696	7.18616
629.89	6.40465
630.083	7.34458
630.277	7.74342
630.47	10.9343
630.664	6.67244
630.857	3.75659
631.051	9.04086
631.244	9.88778
631.438	9.19741
631.631	5.06965
631.825	9.98294
632.018	8.80872
632.212	11.4375
632.405	9.78439
632.598	5.83138
632.792	7.36986
632.985	1.91401
633.178	5.8482
633.372	6.74811
633.565	6.71234
633.758	10.09989
633.952	5.18833
634.145	5.05348
634.338	6.21644
634.531	6.23191
634.724	5.43989
634.918	7.59613
635.111	6.67643
635.304	5.97628
635.497	12.33267
635.69	7.96631
635.883	9.86159
636.077	4.66159
636.27	8.73065
636.463	7.97784
636.656	8.73479
636.849	6.07791
637.042	8.47059
637.235	11.70933
637.428	9.42905
637.621	9.11351
637.814	11.81746
638.007	11.76064
638.2	12.0583
638.393	12.89079
638.586	5.53492
638.778	6.92161
638.971	8.28965
639.164	12.52483
639.357	9.74745
639.55	11.7232
639.743	10.40448
639.935	10.23595
640.128	13.68204
640.321	10.55976
640.514	9.04503
640.707	15.2394
640.899	10.88337
641.092	4.7249
641.285	28.6801
641.477	2.78323
641.67	14.38101
641.863	11.99491
642.055	9.09023
642.248	9.17882
642.441	8.15023
642.633	10.29107
642.826	12.49597
643.018	12.9813
643.211	13.9164
643.403	13.69748
643.596	15.33154
643.788	13.4709
643.981	8.04747
644.173	11.1956
644.366	8.21827
644.558	5.1894
644.751	11.58221
644.943	5.42778
645.135	14.46281
645.328	15.4473
645.52	11.64267
645.712	12.29613
645.905	19.12357
646.097	6.94506
646.289	10.83618
646.482	15.32799
646.674	8.29481
646.866	12.3644
647.058	11.33013
647.251	6.16385
647.443	7.52721
647.635	9.15641
647.827	7.02556
648.019	7.01822
648.211	9.77609
648.404	10.79704
648.596	14.07772
648.788	10.38201
648.98	10.84742
649.172	11.1583
649.364	11.22183
649.556	4.51975
649.748	16.69505
649.94	7.52614
650.132	11.27974
650.324	6.95397
650.516	7.52494
650.708	12.93128
650.9	5.96822
651.092	5.28234
651.284	4.7343
651.476	6.32017
651.667	11.07098
651.859	13.74105
652.051	9.32446
652.243	10.15138
652.435	8.06031
652.627	11.21915
652.818	11.44891
653.01	5.32194
653.202	7.27437
653.394	9.64119
653.585	11.43795
653.777	23.53838
653.969	14.08401
654.16	13.77701
654.352	7.76117
654.544	9.88367
654.735	13.49716
654.927	10.53273
655.118	15.27118
655.31	13.20874
655.502	13.73434
655.693	8.32463
655.885	12.18919
656.076	14.45753
656.268	10.49644
656.459	14.55963
656.651	15.21571
656.842	8.49246
657.034	7.97348
657.225	12.50153
657.416	14.54531
657.608	14.1223
657.799	9.40519
657.99	12.6635
658.182	6.97329
658.373	7.30008
658.564	11.81473
658.756	9.60517
658.947	8.54854
659.138	6.19676
659.33	7.63121
659.521	6.46762
659.712	8.77199
659.903	8.68107
660.094	7.64511
660.286	4.98859
660.477	15.91293
660.668	11.13173
660.859	10.10796
661.05	5.81562
661.241	11.5595
661.432	12.56251
661.623	9.68633
661.814	9.51104
662.006	5.57054
662.197	12.16407
662.388	14.7188
662.579	11.3599
662.77	16.36931
662.96	20.37001
663.151	14.60636
663.342	5.28583
663.533	12.46504
663.724	10.97347
663.915	17.23993
664.106	11.26621
664.297	17.95924
664.488	14.00083
664.678	9.91909
664.869	14.10655
665.06	14.91242
665.251	12.09002
665.442	12.94519
665.632	8.11731
665.823	18.28704
666.014	2.38975
666.204	13.82195
666.395	16.76605
666.586	22.85963
666.776	14.19683
666.967	18.47772
667.158	11.76114
667.348	17.8692
667.539	8.40532
667.729	14.76595
667.92	9.50605
668.111	15.3821
668.301	13.9148
668.492	9.53848
668.682	10.97338
668.873	10.82442
669.063	7.9351
669.253	12.00635
669.444	15.98652
669.634	11.48714
669.825	18.91193
670.015	15.86629
670.206	9.38547
670.396	20.63412
670.586	11.82124
670.777	14.44274
670.967	4.98184
671.157	11.86433
671.347	9.98397
671.538	19.07958
671.728	14.05234
671.918	19.85435
672.108	16.75324
672.299	12.60919
672.489	14.21838
672.679	11.23487
672.869	15.66495
673.059	19.8285
673.249	14.54445
673.44	9.36989
673.63	12.3031
673.82	16.89719
674.01	10.54685
674.2	14.41119
674.39	25.39982
674.58	15.47437
674.77	14.40311
674.96	13.12361
675.15	30.06346
675.34	18.0032
675.53	13.26855
675.72	10.80222
675.91	7.84611
676.099	20.76229
676.289	22.84837
676.479	17.75866
676.669	11.26011
676.859	15.92675
677.049	9.20243
677.238	13.39365
677.428	21.6295
677.618	14.41382
677.808	17.67975
677.997	15.21159
678.187	8.52968
678.377	12.56633
678.567	11.07879
678.756	11.11498
678.946	11.64063
679.136	7.64553
679.325	9.19696
679.515	9.15848
679.704	7.03049
679.894	14.55047
680.084	12.89578
680.273	17.02768
680.463	8.20377
680.652	8.3319
680.842	12.0066
681.031	15.66542
681.221	8.65125
681.41	14.04355
681.6	11.9575
681.789	15.41421
681.978	18.57572
682.168	14.41356
682.357	14.48177
682.547	15.77117
682.736	14.39343
682.925	18.94166
683.115	19.49319
683.304	17.16465
683.493	15.91377
683.682	16.40956
683.872	16.09987
684.061	18.84416
684.25	16.62628
684.439	22.47352
684.629	17.05051
684.818	29.0758
685.007	13.82357
685.196	13.06318
685.385	21.41045
685.574	17.66347
685.763	16.37337
685.952	15.96183
686.142	10.12691
686.331	22.06777
686.52	7.06222
686.709	22.40168
686.898	21.70993
687.087	18.42661
687.276	22.87688
687.465	19.33214
687.654	13.40433
687.842	22.61029
688.031	8.84698
688.22	21.2301
688.409	16.0726
688.598	15.74728
688.787	27.49671
688.976	16.42725
689.165	25.58717
689.353	12.85777
689.542	17.36226
689.731	19.74085
689.92	25.78329
690.108	21.25503
690.297	14.92839
690.486	16.92527
690.675	20.45254
690.863	25.32178
691.052	24.39023
691.241	18.3837
691.429	17.77965
691.618	24.21187
691.806	10.98825
691.995	15.70778
692.184	17.23404
692.372	14.2818
692.561	17.18596
692.749	16.23359
692.938	29.93877
693.126	19.92655
693.315	15.22577
693.503	20.74949
693.692	20.9519
693.88	23.15026
694.068	29.83466
694.257	16.97702
694.445	18.77188
694.634	8.20997
694.822	24.3251
695.01	25.22488
695.199	25.46949
695.387	26.29357
695.575	24.43245
695.763	18.56049
695.952	16.05607
696.14	10.78512
696.328	14.9066
696.516	18.27426
696.705	18.1858
696.893	18.51853
697.081	8.77419
697.269	19.50247
697.457	11.68818
697.645	9.85257
697.833	19.62371
698.021	10.98015
698.21	12.49346
698.398	13.85102
698.586	9.21745
698.774	8.79738
698.962	13.05858
699.15	9.72844
699.338	7.70512
699.526	16.36729
699.714	11.87768
699.901	12.77052
700.089	20.91782
700.277	11.71316
700.465	15.89569
700.653	20.6189
700.841	19.90752
701.029	13.12331
701.217	24.20681
701.404	18.98683
701.592	24.58684
701.78	28.68577
701.968	16.54361
702.155	17.03471
702.343	10.80732
702.531	25.96509
702.718	21.44662
702.906	17.03271
703.094	15.94855
703.281	26.39831
703.469	17.31331
703.657	25.51721
703.844	39.63768
704.032	29.10458
704.219	16.2983
704.407	22.6869
704.595	28.10653
704.782	20.57185
704.97	17.75362
705.157	17.42685
705.345	30.04348
705.532	36.13411
705.719	22.52293
705.907	29.48211
706.094	20.70887
706.282	31.87958
706.469	18.50989
706.656	21.37197
706.844	19.52953
707.031	26.72575
707.218	21.63526
707.406	31.54272
707.593	24.69139
707.78	25.98517
707.968	21.17962
708.155	15.66815
708.342	24.05459
708.529	24.91335
708.716	22.13262
708.904	32.6864
709.091	25.58997
709.278	14.5359
709.465	31.95239
709.652	33.41889
709.839	31.34615
710.026	23.54558
710.213	11.81501
710.4	24.29539
710.587	27.18526
710.774	29.10612
710.961	29.40556
711.148	22.99472
711.335	29.61913
711.522	21.91516
711.709	24.50983
711.896	37.63111
712.083	29.35754
712.27	17.51401
712.457	22.63958
712.644	13.83976
712.831	36.04781
713.017	24.32959
713.204	27.75247
713.391	18.41603
713.578	31.57249
713.765	32.29994
713.951	27.30699
714.138	45.52891
714.325	27.5012
714.512	23.89598
714.698	19.79815
714.885	34.97663
715.072	26.26973
715.258	25.123
715.445	20.90704
715.631	32.36895
715.818	7.66511
716.005	19.82501
716.191	27.79371
716.378	22.18711
716.564	30.0139
716.751	18.93639
716.937	22.31209
717.124	33.96061
717.31	19.33333
717.497	36.83943
717.683	20.67675
717.869	43.07838
718.056	22.38011
718.242	30.0167
718.429	25.18406
718.615	17.59581
718.801	26.74185
718.988	34.07775
719.174	30.33045
719.36	25.56639
719.547	36.86305
719.733	29.55424
719.919	29.5699
720.105	32.62892
720.291	25.65269
720.478	29.37452
720.664	26.72137
720.85	24.78954
721.036	50.89313
721.222	39.13937
721.408	26.32289
721.595	44.87208
721.781	42.74036
721.967	35.41158
722.153	40.34795
722.339	31.08853
722.525	32.04932
722.711	20.39984
722.897	17.72408
723.083	24.45718
723.269	38.3244
723.455	48.61845
723.641	54.19303
723.827	31.06275
724.012	32.87317
724.198	26.71277
724.384	40.48547
724.57	33.86696
724.756	17.66709
724.942	13.89529
725.127	38.8683
725.313	42.34524
725.499	41.55494
725.685	44.77025
725.87	33.14457
726.056	22.1026
726.242	40.833
726.428	15.29128
726.613	38.1555
726.799	27.82742
726.985	21.11627
727.17	17.81369
727.356	44.36412
727.541	23.12602
727.727	28.31248
727.913	35.79812
728.098	24.90032
728.284	36.22504
728.469	19.05901
728.655	22.78279
728.84	37.63732
729.026	36.16275
729.211	36.87956
729.397	32.17883
729.582	37.35669
729.767	29.16082
729.953	32.42132
730.138	38.50939
730.323	12.11057
730.509	19.16652
730.694	44.07316
730.879	33.13198
731.065	31.80646
731.25	49.55285
731.435	34.95283
731.621	17.07858
731.806	23.12172
731.991	33.09495
732.176	18.17552
732.361	41.3304
732.547	32.18897
732.732	16.82275
732.917	50.9586
733.102	19.96851
733.287	23.68219
733.472	30.63517
733.657	32.13743
733.842	19.14542
734.027	28.11659
734.212	29.45885
734.397	24.97427
734.582	30.6448
734.767	40.06642
734.952	46.30821
735.137	8.85178
735.322	46.48299
735.507	36.39831
735.692	35.51811
735.877	53.03319
736.062	49.38051
736.247	35.65073
736.431	31.72255
736.616	44.91067
736.801	36.3696
736.986	33.58266
737.171	24.04834
737.355	19.51202
737.54	45.09403
737.725	32.80252
737.909	60.01562
738.094	27.88497
738.279	41.47338
738.463	30.85507
738.648	38.87291
738.833	36.91571
739.017	52.89187
739.202	28.11792
739.386	32.14727
739.571	24.79472
739.756	39.63242
739.94	33.51323
740.125	43.24085
740.309	26.56056
740.494	42.73526
740.678	35.46341
740.863	39.64265
741.047	35.25233
741.231	45.40052
741.416	26.48266
741.6	50.68832
741.785	26.87658
741.969	42.08451
742.153	48.01826
742.338	14.21668
742.522	35.961
742.706	43.93247
742.89	21.12509
743.075	36.04489
743.259	52.86361
743.443	43.59896
743.627	48.71378
743.812	60.97977
743.996	20.7087
744.18	32.53561
744.364	30.49962
744.548	65.07166
744.732	33.16359
744.916	44.27132
745.1	42.10353
745.285	33.53523
745.469	39.63212
745.653	56.89489
745.837	21.44754
746.021	64.8119
746.205	47.44704
746.389	38.85587
746.573	33.77463
746.757	54.47584
746.94	30.15523
747.124	49.03232
747.308	22.95878
747.492	48.96685
747.676	29.19928
747.86	63.45871
748.044	32.14349
748.227	16.5632
748.411	77.47509
748.595	40.59357
748.779	28.94527
748.963	42.0241
749.146	37.51206
749.33	26.3603
749.514	26.21261
749.697	50.33973
749.881	30.43287
750.065	25.67457
750.248	37.86573
750.432	65.37517
750.616	39.39675
750.799	23.36242
750.983	62.63398
751.166	71.44629
751.35	20.81516
751.533	45.74568
751.717	54.05308
751.9	57.00286
752.084	32.64238
752.267	26.62229
752.451	29.16777
752.634	38.64327
752.818	44.19924
753.001	47.66283
753.184	50.74862
753.368	43.05912
753.551	2.2308
753.734	28.95283
753.918	64.39321
754.101	29.22282
754.284	47.02768
754.467	31.57072
754.651	29.44115
754.834	29.61575
755.017	52.70908
755.2	50.46874
755.384	25.17999
755.567	48.09475
755.75	54.04465
755.933	34.8086
756.116	41.83602
756.299	31.35416
756.482	26.99141
756.665	47.79211
756.848	37.90414
757.032	46.58637
757.215	22.25919
757.398	31.54754
757.581	28.39781
757.764	72.5408
757.947	41.11758
758.129	53.66758
758.312	6.59324
758.495	36.68927
758.678	36.59982
758.861	34.28749
759.044	63.97171
759.227	29.22212
759.41	28.46217
759.592	47.32268
759.775	36.33092
759.958	54.05203
760.141	25.05508
760.324	68.89962
760.506	57.31392
760.689	51.45589
760.872	68.50412
761.054	46.76489
761.237	34.27812
761.42	46.57449
761.602	52.15346
761.785	44.8402
761.968	50.18269
762.15	62.71328
762.333	35.38753
762.515	43.35856
762.698	31.13743
762.88	45.40044
763.063	41.54892
763.245	44.35021
763.428	26.19613
763.61	29.7912
763.793	21.07539
763.975	38.92762
764.158	31.33752
764.34	29.24192
764.522	25.36095
764.705	33.07124
764.887	52.70966
765.069	19.93967
765.252	46.7119
765.434	47.904
765.616	38.82579
765.799	31.45772
765.981	49.18159
766.163	27.23477
766.345	53.83212
766.528	32.87949
766.71	9.49265
766.892	41.10083
767.074	56.56959
767.256	33.59016
767.438	67.44676
767.62	46.49101
767.802	73.26845
767.985	49.86725
768.167	69.39519
768.349	29.95242
768.531	50.18435
768.713	47.13971
768.895	54.59211
769.077	47.39064
769.259	83.08363
769.441	116.60798
769.623	60.36424
769.804	66.67932
769.986	65.12915
770.168	84.48474
770.35	98.02535
770.532	71.35722
770.714	77.35007
770.896	82.61231
771.077	30.68323
771.259	79.06652
771.441	67.35358
771.623	89.86085
771.804	110.79909
771.986	28.48752
772.168	48.62514
772.35	87.12442
772.531	116.1049
772.713	67.46071
772.894	88.30408
773.076	60.08155
773.258	52.59404
773.439	93.3178
773.621	99.27585
773.802	40.36047
773.984	55.71336
774.166	71.01953
774.347	98.37959
774.529	88.51327
774.71	22.59512
774.891	58.65117
775.073	53.33398
775.254	99.49505
775.436	55.8059
775.617	106.28724
775.799	53.96729
775.98	102.38175
776.161	102.75674
776.343	101.62236
776.524	61.38258
776.705	60.95134
776.886	28.64656
777.068	70.0475
777.249	124.98079
777.43	114.90185
777.611	37.74908
777.793	57.92375
777.974	105.46472
778.155	54.97082
778.336	53.01586
778.517	116.64374
778.698	51.41755
778.879	23.08144
779.061	9.169
779.242	77.70551
779.423	76.903
779.604	50.39078
779.785	65.56514
779.966	70.30464
780.147	90.35978
780.328	89.99399
780.509	130.2905
780.69	78.91895
780.871	51.93587
781.051	34.91712
781.232	70.3486
781.413	70.43571
781.594	59.66517
781.775	51.65101
781.956	50.65584
782.137	26.41835
782.317	47.19029
782.498	76.04111
782.679	63.95531
782.86	67.66333
783.04	52.16575
783.221	72.41609
783.402	116.58593
783.583	72.92182
783.763	82.68684
783.944	52.3483
784.124	33.68038
784.305	107.95209
784.486	76.93645
784.666	64.33494
784.847	29.73938
785.027	128.70185
785.208	50.51589
785.388	49.21421
785.569	51.7227
785.749	59.25537
785.93	51.70244
786.11	30.38787
786.291	74.28429
786.471	69.07339
786.652	83.87262
786.832	63.04902
787.012	74.946
787.193	39.52064
787.373	66.37835
787.553	54.56013
787.734	69.76557
787.914	57.48108
788.094	78.33252
788.275	72.50908
788.455	57.20024
788.635	35.05374
788.815	69.80126
788.995	43.4288
789.176	31.73215
789.356	47.06426
789.536	58.45599
789.716	78.765
789.896	47.37185
790.076	54.68801
790.256	69.97342
790.436	18.29402
790.616	46.0138
790.796	72.05338
790.976	56.22835
791.156	50.37891
791.336	84.15847
791.516	71.96241
791.696	57.54521
791.876	31.73926
792.056	70.86984
792.236	87.27478
792.416	80.31178
792.596	75.00027
792.776	78.27091
792.956	79.94021
793.135	99.65823
793.315	42.43497
793.495	93.55384
793.675	81.15938
793.854	83.22232
794.034	85.01907
794.214	39.89269
794.394	80.68735
794.573	92.3363
794.753	66.52484
794.933	47.10321
795.112	69.18816
795.292	87.084
795.472	109.70231
795.651	36.82037
795.831	62.22319
796.01	59.59279
796.19	59.40122
796.369	60.9128
796.549	76.35099
796.728	60.58645
796.908	35.66247
797.087	40.17483
797.267	55.20793
797.446	39.67367
797.626	75.98582
797.805	78.10614
797.984	46.67982
798.164	79.73043
798.343	46.54159
798.522	68.3121
798.702	66.44827
798.881	38.87047
799.06	61.36176
799.239	23.6265
799.419	45.65718
799.598	101.7255
799.777	77.45228
799.956	91.59248
800.136	56.99246
800.315	50.18303
800.494	73.21278
800.673	88.73688
800.852	81.00268
801.031	93.4277
801.21	77.44524
801.389	54.7359
801.568	70.19021
801.747	112.2676
801.926	67.28528
802.105	104.94222
802.284	54.40801
802.463	103.66468
802.642	73.0887
802.821	66.21526
803	99.11052
803.179	86.65441
803.358	94.30742
803.537	49.31622
803.716	67.3164
803.895	51.67063
804.073	61.84468
804.252	53.05493
804.431	74.36891
804.61	64.23427
804.789	93.28427
804.967	55.2669
805.146	47.94958
805.325	114.91397
805.503	79.35102
805.682	31.66223
805.861	132.72052
806.039	95.46737
806.218	48.72894
806.397	71.04032
806.575	67.28993
806.754	74.68611
806.932	50.67859
807.111	105.02144
807.289	90.54248
807.468	69.69311
807.646	91.53372
807.825	78.83232
808.003	76.01331
808.182	94.38421
808.36	71.36337
808.539	47.91074
808.717	105.64833
808.895	51.1782
809.074	73.08986
809.252	65.91635
809.43	85.11158
809.609	94.49618
809.787	111.54824
809.965	62.89978
810.144	66.90518
810.322	59.54189
810.5	83.02597
810.678	64.97901
810.856	125.09063
811.035	100.56947
811.213	89.40964
811.391	99.54112
811.569	76.18309
811.747	147.07561
811.925	103.48898
812.103	51.35089
812.281	59.55008
812.459	124.71796
812.637	123.02553
812.816	97.08075
812.994	123.09796
813.171	96.55424
813.349	89.78635
813.527	107.11245
813.705	114.05661
813.883	136.07163
814.061	96.21853
814.239	126.32222
814.417	134.98812
814.595	85.47189
814.773	78.97105
814.95	79.8108
815.128	89.68254
815.306	72.33981
815.484	63.36897
815.662	51.94541
815.839	45.58247
816.017	59.14737
816.195	108.07909
816.372	65.10387
816.55	97.28093
816.728	113.96764
816.905	73.63635
817.083	130.10767
817.261	73.52539
817.438	135.45942
817.616	128.72693
817.793	62.72248
817.971	98.49402
818.148	89.16084
818.326	114.51342
818.503	81.45341
818.681	112.28119
818.858	56.22043
819.036	71.42506
819.213	79.19804
819.391	53.44685
819.568	49.30652
819.745	48.33465
819.923	91.74277
820.1	54.53984
820.277	48.88699
820.455	58.47542
820.632	63.14413
820.809	63.81054
820.986	38.39466
821.164	31.49978
821.341	24.41864
821.518	36.63412
821.695	23.20801
821.872	21.50304
822.05	17.02828
822.227	11.57059
822.404	12.96942
822.581	17.6727
822.758	13.07834
822.935	12.68859
823.112	16.38759
823.289	11.61567
823.466	17.49757
823.643	15.70084
823.82	21.59422
823.997	19.28804
824.174	25.07436
824.351	36.75691
824.528	34.59248
824.705	30.62734
824.882	34.27771
825.059	48.60469
825.236	30.19761
825.412	30.04615
825.589	41.50001
825.766	61.04168
825.943	34.50044
826.12	42.16628
826.296	26.09348
826.473	34.29609
826.65	33.09768
826.827	44.94556
827.003	25.79336
827.18	30.46745
827.357	36.43988
827.533	31.24907
827.71	13.55878
827.887	26.94814
828.063	33.78971
828.24	27.44966
828.416	42.09211
828.593	32.29174
828.769	52.10966
828.946	61.41689
829.122	62.70652
829.299	57.29876
829.475	28.36919
829.652	56.02063
829.828	98.79963
830.005	59.78288
830.181	81.31672
830.357	53.61258
830.534	88.78951
830.71	65.94454
830.886	84.83567
831.063	77.33747
831.239	101.82075
831.415	40.55607
831.592	107.0617
831.768	63.74795
831.944	50.33471
832.12	102.9603
832.296	92.98918
832.473	85.1907
832.649	57.04328
832.825	78.52409
833.001	42.09411
833.177	66.24573
833.353	59.62751
833.529	30.46958
833.705	47.73112
833.881	33.33584
834.058	32.37654
834.234	35.81202
834.41	35.255
834.586	27.32196
834.761	36.57764
834.937	41.55899
835.113	45.15294
835.289	39.52034
835.465	52.85729
835.641	40.97385
835.817	50.97192
835.993	95.96838
836.169	41.47987
836.344	68.54652
836.52	78.27063
836.696	77.01463
836.872	51.66165
837.048	162.79092
837.223	60.98611
837.399	129.14046
837.575	102.93577
837.75	89.91387
837.926	128.74836
838.102	205.17224
838.277	157.12926
838.453	193.43812
838.628	186.94482
838.804	78.50049
838.98	192.7759
839.155	82.19869
839.331	122.34025
839.506	88.0891
839.682	88.17312
839.857	106.67937
840.033	127.17069
840.208	58.69739
840.384	26.88413
840.559	64.71895
840.734	105.66578
840.91	147.18303
841.085	89.30918
841.26	90.29035
841.436	82.36038
841.611	74.26129
841.786	132.98995
841.962	164.49534
842.137	102.32439
842.312	65.09047
842.487	89.62295
842.663	64.92923
842.838	95.78135
843.013	269.5537
843.188	139.59649
843.363	148.22754
843.538	254.26907
843.714	258.771
843.889	251.22126
844.064	254.55974
844.239	206.02495
844.414	265.93476
844.589	173.95934
844.764	301.38572
844.939	285.60051
845.114	363.04192
845.289	317.27915
845.464	354.56522
845.639	282.64216
845.814	140.6088
845.989	169.02279
846.163	172.1247
846.338	225.24083
846.513	311.48381
846.688	216.85895
846.863	224.48995
847.038	181.97986
847.212	211.85436
847.387	217.35306
847.562	224.35597
847.737	244.90085
847.911	109.28676
848.086	136.04313
848.261	406.19112
848.435	205.74566
848.61	313.21206
848.785	139.00807
848.959	268.68428
849.134	373.89114
849.308	506.31681
849.483	219.37815
849.658	324.24121
849.832	210.39753
850.007	161.43273
850.181	412.99007
850.356	165.66362
850.53	367.32537
850.705	143.80906
850.879	85.04234
851.053	202.22302
851.228	183.90215
851.402	279.23771
851.577	323.13964
851.751	319.49329
851.925	225.00002
852.099	96.95562
852.274	156.57828
852.448	209.41456
852.622	278.4394
852.797	215.85081
852.971	210.39242
853.145	254.56971
853.319	433.71918
853.493	347.47437
853.668	197.65041
853.842	394.16154
854.016	309.67842
854.19	412.14983
854.364	246.61605
854.538	262.19773
854.712	336.05661
854.886	219.55064
855.06	189.51212
855.234	74.37388
855.408	371.62795
855.582	328.23089
855.756	310.26526
855.93	387.81405
856.104	272.50527
856.278	320.62482
856.452	226.51385
856.626	282.45744
856.8	442.46327
856.973	276.07365
857.147	263.77212
857.321	278.25761
857.495	335.66224
857.669	227.62922
857.842	210.48955
858.016	346.05312
858.19	142.54379
858.364	580.73874
858.537	215.87838
858.711	245.54554
858.885	194.49301
859.058	159.07196
859.232	104.44761
859.405	116.74803
859.579	319.60372
859.753	254.67189
859.926	173.42199
860.1	114.73357
860.273	230.30437
860.447	407.34626
860.62	206.27268
860.794	413.81126
860.967	237.10702
861.141	342.55614
861.314	471.44328
861.487	274.72024
861.661	358.83889
861.834	412.58647
862.008	300.00637
862.181	249.72761
862.354	259.95132
862.528	279.77389
862.701	183.61131
862.874	132.91059
863.047	194.7748
863.221	200.28455
863.394	98.92974
863.567	327.87332
863.74	74.03467
863.913	335.28911
864.087	277.99478
864.26	314.68319
864.433	207.54963
864.606	460.61555
864.779	241.97271
864.952	100.86701
865.125	193.77297
865.298	230.99487
865.471	240.34531
865.644	405.41879
865.817	310.46163
865.99	308.96646
866.163	368.148
866.336	192.81995
866.509	199.39606
866.682	197.75587
866.855	325.45496
867.028	114.93337
867.2	286.54486
867.373	72.68462
867.546	248.43023
867.719	427.60071
867.892	250.03119
868.064	163.54128
868.237	261.17627
868.41	269.44911
868.583	133.04811
868.755	124.33445
868.928	195.22388
869.101	436.5804
869.273	312.61396
869.446	257.4231
869.619	359.09302
869.791	209.63618
869.964	332.41728
870.136	316.6159
870.309	244.15021
870.481	235.8422
870.654	124.01078
870.826	246.81834
870.999	198.85471
871.171	295.93594
871.344	177.91541
871.516	219.33467
871.689	166.09364
871.861	243.34395
872.033	179.40066
872.206	206.2122
872.378	311.5262
872.55	202.68422
872.723	134.11095
872.895	197.20585
873.067	329.26995
873.24	296.67611
873.412	181.66625
873.584	219.38205
873.756	196.131
873.928	264.1452
874.101	234.03968
874.273	254.56129
874.445	101.44158
874.617	132.65733
874.789	216.44665
874.961	196.64065
875.133	257.68664
875.305	219.06601
875.477	138.37885
875.649	90.18823
875.821	149.26617
875.993	340.39866
876.165	152.04648
876.337	231.71596
876.509	223.67343
876.681	243.25644
876.853	234.56435
877.025	245.08704
877.197	166.60688
877.369	139.34389
877.541	265.70003
877.712	67.56597
877.884	115.95833
878.056	238.51566
878.228	132.5427
878.4	255.25432
878.571	129.3082
878.743	89.87637
878.915	195.17907
879.086	125.53254
879.258	154.77596
879.43	130.08853
879.601	112.1496
879.773	121.82771
879.945	24.45766
880.116	47.76093
880.288	25.98212
880.459	31.43618
880.631	20.23202
880.802	27.81013
880.974	24.95052
881.145	15.07517
881.317	22.18259
881.488	15.8929
881.66	19.1773
881.831	16.07844
882.002	25.54162
882.174	16.56243
882.345	25.58941
882.517	8.57602
882.688	33.50004
882.859	25.56387
883.03	47.99119
883.202	45.48439
883.373	37.64235
883.544	37.45241
883.715	69.46118
883.887	58.15427
884.058	44.31439
884.229	73.23788
884.4	69.45445
884.571	83.67369
884.742	65.93992
884.914	72.57303
885.085	103.42499
885.256	147.3001
885.427	116.33797
885.598	132.41247
885.769	142.71568
885.94	141.10359
886.111	89.155
886.282	170.82896
886.453	118.61139
886.624	91.80545
886.795	178.43771
886.966	127.88343
887.136	180.36918
887.307	114.42195
887.478	248.56202
887.649	217.23428
887.82	201.58501
887.991	165.75141
888.161	253.74018
888.332	213.66458
888.503	122.5199
888.674	288.91162
888.844	331.1759
889.015	249.75723
889.186	122.03983
889.356	307.22694
889.527	107.92052
889.698	452.89425
889.868	152.31424
890.039	243.243
890.209	191.21093
890.38	235.7943
890.551	213.80234
890.721	304.35064
890.892	283.28118
891.062	192.45013
891.233	239.72793
891.403	163.57074
891.574	138.77469
891.744	195.01145
891.914	199.93489
892.085	179.36275
892.255	60.48095
892.425	290.38006
892.596	209.81709
892.766	224.07596
892.936	280.05411
893.107	238.75552
893.277	129.08994
893.447	100.62479
893.618	68.84558
893.788	149.34947
893.958	85.03921
894.128	75.5585
894.298	92.96051
894.468	121.00293
894.639	55.80133
894.809	34.19397
894.979	59.66904
895.149	74.8254
895.319	59.4996
895.489	93.39507
895.659	121.47414
895.829	79.79231
895.999	85.6001
896.169	61.34306
896.339	86.00539
896.509	176.51019
896.679	186.99272
896.849	195.50332
897.019	267.69416
897.189	188.69897
897.358	164.73556
897.528	270.97104
897.698	79.0585
897.868	224.41365
898.038	394.13239
898.208	352.85258
898.377	96.95503
898.547	340.24867
898.717	469.95376
898.886	226.71217
899.056	393.89051
899.226	459.59203
899.395	293.60315
899.565	440.24839
899.735	300.33663
899.904	443.88896
900.074	382.33139
900.244	175.03287
900.413	600.76656
900.583	140.81894
900.752	287.42515
900.922	412.198
901.091	40.08908
901.261	341.78103
901.43	314.61202
901.599	322.45061
901.769	704.94969
901.938	452.71043
902.108	362.69348
902.277	445.48882
902.446	118.30993
902.616	149.45205
902.785	186.73118
902.954	360.98049
903.124	213.77134
903.293	163.55548
903.462	92.00112
903.631	140.55749
903.801	102.86086
903.97	50.47781
904.139	85.8487
904.308	65.15007
904.477	58.31591
904.646	36.80527
904.816	54.12087
904.985	84.84797
905.154	139.25174
