Data from WindowProjectSample_Transmission__1__00001__041636539914912296.txt Node

Date: Mon May 05 16:16:14 EDT 2025
User: jessi
Spectrometer: SR400872
Trigger mode: 0
Integration Time (sec): 5.000010E-1
Scans to average: 20
Electric dark correction enabled: true
Nonlinearity correction enabled: true
Boxcar width: 0
XAxis mode: Wavelengths
Number of Pixels in Spectrum: 3648
>>>>>Begin Spectral Data<<<<<
184.909	18122.43329
185.132	-4384.36248
185.355	-2641.24319
185.578	-14798.66859
185.801	1074.36618
186.024	9124.20342
186.247	-1648.986
186.47	1022.16878
186.693	290.5839
186.916	203.41001
187.139	-3149.58077
187.362	2906.55735
187.585	3482.2815
187.808	3278.10025
188.031	123.24856
188.254	-47131.21108
188.476	-547.42675
188.699	5556.48914
188.922	531.23898
189.145	-13362.19585
189.368	-497.35895
189.591	-1093.8355
189.813	2703.50762
190.036	-43077.11251
190.259	-744.05434
190.482	-4019.36943
190.705	6244.35408
190.927	-2251.395
191.15	11520.05383
191.373	2806.63562
191.595	-7926.45975
191.818	-3569.91852
192.041	-6967.93127
192.263	-3135.73349
192.486	-657.18392
192.709	-3471.6583
192.931	6583.18572
193.154	-24980.09306
193.377	-2379.39207
193.599	-2239.97856
193.822	-7912.31024
194.044	-1605.73996
194.267	1062.9871
194.489	207.88243
194.712	-35344.66259
194.934	-26719.06278
195.157	913.34628
195.379	1245.32326
195.602	-6106.87255
195.824	-1124.55657
196.047	-7583.90701
196.269	2359.05128
196.492	-5333.32441
196.714	24391.96597
196.936	-7589.58652
197.159	-1037.08911
197.381	1063.9735
197.604	455.24347
197.826	10438.55985
198.048	-9216.32925
198.271	-2336.88749
198.493	6613.89696
198.715	1948.08529
198.938	-415.10643
199.16	6232.50506
199.382	-89106.20901
199.604	2070.55292
199.827	-997.23773
200.049	-2639.03561
200.271	11931.86942
200.493	1061.97687
200.715	-31947.74261
200.938	-5289.21858
201.16	-3633.95002
201.382	18680.89682
201.604	1998.73774
201.826	1964.12082
202.048	-1648.64724
202.27	-1663.44434
202.492	-31730.57243
202.715	2651.29794
202.937	-3779.61996
203.159	-5501.59006
203.381	1423.01171
203.603	5844.21782
203.825	5582.4
204.047	1969.2402
204.269	-2283.14719
204.491	1951.42594
204.713	5287.7364
204.935	-398841.88209
205.156	1061.15497
205.378	-2320.56486
205.6	1432.50287
205.822	130983.84444
206.044	-764.6587
206.266	1407.07108
206.488	3850.53007
206.71	-4686.48961
206.932	968.45632
207.153	10872.31018
207.375	-6143.88422
207.597	-33144.4695
207.819	-2406.04512
208.041	2110.08406
208.262	476.34787
208.484	611.12104
208.706	-662.64523
208.927	-750.52804
209.149	516.09803
209.371	-2512.06469
209.593	-228.48552
209.814	-754.90567
210.036	463.73565
210.258	-505.6483
210.479	1478.558
210.701	1439.5542
210.922	2956.54703
211.144	-3563.84158
211.366	1780.39096
211.587	5779.08946
211.809	-7281.39031
212.03	2038.90982
212.252	352.49277
212.473	1804.5274
212.695	-4682.54831
212.916	2604.66271
213.138	-499.63471
213.359	3250.23326
213.581	4486.16977
213.802	-653.7124
214.024	935.47078
214.245	1902.38836
214.466	1972.37042
214.688	-2656.18475
214.909	-1032.26853
215.131	-1508.32027
215.352	-2590.19549
215.573	12677.00001
215.795	4336.27009
216.016	4300.2179
216.237	718.07453
216.459	3066.47641
216.68	1555.51874
216.901	4145.40142
217.122	-2518.78441
217.344	-10237.88317
217.565	2984.43425
217.786	7855.47973
218.007	13590.15621
218.228	-564.41443
218.45	5038.13534
218.671	655.32212
218.892	32848.10493
219.113	1232.07308
219.334	-325.67571
219.555	8573.19761
219.776	2641.17611
219.997	18669.34523
220.219	2452.66106
220.44	-9408.46982
220.661	419.94218
220.882	1238.94095
221.103	-913.22414
221.324	1964.74198
221.545	2015.23814
221.766	-7680.91152
221.987	826.70007
222.208	1566.07412
222.429	3730.43867
222.65	82.46801
222.87	17938.60806
223.091	595.48229
223.312	516.93407
223.533	1122.89348
223.754	1256.44353
223.975	1147.5338
224.196	1667.09807
224.417	1092.32016
224.637	489.72965
224.858	59.39689
225.079	997.65004
225.3	548.99999
225.521	3474.33719
225.741	405.79559
225.962	423.76212
226.183	120.49118
226.404	584.00763
226.624	373.67523
226.845	551.19341
227.066	356.38689
227.286	214.80358
227.507	108.03521
227.728	96.01826
227.948	206.02927
228.169	62.79375
228.389	75.01943
228.61	40.25064
228.831	56.67035
229.051	0.40651
229.272	31.71917
229.492	48.47546
229.713	10.91106
229.933	32.35639
230.154	27.79782
230.374	46.19807
230.595	31.25153
230.815	19.62852
231.036	35.69497
231.256	-9.16666
231.477	58.99613
231.697	31.59444
231.917	33.57855
232.138	44.50346
232.358	91.6301
232.579	91.96648
232.799	16.87744
233.019	86.85504
233.24	96.20746
233.46	35.66734
233.68	54.36305
233.901	35.81202
234.121	22.29726
234.341	10.39954
234.561	-5.34424
234.782	16.32317
235.002	57.02725
235.222	-5.21819
235.442	57.68094
235.662	28.82465
235.883	53.71853
236.103	43.13223
236.323	31.15942
236.543	22.7493
236.763	34.31699
236.983	37.90754
237.203	34.04155
237.423	51.14362
237.643	76.01723
237.864	62.19254
238.084	15.3673
238.304	24.59292
238.524	36.59124
238.744	33.76047
238.964	66.1587
239.184	53.84478
239.404	54.26326
239.624	28.1394
239.843	51.81898
240.063	31.56941
240.283	19.17708
240.503	22.10598
240.723	22.12758
240.943	12.38375
241.163	16.89745
241.383	12.75216
241.603	6.17163
241.822	8.52713
242.042	5.6656
242.262	7.50411
242.482	8.23893
242.702	9.51509
242.921	2.44332
243.141	5.63323
243.361	5.37952
243.581	8.07452
243.8	6.09131
244.02	4.13595
244.24	7.6915
244.459	8.53071
244.679	15.52537
244.899	9.5173
245.118	10.33634
245.338	9.59144
245.558	11.74683
245.777	7.28589
245.997	8.99894
246.216	8.99432
246.436	5.12405
246.655	4.16912
246.875	2.59681
247.094	5.28777
247.314	1.73016
247.533	3.09393
247.753	3.77558
247.972	2.91343
248.192	0.98508
248.411	1.63726
248.631	3.15646
248.85	3.96825
249.07	2.99491
249.289	4.73303
249.508	4.54328
249.728	6.27053
249.947	5.72556
250.166	7.54461
250.386	3.48145
250.605	5.65481
250.824	9.24554
251.044	6.18541
251.263	25.19408
251.482	12.61102
251.701	10.41955
251.921	-0.11849
252.14	2.69755
252.359	3.08095
252.578	8.7384
252.798	3.00901
253.017	7.79721
253.236	3.52995
253.455	4.89798
253.674	8.94847
253.893	4.30297
254.112	6.01169
254.331	9.63346
254.551	7.45225
254.77	3.50168
254.989	11.17654
255.208	8.17932
255.427	12.64728
255.646	10.05518
255.865	18.53643
256.084	7.75001
256.303	8.76697
256.522	12.63373
256.741	2.95185
256.96	1.77109
257.179	6.45482
257.397	9.29367
257.616	5.27062
257.835	5.23518
258.054	13.16346
258.273	8.95929
258.492	9.50251
258.711	5.36315
258.93	2.61397
259.148	4.17327
259.367	3.80333
259.586	4.86195
259.805	2.00854
260.023	4.62947
260.242	3.4559
260.461	2.43554
260.68	1.16295
260.898	3.97492
261.117	1.20861
261.336	0.85186
261.554	3.05633
261.773	2.93523
261.992	0.73434
262.21	2.88481
262.429	2.85204
262.648	6.75659
262.866	6.94302
263.085	4.91914
263.303	4.18351
263.522	7.44268
263.74	7.95277
263.959	13.32456
264.178	5.87077
264.396	5.43945
264.615	3.8981
264.833	8.93737
265.051	7.31319
265.27	8.79708
265.488	9.35535
265.707	5.48136
265.925	9.49855
266.144	4.02926
266.362	4.83104
266.58	4.43084
266.799	4.38101
267.017	5.32718
267.235	4.43572
267.454	2.97924
267.672	1.41751
267.89	3.55622
268.109	3.7278
268.327	3.68713
268.545	1.00514
268.763	3.25895
268.982	1.24385
269.2	3.7193
269.418	2.62195
269.636	1.44109
269.854	3.82384
270.073	2.77659
270.291	1.69045
270.509	1.51998
270.727	3.81756
270.945	6.27352
271.163	6.06369
271.381	1.10736
271.599	2.75752
271.817	4.73313
272.036	1.49254
272.254	2.68098
272.472	1.99461
272.69	2.32209
272.908	1.93002
273.126	3.86804
273.344	4.66248
273.562	1.51747
273.779	2.23535
273.997	3.10012
274.215	3.56827
274.433	2.59507
274.651	3.71633
274.869	4.29798
275.087	2.40581
275.305	3.61611
275.523	2.18338
275.74	2.60023
275.958	4.54194
276.176	6.96055
276.394	2.26823
276.612	2.90886
276.829	2.80401
277.047	2.22086
277.265	2.71123
277.483	3.1274
277.7	3.70692
277.918	2.87598
278.136	5.40329
278.353	2.46408
278.571	1.47845
278.789	3.48519
279.006	0.82325
279.224	2.39631
279.442	4.5557
279.659	2.9854
279.877	2.05589
280.094	5.07631
280.312	0.89068
280.529	2.84654
280.747	0.82458
280.964	2.07091
281.182	5.12845
281.399	2.33826
281.617	3.32407
281.834	2.04427
282.052	1.58658
282.269	2.71153
282.487	2.11758
282.704	1.76105
282.921	1.72366
283.139	2.74547
283.356	3.56359
283.574	3.39976
283.791	1.61744
284.008	4.78619
284.226	2.50793
284.443	2.79608
284.66	3.98789
284.877	3.13633
285.095	1.75076
285.312	1.40213
285.529	0.86792
285.746	0.6893
285.964	1.78004
286.181	1.29234
286.398	1.62371
286.615	2.32347
286.832	2.20568
287.05	0.40109
287.267	1.67875
287.484	1.60648
287.701	2.21175
287.918	2.34571
288.135	2.31834
288.352	1.08423
288.569	1.1985
288.786	2.05903
289.003	1.71198
289.22	2.50756
289.437	1.40044
289.654	2.44291
289.871	2.61954
290.088	2.42958
290.305	1.93566
290.522	1.54101
290.739	1.79736
290.956	2.69263
291.173	3.00431
291.39	3.00807
291.607	2.06335
291.824	1.48396
292.04	1.14344
292.257	2.59895
292.474	2.84912
292.691	1.65025
292.908	0.7917
293.125	1.46917
293.341	1.00304
293.558	4.4142
293.775	1.62427
293.992	1.86256
294.208	0.75177
294.425	1.20707
294.642	1.8763
294.858	2.11942
295.075	0.59652
295.292	1.8804
295.508	2.26746
295.725	3.73779
295.942	1.87235
296.158	1.55042
296.375	2.44481
296.591	2.03192
296.808	2.33545
297.024	2.61858
297.241	2.86981
297.458	3.23654
297.674	1.3743
297.891	2.76864
298.107	2.79566
298.323	2.33629
298.54	4.3746
298.756	2.75646
298.973	2.32505
299.189	4.59836
299.406	3.13306
299.622	4.39173
299.838	4.45029
300.055	4.31873
300.271	2.93518
300.487	3.41021
300.704	3.75378
300.92	3.30234
301.136	6.56017
301.353	4.98439
301.569	4.52218
301.785	4.86671
302.001	5.3133
302.218	4.94282
302.434	5.29556
302.65	3.98331
302.866	4.76635
303.083	6.85786
303.299	6.99223
303.515	5.21463
303.731	5.70724
303.947	4.3314
304.163	5.07727
304.379	5.7003
304.595	5.92902
304.812	4.92902
305.028	5.22566
305.244	5.62147
305.46	6.44152
305.676	6.53365
305.892	7.07298
306.108	6.55652
306.324	5.55504
306.54	7.35443
306.756	6.35592
306.972	6.13308
307.187	5.98444
307.403	7.06661
307.619	5.85659
307.835	6.99424
308.051	7.42745
308.267	5.48888
308.483	7.59744
308.699	6.80459
308.914	6.61679
309.13	6.45087
309.346	5.8395
309.562	6.10601
309.778	5.87205
309.993	7.2608
310.209	7.2823
310.425	6.16016
310.641	7.22678
310.856	6.44245
311.072	6.52792
311.288	7.14322
311.503	7.52863
311.719	5.95496
311.935	6.08524
312.15	7.97371
312.366	7.5776
312.581	7.72139
312.797	7.43755
313.013	7.9886
313.228	6.75172
313.444	6.89399
313.659	6.76444
313.875	7.38711
314.09	7.00069
314.306	8.21609
314.521	7.87866
314.737	7.66939
314.952	7.12482
315.168	7.19009
315.383	7.50759
315.599	6.80852
315.814	7.0942
316.029	7.66255
316.245	6.47393
316.46	5.72773
316.675	8.03583
316.891	8.49201
317.106	9.52337
317.321	7.28463
317.537	7.7263
317.752	8.00115
317.967	7.99836
318.183	6.47364
318.398	7.02173
318.613	7.91405
318.828	8.35645
319.043	7.97068
319.259	7.27609
319.474	7.4035
319.689	8.30197
319.904	5.8855
320.119	8.23701
320.334	7.59067
320.549	7.28863
320.765	8.39958
320.98	7.68429
321.195	7.63013
321.41	7.4054
321.625	7.94257
321.84	8.82891
322.055	8.75251
322.27	7.11976
322.485	6.66381
322.7	7.94365
322.915	8.10069
323.13	7.26188
323.345	9.08471
323.56	8.77762
323.775	8.46677
323.989	8.15197
324.204	8.08973
324.419	8.94601
324.634	7.11453
324.849	7.88803
325.064	10.79107
325.279	9.03301
325.493	8.34272
325.708	8.79729
325.923	7.46147
326.138	7.96959
326.352	9.2805
326.567	8.90702
326.782	7.59264
326.997	7.80292
327.211	8.54646
327.426	8.41694
327.641	7.84877
327.855	7.38581
328.07	8.4169
328.285	9.68858
328.499	7.58473
328.714	8.12142
328.928	8.22303
329.143	8.0021
329.358	8.80511
329.572	8.97848
329.787	9.09293
330.001	9.94631
330.216	7.08889
330.43	9.79836
330.645	8.99308
330.859	8.75635
331.074	7.28213
331.288	8.27366
331.503	9.21546
331.717	7.33214
331.931	8.23318
332.146	8.61101
332.36	9.64507
332.575	8.53862
332.789	8.33732
333.003	8.69869
333.218	8.83676
333.432	7.93296
333.646	8.93867
333.86	10.01654
334.075	9.51487
334.289	7.91632
334.503	7.10362
334.717	8.71392
334.932	8.25766
335.146	8.8946
335.36	7.49984
335.574	8.76932
335.788	8.31243
336.003	8.92626
336.217	8.92006
336.431	8.66242
336.645	8.1529
336.859	7.87486
337.073	8.43851
337.287	8.91431
337.501	7.6728
337.715	9.30856
337.929	9.35568
338.143	7.99663
338.357	8.55788
338.571	8.62022
338.785	9.39451
338.999	8.49147
339.213	8.29827
339.427	7.91011
339.641	9.87338
339.855	8.31359
340.069	8.11012
340.283	9.39662
340.497	9.98699
340.711	9.01797
340.924	8.74712
341.138	8.01857
341.352	7.80442
341.566	8.98152
341.78	7.78554
341.993	8.65404
342.207	8.32609
342.421	9.12892
342.635	8.63578
342.848	8.673
343.062	7.14563
343.276	8.51372
343.49	10.41429
343.703	8.43857
343.917	9.78629
344.131	9.88689
344.344	8.30405
344.558	8.7219
344.771	7.97954
344.985	10.14687
345.199	10.31141
345.412	9.36923
345.626	9.60982
345.839	8.07345
346.053	8.38306
346.266	8.50797
346.48	9.6072
346.693	9.52868
346.907	9.29616
347.12	8.41895
347.334	9.06927
347.547	9.26417
347.76	8.90015
347.974	9.78101
348.187	8.9784
348.401	8.59577
348.614	8.26912
348.827	8.69409
349.041	9.18596
349.254	7.84973
349.467	8.59788
349.681	8.417
349.894	8.40768
350.107	10.09019
350.32	10.48423
350.534	8.14627
350.747	8.77338
350.96	8.6461
351.173	8.71098
351.386	9.09249
351.6	8.76978
351.813	8.79755
352.026	8.90204
352.239	8.3751
352.452	8.74959
352.665	10.11953
352.878	9.16246
353.092	10.68309
353.305	9.92917
353.518	9.59731
353.731	8.55262
353.944	10.16365
354.157	9.1711
354.37	9.1345
354.583	8.62412
354.796	8.67009
355.009	9.98368
355.222	9.89176
355.435	9.58176
355.647	10.43527
355.86	9.14055
356.073	9.8834
356.286	9.26992
356.499	10.42536
356.712	10.18551
356.925	10.41242
357.138	10.41798
357.35	9.55137
357.563	9.68709
357.776	10.25034
357.989	10.04923
358.201	10.4847
358.414	10.36301
358.627	11.0563
358.84	9.99607
359.052	9.27659
359.265	9.62846
359.478	10.82876
359.69	8.60564
359.903	10.80936
360.116	10.99066
360.328	9.51222
360.541	10.83215
360.753	10.05848
360.966	10.42311
361.179	10.4804
361.391	10.46651
361.604	10.33043
361.816	10.67299
362.029	10.6612
362.241	10.33214
362.454	10.78324
362.666	10.31966
362.879	11.15729
363.091	10.68262
363.304	10.50963
363.516	10.55611
363.728	10.05901
363.941	10.9355
364.153	10.88876
364.366	9.58344
364.578	10.20896
364.79	10.64573
365.003	10.78518
365.215	10.15834
365.427	11.18685
365.639	11.30881
365.852	10.77743
366.064	11.89268
366.276	10.54604
366.488	10.89668
366.701	10.65048
366.913	10.63434
367.125	10.6853
367.337	10.24716
367.549	10.40586
367.762	10.80677
367.974	10.97801
368.186	10.58452
368.398	11.43113
368.61	10.94928
368.822	11.2359
369.034	10.50747
369.246	11.39945
369.458	12.89606
369.67	10.38566
369.882	11.96838
370.094	9.92054
370.306	11.9049
370.518	10.96392
370.73	10.80653
370.942	10.97644
371.154	11.10588
371.366	11.09911
371.578	11.63221
371.79	11.16845
372.002	11.96399
372.214	12.81759
372.425	11.3643
372.637	12.47923
372.849	11.72896
373.061	10.30301
373.273	11.59829
373.484	11.70946
373.696	11.95145
373.908	10.17903
374.12	12.05906
374.331	11.89187
374.543	10.96968
374.755	11.20556
374.967	11.59605
375.178	12.19647
375.39	11.43274
375.602	11.90235
375.813	10.88854
376.025	11.41988
376.236	12.06879
376.448	12.35979
376.66	11.99743
376.871	12.10299
377.083	12.96153
377.294	13.3979
377.506	12.02632
377.717	13.21422
377.929	12.52478
378.14	12.33136
378.352	12.57838
378.563	12.92251
378.775	13.23881
378.986	11.82254
379.197	12.57164
379.409	11.99352
379.62	12.6803
379.832	12.78343
380.043	12.36406
380.254	12.76122
380.466	11.92696
380.677	14.45031
380.888	13.64931
381.1	14.23289
381.311	14.47868
381.522	12.99309
381.733	14.36142
381.945	12.7988
382.156	12.60486
382.367	12.57429
382.578	14.48247
382.789	14.58615
383.001	12.64306
383.212	14.19864
383.423	13.96448
383.634	13.88717
383.845	13.80691
384.056	13.1802
384.267	13.28751
384.478	13.61872
384.69	12.73312
384.901	13.75735
385.112	13.6094
385.323	14.67759
385.534	13.84825
385.745	13.84697
385.956	13.6113
386.167	13.13154
386.378	14.00786
386.588	13.32582
386.799	13.25455
387.01	12.96957
387.221	14.33583
387.432	13.88436
387.643	14.7233
387.854	13.68234
388.065	13.77785
388.275	13.89465
388.486	13.5284
388.697	13.93789
388.908	13.63015
389.119	14.6226
389.329	14.70795
389.54	14.06659
389.751	14.17938
389.962	14.90782
390.172	14.19462
390.383	14.19943
390.594	13.79719
390.804	13.95919
391.015	14.13634
391.226	14.59692
391.436	14.72673
391.647	14.83579
391.858	14.83502
392.068	13.7684
392.279	14.03681
392.489	14.75628
392.7	15.21439
392.91	14.38018
393.121	14.1941
393.331	14.98832
393.542	15.38413
393.752	15.01174
393.963	15.11094
394.173	15.05748
394.384	15.1815
394.594	15.011
394.804	14.32023
395.015	15.18723
395.225	15.21409
395.436	14.54429
395.646	15.14714
395.856	14.82493
396.067	14.05464
396.277	15.43961
396.487	15.12223
396.697	15.21375
396.908	15.27501
397.118	15.31826
397.328	15.09986
397.538	15.59626
397.749	14.6421
397.959	15.47043
398.169	15.25057
398.379	14.4696
398.589	15.51808
398.8	15.28784
399.01	15.34733
399.22	15.12457
399.43	16.42876
399.64	15.37291
399.85	15.68345
400.06	15.35869
400.27	14.80978
400.48	15.25995
400.69	16.05061
400.9	15.04834
401.11	14.71851
401.32	15.59577
401.53	15.04689
401.74	16.2938
401.95	15.6015
402.16	15.1529
402.37	15.46563
402.58	15.19765
402.79	15.63267
403	16.16994
403.209	15.15167
403.419	16.33682
403.629	15.23366
403.839	16.35528
404.049	16.21223
404.258	15.77544
404.468	15.43175
404.678	16.22631
404.888	16.56032
405.097	15.71372
405.307	15.83147
405.517	16.32112
405.727	16.26926
405.936	15.77772
406.146	16.02328
406.356	16.65988
406.565	15.94023
406.775	15.75315
406.984	15.72101
407.194	17.02801
407.404	15.88457
407.613	16.28377
407.823	16.25058
408.032	16.61579
408.242	16.63441
408.451	15.76724
408.661	15.86943
408.87	17.04901
409.08	15.56114
409.289	16.22622
409.499	16.39437
409.708	16.38808
409.918	15.22311
410.127	16.37894
410.336	17.13416
410.546	16.68578
410.755	16.05141
410.964	16.33932
411.174	15.8319
411.383	16.66223
411.592	16.63086
411.802	15.96305
412.011	16.762
412.22	16.21762
412.429	17.14045
412.639	17.23244
412.848	16.7179
413.057	17.16502
413.266	16.95205
413.475	16.37968
413.685	16.6033
413.894	17.17771
414.103	17.09741
414.312	17.06165
414.521	16.50441
414.73	16.63206
414.939	17.77572
415.148	17.04626
415.357	16.90627
415.566	16.74539
415.776	16.71518
415.985	16.63297
416.194	17.54631
416.403	18.05252
416.611	16.45713
416.82	16.96824
417.029	17.43237
417.238	17.00514
417.447	16.93446
417.656	17.31115
417.865	17.08824
418.074	17.3567
418.283	17.54062
418.492	18.04874
418.7	17.81666
418.909	18.99177
419.118	18.34099
419.327	18.79384
419.536	18.92879
419.744	19.4011
419.953	20.56415
420.162	21.16521
420.371	21.07903
420.579	22.2153
420.788	23.01798
420.997	23.03288
421.205	23.94048
421.414	23.61518
421.623	23.83329
421.831	23.42965
422.04	23.89075
422.249	22.98787
422.457	22.8814
422.666	21.84724
422.874	22.49747
423.083	22.66763
423.291	22.73033
423.5	22.88431
423.708	23.49019
423.917	23.97885
424.125	23.72303
424.334	23.73872
424.542	25.30351
424.751	24.90102
424.959	24.35617
425.167	24.0596
425.376	23.92796
425.584	22.06802
425.793	21.69223
426.001	20.62329
426.209	19.94388
426.418	18.63073
426.626	17.98385
426.834	17.92652
427.042	18.2779
427.251	17.89423
427.459	18.61468
427.667	18.16929
427.875	17.56149
428.084	17.86455
428.292	18.6879
428.5	18.46361
428.708	17.65053
428.916	17.73552
429.124	18.27094
429.333	18.04381
429.541	17.99194
429.749	18.31899
429.957	18.16904
430.165	19.71795
430.373	17.55652
430.581	18.3841
430.789	18.95767
430.997	18.26616
431.205	18.05532
431.413	18.58108
431.621	18.18912
431.829	18.73562
432.037	18.34539
432.245	18.61935
432.453	18.76606
432.661	18.59183
432.869	19.53511
433.076	18.37601
433.284	18.74456
433.492	19.07385
433.7	19.31233
433.908	18.68713
434.116	18.8857
434.323	18.91894
434.531	18.65595
434.739	19.08844
434.947	19.04732
435.154	19.1689
435.362	18.58836
435.57	18.6906
435.778	18.35263
435.985	18.8398
436.193	18.43777
436.401	19.4131
436.608	18.68527
436.816	18.56334
437.023	19.47134
437.231	19.60608
437.439	19.00425
437.646	19.19853
437.854	19.13566
438.061	19.26953
438.269	18.96927
438.476	19.33823
438.684	19.07589
438.891	19.03466
439.099	18.86054
439.306	18.71046
439.514	18.83051
439.721	20.06661
439.929	20.04434
440.136	21.10328
440.343	21.33353
440.551	21.48272
440.758	23.02286
440.965	21.53005
441.173	21.40718
441.38	21.35079
441.587	20.44989
441.795	20.36194
442.002	19.61069
442.209	19.33781
442.416	19.51626
442.624	19.4322
442.831	19.33234
443.038	18.95402
443.245	18.77266
443.452	19.14118
443.66	19.50966
443.867	19.10873
444.074	19.05152
444.281	19.19627
444.488	19.34084
444.695	19.5973
444.902	19.42536
445.109	20.7676
445.316	21.06413
445.523	21.91168
445.73	22.68534
445.937	23.83534
446.144	24.51718
446.351	25.33075
446.558	24.32252
446.765	26.5825
446.972	25.27429
447.179	25.02859
447.386	25.33698
447.593	23.22844
447.8	24.05694
448.007	22.10204
448.214	20.91738
448.42	20.04865
448.627	20.06776
448.834	19.50486
449.041	19.5504
449.248	19.35904
449.454	19.7477
449.661	20.30341
449.868	19.14698
450.075	19.23932
450.281	18.5277
450.488	19.01497
450.695	19.10891
450.901	19.17279
451.108	19.10225
451.315	19.94201
451.521	19.34518
451.728	19.97892
451.935	19.18812
452.141	19.45997
452.348	19.38759
452.554	19.596
452.761	19.3224
452.967	20.44829
453.174	19.69674
453.38	19.80777
453.587	19.04677
453.793	19.59306
454	20.00173
454.206	20.54275
454.413	19.98096
454.619	19.81304
454.825	19.23495
455.032	19.9824
455.238	20.07087
455.445	19.18652
455.651	19.69775
455.857	18.83747
456.064	19.51646
456.27	19.39814
456.476	19.45648
456.682	19.03666
456.889	19.77041
457.095	19.83414
457.301	20.76379
457.507	19.78183
457.714	19.86848
457.92	19.8692
458.126	19.59074
458.332	19.87158
458.538	19.80561
458.744	19.91587
458.951	19.98325
459.157	22.43495
459.363	22.57103
459.569	23.29997
459.775	23.97881
459.981	24.38987
460.187	24.97523
460.393	24.70461
460.599	24.70267
460.805	23.52686
461.011	21.8738
461.217	21.08074
461.423	20.40425
461.629	20.04012
461.835	20.08646
462.041	19.74526
462.247	20.65334
462.453	19.77357
462.658	19.77418
462.864	20.25962
463.07	20.0337
463.276	20.02108
463.482	19.91149
463.688	20.58834
463.893	19.59565
464.099	19.96203
464.305	20.62053
464.511	19.84128
464.716	19.93256
464.922	20.34958
465.128	19.63681
465.333	20.73775
465.539	20.27998
465.745	20.14116
465.95	20.28562
466.156	21.34565
466.362	20.59319
466.567	20.17115
466.773	19.77098
466.978	20.80526
467.184	19.58957
467.389	19.25139
467.595	20.18688
467.8	19.89044
468.006	20.7541
468.211	20.6239
468.417	19.65011
468.622	20.32279
468.828	20.42241
469.033	20.43759
469.239	21.38522
469.444	19.9316
469.649	20.47102
469.855	20.17521
470.06	20.1569
470.266	19.9019
470.471	20.49728
470.676	20.43113
470.881	19.4208
471.087	21.05965
471.292	21.49435
471.497	19.72983
471.703	20.24788
471.908	20.10031
472.113	20.33737
472.318	20.64365
472.523	19.83277
472.729	20.58399
472.934	20.59231
473.139	20.06117
473.344	20.35744
473.549	20.86206
473.754	20.01295
473.959	21.65178
474.164	19.90882
474.369	20.30688
474.575	20.7624
474.78	20.36467
474.985	19.99504
475.19	19.57041
475.395	19.97305
475.6	20.26344
475.804	21.03833
476.009	20.47814
476.214	20.33929
476.419	20.38363
476.624	19.84929
476.829	20.18409
477.034	20.77415
477.239	20.31022
477.444	20.96084
477.648	20.8838
477.853	20.74025
478.058	20.43635
478.263	20.27381
478.468	20.23838
478.672	20.17129
478.877	21.26029
479.082	21.21775
479.287	20.8753
479.491	20.58066
479.696	20.34794
479.901	20.84892
480.105	20.95326
480.31	20.24805
480.515	20.747
480.719	21.5488
480.924	20.52444
481.128	20.33811
481.333	20.80202
481.538	20.97716
481.742	21.86622
481.947	23.49758
482.151	25.57536
482.356	27.69725
482.56	31.92821
482.765	35.90572
482.969	41.97079
483.174	47.71708
483.378	54.499
483.582	57.74656
483.787	61.54192
483.991	63.65456
484.196	64.619
484.4	64.07968
484.604	63.75315
484.809	59.30828
485.013	55.54115
485.217	50.56714
485.422	45.3164
485.626	40.89601
485.83	38.2171
486.034	36.78464
486.239	37.05918
486.443	38.08981
486.647	39.32469
486.851	40.99354
487.055	43.99897
487.26	45.24213
487.464	47.22882
487.668	47.20108
487.872	48.69151
488.076	48.26932
488.28	46.84151
488.484	44.36584
488.688	42.73063
488.892	40.24552
489.096	37.22857
489.3	34.6271
489.504	32.09291
489.708	30.14198
489.912	29.07474
490.116	28.40307
490.32	28.32226
490.524	30.23327
490.728	31.98485
490.932	34.27516
491.136	36.60539
491.34	38.76058
491.544	39.60093
491.748	40.28016
491.951	40.35493
492.155	39.61973
492.359	38.39322
492.563	35.85874
492.767	33.60583
492.97	30.28882
493.174	27.05251
493.378	24.52167
493.582	22.07618
493.785	20.78534
493.989	20.73067
494.193	20.77517
494.396	20.72492
494.6	21.18612
494.804	20.87145
495.007	20.60116
495.211	20.6641
495.414	20.75392
495.618	21.10248
495.822	21.53332
496.025	21.12121
496.229	21.34997
496.432	20.88999
496.636	21.27951
496.839	21.0888
497.043	21.83769
497.246	21.46994
497.45	21.10164
497.653	21.39325
497.856	21.3566
498.06	20.93737
498.263	21.20416
498.467	21.031
498.67	21.45328
498.873	21.36887
499.077	21.09802
499.28	21.11555
499.483	21.12903
499.686	21.44785
499.89	21.24446
500.093	21.6253
500.296	20.81119
500.499	21.82888
500.703	21.02436
500.906	21.26513
501.109	21.81778
501.312	21.10348
501.515	21.08198
501.719	21.26742
501.922	21.72033
502.125	21.31585
502.328	20.9899
502.531	20.87905
502.734	21.13303
502.937	20.62481
503.14	21.34063
503.343	20.9038
503.546	21.19765
503.749	20.93955
503.952	21.69332
504.155	21.00582
504.358	21.41577
504.561	21.3016
504.764	20.77105
504.967	21.40672
505.17	21.1992
505.373	21.84506
505.576	21.43185
505.778	21.46596
505.981	20.87273
506.184	21.81958
506.387	20.50296
506.59	22.17148
506.793	21.61416
506.995	21.4981
507.198	20.61636
507.401	21.73803
507.604	21.54625
507.806	21.10575
508.009	21.15009
508.212	21.83185
508.414	21.29029
508.617	21.29669
508.82	21.55173
509.022	22.14141
509.225	21.62795
509.427	21.1147
509.63	22.12502
509.833	21.48572
510.035	21.19389
510.238	20.90893
510.44	21.92423
510.643	20.68574
510.845	22.27536
511.048	21.55172
511.25	21.34334
511.453	21.41453
511.655	21.75378
511.858	21.43628
512.06	21.78717
512.262	21.71827
512.465	21.77536
512.667	21.36319
512.869	20.9202
513.072	21.69415
513.274	21.70722
513.476	21.8358
513.679	21.77588
513.881	21.0752
514.083	22.02762
514.286	21.24224
514.488	21.21644
514.69	21.09521
514.892	20.88123
515.094	21.70655
515.297	21.13274
515.499	21.60038
515.701	21.11673
515.903	22.1795
516.105	22.27806
516.307	21.80477
516.509	20.84561
516.711	21.09872
516.913	21.70267
517.116	21.69051
517.318	21.47408
517.52	22.22219
517.722	21.95653
517.924	21.37275
518.126	22.0943
518.328	21.95778
518.529	22.80477
518.731	23.52544
518.933	22.23782
519.135	22.36154
519.337	22.79046
519.539	22.06884
519.741	21.07103
519.943	21.55876
520.145	21.57999
520.346	21.96199
520.548	21.32663
520.75	21.64286
520.952	21.41495
521.153	21.76757
521.355	21.73798
521.557	21.17465
521.759	21.52917
521.96	21.65746
522.162	21.06857
522.364	22.03911
522.565	21.26083
522.767	22.01559
522.969	22.04032
523.17	22.00324
523.372	21.79096
523.573	21.40345
523.775	21.6314
523.977	21.37304
524.178	22.58331
524.38	21.60011
524.581	22.08447
524.783	21.78861
524.984	22.22178
525.186	22.18785
525.387	23.12254
525.589	23.61282
525.79	24.03245
525.991	24.37583
526.193	25.13298
526.394	24.87973
526.596	25.67536
526.797	26.51525
526.998	26.35257
527.2	28.09029
527.401	31.07832
527.602	33.89012
527.803	38.42315
528.005	41.8941
528.206	45.29827
528.407	47.89466
528.608	49.3763
528.81	50.0284
529.011	49.85522
529.212	50.33474
529.413	48.08917
529.614	45.15225
529.815	41.96057
530.017	38.32464
530.218	34.11355
530.419	30.65195
530.62	29.06222
530.821	27.21866
531.022	25.3542
531.223	25.46786
531.424	24.94717
531.625	25.08827
531.826	24.87067
532.027	26.01391
532.228	27.86874
532.429	29.21353
532.63	30.67049
532.831	32.60891
533.032	33.27832
533.233	34.71312
533.433	34.31313
533.634	34.63759
533.835	33.68032
534.036	32.55114
534.237	31.17541
534.438	29.15104
534.638	26.51228
534.839	24.92247
535.04	23.66232
535.241	22.76142
535.441	23.08227
535.642	23.01488
535.843	22.96994
536.043	23.51867
536.244	23.95273
536.445	24.53098
536.645	25.26635
536.846	25.14851
537.047	25.2836
537.247	24.13404
537.448	23.32591
537.648	22.73088
537.849	21.96298
538.049	21.88296
538.25	22.17096
538.451	21.96789
538.651	21.47498
538.851	22.18473
539.052	22.49058
539.252	22.39923
539.453	22.0217
539.653	22.30163
539.854	22.11248
540.054	22.56505
540.254	25.44915
540.455	28.10816
540.655	29.89983
540.855	33.33502
541.056	35.3452
541.256	36.18865
541.456	37.72502
541.657	37.89411
541.857	38.13492
542.057	36.92659
542.257	35.56788
542.458	34.7103
542.658	32.91517
542.858	30.12564
543.058	28.54714
543.258	27.19843
543.458	25.07371
543.659	24.03985
543.859	23.88
544.059	23.03091
544.259	22.14485
544.459	22.6432
544.659	21.9912
544.859	22.22435
545.059	21.88819
545.259	22.48888
545.459	22.20071
545.659	22.79171
545.859	22.20161
546.059	22.53591
546.259	22.02119
546.459	21.88642
546.659	21.98822
546.859	22.67145
547.059	22.51758
547.258	22.47308
547.458	22.53114
547.658	21.92073
547.858	21.6681
548.058	22.22865
548.258	21.83383
548.457	21.60179
548.657	23.07567
548.857	21.83111
549.057	22.42994
549.256	22.1956
549.456	21.62073
549.656	21.1649
549.855	22.95657
550.055	21.57677
550.255	22.77283
550.454	22.32067
550.654	22.42138
550.853	22.77681
551.053	22.32138
551.253	22.24809
551.452	22.40369
551.652	21.61886
551.851	21.35853
552.051	22.03254
552.25	21.92789
552.45	21.89012
552.649	22.08004
552.849	21.76759
553.048	22.33609
553.248	22.64885
553.447	21.65951
553.646	22.52359
553.846	23.57014
554.045	22.60349
554.244	21.29953
554.444	22.6805
554.643	21.64609
554.842	22.85669
555.042	22.94503
555.241	21.52866
555.44	21.32573
555.64	22.20818
555.839	23.08079
556.038	22.17083
556.237	21.58859
556.436	22.25293
556.636	22.07454
556.835	21.50958
557.034	22.90235
557.233	21.81359
557.432	21.04776
557.631	22.5999
557.83	21.87637
558.029	21.75391
558.228	21.60381
558.427	21.63463
558.626	22.14971
558.825	21.23519
559.024	21.74959
559.223	23.04248
559.422	21.74774
559.621	22.32954
559.82	20.65301
560.019	21.86726
560.218	21.71592
560.417	20.90379
560.616	21.5716
560.815	23.8649
561.014	21.299
561.212	22.98577
561.411	22.25667
561.61	21.34248
561.809	21.84269
562.008	23.12557
562.206	21.6315
562.405	22.44487
562.604	21.93139
562.803	22.27129
563.001	21.7763
563.2	21.24253
563.399	22.29634
563.597	21.45547
563.796	21.75945
563.995	21.47418
564.193	22.48221
564.392	22.11043
564.59	23.21265
564.789	21.30081
564.988	21.95669
565.186	22.31149
565.385	22.3951
565.583	22.02333
565.782	22.28647
565.98	22.26182
566.179	22.21192
566.377	21.94691
566.575	22.00022
566.774	23.11645
566.972	22.63432
567.171	23.43264
567.369	23.05336
567.567	22.37862
567.766	22.29925
567.964	21.07552
568.162	22.53274
568.361	22.90525
568.559	21.96661
568.757	22.2829
568.956	22.22108
569.154	22.2793
569.352	22.63372
569.55	22.24461
569.748	22.04427
569.947	21.92474
570.145	21.65799
570.343	21.77216
570.541	23.15281
570.739	21.77717
570.937	22.3227
571.135	22.58993
571.333	23.68075
571.532	23.59657
571.73	22.56136
571.928	23.02019
572.126	22.83112
572.324	22.40414
572.522	23.1892
572.72	24.01042
572.918	22.49974
573.116	22.82603
573.313	22.28819
573.511	22.43374
573.709	21.94629
573.907	22.91237
574.105	22.23644
574.303	21.46134
574.501	21.46301
574.699	22.98562
574.896	22.76164
575.094	22.8267
575.292	21.7564
575.49	23.04995
575.688	22.5104
575.885	23.20684
576.083	23.94162
576.281	22.8007
576.478	21.90793
576.676	22.677
576.874	21.48763
577.071	22.22938
577.269	23.59869
577.467	22.2163
577.664	22.02626
577.862	22.89289
578.059	21.63622
578.257	22.71005
578.455	21.90019
578.652	22.03357
578.85	20.98031
579.047	22.29164
579.245	21.75755
579.442	22.142
579.64	21.71269
579.837	21.02716
580.034	23.6987
580.232	21.98564
580.429	21.23614
580.627	22.50174
580.824	22.92966
581.021	22.53319
581.219	21.61142
581.416	21.57085
581.613	23.14696
581.811	23.13769
582.008	21.3358
582.205	22.60536
582.402	22.13073
582.6	23.40714
582.797	22.11678
582.994	22.27032
583.191	22.45099
583.388	21.87048
583.586	22.25463
583.783	22.58226
583.98	21.59896
584.177	22.10466
584.374	20.27209
584.571	21.84499
584.768	21.82412
584.965	21.72894
585.162	22.6764
585.359	23.17991
585.556	21.95625
585.753	22.33954
585.95	21.02121
586.147	21.43485
586.344	22.32333
586.541	21.82922
586.738	21.27505
586.935	21.97932
587.132	21.52806
587.329	22.79171
587.526	21.97248
587.722	25.72367
587.919	21.19666
588.116	22.53777
588.313	23.05808
588.51	23.64587
588.706	22.03636
588.903	22.58882
589.1	22.98112
589.297	24.37484
589.493	22.21759
589.69	22.89098
589.887	21.73237
590.083	21.53772
590.28	21.88687
590.477	22.88796
590.673	22.8304
590.87	23.19486
591.067	21.82575
591.263	22.48527
591.46	22.42186
591.656	21.88198
591.853	23.34748
592.049	21.55871
592.246	21.71687
592.442	22.80529
592.639	23.38904
592.835	21.3829
593.032	22.56248
593.228	21.28334
593.425	21.55172
593.621	21.36372
593.817	22.63848
594.014	21.60151
594.21	22.58017
594.406	23.26506
594.603	22.81886
594.799	22.10386
594.995	20.98477
595.192	23.44584
595.388	22.26972
595.584	22.16207
595.78	21.66501
595.977	24.69294
596.173	23.86783
596.369	22.4342
596.565	22.14602
596.761	21.96763
596.957	23.52688
597.154	22.41493
597.35	22.42905
597.546	22.39161
597.742	23.04782
597.938	22.80078
598.134	22.18054
598.33	22.49669
598.526	23.22939
598.722	22.36923
598.918	23.47065
599.114	22.67523
599.31	21.30685
599.506	22.03701
599.702	21.41662
599.898	22.29069
600.094	22.76301
600.29	22.82159
600.485	22.65584
600.681	21.58718
600.877	23.5172
601.073	22.26025
601.269	24.05489
601.465	23.54267
601.66	21.58965
601.856	20.96697
602.052	24.19923
602.248	22.4924
602.443	21.03201
602.639	21.77284
602.835	22.19987
603.03	22.11741
603.226	23.54003
603.422	22.21187
603.617	22.71529
603.813	22.53944
604.009	22.49981
604.204	23.76577
604.4	22.00306
604.595	23.73768
604.791	22.14969
604.986	23.05878
605.182	22.24039
605.377	22.5201
605.573	22.54173
605.768	22.53467
605.964	22.99946
606.159	23.10771
606.355	23.11247
606.55	22.24775
606.746	23.06275
606.941	22.33445
607.136	23.85277
607.332	24.45569
607.527	21.38276
607.722	22.47114
607.918	22.34977
608.113	21.73051
608.308	23.36285
608.503	23.24355
608.699	23.12474
608.894	23.31583
609.089	22.27561
609.284	23.11243
609.479	22.63176
609.675	23.33652
609.87	22.62577
610.065	23.45814
610.26	23.38133
610.455	23.30814
610.65	22.62849
610.845	22.71071
611.04	23.03415
611.235	22.31362
611.43	22.46365
611.625	21.62203
611.82	23.59657
612.015	22.0957
612.21	23.70803
612.405	20.9541
612.6	23.68967
612.795	23.62099
612.99	22.82862
613.185	21.35662
613.38	21.38157
613.575	22.3675
613.77	24.7545
613.965	20.96946
614.159	21.66215
614.354	23.27926
614.549	22.96707
614.744	22.86504
614.938	21.32034
615.133	20.90419
615.328	23.36411
615.523	23.18925
615.717	24.83041
615.912	21.63896
616.107	22.50771
616.301	21.98226
616.496	21.55754
616.691	23.51587
616.885	22.94791
617.08	25.2062
617.274	23.06779
617.469	24.14071
617.664	23.15591
617.858	21.81398
618.053	22.84209
618.247	21.90069
618.442	20.30038
618.636	23.96709
618.831	21.37478
619.025	21.67754
619.219	25.17257
619.414	19.59205
619.608	21.81731
619.803	21.91817
619.997	24.29367
620.191	23.2314
620.386	22.49786
620.58	22.04779
620.774	20.39047
620.969	20.93274
621.163	22.0922
621.357	21.35147
621.551	21.83941
621.746	22.61026
621.94	21.76272
622.134	25.47424
622.328	24.22842
622.522	20.57531
622.716	23.25168
622.911	23.43116
623.105	23.38587
623.299	22.68195
623.493	25.40618
623.687	21.45115
623.881	21.73085
624.075	22.76991
624.269	23.52769
624.463	20.34731
624.657	21.03958
624.851	23.0224
625.045	23.29822
625.239	23.50831
625.433	22.26585
625.627	24.20145
625.821	22.36174
626.015	22.02872
626.209	22.96958
626.403	21.81386
626.596	23.52313
626.79	23.62213
626.984	21.75694
627.178	23.6068
627.372	23.2902
627.565	23.7159
627.759	21.67845
627.953	21.75063
628.147	23.17323
628.34	23.68339
628.534	24.95517
628.728	22.43594
628.921	23.42049
629.115	23.1927
629.309	23.42268
629.502	23.91665
629.696	22.69763
629.89	22.34859
630.083	22.9686
630.277	22.77286
630.47	24.17729
630.664	22.16866
630.857	20.86356
631.051	23.53735
631.244	23.38077
631.438	23.29411
631.631	21.45223
631.825	23.75201
632.018	22.94797
632.212	24.53449
632.405	23.59526
632.598	21.73948
632.792	22.25136
632.985	19.80965
633.178	22.58804
633.372	22.81147
633.565	22.52907
633.758	23.98697
633.952	22.01025
634.145	21.71298
634.338	22.40526
634.531	22.24483
634.724	21.89228
634.918	22.82374
635.111	22.531
635.304	22.31558
635.497	25.12599
635.69	22.95414
635.883	23.96887
636.077	21.39558
636.27	22.762
636.463	22.89762
636.656	22.83356
636.849	22.16093
637.042	23.3681
637.235	24.41747
637.428	23.76212
637.621	23.03708
637.814	24.05339
638.007	24.28897
638.2	23.97243
638.393	24.72822
638.586	20.69694
638.778	21.82051
638.971	22.50039
639.164	24.429
639.357	22.88458
639.55	24.40183
639.743	23.5808
639.935	22.57427
640.128	25.28581
640.321	23.62606
640.514	22.54329
640.707	25.16057
640.899	23.28771
641.092	20.43355
641.285	37.25972
641.477	20.02783
641.67	25.9134
641.863	24.08093
642.055	22.71228
642.248	22.04301
642.441	22.12959
642.633	23.32688
642.826	23.71091
643.018	24.1306
643.211	25.52481
643.403	25.07874
643.596	25.51693
643.788	24.69458
643.981	22.5074
644.173	23.6569
644.366	22.19253
644.558	20.15979
644.751	24.22402
644.943	21.06974
645.135	24.48038
645.328	24.79117
645.52	23.56937
645.712	24.32102
645.905	26.61148
646.097	21.0469
646.289	22.96614
646.482	25.82111
646.674	21.577
646.866	24.55175
647.058	23.38379
647.251	21.28215
647.443	21.74211
647.635	22.36725
647.827	21.28326
648.019	21.39598
648.211	22.44155
648.404	22.63839
648.596	25.10033
648.788	23.33978
648.98	23.23222
649.172	23.64549
649.364	23.16429
649.556	20.79841
649.748	26.92802
649.94	21.58974
650.132	23.90823
650.324	21.70528
650.516	22.15545
650.708	24.76426
650.9	21.18949
651.092	22.25512
651.284	21.24146
651.476	21.54642
651.667	24.19111
651.859	25.25998
652.051	23.00962
652.243	23.45838
652.435	22.62994
652.627	23.95878
652.818	23.95491
653.01	21.01587
653.202	21.8565
653.394	22.451
653.585	23.59999
653.777	28.97674
653.969	25.3222
654.16	24.74915
654.352	21.68919
654.544	22.79388
654.735	24.4729
654.927	23.11989
655.118	25.18109
655.31	24.08224
655.502	24.7911
655.693	22.90404
655.885	23.97962
656.076	25.40303
656.268	23.65803
656.459	25.39795
656.651	25.0729
656.842	22.55935
657.034	22.51866
657.225	24.82796
657.416	25.79555
657.608	25.80239
657.799	24.04882
657.99	26.08292
658.182	23.35727
658.373	23.16526
658.564	25.89952
658.756	24.93133
658.947	24.15995
659.138	23.33071
659.33	23.5276
659.521	23.58885
659.712	24.2551
659.903	23.96803
660.094	23.4859
660.286	22.07964
660.477	26.51114
660.668	24.80271
660.859	23.74977
661.05	22.01642
661.241	24.37316
661.432	24.32496
661.623	23.34468
661.814	23.15685
662.006	21.58446
662.197	23.90082
662.388	25.16167
662.579	23.6828
662.77	25.46782
662.96	27.84935
663.151	24.95375
663.342	20.59605
663.533	24.66354
663.724	23.5089
663.915	26.70839
664.106	23.40301
664.297	26.55342
664.488	24.2164
664.678	22.37645
664.869	25.3281
665.06	24.82272
665.251	23.83899
665.442	24.39518
665.632	21.57725
665.823	26.92964
666.014	19.07568
666.204	24.59769
666.395	25.95716
666.586	27.50153
666.776	24.99745
666.967	27.14491
667.158	23.55451
667.348	26.32878
667.539	22.34971
667.729	25.51323
667.92	22.55213
668.111	25.78626
668.301	25.51178
668.492	23.66512
668.682	24.64858
668.873	24.13126
669.063	22.30661
669.253	25.16883
669.444	26.82181
669.634	23.90708
669.825	27.35149
670.015	26.00753
670.206	22.57934
670.396	27.5202
670.586	23.68172
670.777	24.85581
670.967	20.46345
671.157	23.85991
671.347	22.9198
671.538	26.60727
671.728	25.38632
671.918	27.71382
672.108	26.01056
672.299	23.6403
672.489	24.66802
672.679	22.74446
672.869	24.90266
673.059	28.76914
673.249	25.07705
673.44	22.23778
673.63	24.00889
673.82	25.99633
674.01	22.61566
674.2	25.30903
674.39	29.32373
674.58	25.45253
674.77	24.61386
674.96	23.74929
675.15	31.86197
675.34	26.23272
675.53	24.43904
675.72	23.84834
675.91	21.47748
676.099	28.39221
676.289	29.07666
676.479	26.77034
676.669	23.31329
676.859	25.47729
677.049	23.60943
677.238	24.21386
677.428	28.40893
677.618	25.56449
677.808	28.69508
677.997	26.12729
678.187	23.22168
678.377	25.15078
678.567	24.00517
678.756	24.40108
678.946	25.20282
679.136	23.01234
679.325	24.53511
679.515	23.93197
679.704	23.52332
679.894	27.63764
680.084	26.49207
680.273	27.784
680.463	24.59904
680.652	23.84352
680.842	25.53288
681.031	27.25592
681.221	24.08479
681.41	26.63348
681.6	25.20303
681.789	26.83489
681.978	27.65645
682.168	25.49474
682.357	25.35079
682.547	26.28411
682.736	25.71567
682.925	27.73102
683.115	27.72339
683.304	27.2014
683.493	25.59714
683.682	26.05603
683.872	26.66726
684.061	27.74135
684.25	25.907
684.439	29.94661
684.629	27.50688
684.818	32.93956
685.007	25.61923
685.196	25.11988
685.385	29.48137
685.574	26.3726
685.763	26.44652
685.952	26.05497
686.142	23.71138
686.331	28.67013
686.52	22.69806
686.709	30.56045
686.898	29.36468
687.087	27.37526
687.276	29.42227
687.465	29.08422
687.654	26.1486
687.842	29.37297
688.031	23.55653
688.22	29.12537
688.409	26.7902
688.598	26.37786
688.787	31.73675
688.976	26.45439
689.165	30.60581
689.353	25.56104
689.542	27.66598
689.731	29.38434
689.92	32.06525
690.108	28.06295
690.297	25.53356
690.486	26.888
690.675	28.53479
690.863	30.49365
691.052	30.20925
691.241	27.0863
691.429	27.25494
691.618	29.96813
691.806	23.801
691.995	26.01443
692.184	26.88364
692.372	25.65236
692.561	27.05769
692.749	27.69432
692.938	34.71933
693.126	28.08588
693.315	25.57815
693.503	28.06892
693.692	29.59618
693.88	28.46034
694.068	31.72681
694.257	27.284
694.445	29.0434
694.634	22.68156
694.822	28.83892
695.01	30.3934
695.199	32.3221
695.387	31.2482
695.575	30.4177
695.763	26.93723
695.952	26.32352
696.14	24.43231
696.328	26.38138
696.516	27.68095
696.705	28.63859
696.893	28.02716
697.081	23.94067
697.269	29.81159
697.457	25.93467
697.645	25.51659
697.833	30.14284
698.021	26.46037
698.21	27.39316
698.398	27.83819
698.586	25.91686
698.774	25.16621
698.962	28.33975
699.15	26.09165
699.338	25.1645
699.526	29.36926
699.714	26.67341
699.901	26.26441
700.089	29.5339
700.277	26.14021
700.465	27.52075
700.653	29.41517
700.841	27.97376
701.029	25.76743
701.217	31.21248
701.404	27.59989
701.592	31.11522
701.78	33.46558
701.968	27.7157
702.155	27.51203
702.343	24.47977
702.531	31.20309
702.718	28.82811
702.906	26.61088
703.094	26.10859
703.281	31.40499
703.469	27.95575
703.657	30.00914
703.844	37.59171
704.032	33.37825
704.219	27.72557
704.407	29.42963
704.595	32.24664
704.782	29.38986
704.97	28.38251
705.157	27.79552
705.345	34.02455
705.532	39.38007
705.719	31.68109
705.907	34.05986
706.094	30.90763
706.282	37.51581
706.469	31.94844
706.656	32.92691
706.844	31.37886
707.031	35.34305
707.218	34.77711
707.406	37.63171
707.593	35.53564
707.78	35.58363
707.968	33.97587
708.155	32.10618
708.342	35.86328
708.529	35.89699
708.716	35.72506
708.904	38.18622
709.091	35.47133
709.278	31.68117
709.465	40.32443
709.652	38.46196
709.839	37.49497
710.026	33.86357
710.213	29.31431
710.4	33.77671
710.587	35.22607
710.774	36.67095
710.961	36.60841
711.148	33.61224
711.335	35.90378
711.522	33.44219
711.709	35.67879
711.896	39.81178
712.083	36.46337
712.27	31.65293
712.457	34.5295
712.644	29.78387
712.831	40.31071
713.017	34.54451
713.204	36.25262
713.391	31.67134
713.578	36.69321
713.765	37.77968
713.951	34.20666
714.138	42.4809
714.325	33.45273
714.512	32.47667
714.698	29.61192
714.885	35.92661
715.072	32.413
715.258	31.94351
715.445	29.83744
715.631	35.46751
715.818	23.77848
716.005	29.84049
716.191	33.80131
716.378	29.7006
716.564	33.97611
716.751	28.12299
716.937	30.12007
717.124	33.82139
717.31	27.63447
717.497	38.0764
717.683	28.8015
717.869	38.08162
718.056	29.01554
718.242	32.37504
718.429	30.64255
718.615	27.42332
718.801	31.03645
718.988	34.54836
719.174	32.36435
719.36	29.22178
719.547	34.9425
719.733	31.5472
719.919	32.14948
720.105	33.05184
720.291	31.12701
720.478	31.38017
720.664	30.85037
720.85	29.19182
721.036	40.57013
721.222	37.0809
721.408	31.28119
721.595	37.17313
721.781	36.93552
721.967	34.99048
722.153	37.18268
722.339	34.06162
722.525	33.24081
722.711	27.83469
722.897	27.00341
723.083	29.97685
723.269	35.41416
723.455	42.64066
723.641	48.19539
723.827	31.60954
724.012	33.5353
724.198	31.14517
724.384	37.02672
724.57	33.36101
724.756	26.66053
724.942	25.20094
725.127	36.17569
725.313	36.21535
725.499	36.49244
725.685	39.57536
725.87	33.02326
726.056	28.89322
726.242	37.75637
726.428	26.04369
726.613	35.64443
726.799	30.69431
726.985	28.36926
727.17	26.23484
727.356	40.08508
727.541	28.45462
727.727	32.14171
727.913	35.26249
728.098	30.42522
728.284	35.10777
728.469	28.00337
728.655	28.93886
728.84	36.19882
729.026	35.77317
729.211	34.29149
729.397	34.00717
729.582	35.48678
729.767	32.46238
729.953	34.28971
730.138	38.19732
730.323	24.51259
730.509	28.78758
730.694	39.48405
730.879	35.7157
731.065	33.65539
731.25	42.04812
731.435	35.71207
731.621	27.80618
731.806	31.47045
731.991	33.2511
732.176	28.58557
732.361	39.87268
732.547	34.31891
732.732	27.04972
732.917	42.24042
733.102	28.72399
733.287	30.14429
733.472	33.11141
733.657	32.1711
733.842	27.9513
734.027	29.65565
734.212	32.02171
734.397	30.20662
734.582	32.99151
734.767	37.63309
734.952	38.26745
735.137	23.19218
735.322	38.87406
735.507	35.39312
735.692	33.68296
735.877	42.34991
736.062	40.75222
736.247	34.76332
736.431	32.36458
736.616	37.23844
736.801	34.91605
736.986	32.95544
737.171	30.73631
737.355	28.25917
737.54	39.20961
737.725	33.15871
737.909	45.38765
738.094	31.50494
738.279	37.39961
738.463	31.98139
738.648	35.30894
738.833	35.96245
739.017	42.88658
739.202	32.91865
739.386	32.02073
739.571	29.42313
739.756	37.50024
739.94	33.94822
740.125	34.92706
740.309	30.81585
740.494	37.83578
740.678	33.67726
740.863	35.88038
741.047	34.17117
741.231	40.29018
741.416	30.20995
741.6	41.06405
741.785	29.61682
741.969	37.57954
742.153	41.1182
742.338	25.09042
742.522	33.48237
742.706	37.31066
742.89	28.78152
743.075	33.98358
743.259	39.33224
743.443	39.89839
743.627	40.42219
743.812	44.32623
743.996	26.11294
744.18	32.89017
744.364	31.31234
744.548	46.5577
744.732	33.11897
744.916	38.96162
745.1	36.4616
745.285	33.15787
745.469	37.67584
745.653	42.14957
745.837	28.81864
746.021	46.37915
746.205	40.70998
746.389	34.17341
746.573	34.01351
746.757	42.55001
746.94	32.36727
747.124	39.79481
747.308	28.7418
747.492	40.04733
747.676	29.60048
747.86	47.83597
748.044	31.32007
748.227	27.05212
748.411	54.74221
748.595	34.53504
748.779	30.19846
748.963	36.6044
749.146	35.2714
749.33	31.77144
749.514	30.91855
749.697	40.39712
749.881	31.23145
750.065	29.70597
750.248	34.598
750.432	47.35303
750.616	35.09975
750.799	29.40022
750.983	47.25076
751.166	47.4765
751.35	27.16507
751.533	38.28416
751.717	43.16164
751.9	42.67536
752.084	32.99245
752.267	31.00255
752.451	31.15981
752.634	35.56223
752.818	38.0643
753.001	38.97813
753.184	41.93464
753.368	37.60094
753.551	19.48055
753.734	31.35869
753.918	48.66642
754.101	32.32814
754.284	40.24006
754.467	33.2645
754.651	32.16012
754.834	31.02787
755.017	40.79945
755.2	41.65641
755.384	30.13626
755.567	39.52599
755.75	40.05271
755.933	33.35686
756.116	39.35177
756.299	32.43053
756.482	30.76612
756.665	38.16875
756.848	34.36823
757.032	36.65038
757.215	28.02046
757.398	30.53993
757.581	32.14002
757.764	51.43958
757.947	35.03057
758.129	39.46704
758.312	20.97582
758.495	34.61464
758.678	33.8975
758.861	33.52624
759.044	46.03569
759.227	29.75246
759.41	32.10702
759.592	40.31765
759.775	34.34556
759.958	40.26954
760.141	30.13533
760.324	50.53518
760.506	44.20333
760.689	41.06953
760.872	47.91804
761.054	38.32239
761.237	35.30976
761.42	36.3778
761.602	40.10475
761.785	38.09903
761.968	43.57715
762.15	46.42767
762.333	34.78326
762.515	38.70327
762.698	34.13491
762.88	42.13188
763.063	38.29743
763.245	42.20179
763.428	31.33018
763.61	34.09334
763.793	29.65184
763.975	37.94658
764.158	34.37153
764.34	33.07679
764.522	31.5436
764.705	35.34284
764.887	44.19277
765.069	28.57669
765.252	39.72998
765.434	39.85365
765.616	36.78031
765.799	31.27086
765.981	39.49449
766.163	32.64764
766.345	44.15874
766.528	32.67829
766.71	25.05832
766.892	37.90783
767.074	44.27032
767.256	34.27609
767.438	46.9623
767.62	36.80525
767.802	49.33761
767.985	39.85399
768.167	47.36156
768.349	32.72328
768.531	39.39445
768.713	38.40074
768.895	41.70373
769.077	37.99016
769.259	54.51919
769.441	70.26784
769.623	42.05392
769.804	46.07917
769.986	43.73773
770.168	49.93808
770.35	60.00326
770.532	47.89169
770.714	52.61373
770.896	51.29882
771.077	28.74
771.259	54.48236
771.441	47.5243
771.623	56.14555
771.804	66.19647
771.986	30.46371
772.168	39.78532
772.35	52.5425
772.531	65.77546
772.713	47.0333
772.894	57.02342
773.076	44.89314
773.258	41.43472
773.439	59.52073
773.621	64.67079
773.802	37.79462
773.984	41.45966
774.166	49.34963
774.347	60.34024
774.529	56.6891
774.71	29.89461
774.891	45.65629
775.073	42.12133
775.254	58.92739
775.436	40.14945
775.617	68.98033
775.799	42.54401
775.98	58.9149
776.161	63.49406
776.343	65.94224
776.524	45.84739
776.705	46.51207
776.886	31.81389
777.068	50.36597
777.249	93.91315
777.43	67.45255
777.611	35.57093
777.793	43.8812
777.974	65.46046
778.155	41.66813
778.336	37.08864
778.517	73.59886
778.698	38.26247
778.879	30.56573
779.061	21.32046
779.242	50.62151
779.423	51.10459
779.604	41.69967
779.785	44.22396
779.966	48.27895
780.147	57.18592
780.328	56.79426
780.509	75.11198
780.69	57.52747
780.871	40.60434
781.051	33.83323
781.232	49.77637
781.413	48.63358
781.594	44.27816
781.775	44.05233
781.956	39.00519
782.137	28.09499
782.317	41.29403
782.498	48.14465
782.679	48.47626
782.86	49.1218
783.04	43.12864
783.221	50.30969
783.402	68.1175
783.583	47.20556
783.763	58.69562
783.944	41.57326
784.124	34.83467
784.305	67.05587
784.486	51.61718
784.666	48.11547
784.847	31.80353
785.027	85.60741
785.208	41.55005
785.388	39.25303
785.569	41.85879
785.749	44.08429
785.93	41.6418
786.11	34.37359
786.291	53.53501
786.471	50.45902
786.652	56.06905
786.832	45.29165
787.012	48.76915
787.193	37.03032
787.373	45.98054
787.553	41.99919
787.734	49.82565
787.914	42.86124
788.094	58.23115
788.275	50.48452
788.455	43.76554
788.635	35.90882
788.815	48.77284
788.995	37.71975
789.176	32.8795
789.356	38.9916
789.536	44.88787
789.716	53.33253
789.896	39.35724
790.076	41.20969
790.256	50.87786
790.436	25.99376
790.616	37.47422
790.796	49.0005
790.976	42.53121
791.156	39.45802
791.336	53.25218
791.516	50.76944
791.696	45.33053
791.876	34.08044
792.056	49.18748
792.236	56.45965
792.416	55.45298
792.596	48.64413
792.776	50.43341
792.956	53.65104
793.135	66.11771
793.315	34.45192
793.495	58.3157
793.675	54.88031
793.854	54.18678
794.034	57.71546
794.214	36.30556
794.394	55.42209
794.573	60.50292
794.753	48.6388
794.933	38.15359
795.112	50.57626
795.292	59.02863
795.472	66.66911
795.651	34.9042
795.831	47.47896
796.01	45.27428
796.19	43.0931
796.369	48.30704
796.549	50.05869
796.728	43.95665
796.908	34.70509
797.087	36.38935
797.267	43.00559
797.446	35.92972
797.626	52.09849
797.805	52.03842
797.984	40.38298
798.164	56.1433
798.343	39.56016
798.522	48.64444
798.702	49.19069
798.881	34.00271
799.06	43.62327
799.239	30.26697
799.419	37.91182
799.598	66.08764
799.777	51.41058
799.956	60.23261
800.136	45.03022
800.315	38.93616
800.494	50.9454
800.673	58.10894
800.852	56.91569
801.031	59.10869
801.21	53.47943
801.389	44.7364
801.568	49.65869
801.747	70.98761
801.926	47.9759
802.105	62.81275
802.284	42.85527
802.463	65.36317
802.642	52.02075
802.821	50.15114
803	64.0784
803.179	58.27243
803.358	59.82416
803.537	42.69609
803.716	46.31685
803.895	41.90137
804.073	46.69024
804.252	40.70791
804.431	50.69156
804.61	45.14989
804.789	56.46083
804.967	41.88183
805.146	42.25927
805.325	72.59057
805.503	51.2993
805.682	35.04587
805.861	88.24482
806.039	63.68134
806.218	44.39085
806.397	50.23596
806.575	47.07752
806.754	52.89354
806.932	37.55071
807.111	59.61767
807.289	57.91307
807.468	47.6134
807.646	59.5956
807.825	54.85597
808.003	50.14314
808.182	59.10027
808.36	49.74701
808.539	39.71535
808.717	64.26744
808.895	41.43547
809.074	52.71632
809.252	48.6994
809.43	55.57799
809.609	63.05624
809.787	68.31852
809.965	46.23532
810.144	48.49223
810.322	49.1981
810.5	51.73245
810.678	43.4977
810.856	73.36438
811.035	61.091
811.213	56.84635
811.391	68.24394
811.569	53.21271
811.747	95.29967
811.925	62.35665
812.103	42.37593
812.281	48.00458
812.459	71.03815
812.637	70.5579
812.816	61.26359
812.994	75.53335
813.171	69.92923
813.349	54.6774
813.527	60.9672
813.705	66.41783
813.883	82.91749
814.061	61.56406
814.239	72.67778
814.417	79.92327
814.595	56.94923
814.773	55.74867
814.95	49.05608
815.128	55.64819
815.306	50.21281
815.484	47.57848
815.662	41.0037
815.839	38.46073
816.017	47.24405
816.195	63.19576
816.372	44.90639
816.55	60.47649
816.728	72.26617
816.905	47.78788
817.083	69.6628
817.261	49.48925
817.438	91.26901
817.616	72.50658
817.793	45.62071
817.971	59.91588
818.148	59.81008
818.326	65.10754
818.503	53.98536
818.681	72.93197
818.858	47.32122
819.036	49.55564
819.213	54.10639
819.391	43.53782
819.568	43.84273
819.745	40.84723
819.923	59.94743
820.1	48.18956
820.277	43.69825
820.455	47.09605
820.632	48.51594
820.809	52.74263
820.986	39.71874
821.164	35.45497
821.341	34.01174
821.518	43.51255
821.695	36.88993
821.872	35.20625
822.05	33.00836
822.227	30.59771
822.404	31.52916
822.581	33.82081
822.758	31.7636
822.935	31.48968
823.112	33.64541
823.289	31.26037
823.466	33.72613
823.643	32.99437
823.82	35.82134
823.997	33.93316
824.174	36.60118
824.351	42.30403
824.528	40.58086
824.705	39.04942
824.882	40.2516
825.059	47.11835
825.236	39.3119
825.412	39.36488
825.589	44.28037
825.766	55.02974
825.943	40.25014
826.12	43.73666
826.296	37.2306
826.473	41.75669
826.65	41.55562
826.827	45.68741
827.003	36.74468
827.18	39.55239
827.357	42.36485
827.533	37.63922
827.71	29.66754
827.887	35.82062
828.063	38.6141
828.24	34.67181
828.416	40.99651
828.593	36.33951
828.769	46.06989
828.946	44.42192
829.122	47.27246
829.299	46.10758
829.475	35.60106
829.652	45.84926
829.828	63.30204
830.005	45.37784
830.181	56.8076
830.357	47.3743
830.534	59.47409
830.71	49.3927
830.886	56.64857
831.063	55.8329
831.239	67.43796
831.415	43.15586
831.592	68.43978
831.768	49.34194
831.944	44.09353
832.12	71.2774
832.296	68.34607
832.473	60.55158
832.649	44.52715
832.825	59.92325
833.001	42.14201
833.177	53.76702
833.353	50.83555
833.529	36.39729
833.705	48.65523
833.881	37.32971
834.058	36.90788
834.234	39.09134
834.41	38.75401
834.586	33.88306
834.761	37.74883
834.937	39.14904
835.113	40.57967
835.289	37.4865
835.465	40.27948
835.641	37.8297
835.817	40.58565
835.993	58.67131
836.169	39.07236
836.344	50.58201
836.52	54.2076
836.696	50.22194
836.872	44.83608
837.048	94.18177
837.223	46.18523
837.399	76.64469
837.575	60.91428
837.75	57.22947
837.926	76.49858
838.102	104.7524
838.277	86.6832
838.453	116.58844
838.628	111.242
838.804	52.46002
838.98	102.13382
839.155	61.94771
839.331	78.80057
839.506	60.9124
839.682	62.38027
839.857	78.01334
840.033	89.98754
840.208	51.40685
840.384	36.2463
840.559	50.58957
840.734	67.74617
840.91	83.44812
841.085	56.35379
841.26	55.42437
841.436	53.56262
841.611	52.5712
841.786	70.35911
841.962	87.47783
842.137	61.99768
842.312	47.07623
842.487	57.24139
842.663	51.26212
842.838	55.97212
843.013	145.55724
843.188	79.64406
843.363	85.8611
843.538	121.45923
843.714	125.84605
843.889	135.07273
844.064	142.15781
844.239	120.41983
844.414	131.40492
844.589	91.01319
844.764	158.10653
844.939	157.57675
845.114	166.72147
845.289	161.49875
845.464	217.44326
845.639	148.03615
845.814	90.35735
845.989	96.51728
846.163	110.3667
846.338	118.42178
846.513	152.01209
846.688	107.95859
846.863	114.54083
847.038	101.00475
847.212	121.06258
847.387	116.69485
847.562	118.98967
847.737	144.86919
847.911	66.60607
848.086	78.75998
848.261	242.67294
848.435	104.45343
848.61	154.51538
848.785	80.53056
848.959	159.65994
849.134	207.66759
849.308	212.51357
849.483	121.58666
849.658	182.21772
849.832	104.8485
850.007	95.92271
850.181	239.87509
850.356	100.41162
850.53	219.61831
850.705	87.21682
850.879	50.40453
851.053	116.86804
851.228	103.8135
851.402	125.00822
851.577	163.46949
851.751	181.58133
851.925	125.9969
852.099	66.77173
852.274	96.7759
852.448	106.21983
852.622	135.3487
852.797	124.19077
852.971	114.54781
853.145	124.14033
853.319	336.03067
853.493	176.94109
853.668	100.69528
853.842	201.84748
854.016	164.52373
854.19	193.21979
854.364	127.22401
854.538	135.76843
854.712	178.94701
854.886	116.11591
855.06	105.79153
855.234	51.47293
855.408	185.17919
855.582	156.92664
855.756	156.43583
855.93	208.56515
856.104	146.53496
856.278	159.96281
856.452	121.86312
856.626	157.79977
856.8	245.67904
856.973	146.6189
857.147	134.26835
857.321	142.65643
857.495	165.31645
857.669	115.79032
857.842	102.91889
858.016	175.54721
858.19	98.33686
858.364	258.75494
858.537	108.68469
858.711	125.7232
858.885	121.04113
859.058	104.1253
859.232	66.42235
859.405	70.817
859.579	163.77396
859.753	142.47454
859.926	94.15785
860.1	73.35439
860.273	125.35679
860.447	196.19362
860.62	111.06012
860.794	239.06449
860.967	139.46072
861.141	160.12512
861.314	240.27794
861.487	154.93538
861.661	192.37028
861.834	186.87305
862.008	173.90287
862.181	127.38098
862.354	128.62688
862.528	150.57243
862.701	105.51858
862.874	77.5797
863.047	112.45693
863.221	111.75104
863.394	62.72008
863.567	201.35574
863.74	56.61588
863.913	159.37836
864.087	137.74516
864.26	170.85748
864.433	121.25294
864.606	212.50232
864.779	122.3013
864.952	68.12055
865.125	105.16508
865.298	120.22624
865.471	129.56058
865.644	243.95462
865.817	202.78735
865.99	161.68919
866.163	184.0011
866.336	110.02163
866.509	128.34302
866.682	107.71795
866.855	181.66768
867.028	88.36116
867.2	158.90301
867.373	64.03867
867.546	137.10935
867.719	245.46419
867.892	164.73578
868.064	96.14148
868.237	151.84704
868.41	123.83244
868.583	86.58248
868.755	88.82373
868.928	128.49098
869.101	253.14005
869.273	185.03842
869.446	163.92816
869.619	180.58979
869.791	120.10384
869.964	176.2981
870.136	165.66981
870.309	132.41671
870.481	138.89489
870.654	73.15957
870.826	133.07716
870.999	115.63209
871.171	167.98729
871.344	109.93648
871.516	121.6371
871.689	97.36666
871.861	123.34084
872.033	96.33608
872.206	119.94198
872.378	174.42766
872.55	111.8184
872.723	81.89356
872.895	125.20201
873.067	178.91634
873.24	198.29761
873.412	111.54087
873.584	121.56208
873.756	114.49001
873.928	143.23261
874.101	142.4372
874.273	163.36769
874.445	65.86238
874.617	79.66313
874.789	139.83062
874.961	117.83937
875.133	157.10309
875.305	130.8147
875.477	94.91007
875.649	78.69368
875.821	95.06416
875.993	218.85069
876.165	88.52102
876.337	144.25645
876.509	116.53836
876.681	138.40877
876.853	136.07772
877.025	142.7044
877.197	97.59015
877.369	89.88007
877.541	168.9235
877.712	61.17043
877.884	88.72307
878.056	162.45935
878.228	92.70823
878.4	152.74776
878.571	94.42588
878.743	70.1627
878.915	142.56163
879.086	89.49935
879.258	107.5368
879.43	98.43033
879.601	88.84896
879.773	92.46208
879.945	36.20052
880.116	49.06212
880.288	37.00994
880.459	39.12229
880.631	34.65214
880.802	38.78494
880.974	37.75015
881.145	31.97142
881.317	37.5509
881.488	32.6688
881.66	35.1228
881.831	32.78141
882.002	39.57383
882.174	33.8233
882.345	38.56988
882.517	30.78227
882.688	41.56111
882.859	39.56397
883.03	51.64725
883.202	48.86909
883.373	45.71613
883.544	46.86209
883.715	65.40577
883.887	56.95671
884.058	50.97404
884.229	68.13777
884.4	66.49164
884.571	73.32672
884.742	65.87834
884.914	70.57893
885.085	92.59354
885.256	109.77252
885.427	92.99556
885.598	104.21901
885.769	114.26102
885.94	102.69705
886.111	79.24833
886.282	118.81592
886.453	102.45984
886.624	80.04925
886.795	117.70559
886.966	101.03883
887.136	128.88827
887.307	92.93598
887.478	153.28802
887.649	139.87523
887.82	145.10733
887.991	120.07951
888.161	154.26628
888.332	148.18752
888.503	81.23335
888.674	194.48609
888.844	207.46711
889.015	167.38852
889.186	81.18009
889.356	190.98633
889.527	85.93562
889.698	325.29491
889.868	117.06197
890.039	146.14024
890.209	133.51328
890.38	174.34796
890.551	143.04131
890.721	201.89701
890.892	161.94879
891.062	122.99237
891.233	151.51631
891.403	122.12079
891.574	100.50803
891.744	120.74489
891.914	164.24265
892.085	138.05547
892.255	58.45999
892.425	198.2952
892.596	164.23261
892.766	147.54653
892.936	194.56467
893.107	169.6958
893.277	104.17879
893.447	80.25892
893.618	63.6011
893.788	116.76015
893.958	71.66192
894.128	71.38472
894.298	76.62916
894.468	103.23629
894.639	53.66134
894.809	41.75563
894.979	60.02107
895.149	68.14451
895.319	57.13019
895.489	74.47432
895.659	85.75368
895.829	65.05407
895.999	70.66592
896.169	54.12317
896.339	64.29692
896.509	114.50872
896.679	130.18824
896.849	126.92865
897.019	168.47236
897.189	142.6662
897.358	121.17973
897.528	171.56683
897.698	68.40148
897.868	165.01607
898.038	256.15013
898.208	242.92529
898.377	92.51212
898.547	243.44257
898.717	384.77862
898.886	164.88127
899.056	241.64206
899.226	356.13014
899.395	217.7648
899.565	267.17061
899.735	188.45263
899.904	303.09413
900.074	254.2507
900.244	129.86905
900.413	444.99301
900.583	110.17881
900.752	183.99134
900.922	283.89942
901.091	52.56864
901.261	256.82205
901.43	230.44922
901.599	242.23134
901.769	498.11638
901.938	263.66537
902.108	265.96651
902.277	328.7025
902.446	93.53595
902.616	110.24898
902.785	158.15688
902.954	260.0859
903.124	179.9589
903.293	158.55587
903.462	90.47997
903.631	116.0692
903.801	90.75044
903.97	52.99123
904.139	84.17752
904.308	65.97814
904.477	57.43893
904.646	41.44286
904.816	55.09151
904.985	72.90784
905.154	103.39324
