Data from WindowProjectSample_Transmission__54__00054__06967572487392509.txt Node

Date: Mon May 05 18:15:24 EDT 2025
User: jessi
Spectrometer: SR400872
Trigger mode: 0
Integration Time (sec): 5.000010E-1
Scans to average: 20
Electric dark correction enabled: true
Nonlinearity correction enabled: true
Boxcar width: 0
XAxis mode: Wavelengths
Number of Pixels in Spectrum: 3648
>>>>>Begin Spectral Data<<<<<
184.909	20191.07826
185.132	-4909.59085
185.355	-2993.82319
185.578	-17654.17532
185.801	993.39575
186.024	10225.83309
186.247	-1768.42985
186.47	1023.62633
186.693	442.20471
186.916	230.46533
187.139	-3659.34723
187.362	3467.43347
187.585	4048.35606
187.808	3458.28925
188.031	-28.34505
188.254	-49414.08909
188.476	-674.50659
188.699	6057.22582
188.922	632.17094
189.145	-14865.15594
189.368	-727.18482
189.591	-1387.29728
189.813	3071.38064
190.036	-46996.28786
190.259	-888.30041
190.482	-3845.12871
190.705	6906.23864
190.927	-2447.12808
191.15	12907.79937
191.373	3197.03684
191.595	-9281.4188
191.818	-3960.76075
192.041	-5755.47417
192.263	-3408.41009
192.486	-789.5745
192.709	-3834.89939
192.931	7397.39073
193.154	-27672.67357
193.377	-2703.5074
193.599	-2655.46393
193.822	-8523.07941
194.044	-1761.19292
194.267	1137.05014
194.489	391.42352
194.712	-42745.59016
194.934	-30923.54627
195.157	1358.37279
195.379	1472.17743
195.602	-6913.76128
195.824	-1297.10807
196.047	-9070.6909
196.269	2649.09436
196.492	-6423.39429
196.714	26959.22539
196.936	-8362.28831
197.159	-1188.92971
197.381	1202.36897
197.604	570.98094
197.826	11365.73448
198.048	-10208.38865
198.271	-2794.38168
198.493	7609.94373
198.715	2209.05589
198.938	-542.66681
199.16	7178.38849
199.382	-103924.34011
199.604	2709.62814
199.827	-1091.25434
200.049	-2886.59699
200.271	14509.74037
200.493	1183.77666
200.715	-35828.98374
200.938	-5802.745
201.16	-4191.5876
201.382	19989.38502
201.604	2230.02865
201.826	2188.60536
202.048	-1844.22403
202.27	-1825.07651
202.492	-35676.67766
202.715	2914.50526
202.937	-4348.10911
203.159	-6129.88472
203.381	1361.43642
203.603	6768.62519
203.825	6232.36615
204.047	2146.47711
204.269	-2671.31758
204.491	2092.26074
204.713	5609.581
204.935	-450779.77161
205.156	1125.13725
205.378	-2837.81542
205.6	1677.74752
205.822	148291.94606
206.044	-1038.47778
206.266	1539.26383
206.488	4461.62339
206.71	-5003.91528
206.932	1043.07622
207.153	11579.03651
207.375	-6721.1883
207.597	-37241.10169
207.819	-2759.37575
208.041	2353.4863
208.262	433.37358
208.484	704.96003
208.706	-770.59841
208.927	-805.2645
209.149	562.10578
209.371	-2806.07586
209.593	-291.7628
209.814	-735.53615
210.036	525.59836
210.258	-700.48955
210.479	1751.34585
210.701	1614.12774
210.922	3189.09815
211.144	-3778.04061
211.366	1953.95388
211.587	7053.43851
211.809	-7924.34279
212.03	2389.89904
212.252	438.51533
212.473	1968.93607
212.695	-6279.59277
212.916	2909.04609
213.138	-731.29542
213.359	3537.79543
213.581	5066.99673
213.802	-745.53694
214.024	1070.38244
214.245	2052.96908
214.466	3227.97448
214.688	-3052.89668
214.909	-1100.66373
215.131	-1714.17348
215.352	-3415.76502
215.573	14417.10977
215.795	4963.60119
216.016	5186.21548
216.237	838.04871
216.459	3464.86462
216.68	1820.80177
216.901	4724.41201
217.122	-3017.33629
217.344	-11172.05283
217.565	3359.72319
217.786	8812.28705
218.007	16809.43881
218.228	-885.52783
218.45	5862.27938
218.671	782.69467
218.892	36394.17243
219.113	1472.29318
219.334	-300.60421
219.555	9995.49979
219.776	3084.55349
219.997	22634.05805
220.219	2623.89568
220.44	-11690.86863
220.661	408.86672
220.882	1478.58126
221.103	-1067.73491
221.324	2230.52353
221.545	2265.29754
221.766	-8802.32139
221.987	848.32567
222.208	1698.60827
222.429	4212.56491
222.65	146.43889
222.87	17620.87498
223.091	693.35411
223.312	569.14817
223.533	1371.38329
223.754	1479.06183
223.975	1346.64626
224.196	2051.52337
224.417	1310.33668
224.637	559.31925
224.858	46.70991
225.079	1091.78086
225.3	650.84838
225.521	3689.36224
225.741	477.2783
225.962	515.19827
226.183	159.8982
226.404	664.45975
226.624	416.86014
226.845	596.26455
227.066	404.28167
227.286	257.39404
227.507	128.13401
227.728	108.80962
227.948	235.7802
228.169	68.70668
228.389	82.4104
228.61	46.64939
228.831	64.01102
229.051	4.09124
229.272	38.52911
229.492	54.7675
229.713	13.41615
229.933	34.72536
230.154	32.05578
230.374	52.66108
230.595	36.60886
230.815	24.9698
231.036	39.803
231.256	-6.13109
231.477	67.56185
231.697	37.3623
231.917	40.03755
232.138	56.83458
232.358	104.53526
232.579	100.25079
232.799	17.82528
233.019	96.73413
233.24	112.26002
233.46	34.69855
233.68	62.05457
233.901	41.75916
234.121	26.00008
234.341	11.74426
234.561	-2.66243
234.782	20.07752
235.002	66.27662
235.222	-4.45458
235.442	62.90315
235.662	29.64176
235.883	61.91874
236.103	51.33218
236.323	39.11767
236.543	27.3822
236.763	40.74557
236.983	43.14871
237.203	40.98632
237.423	61.76646
237.643	83.86173
237.864	71.29632
238.084	17.28482
238.304	23.21313
238.524	46.12349
238.744	38.37589
238.964	71.94918
239.184	59.45083
239.404	64.34363
239.624	32.52064
239.843	60.66857
240.063	35.96586
240.283	22.77799
240.503	25.46618
240.723	24.42457
240.943	13.56085
241.163	19.70784
241.383	14.10831
241.603	7.01289
241.822	9.3752
242.042	6.39244
242.262	8.09528
242.482	9.1746
242.702	10.75904
242.921	2.41819
243.141	6.62794
243.361	6.10794
243.581	9.331
243.8	7.22913
244.02	4.59893
244.24	9.15355
244.459	9.27458
244.679	17.47845
244.899	10.64316
245.118	13.17982
245.338	11.66922
245.558	13.74861
245.777	8.60604
245.997	10.16779
246.216	10.41379
246.436	6.24302
246.655	4.79472
246.875	2.86157
247.094	6.01255
247.314	2.2056
247.533	3.39429
247.753	4.28754
247.972	3.40131
248.192	1.0167
248.411	1.59689
248.631	3.57124
248.85	4.51697
249.07	3.7227
249.289	5.88027
249.508	4.8366
249.728	7.64459
249.947	7.09443
250.166	8.9883
250.386	3.70255
250.605	6.83386
250.824	10.5803
251.044	7.57427
251.263	27.91617
251.482	14.04395
251.701	11.10268
251.921	-0.40263
252.14	3.23803
252.359	3.86599
252.578	9.6972
252.798	3.43037
253.017	8.73555
253.236	3.84015
253.455	5.7214
253.674	10.07989
253.893	4.83768
254.112	7.11399
254.331	10.82563
254.551	9.00879
254.77	3.6693
254.989	13.15545
255.208	9.66873
255.427	14.71839
255.646	11.26322
255.865	21.02357
256.084	8.88444
256.303	10.80981
256.522	13.78744
256.741	3.03921
256.96	2.41651
257.179	7.90971
257.397	10.33651
257.616	5.56782
257.835	5.74504
258.054	15.24406
258.273	10.05359
258.492	10.88331
258.711	6.54663
258.93	3.00171
259.148	4.48418
259.367	4.58343
259.586	5.4035
259.805	2.29984
260.023	5.07718
260.242	3.84386
260.461	2.81613
260.68	1.25009
260.898	4.47006
261.117	1.34465
261.336	0.9461
261.554	3.35419
261.773	3.17887
261.992	0.70766
262.21	3.23478
262.429	3.37897
262.648	7.48981
262.866	8.26712
263.085	5.66176
263.303	4.89721
263.522	8.74334
263.74	9.12708
263.959	14.96263
264.178	6.76594
264.396	5.95705
264.615	4.76808
264.833	9.99694
265.051	8.69888
265.27	10.75555
265.488	10.8599
265.707	6.43237
265.925	10.74156
266.144	4.41364
266.362	5.46557
266.58	5.37263
266.799	4.85946
267.017	5.73302
267.235	5.07487
267.454	3.20726
267.672	1.71112
267.89	3.97186
268.109	4.13332
268.327	3.76017
268.545	0.83213
268.763	3.94968
268.982	1.50316
269.2	4.02667
269.418	2.99491
269.636	1.96675
269.854	4.53723
270.073	3.29295
270.291	2.03892
270.509	1.76051
270.727	4.43561
270.945	6.96215
271.163	6.80449
271.381	1.32651
271.599	3.06447
271.817	5.42717
272.036	1.96559
272.254	3.30097
272.472	2.30583
272.69	2.45973
272.908	2.26139
273.126	4.54272
273.344	5.20268
273.562	1.82932
273.779	2.58121
273.997	3.66966
274.215	4.14403
274.433	2.76961
274.651	4.16527
274.869	4.58685
275.087	2.9815
275.305	3.87976
275.523	2.52079
275.74	2.84077
275.958	5.31926
276.176	8.03949
276.394	2.50916
276.612	3.17011
276.829	3.15776
277.047	2.59527
277.265	2.85178
277.483	3.44188
277.7	4.2068
277.918	3.41192
278.136	6.25728
278.353	2.89081
278.571	1.56503
278.789	4.35254
279.006	0.8556
279.224	2.7723
279.442	5.08084
279.659	3.21013
279.877	2.19479
280.094	5.72297
280.312	0.9845
280.529	3.49584
280.747	1.00718
280.964	2.72665
281.182	6.018
281.399	2.72473
281.617	3.7871
281.834	2.45655
282.052	1.89713
282.269	3.05956
282.487	2.47598
282.704	2.00873
282.921	2.18322
283.139	3.29108
283.356	3.9413
283.574	3.70457
283.791	1.77525
284.008	5.5511
284.226	2.74243
284.443	3.15858
284.66	4.10172
284.877	3.40283
285.095	1.83211
285.312	1.54842
285.529	0.85294
285.746	0.8517
285.964	2.07999
286.181	1.44708
286.398	1.87893
286.615	2.52967
286.832	2.55595
287.05	0.4168
287.267	1.69149
287.484	1.78507
287.701	2.56964
287.918	2.45617
288.135	2.6528
288.352	1.34407
288.569	1.47653
288.786	2.34522
289.003	2.03068
289.22	2.92629
289.437	1.59418
289.654	2.73184
289.871	2.98589
290.088	2.78979
290.305	2.16666
290.522	1.68483
290.739	1.93565
290.956	3.02351
291.173	3.45079
291.39	3.47597
291.607	2.33349
291.824	1.6235
292.04	1.28903
292.257	2.88718
292.474	3.0788
292.691	1.84499
292.908	0.92828
293.125	1.54519
293.341	1.13566
293.558	4.81786
293.775	1.98407
293.992	2.02742
294.208	0.95369
294.425	1.27721
294.642	1.8262
294.858	2.38248
295.075	0.59389
295.292	1.85442
295.508	2.24987
295.725	4.06373
295.942	1.54404
296.158	1.13101
296.375	1.96752
296.591	1.55406
296.808	1.7048
297.024	1.76924
297.241	2.12817
297.458	2.29857
297.674	0.22602
297.891	1.78879
298.107	1.3818
298.323	1.07839
298.54	2.98045
298.756	1.20986
298.973	0.5403
299.189	3.04579
299.406	1.0932
299.622	2.81228
299.838	2.66625
300.055	2.54313
300.271	0.53013
300.487	1.03901
300.704	1.14652
300.92	0.60924
301.136	4.05401
301.353	2.52859
301.569	1.90151
301.785	2.19574
302.001	2.57553
302.218	2.26159
302.434	2.13768
302.65	0.61744
302.866	1.63218
303.083	3.88913
303.299	3.71958
303.515	1.92075
303.731	2.04772
303.947	0.47078
304.163	1.2475
304.379	2.09528
304.595	2.28438
304.812	1.2315
305.028	1.20318
305.244	1.69806
305.46	2.6017
305.676	2.59169
305.892	3.08164
306.108	2.19684
306.324	1.37845
306.54	3.66403
306.756	2.47359
306.972	2.39065
307.187	1.74001
307.403	3.3314
307.619	1.49185
307.835	3.0178
308.051	3.38944
308.267	0.88161
308.483	2.77478
308.699	2.42225
308.914	1.93397
309.13	1.77361
309.346	0.53393
309.562	0.98145
309.778	0.61591
309.993	2.29063
310.209	1.87748
310.425	0.85895
310.641	1.67129
310.856	0.90079
311.072	0.93167
311.288	1.72007
311.503	1.79656
311.719	0.30821
311.935	0.16169
312.15	2.17491
312.366	1.67814
312.581	2.23335
312.797	1.7474
313.013	2.47651
313.228	1.20523
313.444	1.78881
313.659	1.24457
313.875	2.28561
314.09	1.71307
314.306	3.20011
314.521	2.68387
314.737	2.41476
314.952	1.80196
315.168	1.67415
315.383	2.28715
315.599	1.61625
315.814	1.46583
316.029	2.4269
316.245	0.74982
316.46	0.52094
316.675	3.06319
316.891	3.39871
317.106	4.44318
317.321	2.12701
317.537	2.50544
317.752	2.53056
317.967	2.57338
318.183	0.99375
318.398	1.56747
318.613	2.61697
318.828	3.18061
319.043	2.63291
319.259	1.5874
319.474	2.18484
319.689	2.99697
319.904	0.44266
320.119	2.50429
320.334	2.21485
320.549	1.63982
320.765	2.86652
320.98	2.12713
321.195	2.62387
321.41	1.80279
321.625	2.60553
321.84	3.53804
322.055	3.58788
322.27	1.35172
322.485	1.04268
322.7	2.18236
322.915	2.83991
323.13	1.04893
323.345	3.22757
323.56	2.76428
323.775	2.45273
323.989	2.23528
324.204	2.17737
324.419	2.97054
324.634	0.83347
324.849	1.7086
325.064	4.82836
325.279	2.82868
325.493	2.36481
325.708	2.69738
325.923	1.32703
326.138	1.40079
326.352	3.35129
326.567	2.79863
326.782	1.65672
326.997	1.27838
327.211	2.43821
327.426	2.1782
327.641	1.6109
327.855	0.63903
328.07	2.18
328.285	3.46309
328.499	1.54601
328.714	2.10473
328.928	2.5758
329.143	1.81651
329.358	2.71692
329.572	2.81052
329.787	2.9583
330.001	4.13306
330.216	0.90017
330.43	3.56919
330.645	3.39035
330.859	2.72275
331.074	1.34172
331.288	2.19122
331.503	3.06219
331.717	1.07633
331.931	2.1798
332.146	2.00977
332.36	3.5281
332.575	2.30397
332.789	2.28986
333.003	2.04936
333.218	2.3358
333.432	1.33577
333.646	2.65526
333.86	3.49871
334.075	3.40243
334.289	1.61658
334.503	1.20585
334.717	2.20546
334.932	2.38621
335.146	2.93106
335.36	1.73367
335.574	2.63142
335.788	2.25128
336.003	2.94203
336.217	2.36902
336.431	2.42729
336.645	1.47107
336.859	0.87252
337.073	1.77294
337.287	2.20695
337.501	1.08891
337.715	2.17967
337.929	2.75817
338.143	0.92861
338.357	1.89602
338.571	1.19582
338.785	2.30137
338.999	1.53371
339.213	1.44017
339.427	0.68056
339.641	3.05375
339.855	1.81807
340.069	1.49482
340.283	2.8483
340.497	3.61816
340.711	2.18319
340.924	1.70771
341.138	1.06979
341.352	0.87429
341.566	2.14387
341.78	0.52132
341.993	1.48856
342.207	1.12021
342.421	2.06337
342.635	1.85242
342.848	1.50159
343.062	0.20342
343.276	1.33416
343.49	3.62149
343.703	1.30789
343.917	2.76404
344.131	2.65572
344.344	1.34894
344.558	1.58672
344.771	0.99105
344.985	3.28646
345.199	3.22662
345.412	2.07994
345.626	2.16905
345.839	0.558
346.053	0.99109
346.266	1.09017
346.48	2.40362
346.693	2.18349
346.907	2.08119
347.12	1.12101
347.334	2.075
347.547	2.0895
347.76	1.47294
347.974	2.86228
348.187	2.08171
348.401	1.51965
348.614	1.32381
348.827	1.43265
349.041	2.22867
349.254	0.51774
349.467	1.51403
349.681	0.79733
349.894	1.31351
350.107	2.82429
350.32	3.31167
350.534	0.66407
350.747	1.52415
350.96	1.14079
351.173	1.33233
351.386	1.55478
351.6	1.4283
351.813	1.30983
352.026	1.79784
352.239	0.77326
352.452	1.55851
352.665	2.51599
352.878	1.79702
353.092	3.43851
353.305	2.35449
353.518	1.94917
353.731	1.15931
353.944	2.74671
354.157	1.42894
354.37	1.14913
354.583	1.06522
354.796	0.52706
355.009	2.50347
355.222	2.04329
355.435	1.86701
355.647	2.45528
355.86	1.01389
356.073	1.84051
356.286	1.32308
356.499	2.31032
356.712	2.01887
356.925	2.24054
357.138	2.346
357.35	1.05682
357.563	1.38202
357.776	1.73085
357.989	1.46751
358.201	2.11148
358.414	1.82734
358.627	2.70754
358.84	1.47984
359.052	0.80685
359.265	1.16181
359.478	2.56957
359.69	-0.08991
359.903	2.19173
360.116	2.41027
360.328	0.56569
360.541	2.33591
360.753	0.95192
360.966	1.25534
361.179	1.32853
361.391	1.23757
361.604	0.99347
361.816	1.32578
362.029	1.16752
362.241	0.96666
362.454	1.24739
362.666	0.96975
362.879	1.73404
363.091	1.37929
363.304	1.11884
363.516	1.53224
363.728	0.88613
363.941	2.06811
364.153	1.36487
364.366	0.20379
364.578	0.95603
364.79	1.80241
365.003	1.55716
365.215	1.30311
365.427	2.01494
365.639	2.38108
365.852	1.74082
366.064	3.27364
366.276	1.40968
366.488	1.97874
366.701	1.34003
366.913	1.59899
367.125	1.46706
367.337	1.10702
367.549	1.28588
367.762	1.80491
367.974	1.72455
368.186	1.21141
368.398	2.3598
368.61	2.10747
368.822	2.25125
369.034	1.77415
369.246	2.18602
369.458	3.90144
369.67	1.12528
369.882	3.03875
370.094	0.52561
370.306	2.99271
370.518	1.55355
370.73	1.1945
370.942	1.32046
371.154	1.62807
371.366	1.33632
371.578	2.01595
371.79	1.23946
372.002	2.57294
372.214	3.15277
372.425	1.82187
372.637	2.66559
372.849	2.06313
373.061	0.50303
373.273	2.10995
373.484	2.03032
373.696	2.44963
373.908	0.45559
374.12	2.63192
374.331	2.10384
374.543	1.38307
374.755	1.19928
374.967	2.0713
375.178	2.38345
375.39	1.63208
375.602	2.00331
375.813	0.98345
376.025	1.14587
376.236	2.06555
376.448	2.08253
376.66	1.55361
376.871	1.61424
377.083	2.78111
377.294	2.99329
377.506	1.64655
377.717	2.89447
377.929	2.1447
378.14	1.48671
378.352	2.29116
378.563	2.2284
378.775	2.86042
378.986	1.39454
379.197	2.01699
379.409	1.59126
379.62	2.48984
379.832	2.3694
380.043	1.90909
380.254	2.11773
380.466	1.36302
380.677	4.07467
380.888	3.43314
381.1	3.77905
381.311	3.82069
381.522	2.21195
381.733	4.07832
381.945	2.00453
382.156	2.1617
382.367	1.80381
382.578	4.13011
382.789	4.01812
383.001	1.88518
383.212	3.27586
383.423	3.27239
383.634	3.02729
383.845	2.71678
384.056	2.02466
384.267	2.35038
384.478	2.30896
384.69	1.63491
384.901	2.56544
385.112	2.6078
385.323	3.40945
385.534	2.74452
385.745	2.5456
385.956	2.61301
386.167	1.78677
386.378	2.75133
386.588	1.77027
386.799	2.04835
387.01	1.43927
387.221	3.04617
387.432	2.44266
387.643	3.6286
387.854	2.33023
388.065	2.34325
388.275	2.40247
388.486	2.29027
388.697	2.46458
388.908	2.30711
389.119	3.34248
389.329	3.60359
389.54	2.67447
389.751	2.87963
389.962	3.47207
390.172	2.83881
390.383	2.29579
390.594	2.33309
390.804	2.31038
391.015	2.37736
391.226	2.78701
391.436	3.07277
391.647	2.97474
391.858	3.17602
392.068	1.79674
392.279	2.03896
392.489	2.92169
392.7	3.49509
392.91	2.28948
393.121	2.31267
393.331	3.14982
393.542	3.57061
393.752	3.2806
393.963	3.25667
394.173	3.05478
394.384	3.22452
394.594	3.05398
394.804	2.31933
395.015	3.05174
395.225	3.32345
395.436	2.36247
395.646	3.24887
395.856	2.5754
396.067	2.15903
396.277	3.66062
396.487	3.42348
396.697	3.22485
396.908	3.4644
397.118	3.54747
397.328	3.29363
397.538	3.71429
397.749	2.64612
397.959	3.69742
398.169	3.47268
398.379	2.28817
398.589	3.52454
398.8	3.25525
399.01	3.32342
399.22	3.03024
399.43	4.64492
399.64	3.22825
399.85	3.73633
400.06	3.34774
400.27	2.70406
400.48	3.2923
400.69	4.30849
400.9	2.98251
401.11	2.73349
401.32	3.7614
401.53	3.12877
401.74	4.38298
401.95	3.74179
402.16	2.90095
402.37	3.62591
402.58	3.15116
402.79	3.80575
403	4.1747
403.209	3.11828
403.419	4.14644
403.629	3.05299
403.839	4.09279
404.049	4.08849
404.258	3.24018
404.468	3.11379
404.678	3.81706
404.888	4.22933
405.097	3.33833
405.307	3.59353
405.517	4.03757
405.727	3.80684
405.936	3.42573
406.146	3.78116
406.356	4.47585
406.565	3.61383
406.775	3.33862
406.984	3.39402
407.194	4.85512
407.404	3.73155
407.613	4.15446
407.823	4.22527
408.032	4.3204
408.242	4.28588
408.451	3.41342
408.661	3.6995
408.87	4.89376
409.08	3.41914
409.289	4.04325
409.499	3.98122
409.708	3.957
409.918	2.69734
410.127	4.03572
410.336	4.82123
410.546	4.39266
410.755	3.63274
410.964	3.78098
411.174	3.39704
411.383	4.22402
411.592	4.16944
411.802	3.41005
412.011	4.36811
412.22	3.74376
412.429	5.09559
412.639	4.86813
412.848	4.60293
413.057	4.76092
413.266	4.85861
413.475	4.00529
413.685	4.43737
413.894	4.73408
414.103	4.82367
414.312	4.68729
414.521	4
414.73	4.2035
414.939	5.44802
415.148	4.60033
415.357	4.40722
415.566	4.13342
415.776	4.08947
415.985	4.08409
416.194	4.91678
416.403	5.44524
416.611	3.65924
416.82	4.14085
417.029	4.5617
417.238	4.15424
417.447	4.01185
417.656	4.39383
417.865	4.13562
418.074	4.43108
418.283	4.62778
418.492	5.23958
418.7	4.99825
418.909	5.77179
419.118	4.96184
419.327	5.33316
419.536	5.15282
419.744	4.98795
419.953	6.11908
420.162	6.17055
420.371	5.49013
420.579	5.75668
420.788	6.57354
420.997	6.65687
421.205	6.83408
421.414	6.62097
421.623	6.659
421.831	6.35629
422.04	6.81846
422.249	6.07481
422.457	6.54568
422.666	5.95071
422.874	6.66114
423.083	6.7448
423.291	6.75096
423.5	6.52024
423.708	6.80045
423.917	7.16856
424.125	6.78462
424.334	6.57008
424.542	8.08546
424.751	7.62856
424.959	7.2544
425.167	7.43241
425.376	7.26572
425.584	6.43818
425.793	6.50388
426.001	5.65896
426.209	6.04733
426.418	5.23234
426.626	5.05038
426.834	4.91848
427.042	5.21494
427.251	4.94051
427.459	5.65524
427.667	5.20306
427.875	4.53154
428.084	4.95167
428.292	5.83966
428.5	5.43699
428.708	4.74446
428.916	4.61329
429.124	5.18733
429.333	5.01802
429.541	5.04324
429.749	5.2959
429.957	5.26452
430.165	6.65225
430.373	4.47202
430.581	5.40641
430.789	5.94823
430.997	5.08952
431.205	4.91201
431.413	5.48414
431.621	5.05132
431.829	5.68604
432.037	5.2001
432.245	5.38677
432.453	5.65223
432.661	5.30919
432.869	6.39221
433.076	5.02681
433.284	5.37571
433.492	5.7594
433.7	6.08021
433.908	5.36704
434.116	5.55496
434.323	5.56678
434.531	5.42305
434.739	5.85377
434.947	6.03864
435.154	5.92044
435.362	5.48761
435.57	5.30575
435.778	5.13716
435.985	5.69
436.193	5.22248
436.401	6.12879
436.608	5.4304
436.816	5.2524
437.023	6.26359
437.231	6.4229
437.439	5.6686
437.646	5.89665
437.854	5.73607
438.061	5.98844
438.269	5.54546
438.476	5.98034
438.684	5.55295
438.891	5.59565
439.099	5.36501
439.306	5.11337
439.514	5.19817
439.721	6.12972
439.929	5.8022
440.136	6.49199
440.343	6.4454
440.551	6.35927
440.758	7.70106
440.965	6.68665
441.173	6.40367
441.38	6.2151
441.587	6.27694
441.795	5.90632
442.002	5.87392
442.209	5.91924
442.416	6.01956
442.624	6.10081
442.831	5.87418
443.038	5.51398
443.245	5.17906
443.452	5.59315
443.66	6.02167
443.867	5.51241
444.074	5.50418
444.281	5.44267
444.488	5.70539
444.695	5.83089
444.902	5.57645
445.109	6.42851
445.316	6.22415
445.523	6.38142
445.73	6.42799
445.937	7.19632
446.144	7.5038
446.351	7.76713
446.558	6.99873
446.765	8.34764
446.972	7.94652
447.179	7.48022
447.386	8.08096
447.593	6.88868
447.8	7.62158
448.007	6.5757
448.214	6.2862
448.42	5.87818
448.627	6.39891
448.834	5.80199
449.041	5.76541
449.248	5.69912
449.454	6.14967
449.661	6.61676
449.868	5.53525
450.075	5.49245
450.281	4.72424
450.488	5.24268
450.695	5.29272
450.901	5.457
451.108	5.45116
451.315	6.28242
451.521	5.61358
451.728	6.29913
451.935	5.38158
452.141	5.71744
452.348	5.75688
452.554	5.69294
452.761	5.46715
452.967	6.538
453.174	5.85701
453.38	5.98588
453.587	5.23516
453.793	5.83222
454	6.26221
454.206	6.79333
454.413	6.27722
454.619	6.01295
454.825	5.42528
455.032	6.04313
455.238	6.2251
455.445	5.15248
455.651	5.84857
455.857	4.86563
456.064	5.48197
456.27	5.43403
456.476	5.55584
456.682	5.16454
456.889	5.97221
457.095	6.02874
457.301	7.0761
457.507	5.88846
457.714	5.84128
457.92	5.86277
458.126	5.36809
458.332	5.77829
458.538	5.63676
458.744	5.83447
458.951	5.80718
459.157	7.5551
459.363	6.72844
459.569	6.88325
459.775	7.52379
459.981	7.02082
460.187	7.38841
460.393	7.7075
460.599	7.98435
460.805	7.1844
461.011	6.60538
461.217	6.72332
461.423	6.53521
461.629	5.93793
461.835	6.27616
462.041	5.90646
462.247	6.78279
462.453	5.82626
462.658	5.88693
462.864	6.21763
463.07	5.98945
463.276	5.98662
463.482	5.90653
463.688	6.56945
463.893	5.63276
464.099	5.77185
464.305	6.67808
464.511	5.64448
464.716	5.80473
464.922	6.37741
465.128	5.63138
465.333	6.88919
465.539	6.25248
465.745	5.90626
465.95	5.92388
466.156	7.45467
466.362	6.58059
466.567	5.99581
466.773	5.65087
466.978	6.7654
467.184	5.51945
467.389	4.96366
467.595	6.16446
467.8	5.61649
468.006	6.68011
468.211	6.59948
468.417	5.4124
468.622	6.21193
468.828	6.4265
469.033	6.21303
469.239	7.42281
469.444	5.77746
469.649	6.50484
469.855	5.91777
470.06	5.95203
470.266	5.51149
470.471	6.31007
470.676	6.19286
470.881	5.15576
471.087	6.68988
471.292	7.49481
471.497	5.37906
471.703	5.93947
471.908	5.75083
472.113	6.02809
472.318	6.50396
472.523	5.56729
472.729	6.13431
472.934	6.34468
473.139	5.7409
473.344	6.22184
473.549	6.65992
473.754	5.67162
473.959	7.5047
474.164	5.63894
474.369	5.91001
474.575	6.39516
474.78	6.03354
474.985	5.64174
475.19	5.16103
475.395	5.63787
475.6	5.96477
475.804	6.76007
476.009	6.00289
476.214	6.03336
476.419	5.94108
476.624	5.23084
476.829	5.57012
477.034	6.33838
477.239	5.61766
477.444	6.43762
477.648	6.33298
477.853	6.3708
478.058	5.91986
478.263	5.6258
478.468	5.542
478.672	5.59481
478.877	6.7054
479.082	6.84689
479.287	6.29869
479.491	5.9728
479.696	5.59707
479.901	6.42518
480.105	6.46075
480.31	5.7451
480.515	6.02672
480.719	7.21186
480.924	5.95374
481.128	5.63027
481.333	6.28517
481.538	6.21404
481.742	6.29839
481.947	7.05732
482.151	7.79252
482.356	8.20436
482.56	9.73841
482.765	10.62446
482.969	12.79612
483.174	14.36206
483.378	16.72141
483.582	17.29287
483.787	18.86611
483.991	19.18192
484.196	19.72817
484.4	19.47291
484.604	19.96385
484.809	17.95491
485.013	17.10758
485.217	15.56557
485.422	13.93853
485.626	12.64694
485.83	11.95851
486.034	11.32263
486.239	11.44127
486.443	11.53274
486.647	11.7534
486.851	12.60803
487.055	13.5734
487.26	13.30065
487.464	14.04641
487.668	13.694
487.872	14.09024
488.076	14.41242
488.28	13.86578
488.484	13.00686
488.688	12.76828
488.892	12.21878
489.096	11.43993
489.3	10.41467
489.504	9.79419
489.708	9.3465
489.912	8.99615
490.116	8.79655
490.32	8.32399
490.524	9.08418
490.728	9.67723
490.932	10.0348
491.136	10.49729
491.34	11.53343
491.544	11.7753
491.748	11.78234
491.951	11.91595
492.155	11.47447
492.359	11.34081
492.563	10.20212
492.767	9.70604
492.97	8.82158
493.174	7.91381
493.378	7.27146
493.582	6.32641
493.785	6.19074
493.989	6.2273
494.193	6.12985
494.396	5.89403
494.6	6.41469
494.804	6.05615
495.007	5.71031
495.211	5.78769
495.414	5.88174
495.618	6.07918
495.822	6.67059
496.025	6.07531
496.229	6.37444
496.432	5.69994
496.636	6.10848
496.839	5.98845
497.043	6.72999
497.246	6.23819
497.45	5.88047
497.653	6.14158
497.856	6.14543
498.06	5.66977
498.263	5.93207
498.467	5.81486
498.67	6.42117
498.873	6.22292
499.077	5.91998
499.28	5.84213
499.483	6.05726
499.686	6.24988
499.89	6.10292
500.093	6.38699
500.296	5.62984
500.499	6.62348
500.703	5.91512
500.906	6.11692
501.109	6.7636
501.312	5.96732
501.515	5.75582
501.719	6.05443
501.922	6.46586
502.125	5.94487
502.328	5.85234
502.531	5.36653
502.734	5.78826
502.937	5.13005
503.14	5.99516
503.343	5.45806
503.546	5.69299
503.749	5.49857
503.952	6.16014
504.155	5.46562
504.358	5.97808
504.561	5.90031
504.764	5.25697
504.967	5.95002
505.17	5.80453
505.373	6.595
505.576	5.89337
505.778	6.21342
505.981	5.38641
506.184	6.46166
506.387	5.12092
506.59	6.88855
506.793	6.28989
506.995	6.09593
507.198	4.94515
507.401	6.02435
507.604	6.08369
507.806	5.45739
508.009	5.52371
508.212	6.2507
508.414	5.50126
508.617	5.54978
508.82	5.85949
509.022	6.54602
509.225	5.92156
509.427	5.18399
509.63	6.51908
509.833	5.90561
510.035	5.65203
510.238	5.1796
510.44	6.42003
510.643	4.98601
510.845	6.79362
511.048	5.96757
511.25	5.53622
511.453	5.77204
511.655	6.04537
511.858	5.66986
512.06	6.16074
512.262	5.88789
512.465	6.21699
512.667	5.49129
512.869	5.26242
513.072	6.01043
513.274	6.1398
513.476	5.95713
513.679	6.15325
513.881	5.23547
514.083	6.49363
514.286	5.38188
514.488	5.48945
514.69	5.27482
514.892	5.10554
515.094	5.99539
515.297	5.38487
515.499	5.77644
515.701	5.30648
515.903	6.49937
516.105	6.60157
516.307	6.03307
516.509	4.86276
516.711	5.17918
516.913	5.76186
517.116	5.8008
517.318	5.48115
517.52	6.30129
517.722	6.0071
517.924	5.28175
518.126	5.95448
518.328	5.61186
518.529	6.2205
518.731	7.00771
518.933	5.69309
519.135	5.90251
519.337	6.61203
519.539	6.03622
519.741	5.01333
519.943	5.57008
520.145	5.58687
520.346	6.04537
520.548	5.54064
520.75	5.85139
520.952	5.52434
521.153	5.7749
521.355	5.8445
521.557	5.15528
521.759	5.75114
521.96	5.66615
522.162	5.11264
522.364	6.14701
522.565	5.39413
522.767	6.00933
522.969	6.0903
523.17	5.87021
523.372	5.87453
523.573	5.29828
523.775	5.5798
523.977	5.35972
524.178	6.65158
524.38	5.43196
524.581	6.01931
524.783	5.66325
524.984	6.0291
525.186	5.8015
525.387	6.27901
525.589	6.24149
525.79	6.15662
525.991	6.0904
526.193	6.68518
526.394	6.11143
526.596	6.92462
526.797	7.00509
526.998	6.73975
527.2	6.89528
527.401	8.3457
527.602	8.96131
527.803	10.66305
528.005	11.12356
528.206	12.13865
528.407	12.92237
528.608	12.90787
528.81	13.29808
529.011	12.90929
529.212	13.64263
529.413	12.80184
529.614	12.04672
529.815	11.43593
530.017	10.61447
530.218	9.3232
530.419	8.22854
530.62	8.04145
530.821	7.59713
531.022	6.44962
531.223	7.00247
531.424	6.94049
531.625	6.86331
531.826	6.64446
532.027	6.98557
532.228	7.87571
532.429	7.86124
532.63	7.94242
532.831	8.58849
533.032	8.82156
533.233	9.48534
533.433	9.17244
533.634	9.385
533.835	8.80918
534.036	8.44062
534.237	8.17398
534.438	7.58999
534.638	6.7682
534.839	6.49446
535.04	6.48792
535.241	5.92695
535.441	6.7078
535.642	6.25874
535.843	5.6817
536.043	5.89332
536.244	6.04976
536.445	6.31889
536.645	6.92381
536.846	6.6022
537.047	7.22792
537.247	6.09109
537.448	5.98337
537.648	5.892
537.849	5.72151
538.049	5.7196
538.25	6.05057
538.451	5.93668
538.651	5.33992
538.851	6.01267
539.052	6.36249
539.252	6.18364
539.453	5.76227
539.653	5.90068
539.854	5.79676
540.054	5.86988
540.254	7.11607
540.455	7.74678
540.655	7.65444
540.855	8.78851
541.056	9.61151
541.256	9.46383
541.456	10.2816
541.657	9.92168
541.857	10.68341
542.057	9.44225
542.257	9.1469
542.458	9.57034
542.658	9.39359
542.858	7.88365
543.058	8.04739
543.258	7.60941
543.458	6.45451
543.659	6.12379
543.859	6.56819
544.059	6.3813
544.259	5.88219
544.459	6.50523
544.659	5.68541
544.859	6.0714
545.059	5.6487
545.259	6.22276
545.459	5.9939
545.659	6.26463
545.859	5.88382
546.059	6.05794
546.259	5.54558
546.459	5.29074
546.659	5.45175
546.859	6.25986
547.059	5.96023
547.258	6.09176
547.458	6.09409
547.658	5.43992
547.858	5.3268
548.058	5.86172
548.258	5.73211
548.457	5.43559
548.657	7.07722
548.857	5.66254
549.057	6.24026
549.256	6.12984
549.456	5.57856
549.656	4.81737
549.855	6.91769
550.055	5.61673
550.255	6.73359
550.454	6.11412
550.654	6.3102
550.853	6.8262
551.053	6.34937
551.253	6.0658
551.452	6.28174
551.652	5.1822
551.851	5.06577
552.051	5.64074
552.25	5.57825
552.45	5.51964
552.649	5.63812
552.849	5.35814
553.048	5.93634
553.248	6.27085
553.447	5.2832
553.646	6.29938
553.846	7.36777
554.045	6.61549
554.244	5.13213
554.444	6.75061
554.643	5.18703
554.842	6.81914
555.042	7.14291
555.241	5.55122
555.44	5.31534
555.64	6.19619
555.839	6.76919
556.038	6.2539
556.237	5.60534
556.436	6.08388
556.636	6.31276
556.835	5.49321
557.034	6.86194
557.233	5.90884
557.432	5.03296
557.631	6.59319
557.83	5.83199
558.029	5.6218
558.228	5.63963
558.427	5.4529
558.626	6.31988
558.825	5.40641
559.024	5.94744
559.223	7.15261
559.422	5.84618
559.621	6.26165
559.82	4.58387
560.019	6.08937
560.218	5.73665
560.417	4.36126
560.616	5.76102
560.815	8.14554
561.014	5.06371
561.212	6.94687
561.411	6.16449
561.61	5.22388
561.809	5.92591
562.008	7.03153
562.206	5.83955
562.405	6.32118
562.604	5.90555
562.803	6.1647
563.001	6.09957
563.2	5.12912
563.399	6.37835
563.597	5.32362
563.796	6.09288
563.995	5.24975
564.193	6.52428
564.392	5.7719
564.59	7.47938
564.789	4.92955
564.988	5.84347
565.186	6.22899
565.385	5.9976
565.583	5.85231
565.782	6.06618
565.98	5.91536
566.179	5.99546
566.377	5.53941
566.575	5.71938
566.774	7.01798
566.972	6.7085
567.171	7.42201
567.369	7.06819
567.567	6.22518
567.766	6.31892
567.964	4.9098
568.162	6.54225
568.361	7.04272
568.559	6.04345
568.757	6.30822
568.956	6.1898
569.154	6.17721
569.352	6.7493
569.55	6.14111
569.748	6.18271
569.947	5.78459
570.145	5.60681
570.343	5.59569
570.541	7.19938
570.739	5.38021
570.937	6.35516
571.135	6.6019
571.333	7.80319
571.532	7.59438
571.73	6.5284
571.928	6.99346
572.126	6.79219
572.324	6.16984
572.522	7.00428
572.72	8.09765
572.918	6.39289
573.116	6.69312
573.313	6.20963
573.511	6.26697
573.709	6.04158
573.907	6.94312
574.105	6.15979
574.303	5.48067
574.501	5.32688
574.699	6.74166
574.896	6.59294
575.094	6.77109
575.292	5.491
575.49	6.96472
575.688	6.31239
575.885	7.27694
576.083	7.96625
576.281	6.78947
576.478	5.86383
576.676	6.82935
576.874	5.52992
577.071	6.34871
577.269	8.00833
577.467	6.1497
577.664	6.35238
577.862	6.98568
578.059	6.00668
578.257	6.97373
578.455	6.15878
578.652	6.36943
578.85	5.03428
579.047	6.54556
579.245	6.17051
579.442	6.53595
579.64	6.21903
579.837	5.30045
580.034	8.43631
580.232	6.16041
580.429	5.60334
580.627	6.88179
580.824	7.37703
581.021	6.86077
581.219	6.12698
581.416	6.02731
581.613	7.53559
581.811	7.5007
582.008	5.96124
582.205	7.18794
582.402	6.763
582.6	7.70982
582.797	6.55384
582.994	7.0456
583.191	7.39056
583.388	6.62869
583.586	7.23785
583.783	7.78601
583.98	5.68636
584.177	6.66233
584.374	4.65255
584.571	6.51782
584.768	6.48281
584.965	6.27196
585.162	7.24264
585.359	7.98969
585.556	6.65505
585.753	7.02721
585.95	5.60481
586.147	6.01626
586.344	7.08898
586.541	6.2588
586.738	5.72566
586.935	6.73024
587.132	6.08551
587.329	7.51646
587.526	6.52968
587.722	10.78821
587.919	5.56304
588.116	7.01203
588.313	7.71433
588.51	8.40148
588.706	6.64621
588.903	7.23006
589.1	7.71232
589.297	9.06451
589.493	6.72916
589.69	7.24777
589.887	6.36965
590.083	5.80113
590.28	6.31352
590.477	7.44052
590.673	7.21594
590.87	7.81116
591.067	6.18284
591.263	7.09421
591.46	7.16738
591.656	6.50202
591.853	8.23497
592.049	6.20363
592.246	6.2931
592.442	7.79033
592.639	7.72032
592.835	6.02972
593.032	7.11126
593.228	5.70156
593.425	5.85963
593.621	5.65115
593.817	6.98305
594.014	6.26211
594.21	7.05247
594.406	7.83568
594.603	7.17209
594.799	6.35232
594.995	5.02984
595.192	7.77784
595.388	6.55122
595.584	6.52383
595.78	5.82794
595.977	9.2121
596.173	8.2157
596.369	6.84037
596.565	6.14733
596.761	5.85559
596.957	7.88056
597.154	6.3008
597.35	6.54967
597.546	6.34954
597.742	7.23405
597.938	6.95938
598.134	6.21876
598.33	7.05549
598.526	8.0205
598.722	7.09438
598.918	8.55662
599.114	7.43886
599.31	5.87299
599.506	6.92767
599.702	6.29497
599.898	7.08964
600.094	7.71094
600.29	7.7911
600.485	7.77088
600.681	6.62576
600.877	8.4233
601.073	7.00784
601.269	9.06039
601.465	8.214
601.66	6.17111
601.856	5.42175
602.052	8.96357
602.248	6.81678
602.443	5.41173
602.639	5.96247
602.835	6.4036
603.03	6.25201
603.226	7.78767
603.422	6.31316
603.617	6.87569
603.813	6.85455
604.009	6.68787
604.204	8.10352
604.4	6.06132
604.595	7.88155
604.791	6.23975
604.986	7.21279
605.182	6.33194
605.377	6.77828
605.573	6.62126
605.768	6.90332
605.964	7.49336
606.159	7.5339
606.355	7.94004
606.55	6.68252
606.746	7.88117
606.941	6.98038
607.136	8.7066
607.332	9.66928
607.527	6.0334
607.722	7.44258
607.918	7.02537
608.113	6.45526
608.308	7.83717
608.503	7.57965
608.699	7.42397
608.894	7.7769
609.089	6.59015
609.284	7.32549
609.479	6.71039
609.675	7.82748
609.87	7.04155
610.065	7.64689
610.26	7.86394
610.455	7.82034
610.65	7.10322
610.845	7.46323
611.04	7.80969
611.235	6.97362
611.43	7.01328
611.625	6.14122
611.82	8.43896
612.015	6.58867
612.21	8.97129
612.405	6.05487
612.6	8.95915
612.795	8.84767
612.99	8.07547
613.185	6.23514
613.38	6.60617
613.575	7.67908
613.77	10.29783
613.965	5.98648
614.159	6.50696
614.354	8.60958
614.549	8.50252
614.744	7.85608
614.938	6.30577
615.133	6.1375
615.328	8.88212
615.523	8.69037
615.717	10.48141
615.912	6.64167
616.107	7.46128
616.301	6.99024
616.496	6.68285
616.691	9.28207
616.885	8.15357
617.08	10.435
617.274	8.49398
617.469	9.8053
617.664	8.19277
617.858	6.91579
618.053	7.87263
618.247	7.27995
618.442	5.15817
618.636	8.85351
618.831	6.807
619.025	6.73428
619.219	10.8577
619.414	4.2407
619.608	7.3265
619.803	6.65157
619.997	9.90381
620.191	8.77431
620.386	8.01978
620.58	7.57305
620.774	5.60509
620.969	5.77258
621.163	7.59783
621.357	6.2247
621.551	7.34966
621.746	7.80736
621.94	7.44369
622.134	11.43743
622.328	10.10801
622.522	6.16446
622.716	8.73662
622.911	8.48911
623.105	8.72094
623.299	8.00631
623.493	11.20212
623.687	6.73813
623.881	6.89371
624.075	8.50389
624.269	9.01253
624.463	5.56261
624.657	5.86114
624.851	8.37741
625.045	8.52517
625.239	8.66286
625.433	7.01714
625.627	9.69384
625.821	7.11633
626.015	6.77326
626.209	7.81063
626.403	6.00354
626.596	8.17424
626.79	8.45384
626.984	6.37108
627.178	8.37035
627.372	8.19165
627.565	8.41836
627.759	6.19694
627.953	6.53492
628.147	8.13871
628.34	8.55691
628.534	10.17831
628.728	7.38641
628.921	8.82573
629.115	8.56819
629.309	8.90495
629.502	9.15742
629.696	7.91974
629.89	7.63599
630.083	8.22578
630.277	8.02987
630.47	9.98793
630.664	7.57491
630.857	6.30387
631.051	8.94195
631.244	9.47619
631.438	9.09826
631.631	7.02845
631.825	9.54558
632.018	8.5133
632.212	10.26477
632.405	9.52184
632.598	6.97737
632.792	8.20179
632.985	5.38329
633.178	7.60721
633.372	7.84341
633.565	7.86293
633.758	9.52141
633.952	7.03637
634.145	7.12543
634.338	7.40065
634.531	7.39308
634.724	6.87769
634.918	7.99358
635.111	7.53088
635.304	7.26917
635.497	10.96075
635.69	8.50863
635.883	9.66131
636.077	6.65867
636.27	8.50926
636.463	8.441
636.656	8.49181
636.849	7.605
637.042	8.8117
637.235	11.05821
637.428	9.10329
637.621	8.80105
637.814	10.20396
638.007	10.30178
638.2	10.5541
638.393	10.9358
638.586	6.47832
638.778	7.76069
638.971	8.4044
639.164	10.4916
639.357	9.16579
639.55	10.59493
639.743	9.24502
639.935	9.19658
640.128	11.98695
640.321	9.73137
640.514	8.9087
640.707	11.82159
640.899	9.46728
641.092	6.16335
641.285	24.32069
641.477	5.57416
641.67	12.29565
641.863	10.8684
642.055	9.00049
642.248	8.77701
642.441	8.54076
642.633	9.47412
642.826	10.11776
643.018	10.76574
643.211	11.5516
643.403	12.08191
643.596	12.29087
643.788	11.2088
643.981	8.15404
644.173	10.20354
644.366	8.28928
644.558	6.30415
644.751	10.34363
644.943	7.08481
645.135	11.67409
645.328	11.56321
645.52	10.17187
645.712	10.70569
645.905	14.17527
646.097	7.17998
646.289	9.69246
646.482	12.56774
646.674	7.94223
646.866	11.00988
647.058	9.8339
647.251	7.69121
647.443	8.35154
647.635	8.56234
647.827	7.70967
648.019	7.63651
648.211	9.13051
648.404	9.30453
648.596	11.9547
648.788	9.77185
648.98	9.43666
649.172	9.94721
649.364	9.84596
649.556	6.74936
649.748	13.40571
649.94	7.57384
650.132	10.63593
650.324	7.99335
650.516	8.17594
650.708	10.90311
650.9	7.36459
651.092	6.68978
651.284	7.13438
651.476	7.49085
651.667	10.07919
651.859	11.55061
652.051	9.2027
652.243	9.5396
652.435	8.72536
652.627	10.05811
652.818	10.0498
653.01	6.92285
653.202	8.05159
653.394	8.77827
653.585	10.23947
653.777	16.82414
653.969	12.09558
654.16	11.69949
654.352	7.89286
654.544	9.78928
654.735	11.40746
654.927	9.423
655.118	12.03675
655.31	11.05238
655.502	11.51201
655.693	9.01425
655.885	10.54449
656.076	12.40495
656.268	10.24414
656.459	12.25968
656.651	12.22547
656.842	9.26103
657.034	8.54083
657.225	11.32589
657.416	12.05516
657.608	12.01627
657.799	9.93535
657.99	11.59046
658.182	8.32052
658.373	8.49794
658.564	11.78493
658.756	10.37576
658.947	9.29037
659.138	8.20337
659.33	8.72338
659.521	8.4824
659.712	9.40194
659.903	9.21289
660.094	8.56759
660.286	7.1392
660.477	12.67969
660.668	10.58137
660.859	9.69631
661.05	7.52985
661.241	10.65062
661.432	10.37678
661.623	9.38191
661.814	9.24235
662.006	7.28953
662.197	10.48619
662.388	11.87006
662.579	10.53167
662.77	12.25621
662.96	14.8996
663.151	11.9079
663.342	6.93491
663.533	11.36447
663.724	9.96833
663.915	13.31963
664.106	10.32871
664.297	13.80467
664.488	11.29104
664.678	9.10885
664.869	12.05911
665.06	11.71888
665.251	10.5031
665.442	11.30405
665.632	8.63092
665.823	14.5988
666.014	5.55578
666.204	11.10939
666.395	13.3127
666.586	15.16063
666.776	12.02522
666.967	13.93153
667.158	10.53272
667.348	13.84644
667.539	8.60582
667.729	12.46959
667.92	9.30523
668.111	12.28233
668.301	12.2629
668.492	10.1381
668.682	10.8001
668.873	10.37402
669.063	8.4293
669.253	10.95971
669.444	13.57944
669.634	10.53364
669.825	14.04869
670.015	13.16256
670.206	9.67051
670.396	14.75014
670.586	10.00437
670.777	11.95448
670.967	6.83622
671.157	10.6839
671.347	9.65562
671.538	14.19929
671.728	12.25247
671.918	14.90182
672.108	12.70269
672.299	10.71671
672.489	11.37806
672.679	9.53952
672.869	12.06939
673.059	15.83029
673.249	11.9997
673.44	9.13724
673.63	10.57342
673.82	13.35841
674.01	9.08207
674.2	12.09594
674.39	17.11019
674.58	12.86207
674.77	11.25633
674.96	10.52677
675.15	20.1549
675.34	13.26212
675.53	11.56343
675.72	9.65371
675.91	7.92305
676.099	15.75408
676.289	16.64599
676.479	13.74877
676.669	10.28405
676.859	12.62291
677.049	10.03856
677.238	11.65755
677.428	15.24001
677.618	12.60925
677.808	15.67858
677.997	12.52147
678.187	9.66871
678.377	11.65402
678.567	10.25099
678.756	10.98467
678.946	11.4829
679.136	8.86052
679.325	10.30443
679.515	9.57279
679.704	8.80938
679.894	13.36462
680.084	12.04528
680.273	14.15953
680.463	9.44728
680.652	9.63154
680.842	11.35277
681.031	13.41565
681.221	9.8114
681.41	12.08204
681.6	11.01651
681.789	12.84233
681.978	14.09088
682.168	12.25786
682.357	12.29135
682.547	12.62153
682.736	12.34564
682.925	14.69999
683.115	15.20273
683.304	13.40867
683.493	12.51037
683.682	13.07127
683.872	12.90341
684.061	14.99872
684.25	13.24428
684.439	17.65916
684.629	13.97069
684.818	20.34774
685.007	12.46365
685.196	11.75216
685.385	16.96955
685.574	13.03211
685.763	13.75244
685.952	13.3923
686.142	10.07559
686.331	15.40697
686.52	8.90529
686.709	17.43834
686.898	17.44617
687.087	14.29481
687.276	16.78415
687.465	16.2758
687.654	11.93832
687.842	16.56844
688.031	9.81689
688.22	16.51366
688.409	13.09242
688.598	13.51707
688.787	19.25705
688.976	12.98221
689.165	18.18935
689.353	12.59242
689.542	14.88941
689.731	16.0842
689.92	19.19842
690.108	15.12062
690.297	12.51431
690.486	14.21917
690.675	15.1304
690.863	18.07248
691.052	17.50196
691.241	14.16529
691.429	14.62483
691.618	17.3182
691.806	10.80662
691.995	13.13233
692.184	13.62443
692.372	13.09005
692.561	14.21987
692.749	14.8367
692.938	23.2081
693.126	15.53672
693.315	13.38594
693.503	15.79764
693.692	17.16971
693.88	16.89503
694.068	20.12338
694.257	14.76679
694.445	16.26269
694.634	9.56962
694.822	16.60576
695.01	17.62269
695.199	21.00546
695.387	18.67708
695.575	18.48077
695.763	14.05433
695.952	13.80276
696.14	10.432
696.328	12.94753
696.516	14.82969
696.705	15.5698
696.893	14.97506
697.081	10.04825
697.269	16.93902
697.457	11.52485
697.645	10.89817
697.833	16.3481
698.021	12.18243
698.21	12.31211
698.398	13.0294
698.586	10.83133
698.774	10.51453
698.962	13.5486
699.15	10.72061
699.338	9.89269
699.526	14.52886
699.714	11.51853
699.901	11.51166
700.089	15.56039
700.277	11.62349
700.465	13.37149
700.653	15.50999
700.841	14.70776
701.029	12.00575
701.217	17.84294
701.404	14.09635
701.592	18.18498
701.78	21.51316
701.968	13.63676
702.155	13.91906
702.343	11.42871
702.531	18.95722
702.718	16.41961
702.906	12.99256
703.094	13.33303
703.281	18.92462
703.469	14.17875
703.657	18.35728
703.844	25.62888
704.032	21.63875
704.219	14.61452
704.407	17.30207
704.595	20.28022
704.782	17.10195
704.97	15.6326
705.157	15.13738
705.345	22.0754
705.532	27.78849
705.719	19.92165
705.907	22.12969
706.094	18.89833
706.282	25.69868
706.469	18.58422
706.656	20.22977
706.844	18.81951
707.031	23.39403
707.218	21.87062
707.406	25.34834
707.593	23.06646
707.78	23.2593
707.968	20.70843
708.155	18.72386
708.342	23.04657
708.529	23.6272
708.716	22.51252
708.904	26.57816
709.091	23.63224
709.278	18.39233
709.465	28.01112
709.652	26.42214
709.839	25.13349
710.026	21.295
710.213	15.48976
710.4	21.04883
710.587	22.57752
710.774	23.94391
710.961	24.08515
711.148	20.91773
711.335	23.72572
711.522	20.48915
711.709	22.10253
711.896	28.0899
712.083	24.37184
712.27	17.82579
712.457	21.86552
712.644	16.58081
712.831	28.02528
713.017	21.69863
713.204	23.29963
713.391	18.37695
713.578	24.32258
713.765	25.9619
713.951	21.28918
714.138	31.07902
714.325	20.49813
714.512	19.51357
714.698	16.51373
714.885	23.91573
715.072	19.43255
715.258	19.25441
715.445	16.83523
715.631	22.9997
715.818	10.08441
716.005	16.39991
716.191	20.51962
716.378	17.05456
716.564	20.82411
716.751	14.57546
716.937	16.73938
717.124	21.74389
717.31	15.15243
717.497	25.61695
717.683	16.29398
717.869	26.88422
718.056	16.11412
718.242	20.30489
718.429	18.21242
718.615	14.22605
718.801	18.64086
718.988	22.87937
719.174	20.98884
719.36	17.35847
719.547	24.18488
719.733	20.09156
719.919	19.58435
720.105	21.48956
720.291	18.60018
720.478	20.08031
720.664	18.40972
720.85	17.18508
721.036	31.16467
721.222	26.12456
721.408	19.03093
721.595	26.19342
721.781	25.96879
721.967	24.6948
722.153	26.58639
722.339	22.06003
722.525	21.34198
722.711	15.43607
722.897	14.31834
723.083	17.87252
723.269	24.56493
723.455	32.10481
723.641	37.50755
723.827	21.10846
724.012	21.91299
724.198	19.77264
724.384	25.65751
724.57	21.39632
724.756	14.31914
724.942	12.82358
725.127	25.55632
725.313	25.83432
725.499	25.80673
725.685	29.31667
725.87	21.71726
726.056	16.56085
726.242	25.61834
726.428	14.00001
726.613	23.74524
726.799	18.72907
726.985	16.38625
727.17	14.12695
727.356	29.5014
727.541	16.90314
727.727	19.69942
727.913	23.8123
728.098	18.09012
728.284	23.79362
728.469	15.29271
728.655	16.76366
728.84	25.31579
729.026	23.50163
729.211	23.7782
729.397	21.26808
729.582	23.76622
729.767	19.42502
729.953	22.13425
730.138	26.69134
730.323	10.88439
730.509	16.01266
730.694	27.83497
730.879	23.28785
731.065	22.24252
731.25	31.44261
731.435	23.69735
731.621	14.07979
731.806	18.01679
731.991	22.11453
732.176	15.37088
732.361	28.04028
732.547	22.46485
732.732	14.26979
732.917	31.9917
733.102	15.49941
733.287	17.85881
733.472	20.51088
733.657	20.16711
733.842	14.91289
734.027	18.39175
734.212	19.86331
734.397	17.50251
734.582	21.48418
734.767	24.61776
734.952	27.43419
735.137	10.76819
735.322	28.5236
735.507	23.22863
735.692	22.23591
735.877	30.97936
736.062	30.57628
736.247	22.75916
736.431	21.3156
736.616	26.5046
736.801	23.16728
736.986	21.96045
737.171	16.58877
737.355	15.89095
737.54	28.63173
737.725	22.24201
737.909	36.66869
738.094	18.89089
738.279	25.12189
738.463	20.66305
738.648	24.58032
738.833	23.49908
739.017	32.78459
739.202	20.35562
739.386	20.62233
739.571	17.12799
739.756	26.1211
739.94	21.6329
740.125	24.40355
740.309	18.74257
740.494	26.3246
740.678	23.57775
740.863	24.23942
741.047	22.92764
741.231	29.7736
741.416	18.8509
741.6	30.55315
741.785	18.72667
741.969	27.40534
742.153	29.81966
742.338	12.76228
742.522	21.36696
742.706	26.72796
742.89	15.71826
743.075	22.9546
743.259	28.92042
743.443	28.90099
743.627	29.62787
743.812	34.48444
743.996	14.84103
744.18	21.50354
744.364	20.52719
744.548	35.89393
744.732	21.42767
744.916	27.87083
745.1	26.35238
745.285	21.19158
745.469	25.71051
745.653	32.5322
745.837	16.96328
746.021	36.49974
746.205	29.88798
746.389	23.93006
746.573	22.48289
746.757	31.92257
746.94	20.424
747.124	30.07497
747.308	16.87308
747.492	29.37882
747.676	18.85174
747.86	38.41389
748.044	20.30149
748.227	14.50996
748.411	46.74191
748.595	24.58253
748.779	19.48151
748.963	25.04765
749.146	23.44947
749.33	18.86005
749.514	18.44453
749.697	30.557
749.881	18.54458
750.065	17.72986
750.248	23.76523
750.432	37.81679
750.616	24.0847
750.799	17.41985
750.983	39.20747
751.166	38.09624
751.35	15.68409
751.533	28.07168
751.717	33.71554
751.9	33.42311
752.084	21.43145
752.267	17.86697
752.451	18.8737
752.634	24.79153
752.818	27.09894
753.001	28.80332
753.184	31.40844
753.368	26.02885
753.551	6.01701
753.734	19.85313
753.918	39.40106
754.101	20.0757
754.284	29.24293
754.467	21.36127
754.651	20.32561
754.834	19.11022
755.017	30.75744
755.2	31.28024
755.384	17.50176
755.567	27.88811
755.75	28.92025
755.933	20.99426
756.116	29.05507
756.299	20.4648
756.482	18.76491
756.665	27.93149
756.848	23.57324
757.032	26.48426
757.215	17.21871
757.398	18.74621
757.581	19.61644
757.764	42.23114
757.947	22.97729
758.129	30.77671
758.312	8.42349
758.495	23.21779
758.678	22.44568
758.861	22.17056
759.044	37.20581
759.227	17.66992
759.41	19.97936
759.592	28.72777
759.775	22.87612
759.958	30.53137
760.141	16.84202
760.324	39.49004
760.506	33.74049
760.689	30.28932
760.872	38.86213
761.054	27.50126
761.237	22.428
761.42	25.92339
761.602	29.36863
761.785	26.44069
761.968	32.13137
762.15	36.73864
762.333	24.5315
762.515	27.79644
762.698	21.29079
762.88	29.88244
763.063	27.57352
763.245	31.4475
763.428	18.36444
763.61	21.085
763.793	16.73402
763.975	25.60231
764.158	22.50074
764.34	19.59319
764.522	17.64655
764.705	22.06231
764.887	32.79384
765.069	15.04235
765.252	27.91863
765.434	28.55528
765.616	24.71872
765.799	18.86276
765.981	27.8832
766.163	19.14004
766.345	32.69211
766.528	20.53143
766.71	11.23452
766.892	26.35086
767.074	34.05818
767.256	22.86943
767.438	37.18812
767.62	25.35206
767.802	42.18524
767.985	28.78333
768.167	37.46517
768.349	23.05335
768.531	29.51717
768.713	27.928
768.895	31.62929
769.077	28.29265
769.259	45.06551
769.441	61.46292
769.623	30.68135
769.804	37.52363
769.986	34.06082
770.168	41.90885
770.35	52.78438
770.532	38.70481
770.714	43.48127
770.896	43.43534
771.077	18.35846
771.259	44.41645
771.441	37.91524
771.623	47.05158
771.804	59.55713
771.986	19.67717
772.168	30.58288
772.35	43.38399
772.531	60.97065
772.713	37.02326
772.894	50.76912
773.076	36.86088
773.258	30.76606
773.439	49.43818
773.621	57.0911
773.802	25.58093
773.984	30.86634
774.166	38.1806
774.347	55.62164
774.529	46.26156
774.71	17.49767
774.891	33.8444
775.073	32.4708
775.254	50.36982
775.436	31.18607
775.617	61.95476
775.799	32.99757
775.98	50.37645
776.161	56.18003
776.343	57.94336
776.524	34.9995
776.705	35.92326
776.886	19.53511
777.068	40.52274
777.249	86.87059
777.43	59.80832
777.611	24.65197
777.793	32.47086
777.974	58.48077
778.155	31.52847
778.336	27.13043
778.517	67.2229
778.698	28.8367
778.879	19.14721
779.061	8.64915
779.242	42.40462
779.423	42.0594
779.604	28.68474
779.785	34.12055
779.966	40.24301
780.147	51.30048
780.328	49.97518
780.509	68.72012
780.69	50.65501
780.871	31.33129
781.051	21.55139
781.232	38.15952
781.413	38.72358
781.594	33.87099
781.775	33.04949
781.956	28.96578
782.137	15.38239
782.317	30.79405
782.498	39.99264
782.679	38.2425
782.86	40.00165
783.04	28.44202
783.221	39.50414
783.402	61.53474
783.583	39.37023
783.763	46.30089
783.944	31.03017
784.124	22.27354
784.305	57.94884
784.486	45.80152
784.666	35.98907
784.847	20.82282
785.027	79.82961
785.208	31.41738
785.388	29.16264
785.569	29.79014
785.749	35.04824
785.93	34.09406
786.11	20.78947
786.291	44.80062
786.471	40.96506
786.652	48.12472
786.832	34.99195
787.012	39.30682
787.193	24.92731
787.373	37.68349
787.553	33.1734
787.734	40.31644
787.914	33.51176
788.094	49.72373
788.275	39.66542
788.455	32.37331
788.635	24.91415
788.815	40.32604
788.995	24.60075
789.176	21.64626
789.356	29.09005
789.536	35.00493
789.716	42.11566
789.896	30.10808
790.076	30.89128
790.256	42.98081
790.436	14.64612
790.616	25.22878
790.796	40.83485
790.976	32.87845
791.156	28.70493
791.336	42.56467
791.516	40.32573
791.696	33.90272
791.876	22.2973
792.056	38.67196
792.236	48.58674
792.416	46.77092
792.596	41.82366
792.776	42.30729
792.956	45.48025
793.135	59.59754
793.315	25.52849
793.495	50.34311
793.675	47.12725
793.854	47.18505
794.034	49.46647
794.214	26.05128
794.394	45.67083
794.573	52.41193
794.753	37.99737
794.933	28.50977
795.112	41.83668
795.292	48.73202
795.472	58.49913
795.651	22.67426
795.831	37.46291
796.01	33.6628
796.19	34.00959
796.369	36.22785
796.549	42.75676
796.728	35.0753
796.908	21.66662
797.087	25.35523
797.267	34.70546
797.446	23.9721
797.626	42.5663
797.805	43.07278
797.984	28.71082
798.164	46.52002
798.343	27.58489
798.522	39.93525
798.702	37.76337
798.881	24.5651
799.06	32.72444
799.239	17.21492
799.419	28.30599
799.598	58.63671
799.777	41.89202
799.956	50.86531
800.136	34.49417
800.315	26.277
800.494	41.33025
800.673	49.92646
800.852	45.16832
801.031	51.18194
801.21	44.64186
801.389	31.80773
801.568	40.31252
801.747	62.21756
801.926	39.06032
802.105	55.97034
802.284	31.62718
802.463	59.06643
802.642	42.80799
802.821	39.53767
803	54.05542
803.179	47.68563
803.358	50.53307
803.537	28.82851
803.716	37.37094
803.895	30.39707
804.073	35.30995
804.252	29.61586
804.431	43.74146
804.61	36.18076
804.789	48.1246
804.967	31.39437
805.146	31.28116
805.325	67.64609
805.503	41.64391
805.682	24.24648
805.861	81.12141
806.039	54.57759
806.218	32.87422
806.397	38.7606
806.575	36.15066
806.754	41.45907
806.932	25.25616
807.111	50.72351
807.289	48.76008
807.468	39.95305
807.646	49.87699
807.825	45.24027
808.003	40.10656
808.182	50.11035
808.36	39.20303
808.539	28.53807
808.717	57.96331
808.895	29.91493
809.074	42.05412
809.252	37.86808
809.43	44.28851
809.609	53.85313
809.787	57.11682
809.965	35.73126
810.144	38.63148
810.322	35.60757
810.5	45.97275
810.678	34.15088
810.856	67.65742
811.035	53.95884
811.213	45.74939
811.391	56.9729
811.569	42.31018
811.747	89.03755
811.925	54.07538
812.103	31.4287
812.281	36.86366
812.459	64.48876
812.637	64.06387
812.816	51.08061
812.994	69.40991
813.171	59.7265
813.349	45.7452
813.527	52.53265
813.705	59.71528
813.883	74.86325
814.061	50.5418
814.239	64.48964
814.417	71.21134
814.595	47.96577
814.773	47.45454
814.95	41.15238
815.128	48.95719
815.306	40.4182
815.484	38.1115
815.662	30.14684
815.839	26.69089
816.017	34.63543
816.195	55.43567
816.372	36.16859
816.55	52.45558
816.728	63.85071
816.905	39.17352
817.083	62.54436
817.261	41.61669
817.438	84.79994
817.616	65.96473
817.793	36.75068
817.971	53.64683
818.148	51.53593
818.326	57.92817
818.503	44.46979
818.681	64.09406
818.858	38.41046
819.036	42.07239
819.213	45.54939
819.391	32.23183
819.568	34.15345
819.745	29.54167
819.923	50.87805
820.1	37.2951
820.277	30.71126
820.455	36.27252
820.632	39.06321
820.809	42.23434
820.986	27.43048
821.164	22.49928
821.341	20.40394
821.518	30.97876
821.695	22.0106
821.872	19.6217
822.05	16.91657
822.227	14.13881
822.404	14.85142
822.581	17.17457
822.758	14.19104
822.935	14.75902
823.112	16.1065
823.289	13.74478
823.466	16.60045
823.643	15.54958
823.82	18.45062
823.997	16.40206
824.174	19.34509
824.351	26.22921
824.528	24.53758
824.705	22.17581
824.882	24.20299
825.059	31.27548
825.236	22.44606
825.412	23.92698
825.589	29.17275
825.766	41.04523
825.943	26.61029
826.12	30.05645
826.296	21.68555
826.473	27.67631
826.65	26.94163
826.827	32.72367
827.003	22.45739
827.18	24.73838
827.357	27.89435
827.533	22.96764
827.71	13.55143
827.887	20.89874
828.063	23.96607
828.24	20.06953
828.416	26.44133
828.593	21.63976
828.769	31.45796
828.946	31.86891
829.122	33.62566
829.299	33.04467
829.475	20.49929
829.652	31.38483
829.828	53.87681
830.005	33.82194
830.181	46.01833
830.357	33.85921
830.534	49.23606
830.71	36.19075
830.886	49.02008
831.063	44.96483
831.239	57.33014
831.415	27.61875
831.592	57.86663
831.768	37.6021
831.944	32.70103
832.12	64.67722
832.296	60.03643
832.473	49.02144
832.649	32.48926
832.825	50.99585
833.001	29.84558
833.177	44.26269
833.353	40.49792
833.529	23.42983
833.705	37.02681
833.881	24.24358
834.058	22.88163
834.234	25.97796
834.41	25.41525
834.586	19.51458
834.761	23.67052
834.937	26.81984
835.113	26.7934
835.289	23.31023
835.465	27.89271
835.641	25.0504
835.817	27.74021
835.993	46.98465
836.169	24.68009
836.344	38.64114
836.52	43.60699
836.696	39.33502
836.872	33.03238
837.048	88.1717
837.223	35.34706
837.399	67.4361
837.575	49.76331
837.75	49.39785
837.926	67.88711
838.102	99.43547
838.277	81.44468
838.453	110.54328
838.628	110.36255
838.804	43.92369
838.98	96.56286
839.155	49.38871
839.331	70.06329
839.506	49.95335
839.682	51.64075
839.857	68.08318
840.033	80.58643
840.208	37.90595
840.384	18.74754
840.559	40.99351
840.734	60.01578
840.91	77.695
841.085	48.37252
841.26	47.62276
841.436	42.27275
841.611	41.78208
841.786	63.07484
841.962	82.06549
842.137	53.24768
842.312	31.31068
842.487	48.12819
842.663	37.10351
842.838	49.74083
843.013	147.7839
843.188	73.16399
843.363	77.71581
843.538	126.20756
843.714	128.77476
843.889	125.87958
844.064	139.71881
844.239	112.02621
844.414	128.23762
844.589	87.57728
844.764	164.42594
844.939	159.7329
845.114	169.04652
845.289	164.26326
845.464	222.9874
845.639	153.20489
845.814	74.87391
845.989	86.58961
846.163	110.61404
846.338	113.67892
846.513	160.33853
846.688	101.77091
846.863	105.89798
847.038	92.38232
847.212	111.13841
847.387	114.95569
847.562	116.08352
847.737	145.7119
847.911	57.64685
848.086	70.43309
848.261	237.50686
848.435	101.80213
848.61	149.42878
848.785	80.64788
848.959	158.69926
849.134	216.09646
849.308	223.70911
849.483	119.00199
849.658	187.09055
849.832	106.51446
850.007	88.47927
850.181	241.92917
850.356	93.31487
850.53	231.25778
850.705	74.63379
850.879	47.10291
851.053	110.51846
851.228	92.53332
851.402	128.78358
851.577	169.65088
851.751	183.17491
851.925	119.56657
852.099	53.92526
852.274	81.40611
852.448	111.80805
852.622	142.24914
852.797	119.51005
852.971	109.37204
853.145	120.90003
853.319	340.94898
853.493	169.94617
853.668	95.81977
853.842	214.80848
854.016	179.47116
854.19	203.21231
854.364	117.75286
854.538	133.91556
854.712	182.20916
854.886	106.62428
855.06	104.3449
855.234	37.05925
855.408	192.27167
855.582	165.06902
855.756	165.83065
855.93	203.29221
856.104	146.60698
856.278	165.35469
856.452	113.53138
856.626	157.95556
856.8	264.67336
856.973	150.74146
857.147	141.82039
857.321	144.88739
857.495	177.88365
857.669	116.79351
857.842	103.95694
858.016	172.09713
858.19	85.78351
858.364	281.12116
858.537	101.34995
858.711	131.63929
858.885	113.69157
859.058	95.47744
859.232	57.79205
859.405	67.18476
859.579	163.63615
859.753	138.36359
859.926	97.64802
860.1	65.89235
860.273	128.20471
860.447	197.23235
860.62	116.19321
860.794	241.86112
860.967	141.07812
861.141	179.68235
861.314	256.80952
861.487	158.66224
861.661	197.66442
861.834	200.08127
862.008	165.93503
862.181	118.24109
862.354	133.98176
862.528	141.95136
862.701	107.04274
862.874	72.22367
863.047	114.16084
863.221	107.85851
863.394	55.11887
863.567	201.69266
863.74	47.03145
863.913	165.58421
864.087	145.99208
864.26	174.63288
864.433	122.47263
864.606	225.05014
864.779	127.80686
864.952	65.58153
865.125	103.76999
865.298	121.39601
865.471	127.32754
865.644	251.52004
865.817	198.95659
865.99	172.66005
866.163	187.0378
866.336	102.70577
866.509	125.21235
866.682	109.25112
866.855	191.10542
867.028	78.82694
867.2	158.75151
867.373	47.91305
867.546	134.27714
867.719	261.15974
867.892	154.93502
868.064	92.17752
868.237	148.95877
868.41	122.90542
868.583	70.54136
868.755	76.29574
868.928	125.48936
869.101	266.78156
869.273	191.7303
869.446	157.50427
869.619	182.95829
869.791	120.99215
869.964	187.70776
870.136	171.68527
870.309	133.22286
870.481	142.81397
870.654	62.9372
870.826	138.00113
870.999	108.54282
871.171	168.12633
871.344	103.89547
871.516	125.18107
871.689	94.37745
871.861	142.17228
872.033	90.74735
872.206	111.04542
872.378	175.23484
872.55	114.90734
872.723	72.78338
872.895	111.96538
873.067	182.51002
873.24	202.92567
873.412	103.58745
873.584	118.2477
873.756	110.54305
873.928	142.94373
874.101	149.02338
874.273	162.6466
874.445	58.74864
874.617	74.08398
874.789	141.97379
874.961	106.37963
875.133	154.13783
875.305	137.05849
875.477	90.08902
875.649	70.87625
875.821	90.57844
875.993	220.70426
876.165	88.80298
876.337	139.27297
876.509	117.8775
876.681	148.99889
876.853	142.53339
877.025	140.30043
877.197	94.74516
877.369	86.77129
877.541	178.74364
877.712	49.42284
877.884	72.88469
878.056	159.63245
878.228	88.38538
878.4	152.9505
878.571	85.93279
878.743	60.77806
878.915	140.88307
879.086	77.97004
879.258	100.53774
879.43	93.96561
879.601	82.40922
879.773	85.93497
879.945	21.98787
880.116	38.55039
880.288	23.94219
880.459	26.48201
880.631	20.23535
880.802	24.27295
880.974	22.74509
881.145	16.16006
881.317	22.12729
881.488	16.59019
881.66	18.39071
881.831	16.53815
882.002	22.87193
882.174	17.14116
882.345	22.40078
882.517	11.95746
882.688	25.78086
882.859	22.35031
883.03	34.77618
883.202	33.10518
883.373	27.76554
883.544	28.59551
883.715	50.45685
883.887	40.91194
884.058	34.98362
884.229	52.02445
884.4	51.93655
884.571	58.8739
884.742	52.06377
884.914	56.78665
885.085	80.87087
885.256	98.47178
885.427	80.05092
885.598	94.96012
885.769	100.44447
885.94	96.0247
886.111	67.2611
886.282	115.07325
886.453	93.59504
886.624	66.79336
886.795	111.25357
886.966	95.40374
887.136	123.56349
887.307	95.97618
887.478	155.38658
887.649	135.39512
887.82	138.16858
887.991	110.20502
888.161	154.12391
888.332	143.73099
888.503	75.52058
888.674	195.47021
888.844	212.02201
889.015	163.26189
889.186	80.08245
889.356	196.47553
889.527	77.29982
889.698	337.63639
889.868	109.27683
890.039	140.95129
890.209	128.13893
890.38	169.81637
890.551	140.05805
890.721	205.00254
890.892	168.86338
891.062	116.32695
891.233	146.05344
891.403	114.55621
891.574	84.7306
891.744	119.62664
891.914	157.83255
892.085	131.21075
892.255	46.29806
892.425	201.43468
892.596	161.00191
892.766	149.25461
892.936	209.88919
893.107	166.33232
893.277	91.99421
893.447	74.41669
893.618	57.33796
893.788	110.45693
893.958	57.15657
894.128	61.31623
894.298	66.59223
894.468	95.12678
894.639	45.6818
894.809	32.13673
894.979	50.6432
895.149	56.50247
895.319	45.90441
895.489	63.92549
895.659	80.71548
895.829	51.44161
895.999	56.55869
896.169	41.14299
896.339	54.50589
896.509	111.54354
896.679	123.18917
896.849	116.28389
897.019	169.75963
897.189	130.18623
897.358	109.16212
897.528	169.89853
897.698	60.91624
897.868	158.5284
898.038	269.14902
898.208	247.76504
898.377	89.44415
898.547	259.66368
898.717	401.3202
898.886	159.07652
899.056	241.22486
899.226	366.73397
899.395	229.94262
899.565	287.49122
899.735	189.27934
899.904	317.23896
900.074	272.14321
900.244	122.82052
900.413	489.73401
900.583	112.36702
900.752	181.01231
900.922	297.19631
901.091	33.79128
901.261	261.03545
901.43	246.85321
901.599	243.30325
901.769	532.82354
901.938	289.68343
902.108	268.42471
902.277	348.64788
902.446	99.18721
902.616	115.48301
902.785	170.4471
902.954	283.84535
903.124	182.06045
903.293	143.42176
903.462	81.96377
903.631	109.65538
903.801	86.41106
903.97	46.57348
904.139	74.60372
904.308	56.46722
904.477	44.23522
904.646	28.56723
904.816	44.10037
904.985	62.44521
905.154	94.14738
