Data from WindowProjectSample_Transmission__37__00037__026998896167037456.txt Node

Date: Mon May 05 17:47:04 EDT 2025
User: jessi
Spectrometer: SR400872
Trigger mode: 0
Integration Time (sec): 5.000010E-1
Scans to average: 20
Electric dark correction enabled: true
Nonlinearity correction enabled: true
Boxcar width: 0
XAxis mode: Wavelengths
Number of Pixels in Spectrum: 3648
>>>>>Begin Spectral Data<<<<<
184.909	21826.51994
185.132	-5340.28131
185.355	-3134.67741
185.578	-18337.83997
185.801	1411.22447
186.024	10558.39912
186.247	-1797.00269
186.47	1286.87064
186.693	243.80644
186.916	344.07327
187.139	-3779.61153
187.362	3701.03512
187.585	4160.51161
187.808	3777.81638
188.031	-92.81157
188.254	-56542.10369
188.476	-691.8294
188.699	6398.52499
188.922	672.93448
189.145	-16156.52611
189.368	-658.78071
189.591	-1406.31182
189.813	3101.23943
190.036	-48841.11101
190.259	-938.17148
190.482	-4486.03953
190.705	7318.11906
190.927	-2607.05047
191.15	13723.82718
191.373	3460.06476
191.595	-9349.6614
191.818	-4275.14151
192.041	-6360.82536
192.263	-3278.93328
192.486	-745.53464
192.709	-3949.75271
192.931	8008.95362
193.154	-28366.39505
193.377	-2864.83844
193.599	-2691.47558
193.822	-9205.12097
194.044	-2065.28204
194.267	1176.48472
194.489	327.37652
194.712	-45292.3753
194.934	-33265.44056
195.157	1279.94137
195.379	1437.86561
195.602	-6631.48918
195.824	-1406.58341
196.047	-8928.48326
196.269	2834.19881
196.492	-6826.66784
196.714	29382.52437
196.936	-8698.52559
197.159	-1196.06412
197.381	1189.54125
197.604	419.35214
197.826	12918.92023
198.048	-10932.10859
198.271	-2867.37642
198.493	7480.68715
198.715	2482.73373
198.938	-483.86245
199.16	7445.99773
199.382	-103609.37599
199.604	2750.78649
199.827	-1141.5515
200.049	-2978.17844
200.271	14466.35946
200.493	1243.19021
200.715	-37335.09246
200.938	-6138.32649
201.16	-4243.48682
201.382	20822.04308
201.604	2368.15071
201.826	2434.44344
202.048	-2125.35699
202.27	-2044.62857
202.492	-37962.52592
202.715	3246.32243
202.937	-4733.74427
203.159	-6533.86906
203.381	1470.68126
203.603	7275.7877
203.825	6321.91179
204.047	2266.54967
204.269	-2997.88351
204.491	2142.33604
204.713	5990.59221
204.935	-496658.21089
205.156	1152.69969
205.378	-3010.99896
205.6	1587.89179
205.822	157888.46052
206.044	-837.47231
206.266	1589.2756
206.488	4587.70167
206.71	-5355.47293
206.932	1198.01531
207.153	12122.15163
207.375	-7081.83324
207.597	-39320.90582
207.819	-2767.0851
208.041	2473.74023
208.262	440.81923
208.484	752.06385
208.706	-744.8381
208.927	-906.3963
209.149	553.621
209.371	-2936.44968
209.593	-227.07767
209.814	-810.07548
210.036	601.00601
210.258	-624.53495
210.479	1773.22713
210.701	1706.76616
210.922	3439.78626
211.144	-3717.68483
211.366	2206.26177
211.587	7508.30196
211.809	-8180.19822
212.03	2308.51475
212.252	476.20896
212.473	2150.43578
212.695	-6958.55289
212.916	3035.86599
213.138	-755.53044
213.359	4038.44067
213.581	5572.00398
213.802	-825.84696
214.024	1158.45461
214.245	2159.9751
214.466	3835.92664
214.688	-3125.68008
214.909	-1197.53274
215.131	-1819.09995
215.352	-3149.59478
215.573	15232.42447
215.795	5456.004
216.016	5496.09064
216.237	802.54687
216.459	3580.06669
216.68	1762.25085
216.901	5339.82113
217.122	-3386.13881
217.344	-11573.38952
217.565	3579.87924
217.786	9098.33038
218.007	15713.30853
218.228	-774.68103
218.45	5645.07431
218.671	826.63521
218.892	38096.45983
219.113	1514.04646
219.334	-335.33888
219.555	8885.90576
219.776	3221.17324
219.997	23280.37417
220.219	2978.91937
220.44	-10777.2328
220.661	459.47739
220.882	1542.29184
221.103	-1216.41927
221.324	2197.30574
221.545	2297.85113
221.766	-9424.31153
221.987	943.54223
222.208	1715.98187
222.429	4450.80613
222.65	261.49286
222.87	18842.31937
223.091	689.93304
223.312	577.39391
223.533	1269.37252
223.754	1533.36665
223.975	1436.73401
224.196	2057.60704
224.417	1364.35652
224.637	561.18512
224.858	54.72776
225.079	1127.95984
225.3	676.84475
225.521	3799.17607
225.741	465.64845
225.962	520.4676
226.183	154.69381
226.404	678.44602
226.624	435.56753
226.845	674.17108
227.066	412.56
227.286	257.82743
227.507	121.61184
227.728	120.87484
227.948	245.22117
228.169	75.0902
228.389	87.10123
228.61	49.03966
228.831	63.84769
229.051	2.78458
229.272	38.79776
229.492	57.45899
229.713	15.34847
229.933	37.57511
230.154	32.59764
230.374	55.09592
230.595	38.55128
230.815	23.8222
231.036	39.31203
231.256	-5.9769
231.477	68.81891
231.697	39.58532
231.917	41.71494
232.138	56.77517
232.358	116.8873
232.579	105.14694
232.799	17.63826
233.019	103.09036
233.24	114.84842
233.46	41.42366
233.68	62.70493
233.901	47.20029
234.121	28.29044
234.341	14.23021
234.561	-4.80339
234.782	22.17632
235.002	70.50336
235.222	-6.1332
235.442	65.40113
235.662	32.11072
235.883	63.12706
236.103	52.44813
236.323	37.94154
236.543	28.80262
236.763	40.12716
236.983	45.50141
237.203	40.96062
237.423	64.7873
237.643	90.66924
237.864	76.18404
238.084	18.42415
238.304	27.98617
238.524	44.91364
238.744	40.16458
238.964	76.60248
239.184	62.4834
239.404	65.37731
239.624	34.76071
239.843	60.97143
240.063	37.25136
240.283	22.51768
240.503	25.75617
240.723	27.23335
240.943	14.32946
241.163	19.33203
241.383	15.04764
241.603	6.92858
241.822	10.08962
242.042	6.43399
242.262	8.45728
242.482	9.83313
242.702	10.95029
242.921	2.64551
243.141	6.86471
243.361	6.41492
243.581	9.41008
243.8	7.25004
244.02	5.09099
244.24	9.46494
244.459	9.25913
244.679	18.56002
244.899	11.49483
245.118	12.91937
245.338	11.61488
245.558	13.89315
245.777	8.97561
245.997	10.61154
246.216	11.10367
246.436	6.50179
246.655	4.7348
246.875	3.42759
247.094	6.33554
247.314	2.18652
247.533	3.76999
247.753	4.40755
247.972	3.51218
248.192	1.21512
248.411	1.87906
248.631	3.63606
248.85	4.63712
249.07	4.03478
249.289	5.76146
249.508	4.86801
249.728	7.47872
249.947	6.98723
250.166	9.00204
250.386	4.82997
250.605	6.56971
250.824	11.17249
251.044	7.69953
251.263	28.80598
251.482	15.19243
251.701	11.83828
251.921	-0.75618
252.14	3.18075
252.359	4.20551
252.578	10.19343
252.798	3.32341
253.017	9.13386
253.236	3.92182
253.455	5.59773
253.674	10.19092
253.893	5.05988
254.112	8.12792
254.331	11.19896
254.551	8.49569
254.77	3.36092
254.989	13.09307
255.208	10.74064
255.427	15.67018
255.646	11.60907
255.865	23.11163
256.084	8.40597
256.303	11.07304
256.522	14.45043
256.741	2.63548
256.96	3.06398
257.179	9.04262
257.397	11.20832
257.616	5.50545
257.835	6.14191
258.054	15.14246
258.273	10.82807
258.492	11.12805
258.711	6.2984
258.93	3.00075
259.148	4.75917
259.367	4.66036
259.586	5.64779
259.805	2.3766
260.023	5.26153
260.242	3.83645
260.461	2.92708
260.68	1.28632
260.898	4.7684
261.117	1.3753
261.336	1.00359
261.554	3.40466
261.773	3.56368
261.992	0.74506
262.21	3.19454
262.429	3.45809
262.648	7.86247
262.866	8.37448
263.085	5.41382
263.303	5.12104
263.522	8.55178
263.74	8.87559
263.959	15.72663
264.178	7.24967
264.396	6.79032
264.615	4.30897
264.833	10.83658
265.051	9.0324
265.27	11.35455
265.488	11.32521
265.707	6.49279
265.925	11.33217
266.144	4.72406
266.362	5.90337
266.58	5.36925
266.799	5.28106
267.017	6.07946
267.235	5.39349
267.454	3.52547
267.672	1.86449
267.89	4.11499
268.109	4.57694
268.327	4.44758
268.545	0.74071
268.763	4.49828
268.982	1.51977
269.2	4.40033
269.418	3.18861
269.636	1.90564
269.854	4.62639
270.073	3.15479
270.291	2.04834
270.509	1.57244
270.727	4.44638
270.945	7.45784
271.163	7.3501
271.381	1.46055
271.599	3.3128
271.817	5.5987
272.036	1.76913
272.254	3.30539
272.472	2.3796
272.69	2.40763
272.908	2.40955
273.126	4.59075
273.344	5.62003
273.562	2.01224
273.779	2.61222
273.997	3.79272
274.215	4.10939
274.433	2.91369
274.651	4.46117
274.869	4.90077
275.087	2.94756
275.305	4.1488
275.523	2.56867
275.74	3.01534
275.958	5.66245
276.176	8.46703
276.394	2.56584
276.612	3.43026
276.829	3.33143
277.047	2.74477
277.265	2.99856
277.483	3.6639
277.7	4.31917
277.918	3.48053
278.136	6.13943
278.353	3.0246
278.571	1.76912
278.789	4.59537
279.006	0.74498
279.224	2.96514
279.442	5.20217
279.659	3.7002
279.877	2.41618
280.094	6.02103
280.312	1.11379
280.529	3.69245
280.747	0.6941
280.964	2.59759
281.182	6.15065
281.399	2.80425
281.617	3.88767
281.834	2.67443
282.052	1.94918
282.269	3.29099
282.487	2.61639
282.704	2.14682
282.921	2.23292
283.139	3.46433
283.356	4.15303
283.574	3.92749
283.791	1.98278
284.008	5.83671
284.226	3.00062
284.443	3.25847
284.66	4.63384
284.877	3.5315
285.095	2.02122
285.312	1.70711
285.529	0.91035
285.746	0.74019
285.964	2.09728
286.181	1.43441
286.398	1.93404
286.615	2.77378
286.832	2.57813
287.05	0.53505
287.267	1.80356
287.484	1.77607
287.701	2.66416
287.918	2.54858
288.135	2.73407
288.352	1.33173
288.569	1.47207
288.786	2.4752
289.003	2.02786
289.22	3.13132
289.437	1.71791
289.654	2.95712
289.871	3.12942
290.088	2.96687
290.305	2.37366
290.522	1.85631
290.739	2.19196
290.956	3.12786
291.173	3.68064
291.39	3.50987
291.607	2.59694
291.824	1.72791
292.04	1.31709
292.257	2.96739
292.474	3.24743
292.691	2.03329
292.908	0.90429
293.125	1.62444
293.341	1.14965
293.558	5.0115
293.775	1.78848
293.992	1.90882
294.208	0.81871
294.425	1.19741
294.642	2.01526
294.858	2.32527
295.075	0.75192
295.292	2.03536
295.508	2.35093
295.725	4.12923
295.942	1.69757
296.158	1.35801
296.375	2.23092
296.591	1.61777
296.808	1.88436
297.024	2.06675
297.241	2.49936
297.458	2.61822
297.674	0.32892
297.891	2.02766
298.107	1.70126
298.323	1.26478
298.54	3.34234
298.756	1.58223
298.973	0.89915
299.189	3.51733
299.406	1.67437
299.622	3.24453
299.838	3.18535
300.055	3.11255
300.271	0.98306
300.487	1.48191
300.704	1.84878
300.92	1.25207
301.136	4.8909
301.353	3.12932
301.569	2.36496
301.785	2.74837
302.001	3.24884
302.218	2.74941
302.434	2.95486
302.65	1.41347
302.866	2.13494
303.083	4.69294
303.299	4.65567
303.515	2.76804
303.731	2.96861
303.947	1.36995
304.163	2.1098
304.379	2.87055
304.595	3.18247
304.812	2.00906
305.028	2.05479
305.244	2.50621
305.46	3.3285
305.676	3.65247
305.892	3.99283
306.108	3.3143
306.324	2.31037
306.54	4.63981
306.756	3.49622
306.972	3.2809
307.187	2.84956
307.403	4.0995
307.619	2.41678
307.835	3.9708
308.051	4.41845
308.267	1.94223
308.483	4.00576
308.699	3.41691
308.914	2.98992
309.13	2.82649
309.346	1.74277
309.562	2.12425
309.778	1.76907
309.993	3.44524
310.209	3.13148
310.425	2.00235
310.641	2.91266
310.856	2.13917
311.072	2.05465
311.288	2.89406
311.503	3.24161
311.719	1.50226
311.935	1.49014
312.15	3.56775
312.366	3.1695
312.581	3.46919
312.797	3.05587
313.013	3.92796
313.228	2.53284
313.444	2.94071
313.659	2.52991
313.875	3.51304
314.09	2.96511
314.306	4.49025
314.521	3.80097
314.737	3.85579
314.952	3.14508
315.168	3.16354
315.383	3.41713
315.599	2.86166
315.814	2.6582
316.029	3.82231
316.245	2.18798
316.46	1.55784
316.675	4.18743
316.891	4.92621
317.106	5.8932
317.321	3.41334
317.537	3.83633
317.752	4.11462
317.967	4.10177
318.183	2.37082
318.398	2.93775
318.613	4.13036
318.828	4.50924
319.043	3.9668
319.259	2.92669
319.474	3.41303
319.689	4.60722
319.904	1.71539
320.119	4.08863
320.334	3.5175
320.549	3.03715
320.765	4.15842
320.98	3.65452
321.195	3.63923
321.41	3.20821
321.625	4.08471
321.84	4.89649
322.055	4.9867
322.27	2.72525
322.485	2.26277
322.7	3.72194
322.915	4.10526
323.13	2.56579
323.345	4.86812
323.56	3.899
323.775	4.01552
323.989	3.69097
324.204	3.54535
324.419	4.33631
324.634	2.34639
324.849	3.30505
325.064	6.56408
325.279	4.36397
325.493	3.78912
325.708	4.15544
325.923	2.71238
326.138	3.0674
326.352	4.8686
326.567	4.27308
326.782	2.97023
326.997	2.84609
327.211	3.98024
327.426	3.61418
327.641	3.07588
327.855	2.05475
328.07	3.89491
328.285	4.97942
328.499	3.0235
328.714	3.56408
328.928	3.98577
329.143	3.25607
329.358	4.44491
329.572	4.21658
329.787	4.68158
330.001	5.87628
330.216	2.17285
330.43	5.33462
330.645	4.9042
330.859	4.23824
331.074	2.66376
331.288	3.63787
331.503	4.80072
331.717	2.50823
331.931	3.60189
332.146	3.72774
332.36	5.10874
332.575	3.79967
332.789	3.70307
333.003	3.61179
333.218	3.95981
333.432	2.90501
333.646	4.23619
333.86	5.18968
334.075	5.04224
334.289	3.04394
334.503	2.5007
334.717	3.92013
334.932	3.84221
335.146	4.51967
335.36	3.01835
335.574	4.1275
335.788	3.85843
336.003	4.40442
336.217	4.11141
336.431	4.02348
336.645	3.06326
336.859	2.37502
337.073	3.43738
337.287	3.66822
337.501	2.35542
337.715	3.84003
337.929	4.21345
338.143	2.46178
338.357	3.32974
338.571	2.87068
338.785	4.06419
338.999	3.08319
339.213	3.08633
339.427	2.29249
339.641	4.68625
339.855	3.1476
340.069	2.82514
340.283	4.23777
340.497	5.08764
340.711	3.87393
340.924	3.5188
341.138	2.56477
341.352	2.39463
341.566	3.6058
341.78	2.11044
341.993	3.044
342.207	2.61208
342.421	3.74669
342.635	3.29141
342.848	3.08384
343.062	1.54878
343.276	2.91434
343.49	5.16317
343.703	2.91585
343.917	4.51908
344.131	4.37065
344.344	2.77123
344.558	3.18248
344.771	2.33972
344.985	4.89851
345.199	4.82347
345.412	3.71411
345.626	3.8961
345.839	2.04221
346.053	2.44493
346.266	2.59655
346.48	4.03374
346.693	3.845
346.907	3.60608
347.12	2.62455
347.334	3.62629
347.547	3.71355
347.76	3.34469
347.974	4.45081
348.187	3.63547
348.401	3.02557
348.614	2.75346
348.827	3.10257
349.041	3.86782
349.254	2.04113
349.467	2.95972
349.681	2.3835
349.894	2.67583
350.107	4.46167
350.32	4.89997
350.534	2.1698
350.747	3.01466
350.96	2.65821
351.173	2.77292
351.386	3.14718
351.6	2.87682
351.813	2.91518
352.026	3.06531
352.239	2.33215
352.452	2.96274
352.665	4.11467
352.878	3.19378
353.092	4.92582
353.305	3.94225
353.518	3.42706
353.731	2.60684
353.944	4.15359
354.157	2.93282
354.37	2.68283
354.583	2.51564
354.796	2.12865
355.009	4.05824
355.222	3.58501
355.435	3.41874
355.647	4.06996
355.86	2.65964
356.073	3.35295
356.286	2.82523
356.499	3.9115
356.712	3.68513
356.925	3.69264
357.138	3.92675
357.35	2.55025
357.563	2.95575
357.776	3.42846
357.989	3.17826
358.201	3.56415
358.414	3.42342
358.627	4.35999
358.84	3.11717
359.052	2.29047
359.265	2.70105
359.478	4.06626
359.69	1.38197
359.903	3.79697
360.116	4.01833
360.328	2.06766
360.541	3.91637
360.753	2.63806
360.966	2.97436
361.179	3.08872
361.391	2.90475
361.604	2.73118
361.816	3.0378
362.029	2.88697
362.241	2.64516
362.454	2.96754
362.666	2.52485
362.879	3.55025
363.091	2.98375
363.304	2.72965
363.516	3.07841
363.728	2.50045
363.941	3.62357
364.153	3.1857
364.366	1.69152
364.578	2.39606
364.79	3.42083
365.003	3.24651
365.215	2.72582
365.427	3.55163
365.639	3.80452
365.852	3.31522
366.064	4.76869
366.276	2.97604
366.488	3.47051
366.701	2.86625
366.913	2.9557
367.125	3.03679
367.337	2.58929
367.549	2.71648
367.762	3.238
367.974	3.15628
368.186	2.80344
368.398	3.84841
368.61	3.53128
368.822	3.63256
369.034	3.05996
369.246	3.58651
369.458	5.39042
369.67	2.55268
369.882	4.44681
370.094	1.7841
370.306	4.364
370.518	2.90954
370.73	2.62623
370.942	2.70187
371.154	3.00055
371.366	2.88192
371.578	3.3064
371.79	2.81651
372.002	3.99565
372.214	4.67023
372.425	3.11674
372.637	4.23747
372.849	3.38955
373.061	1.73579
373.273	3.4197
373.484	3.35336
373.696	3.84385
373.908	1.76071
374.12	4.05011
374.331	3.48207
374.543	2.61397
374.755	2.45448
374.967	3.24627
375.178	3.77116
375.39	2.76041
375.602	3.22696
375.813	2.00156
376.025	2.44478
376.236	3.22882
376.448	3.37023
376.66	2.89124
376.871	2.90711
377.083	4.04287
377.294	4.33496
377.506	2.8366
377.717	4.23085
377.929	3.37969
378.14	2.78221
378.352	3.41308
378.563	3.47772
378.775	4.13073
378.986	2.48409
379.197	3.17393
379.409	2.6679
379.62	3.64235
379.832	3.53477
380.043	3.01333
380.254	3.29867
380.466	2.46636
380.677	5.19159
380.888	4.60758
381.1	4.93308
381.311	5.00454
381.522	3.34383
381.733	5.21198
381.945	3.17475
382.156	3.2549
382.367	2.87143
382.578	5.12496
382.789	5.17383
383.001	2.84513
383.212	4.31463
383.423	4.41115
383.634	3.96138
383.845	3.76474
384.056	2.9483
384.267	3.3803
384.478	3.2657
384.69	2.39593
384.901	3.55118
385.112	3.55195
385.323	4.36652
385.534	3.57856
385.745	3.4186
385.956	3.58024
386.167	2.63511
386.378	3.70141
386.588	2.69212
386.799	2.80327
387.01	2.22453
387.221	3.90933
387.432	3.17217
387.643	4.47852
387.854	3.12997
388.065	3.00418
388.275	3.22027
388.486	3.01162
388.697	3.19326
388.908	2.97851
389.119	4.03978
389.329	4.36234
389.54	3.34573
389.751	3.50593
389.962	4.19256
390.172	3.47529
390.383	3.05674
390.594	2.83632
390.804	2.94467
391.015	2.9587
391.226	3.373
391.436	3.62673
391.647	3.56026
391.858	3.67658
392.068	2.26904
392.279	2.67791
392.489	3.48362
392.7	4.07731
392.91	2.88575
393.121	2.83254
393.331	3.64509
393.542	4.10988
393.752	3.58013
393.963	3.59347
394.173	3.46408
394.384	3.78276
394.594	3.3625
394.804	2.71427
395.015	3.49207
395.225	3.72987
395.436	2.74699
395.646	3.80486
395.856	2.96637
396.067	2.44049
396.277	3.99266
396.487	3.64206
396.697	3.54629
396.908	3.77825
397.118	3.83836
397.328	3.57827
397.538	4.04841
397.749	2.91719
397.959	3.85761
398.169	3.73594
398.379	2.48861
398.589	3.91907
398.8	3.49549
399.01	3.48641
399.22	3.13978
399.43	4.8799
399.64	3.30845
399.85	3.85074
400.06	3.47025
400.27	2.99966
400.48	3.50879
400.69	4.50594
400.9	3.16853
401.11	2.86211
401.32	3.97411
401.53	3.20232
401.74	4.51182
401.95	3.95902
402.16	3.01943
402.37	3.66046
402.58	3.18205
402.79	3.88865
403	4.25167
403.209	3.09819
403.419	4.24659
403.629	3.06807
403.839	4.14576
404.049	4.03895
404.258	3.26915
404.468	3.06627
404.678	3.76074
404.888	4.22687
405.097	3.1677
405.307	3.52059
405.517	3.99383
405.727	3.84563
405.936	3.39459
406.146	3.87664
406.356	4.48116
406.565	3.60344
406.775	3.34126
406.984	3.36152
407.194	4.77497
407.404	3.64535
407.613	4.03249
407.823	4.15491
408.032	4.4099
408.242	4.42625
408.451	3.5165
408.661	3.58687
408.87	4.84292
409.08	3.35909
409.289	3.91916
409.499	3.95837
409.708	3.82158
409.918	2.53007
410.127	3.9306
410.336	4.72635
410.546	4.26667
410.755	3.56098
410.964	3.6142
411.174	3.37248
411.383	4.1004
411.592	4.1955
411.802	3.30003
412.011	4.41696
412.22	3.74323
412.429	4.97005
412.639	4.91334
412.848	4.60329
413.057	4.73863
413.266	4.71447
413.475	4.01005
413.685	4.37567
413.894	4.61359
414.103	4.68171
414.312	4.53128
414.521	3.95419
414.73	4.09249
414.939	5.41664
415.148	4.48055
415.357	4.27955
415.566	4.06332
415.776	3.93491
415.985	3.96255
416.194	4.7454
416.403	5.36932
416.611	3.51265
416.82	3.96489
417.029	4.3857
417.238	3.94253
417.447	3.82834
417.656	4.19906
417.865	4.03206
418.074	4.27804
418.283	4.36765
418.492	4.97888
418.7	4.87546
418.909	5.70115
419.118	4.87715
419.327	5.10742
419.536	4.98058
419.744	4.85133
419.953	5.90365
420.162	6.01849
420.371	5.30915
420.579	5.61803
420.788	6.43035
420.997	6.52244
421.205	6.63604
421.414	6.50067
421.623	6.55404
421.831	6.23424
422.04	6.76108
422.249	6.04428
422.457	6.431
422.666	5.84056
422.874	6.6864
423.083	6.62497
423.291	6.65783
423.5	6.52098
423.708	6.66206
423.917	7.13036
424.125	6.76016
424.334	6.53971
424.542	8.17125
424.751	7.52528
424.959	7.3696
425.167	7.56528
425.376	7.39938
425.584	6.48348
425.793	6.60575
426.001	5.84919
426.209	6.18309
426.418	5.33332
426.626	5.18328
426.834	4.99921
427.042	5.40104
427.251	5.03186
427.459	5.81151
427.667	5.38212
427.875	4.67414
428.084	5.0716
428.292	6.01373
428.5	5.66124
428.708	4.75933
428.916	4.72537
429.124	5.33168
429.333	4.99957
429.541	5.2064
429.749	5.40109
429.957	5.26962
430.165	6.96745
430.373	4.53392
430.581	5.51212
430.789	6.23164
430.997	5.16565
431.205	5.01523
431.413	5.62129
431.621	5.32787
431.829	5.86704
432.037	5.34812
432.245	5.68564
432.453	5.75633
432.661	5.48875
432.869	6.64711
433.076	5.2091
433.284	5.59103
433.492	6.07813
433.7	6.32763
433.908	5.5669
434.116	5.82102
434.323	5.90438
434.531	5.69935
434.739	6.05116
434.947	6.26156
435.154	6.31257
435.362	5.88184
435.57	5.61412
435.778	5.51118
435.985	6.01755
436.193	5.55839
436.401	6.51941
436.608	5.7789
436.816	5.57091
437.023	6.67059
437.231	6.81458
437.439	6.07715
437.646	6.20241
437.854	6.1054
438.061	6.3644
438.269	5.85067
438.476	6.35477
438.684	5.94372
438.891	5.85115
439.099	5.73073
439.306	5.4892
439.514	5.55153
439.721	6.5477
439.929	6.14816
440.136	6.92536
440.343	6.83349
440.551	6.79631
440.758	8.267
440.965	7.2216
441.173	6.98366
441.38	6.78967
441.587	6.7986
441.795	6.54813
442.002	6.48637
442.209	6.43353
442.416	6.66797
442.624	6.70194
442.831	6.5321
443.038	6.09063
443.245	5.77396
443.452	6.0758
443.66	6.58468
443.867	5.99139
444.074	5.98694
444.281	6.0319
444.488	6.20814
444.695	6.33578
444.902	6.09952
445.109	7.05625
445.316	6.7527
445.523	7.01342
445.73	7.04173
445.937	7.82814
446.144	8.22852
446.351	8.51072
446.558	7.68374
446.765	9.17087
446.972	8.81287
447.179	8.44786
447.386	8.98099
447.593	7.78708
447.8	8.55848
448.007	7.41194
448.214	7.12749
448.42	6.6842
448.627	7.21288
448.834	6.70087
449.041	6.57047
449.248	6.5579
449.454	7.03253
449.661	7.44371
449.868	6.38164
450.075	6.31833
450.281	5.56493
450.488	6.03845
450.695	6.05997
450.901	6.24695
451.108	6.18772
451.315	7.10925
451.521	6.43738
451.728	7.13067
451.935	6.16314
452.141	6.49233
452.348	6.49152
452.554	6.50195
452.761	6.37191
452.967	7.5241
453.174	6.70667
453.38	6.93907
453.587	6.10218
453.793	6.8326
454	7.33334
454.206	7.93148
454.413	7.26436
454.619	6.99428
454.825	6.42156
455.032	7.0841
455.238	7.2167
455.445	6.19768
455.651	6.86962
455.857	5.86674
456.064	6.62602
456.27	6.54136
456.476	6.566
456.682	6.1153
456.889	7.00337
457.095	7.09938
457.301	8.19775
457.507	6.8706
457.714	6.97432
457.92	6.91031
458.126	6.50384
458.332	6.87523
458.538	6.69825
458.744	6.76915
458.951	6.78863
459.157	8.69744
459.363	7.91192
459.569	8.17431
459.775	8.84094
459.981	8.45863
460.187	8.91655
460.393	9.26203
460.599	9.53034
460.805	8.54785
461.011	8.10678
461.217	8.2205
461.423	7.98621
461.629	7.40087
461.835	7.69038
462.041	7.33624
462.247	8.2611
462.453	7.23865
462.658	7.25912
462.864	7.68351
463.07	7.35223
463.276	7.37789
463.482	7.32793
463.688	8.0478
463.893	7.00156
464.099	7.22623
464.305	8.08828
464.511	6.90413
464.716	7.21911
464.922	7.77562
465.128	6.96265
465.333	8.26089
465.539	7.66555
465.745	7.29801
465.95	7.33796
466.156	8.94073
466.362	8.14168
466.567	7.43352
466.773	7.13911
466.978	8.35401
467.184	6.96023
467.389	6.51996
467.595	7.66785
467.8	7.26848
468.006	8.3616
468.211	8.26563
468.417	6.9466
468.622	7.81915
468.828	8.02974
469.033	7.79463
469.239	9.01745
469.444	7.40948
469.649	8.0923
469.855	7.6246
470.06	7.66122
470.266	7.22639
470.471	8.06125
470.676	7.88889
470.881	6.77876
471.087	8.57849
471.292	9.20241
471.497	7.10823
471.703	7.61698
471.908	7.38985
472.113	7.66847
472.318	8.25338
472.523	7.22383
472.729	7.97972
472.934	8.09525
473.139	7.53907
473.344	7.99491
473.549	8.50801
473.754	7.41563
473.959	9.37996
474.164	7.35886
474.369	7.79836
474.575	8.21649
474.78	7.86512
474.985	7.53786
475.19	6.87736
475.395	7.48826
475.6	7.82437
475.804	8.76252
476.009	7.86383
476.214	7.88827
476.419	7.75687
476.624	7.07334
476.829	7.45466
477.034	8.33961
477.239	7.63373
477.444	8.31372
477.648	8.27171
477.853	8.34843
478.058	7.91018
478.263	7.58513
478.468	7.41767
478.672	7.63421
478.877	8.77644
479.082	8.92569
479.287	8.40178
479.491	8.02108
479.696	7.63335
479.901	8.48523
480.105	8.573
480.31	7.75346
480.515	8.14276
480.719	9.29381
480.924	7.90224
481.128	7.68158
481.333	8.26029
481.538	8.3527
481.742	8.49987
481.947	9.38499
482.151	10.1906
482.356	10.81582
482.56	12.58238
482.765	13.86223
482.969	16.47761
483.174	18.61968
483.378	21.55388
483.582	22.54343
483.787	24.53367
483.991	25.29252
484.196	26.01188
484.4	25.92258
484.604	26.59551
484.809	24.45504
485.013	23.33837
485.217	21.56243
485.422	19.36805
485.626	17.52593
485.83	16.36076
486.034	15.47387
486.239	15.55697
486.443	15.67978
486.647	15.91852
486.851	16.86842
487.055	18.1111
487.26	17.98554
487.464	18.97131
487.668	18.72567
487.872	19.39942
488.076	19.71181
488.28	19.14524
488.484	18.16693
488.688	17.95669
488.892	17.04351
489.096	15.9876
489.3	14.70351
489.504	13.81711
489.708	13.0909
489.912	12.58529
490.116	12.26593
490.32	11.68474
490.524	12.56987
490.728	13.18151
490.932	13.86046
491.136	14.60257
491.34	15.87557
491.544	16.34384
491.748	16.34105
491.951	16.63531
492.155	16.3206
492.359	15.9542
492.563	14.88984
492.767	14.16489
492.97	12.84316
493.174	11.63386
493.378	10.71602
493.582	9.37636
493.785	8.97721
493.989	9.07198
494.193	8.97592
494.396	8.76451
494.6	9.26976
494.804	8.73265
495.007	8.40108
495.211	8.55087
495.414	8.6431
495.618	8.82582
495.822	9.30563
496.025	8.73633
496.229	9.12468
496.432	8.45696
496.636	8.80502
496.839	8.74179
497.043	9.53205
497.246	9.02521
497.45	8.70356
497.653	8.95524
497.856	9.0503
498.06	8.4507
498.263	8.89708
498.467	8.74335
498.67	9.34968
498.873	9.14255
499.077	8.79732
499.28	8.89212
499.483	9.03101
499.686	9.2301
499.89	9.0719
500.093	9.42039
500.296	8.61077
500.499	9.71132
500.703	8.85045
500.906	9.1751
501.109	9.68606
501.312	8.97673
501.515	8.78118
501.719	9.15512
501.922	9.51055
502.125	9.01176
502.328	8.86161
502.531	8.45091
502.734	8.93109
502.937	8.11059
503.14	9.01717
503.343	8.59089
503.546	8.77954
503.749	8.5174
503.952	9.35267
504.155	8.60969
504.358	9.12113
504.561	8.92736
504.764	8.31425
504.967	9.04755
505.17	8.95159
505.373	9.82147
505.576	8.98632
505.778	9.32338
505.981	8.58952
506.184	9.64358
506.387	8.26099
506.59	10.06809
506.793	9.57768
506.995	9.20192
507.198	8.1556
507.401	9.31934
507.604	9.33955
507.806	8.57541
508.009	8.78171
508.212	9.53989
508.414	8.73076
508.617	8.90496
508.82	9.20031
509.022	9.93099
509.225	9.33043
509.427	8.51495
509.63	9.82997
509.833	9.20544
510.035	8.933
510.238	8.50575
510.44	9.93277
510.643	8.40776
510.845	10.24733
511.048	9.45588
511.25	9.04334
511.453	9.19316
511.655	9.39262
511.858	9.07932
512.06	9.65812
512.262	9.36707
512.465	9.70821
512.667	9.05811
512.869	8.75559
513.072	9.57151
513.274	9.71018
513.476	9.57705
513.679	9.79316
513.881	8.85643
514.083	10.10633
514.286	8.94451
514.488	8.98323
514.69	8.88578
514.892	8.50947
515.094	9.62866
515.297	8.9374
515.499	9.44571
515.701	8.81204
515.903	10.20245
516.105	10.20025
516.307	9.68682
516.509	8.307
516.711	8.7307
516.913	9.33703
517.116	9.27341
517.318	9.02819
517.52	9.95586
517.722	9.63927
517.924	8.79905
518.126	9.6061
518.328	9.23256
518.529	9.9621
518.731	10.94597
518.933	9.54769
519.135	9.77128
519.337	10.50743
519.539	9.84488
519.741	8.81631
519.943	9.47503
520.145	9.49449
520.346	10.00174
520.548	9.44995
520.75	9.7794
520.952	9.40375
521.153	9.78576
521.355	9.7168
521.557	9.15732
521.759	9.61169
521.96	9.54197
522.162	9.00741
522.364	10.10596
522.565	9.25936
522.767	9.83247
522.969	10.03945
523.17	9.83821
523.372	9.71085
523.573	9.29716
523.775	9.37762
523.977	9.13211
524.178	10.54589
524.38	9.2702
524.581	9.89055
524.783	9.46249
524.984	9.88872
525.186	9.70358
525.387	10.2584
525.589	10.32717
525.79	10.48894
525.991	10.5294
526.193	11.17732
526.394	10.69482
526.596	11.67076
526.797	11.83148
526.998	11.56098
527.2	11.95941
527.401	13.8607
527.602	14.86625
527.803	17.18354
528.005	18.33101
528.206	19.95391
528.407	21.16094
528.608	21.56735
528.81	22.08809
529.011	22.03185
529.212	22.90513
529.413	21.80727
529.614	20.53042
529.815	19.6627
530.017	18.18307
530.218	16.17032
530.419	14.49374
530.62	13.86063
530.821	13.08208
531.022	11.59784
531.223	12.10466
531.424	11.76933
531.625	11.74698
531.826	11.48506
532.027	11.82507
532.228	13.04663
532.429	13.13726
532.63	13.61079
532.831	14.61451
533.032	14.9572
533.233	15.78851
533.433	15.58583
533.634	15.89683
533.835	15.34327
534.036	14.83135
534.237	14.34647
534.438	13.59275
534.638	12.22777
534.839	11.70209
535.04	11.37054
535.241	10.50358
535.441	11.32609
535.642	10.84453
535.843	10.33608
536.043	10.48653
536.244	10.79836
536.445	11.03671
536.645	11.84756
536.846	11.51939
537.047	11.91094
537.247	11.01782
537.448	10.68178
537.648	10.60297
537.849	10.32822
538.049	10.21993
538.25	10.62537
538.451	10.4608
538.651	9.89063
538.851	10.59055
539.052	10.88639
539.252	10.60005
539.453	10.21291
539.653	10.42047
539.854	10.17628
540.054	10.16615
540.254	11.90999
540.455	12.96067
540.655	13.31834
540.855	15.0135
541.056	16.1825
541.256	16.37251
541.456	17.47032
541.657	17.41475
541.857	18.09578
542.057	16.93897
542.257	16.47545
542.458	16.67327
542.658	16.14938
542.858	14.30488
543.058	14.10576
543.258	13.28683
543.458	11.77998
543.659	11.29585
543.859	11.64453
544.059	11.20498
544.259	10.62624
544.459	11.21182
544.659	10.48666
544.859	10.82129
545.059	10.31234
545.259	10.8636
545.459	10.51616
545.659	11.02379
545.859	10.46645
546.059	10.66206
546.259	10.1067
546.459	9.78096
546.659	10.03001
546.859	10.93684
547.059	10.67539
547.258	10.75589
547.458	10.79151
547.658	10.04075
547.858	10.08825
548.058	10.721
548.258	10.39499
548.457	10.16143
548.657	11.78467
548.857	10.45968
549.057	10.978
549.256	10.81542
549.456	10.15149
549.656	9.33003
549.855	11.46798
550.055	10.05935
550.255	11.50017
550.454	10.50997
550.654	10.94029
550.853	11.35874
551.053	10.93827
551.253	10.62376
551.452	10.76812
551.652	9.57674
551.851	9.4425
552.051	10.00557
552.25	10.02116
552.45	9.90097
552.649	10.18878
552.849	9.97189
553.048	10.38587
553.248	10.91348
553.447	9.798
553.646	10.92505
553.846	12.05101
554.045	11.33277
554.244	9.7069
554.444	11.35565
554.643	10.02702
554.842	11.50226
555.042	11.8149
555.241	10.15393
555.44	9.89669
555.64	10.76589
555.839	11.41578
556.038	10.7918
556.237	9.9751
556.436	10.55064
556.636	10.61858
556.835	9.76975
557.034	11.41828
557.233	10.2771
557.432	9.4881
557.631	11.05858
557.83	10.31728
558.029	10.14659
558.228	9.96383
558.427	9.8364
558.626	10.62956
558.825	9.69428
559.024	10.28537
559.223	11.75211
559.422	10.26659
559.621	10.61329
559.82	8.7434
560.019	10.40588
560.218	10.07986
560.417	8.83499
560.616	9.98319
560.815	12.67979
561.014	9.38547
561.212	11.52885
561.411	10.49936
561.61	9.6079
561.809	10.27341
562.008	11.66773
562.206	10.23046
562.405	10.8858
562.604	10.37836
562.803	10.67593
563.001	10.32043
563.2	9.51987
563.399	10.7275
563.597	9.83662
563.796	10.44946
563.995	9.6321
564.193	10.97259
564.392	10.28351
564.59	11.97653
564.789	9.26284
564.988	10.29936
565.186	10.57702
565.385	10.42336
565.583	10.24462
565.782	10.48447
565.98	10.38378
566.179	10.47046
566.377	10.0602
566.575	10.04722
566.774	11.50374
566.972	11.24622
567.171	12.07699
567.369	11.57196
567.567	10.92011
567.766	10.85776
567.964	9.40764
568.162	11.1007
568.361	11.54075
568.559	10.56353
568.757	10.70134
568.956	10.5817
569.154	10.65224
569.352	10.96853
569.55	10.54746
569.748	10.46001
569.947	10.0962
570.145	9.96397
570.343	9.98304
570.541	11.62368
570.739	9.70619
570.937	10.58702
571.135	10.96045
571.333	12.13314
571.532	12.04623
571.73	10.82744
571.928	11.43763
572.126	11.18413
572.324	10.41523
572.522	11.48884
572.72	12.65414
572.918	10.81397
573.116	11.17784
573.313	10.61754
573.511	10.74562
573.709	10.41269
573.907	11.4101
574.105	10.53326
574.303	9.79461
574.501	9.78528
574.699	11.11209
574.896	10.99068
575.094	11.2523
575.292	9.94688
575.49	11.47254
575.688	10.65167
575.885	11.65208
576.083	12.52757
576.281	11.22844
576.478	10.27232
576.676	11.17026
576.874	9.90486
577.071	10.7227
577.269	12.36079
577.467	10.64121
577.664	10.67942
577.862	11.48002
578.059	10.04238
578.257	11.3835
578.455	10.49161
578.652	10.79277
578.85	9.23289
579.047	10.78843
579.245	10.45924
579.442	10.6129
579.64	10.50832
579.837	9.41203
580.034	12.67925
580.232	10.33148
580.429	9.5859
580.627	10.98985
580.824	11.65737
581.021	11.10424
581.219	10.28102
581.416	10.0575
581.613	11.66472
581.811	11.68232
582.008	9.9838
582.205	11.45246
582.402	10.82255
582.6	11.96706
582.797	10.74726
582.994	11.0294
583.191	11.21821
583.388	10.72359
583.586	11.32711
583.783	11.55052
583.98	9.89901
584.177	10.8452
584.374	8.5134
584.571	10.4671
584.768	10.7416
584.965	10.26326
585.162	11.27334
585.359	11.99736
585.556	10.78113
585.753	11.10056
585.95	9.63142
586.147	9.99572
586.344	11.04706
586.541	10.53835
586.738	9.77831
586.935	10.63022
587.132	10.13404
587.329	11.61737
587.526	10.63622
587.722	14.99933
587.919	9.61808
588.116	11.04431
588.313	11.79307
588.51	12.54443
588.706	10.64066
588.903	11.28697
589.1	11.60723
589.297	13.1475
589.493	10.86537
589.69	11.37759
589.887	10.21679
590.083	9.83683
590.28	10.24017
590.477	11.648
590.673	11.23274
590.87	11.97848
591.067	10.37219
591.263	11.15367
591.46	11.21843
591.656	10.5286
591.853	12.35005
592.049	10.35755
592.246	10.41401
592.442	11.56479
592.639	11.94009
592.835	10.01881
593.032	11.05428
593.228	9.43384
593.425	9.70521
593.621	9.5486
593.817	11.07306
594.014	10.00155
594.21	11.14424
594.406	11.77459
594.603	11.23923
594.799	10.22401
594.995	8.98025
595.192	11.94956
595.388	10.586
595.584	10.63167
595.78	9.69691
595.977	13.29452
596.173	12.2729
596.369	10.62694
596.565	10.05574
596.761	9.83164
596.957	11.813
597.154	10.37592
597.35	10.61078
597.546	10.49565
597.742	11.57073
597.938	11.33236
598.134	10.55493
598.33	11.04011
598.526	12.15719
598.722	11.46047
598.918	12.83783
599.114	11.55519
599.31	9.96492
599.506	10.92809
599.702	10.22186
599.898	11.01137
600.094	11.70239
600.29	11.63134
600.485	11.69655
600.681	10.24297
600.877	12.54459
601.073	10.9209
601.269	12.93325
601.465	12.40142
601.66	10.13413
601.856	9.10764
602.052	12.96935
602.248	10.64581
602.443	9.26632
602.639	9.75487
602.835	10.19236
603.03	10.07341
603.226	11.75908
603.422	10.24632
603.617	10.76819
603.813	10.76588
604.009	10.57616
604.204	12.05879
604.4	10.00534
604.595	12.09945
604.791	10.30143
604.986	11.4463
605.182	10.63532
605.377	10.92912
605.573	10.95914
605.768	11.23705
605.964	11.80449
606.159	11.79429
606.355	12.09701
606.55	10.81656
606.746	12.25139
606.941	11.08443
607.136	12.96835
607.332	13.75012
607.527	10.17579
607.722	11.41014
607.918	10.87632
608.113	10.21075
608.308	11.91878
608.503	11.53961
608.699	11.39618
608.894	11.65195
609.089	10.40697
609.284	11.50262
609.479	10.8649
609.675	11.94039
609.87	11.00418
610.065	11.92191
610.26	12.10331
610.455	12.08027
610.65	11.32011
610.845	11.67065
611.04	12.23709
611.235	11.31626
611.43	11.22785
611.625	10.30147
611.82	13.05524
612.015	10.81083
612.21	13.11441
612.405	10.00274
612.6	13.00606
612.795	12.79398
612.99	12.01753
613.185	10.27287
613.38	10.57771
613.575	11.66363
613.77	14.44161
613.965	9.76523
614.159	10.54637
614.354	12.73224
614.549	12.31721
614.744	11.96544
614.938	10.29833
615.133	9.85442
615.328	12.94898
615.523	12.57709
615.717	14.44798
615.912	10.85724
616.107	11.2843
616.301	10.85203
616.496	10.77889
616.691	13.14033
616.885	12.18313
617.08	14.55798
617.274	12.44036
617.469	13.73069
617.664	12.2124
617.858	10.74536
618.053	11.85522
618.247	11.09211
618.442	8.91532
618.636	13.02602
618.831	10.62571
619.025	10.72132
619.219	14.62006
619.414	8.076
619.608	11.18387
619.803	10.75154
619.997	13.77739
620.191	12.72894
620.386	11.88345
620.58	11.37739
620.774	9.40596
620.969	9.63361
621.163	11.57934
621.357	10.06811
621.551	11.14211
621.746	11.48916
621.94	11.1432
622.134	15.14774
622.328	13.99579
622.522	9.70227
622.716	12.64663
622.911	12.7014
623.105	12.58886
623.299	11.90732
623.493	15.0323
623.687	10.40441
623.881	10.61015
624.075	12.34135
624.269	13.11355
624.463	9.24182
624.657	9.63344
624.851	12.21862
625.045	12.41844
625.239	12.56918
625.433	11.06168
625.627	13.54588
625.821	10.83004
626.015	10.73628
626.209	11.7278
626.403	9.82767
626.596	12.02289
626.79	12.60003
626.984	10.30768
627.178	12.37829
627.372	12.13024
627.565	12.4676
627.759	10.32957
627.953	10.60164
628.147	12.10409
628.34	12.6421
628.534	14.65672
628.728	11.56025
628.921	12.9
629.115	12.59345
629.309	13.05896
629.502	13.03789
629.696	12.02834
629.89	11.56265
630.083	11.98352
630.277	12.15273
630.47	13.77908
630.664	11.25138
630.857	9.93177
631.051	13.05381
631.244	13.20414
631.438	12.79629
631.631	10.97093
631.825	13.58689
632.018	12.23809
632.212	14.03635
632.405	13.22741
632.598	10.87014
632.792	11.97634
632.985	8.90125
633.178	11.36307
633.372	11.71174
633.565	11.47215
633.758	13.36278
633.952	10.64274
634.145	10.71053
634.338	11.51037
634.531	11.32071
634.724	10.97453
634.918	11.88808
635.111	11.66914
635.304	11.48438
635.497	15.02716
635.69	12.26937
635.883	13.60893
636.077	10.58665
636.27	12.51521
636.463	12.37291
636.656	12.27637
636.849	11.67794
637.042	12.94076
637.235	14.78712
637.428	13.18501
637.621	12.76041
637.814	14.13424
638.007	14.21103
638.2	14.10415
638.393	14.55687
638.586	10.25449
638.778	11.34923
638.971	11.93768
639.164	14.08145
639.357	12.58261
639.55	14.39436
639.743	13.43587
639.935	13.0354
640.128	15.72452
640.321	13.49508
640.514	12.77051
640.707	15.88493
640.899	13.34295
641.092	9.95139
641.285	27.91556
641.477	9.25202
641.67	16.44669
641.863	14.32252
642.055	12.66963
642.248	12.39715
642.441	11.80698
642.633	13.23628
642.826	14.07816
643.018	14.6375
643.211	15.32643
643.403	15.72086
643.596	16.46128
643.788	15.21331
643.981	12.01118
644.173	13.93607
644.366	11.9513
644.558	10.13025
644.751	14.48731
644.943	10.59039
645.135	15.22637
645.328	15.91333
645.52	13.60054
645.712	14.56171
645.905	17.7795
646.097	11.00414
646.289	13.22277
646.482	16.66158
646.674	11.61186
646.866	14.87428
647.058	13.71424
647.251	11.34
647.443	12.29207
647.635	12.72466
647.827	11.13431
648.019	11.09898
648.211	12.83738
648.404	13.13773
648.596	15.89436
648.788	13.65962
648.98	13.39682
649.172	13.85241
649.364	13.74914
649.556	10.46814
649.748	17.71856
649.94	11.25671
650.132	14.42832
650.324	11.81479
650.516	12.06694
650.708	15.0387
650.9	10.66822
651.092	10.56777
651.284	11.15295
651.476	11.23645
651.667	14.12613
651.859	15.66865
652.051	12.92781
652.243	13.59282
652.435	12.71577
652.627	14.30986
652.818	14.23915
653.01	10.81061
653.202	11.94722
653.394	12.60651
653.585	14.12807
653.777	21.18028
653.969	16.07526
654.16	15.63919
654.352	11.77076
654.544	13.13079
654.735	15.2313
654.927	13.95943
655.118	15.92985
655.31	14.95648
655.502	15.55435
655.693	13.1558
655.885	14.48425
656.076	16.25693
656.268	14.2104
656.459	16.27595
656.651	16.11443
656.842	12.84172
657.034	12.40276
657.225	15.3778
657.416	16.46535
657.608	15.72786
657.799	13.9011
657.99	15.93012
658.182	12.70165
658.373	12.65531
658.564	15.91189
658.756	14.19929
658.947	13.5933
659.138	12.4321
659.33	12.9092
659.521	12.54392
659.712	13.66651
659.903	13.5714
660.094	13.08829
660.286	11.46484
660.477	17.20526
660.668	15.10698
660.859	13.82151
661.05	11.60645
661.241	14.90091
661.432	14.84781
661.623	13.41637
661.814	13.33719
662.006	11.50478
662.197	14.62217
662.388	16.48127
662.579	14.80053
662.77	19.44643
662.96	19.17422
663.151	16.24054
663.342	11.14214
663.533	15.54756
663.724	14.01625
663.915	18.21123
664.106	14.62421
664.297	17.66831
664.488	15.83059
664.678	13.17711
664.869	16.07539
665.06	15.92776
665.251	14.7437
665.442	15.91654
665.632	12.78611
665.823	18.31578
666.014	9.14069
666.204	16.17411
666.395	17.4693
666.586	19.19981
666.776	16.2449
666.967	18.70351
667.158	14.70739
667.348	17.86052
667.539	13.0279
667.729	16.72056
667.92	13.15869
668.111	16.95851
668.301	16.226
668.492	14.64985
668.682	15.40601
668.873	14.59649
669.063	12.56693
669.253	15.8109
669.444	17.98257
669.634	14.74272
669.825	18.65613
670.015	17.78075
670.206	13.74821
670.396	19.311
670.586	14.64003
670.777	16.26785
670.967	11.27778
671.157	14.96118
671.347	13.64862
671.538	18.91583
671.728	16.83292
671.918	19.50884
672.108	17.4999
672.299	14.9745
672.489	15.84445
672.679	14.36079
672.869	16.40199
673.059	20.06693
673.249	16.74006
673.44	13.20064
673.63	14.70623
673.82	17.25178
674.01	13.31783
674.2	16.8027
674.39	21.91244
674.58	16.9735
674.77	15.90305
674.96	15.76272
675.15	24.69779
675.34	18.07896
675.53	15.94637
675.72	14.83372
675.91	12.53692
676.099	20.02109
676.289	21.12228
676.479	18.35093
676.669	14.62791
676.859	17.0783
677.049	14.06096
677.238	16.16552
677.428	19.90392
677.618	17.52781
677.808	20.57916
677.997	17.6357
678.187	14.152
678.377	15.88233
678.567	14.92267
678.756	15.47704
678.946	16.24618
679.136	13.31475
679.325	15.07557
679.515	14.2964
679.704	13.8035
679.894	18.04515
680.084	17.29867
680.273	18.95444
680.463	14.47477
680.652	14.35616
680.842	16.10028
681.031	18.57236
681.221	14.54903
681.41	17.99489
681.6	16.53298
681.789	18.02991
681.978	19.41666
682.168	17.21909
682.357	17.26792
682.547	17.9462
682.736	17.25169
682.925	19.73271
683.115	19.78636
683.304	18.57227
683.493	17.30194
683.682	18.12968
683.872	17.72641
684.061	19.9105
684.25	18.33742
684.439	22.8701
684.629	19.16597
684.818	25.45815
685.007	17.34935
685.196	16.66287
685.385	22.14492
685.574	18.27719
685.763	18.50032
685.952	18.05641
686.142	15.18345
686.331	21.14054
686.52	13.86218
686.709	23.01122
686.898	22.37378
687.087	19.84042
687.276	22.35079
687.465	21.39506
687.654	17.51121
687.842	21.50813
688.031	15.37784
688.22	21.75976
688.409	18.87347
688.598	18.77925
688.787	25.20497
688.976	18.49179
689.165	23.71822
689.353	17.78326
689.542	19.31484
689.731	21.52817
689.92	24.51023
690.108	20.72664
690.297	17.70155
690.486	19.26971
690.675	20.55273
690.863	23.33194
691.052	22.86276
691.241	19.77042
691.429	19.67706
691.618	22.41298
691.806	15.85255
691.995	18.26614
692.184	19.13568
692.372	18.11826
692.561	20.04486
692.749	20.04057
692.938	28.43396
693.126	20.27588
693.315	18.33282
693.503	21.21748
693.692	22.38476
693.88	22.0868
694.068	25.54143
694.257	19.87222
694.445	21.43253
694.634	14.38253
694.822	21.72794
695.01	23.09123
695.199	25.7764
695.387	24.10612
695.575	23.08557
695.763	19.5741
695.952	18.54408
696.14	15.84814
696.328	18.19811
696.516	19.76294
696.705	20.74752
696.893	20.33794
697.081	14.76622
697.269	21.97897
697.457	16.78969
697.645	15.87459
697.833	21.61764
698.021	17.05332
698.21	17.84503
698.398	18.53416
698.586	16.55372
698.774	16.05919
698.962	19.16263
699.15	16.7327
699.338	15.44219
699.526	20.48857
699.714	17.61584
699.901	18.04491
700.089	21.40688
700.277	17.46696
700.465	19.64524
700.653	21.69783
700.841	20.6373
701.029	17.97881
701.217	24.06624
701.404	20.4531
701.592	24.58949
701.78	27.53767
701.968	19.41514
702.155	19.62314
702.343	17.18327
702.531	24.36369
702.718	21.69034
702.906	19.03087
703.094	19.17892
703.281	24.5042
703.469	19.83525
703.657	24.04725
703.844	31.44932
704.032	27.48452
704.219	19.69474
704.407	23.01018
704.595	26.22838
704.782	22.89207
704.97	21.50231
705.157	21.21698
705.345	28.59823
705.532	33.92768
705.719	24.82306
705.907	28.63559
706.094	24.59042
706.282	32.12415
706.469	24.41448
706.656	25.85523
706.844	24.67735
707.031	29.60749
707.218	27.48313
707.406	32.19455
707.593	28.75339
707.78	29.43988
707.968	27.54693
708.155	24.27866
708.342	29.27193
708.529	29.72852
708.716	28.51684
708.904	32.77606
709.091	29.53035
709.278	24.24189
709.465	34.16157
709.652	32.73202
709.839	31.96527
710.026	27.45593
710.213	21.2721
710.4	28.02928
710.587	29.3602
710.774	30.6211
710.961	31.01285
711.148	26.99093
711.335	30.74814
711.522	25.88618
711.709	28.97477
711.896	34.23534
712.083	31.0256
712.27	24.87461
712.457	28.51669
712.644	22.67476
712.831	35.18516
713.017	27.80976
713.204	29.79569
713.391	25.60898
713.578	31.11076
713.765	32.73343
713.951	28.26798
714.138	38.19774
714.325	27.91003
714.512	26.18468
714.698	22.40147
714.885	30.37592
715.072	25.39604
715.258	25.18839
715.445	22.52242
715.631	29.6674
715.818	16.27131
716.005	22.42815
716.191	27.1978
716.378	23.59025
716.564	27.89261
716.751	21.11463
716.937	23.3762
717.124	27.93765
717.31	21.72404
717.497	32.44288
717.683	22.0906
717.869	34.28523
718.056	23.06666
718.242	26.56062
718.429	24.04078
718.615	21.40755
718.801	24.78575
718.988	29.3913
719.174	27.39436
719.36	23.31341
719.547	31.13467
719.733	25.98714
719.919	26.72408
720.105	27.89667
720.291	25.63233
720.478	25.47616
720.664	24.9172
720.85	23.41058
721.036	37.33187
721.222	32.4268
721.408	25.67688
721.595	33.25903
721.781	32.55845
721.967	30.73286
722.153	32.84538
722.339	28.63619
722.525	27.82525
722.711	21.90562
722.897	20.90029
723.083	24.21347
723.269	30.82291
723.455	39.33438
723.641	44.88008
723.827	27.67408
724.012	28.31663
724.198	26.41288
724.384	32.84916
724.57	27.85041
724.756	19.94969
724.942	18.53938
725.127	31.22666
725.313	32.73243
725.499	32.12247
725.685	35.60553
725.87	28.31704
726.056	23.71688
726.242	32.60535
726.428	20.6555
726.613	30.9512
726.799	24.86703
726.985	21.97684
727.17	19.87849
727.356	36.73913
727.541	22.91221
727.727	26.20667
727.913	30.8892
728.098	24.91515
728.284	30.48922
728.469	22.17593
728.655	23.63256
728.84	32.72758
729.026	31.71004
729.211	30.67565
729.397	29.6564
729.582	31.27234
729.767	27.48605
729.953	28.93617
730.138	33.44625
730.323	18.02622
730.509	22.61582
730.694	35.03831
730.879	30.51613
731.065	28.13821
731.25	39.6916
731.435	30.64928
731.621	21.81861
731.806	25.11826
731.991	28.83537
732.176	21.08978
732.361	34.73991
732.547	29.22984
732.732	21.02708
732.917	38.98557
733.102	22.34347
733.287	24.81782
733.472	27.66628
733.657	28.56796
733.842	21.67832
734.027	25.59272
734.212	26.90571
734.397	24.86118
734.582	28.44745
734.767	33.04903
734.952	35.12269
735.137	17.2452
735.322	35.76116
735.507	30.7645
735.692	28.92798
735.877	39.6162
736.062	38.15724
736.247	30.57208
736.431	28.43842
736.616	34.0855
736.801	30.1163
736.986	29.03544
737.171	23.28256
737.355	23.37263
737.54	36.06344
737.725	29.11614
737.909	43.85287
738.094	26.70232
738.279	33.31317
738.463	27.65172
738.648	32.65432
738.833	31.81089
739.017	40.8224
739.202	28.56538
739.386	28.8189
739.571	24.97419
739.756	33.86885
739.94	29.2042
740.125	32.65629
740.309	25.51332
740.494	34.13023
740.678	30.0991
740.863	31.94919
741.047	30.66428
741.231	38.21198
741.416	26.46412
741.6	38.60475
741.785	25.1967
741.969	35.34644
742.153	37.88664
742.338	19.6418
742.522	29.23497
742.706	34.55287
742.89	23.90312
743.075	30.08462
743.259	37.75942
743.443	37.08595
743.627	37.235
743.812	42.97353
743.996	22.08155
744.18	29.34694
744.364	28.03296
744.548	44.31718
744.732	29.12933
744.916	36.21648
745.1	33.80603
745.285	28.64087
745.469	34.81738
745.653	40.43422
745.837	24.29637
746.021	44.74861
746.205	37.97264
746.389	31.036
746.573	31.18293
746.757	40.3062
746.94	27.85689
747.124	38.47431
747.308	23.98254
747.492	38.00361
747.676	26.26927
747.86	47.24014
748.044	28.17978
748.227	21.72129
748.411	55.55262
748.595	32.60669
748.779	26.95504
748.963	32.62716
749.146	31.41738
749.33	27.20077
749.514	26.80201
749.697	38.68019
749.881	26.54275
750.065	25.24287
750.248	32.58052
750.432	46.95921
750.616	32.13299
750.799	25.45056
750.983	47.66658
751.166	46.67048
751.35	22.76673
751.533	38.54274
751.717	42.01786
751.9	41.69824
752.084	30.20423
752.267	26.12049
752.451	28.2466
752.634	32.92455
752.818	36.60489
753.001	37.41439
753.184	39.29475
753.368	34.58524
753.551	12.18385
753.734	27.32164
753.918	47.62976
754.101	27.86271
754.284	37.41043
754.467	29.94338
754.651	28.38083
754.834	27.60542
755.017	39.91986
755.2	40.76908
755.384	26.39331
755.567	37.85023
755.75	38.569
755.933	30.19342
756.116	37.89624
756.299	29.38113
756.482	26.54325
756.665	36.59965
756.848	33.31548
757.032	35.03734
757.215	24.69249
757.398	27.7176
757.581	28.04299
757.764	51.77632
757.947	32.49646
758.129	39.18395
758.312	16.19725
758.495	31.63146
758.678	31.7466
758.861	31.01758
759.044	45.21601
759.227	25.90493
759.41	28.18758
759.592	38.69681
759.775	31.48935
759.958	38.63445
760.141	26.33731
760.324	49.32715
760.506	43.55215
760.689	39.4865
760.872	48.72951
761.054	36.67253
761.237	32.22546
761.42	34.45182
761.602	38.3906
761.785	35.68077
761.968	41.8463
762.15	45.07847
762.333	32.80901
762.515	36.98495
762.698	31.7657
762.88	40.05571
763.063	36.83272
763.245	40.38657
763.428	27.77318
763.61	30.52316
763.793	26.05247
763.975	35.4608
764.158	31.80977
764.34	29.8076
764.522	28.29711
764.705	33.04216
764.887	43.87301
765.069	25.52469
765.252	37.98987
765.434	39.13161
765.616	35.8768
765.799	30.14506
765.981	39.691
766.163	30.17419
766.345	44.04312
766.528	30.22507
766.71	21.43055
766.892	34.77526
767.074	43.2672
767.256	32.06523
767.438	47.18212
767.62	36.37451
767.802	51.52502
767.985	40.00108
768.167	48.57413
768.349	30.15345
768.531	39.71187
768.713	36.93289
768.895	40.63448
769.077	37.45676
769.259	56.04401
769.441	73.00521
769.623	42.04892
769.804	47.12906
769.986	43.76195
770.168	53.4737
770.35	64.0563
770.532	47.86171
770.714	54.33332
770.896	51.4772
771.077	28.67282
771.259	55.34114
771.441	48.10786
771.623	59.22795
771.804	69.35306
771.986	29.71225
772.168	40.20098
772.35	54.97129
772.531	72.01718
772.713	47.68983
772.894	61.43385
773.076	47.04409
773.258	40.28897
773.439	61.86812
773.621	68.44493
773.802	35.85729
773.984	41.5902
774.166	50.60871
774.347	65.94303
774.529	59.34054
774.71	26.31715
774.891	45.17389
775.073	43.25386
775.254	62.46168
775.436	40.76065
775.617	74.4532
775.799	43.03532
775.98	62.20874
776.161	67.47104
776.343	69.53143
776.524	48.23914
776.705	43.72284
776.886	27.1178
777.068	52.67562
777.249	98.36707
777.43	72.45919
777.611	34.68698
777.793	42.91151
777.974	70.12286
778.155	40.7271
778.336	36.17461
778.517	79.40451
778.698	38.72693
778.879	28.46017
779.061	18.53068
779.242	53.25909
779.423	55.3146
779.604	41.21476
779.785	43.96343
779.966	50.53597
780.147	60.54205
780.328	60.97111
780.509	82.82349
780.69	60.29003
780.871	39.83488
781.051	33.67899
781.232	50.83175
781.413	51.69143
781.594	42.24223
781.775	43.71654
781.956	38.17251
782.137	26.49142
782.317	42.08781
782.498	49.89136
782.679	47.82356
782.86	51.64529
783.04	41.14743
783.221	50.13202
783.402	72.24349
783.583	50.1376
783.763	59.87273
783.944	41.53391
784.124	33.23414
784.305	70.94729
784.486	55.88468
784.666	47.56822
784.847	32.5722
785.027	92.59821
785.208	42.24607
785.388	42.28217
785.569	41.03717
785.749	47.66113
785.93	43.94318
786.11	32.63847
786.291	56.95875
786.471	50.78545
786.652	59.56286
786.832	45.92784
787.012	51.57197
787.193	36.8616
787.373	49.44596
787.553	43.31473
787.734	52.17238
787.914	44.59567
788.094	61.36634
788.275	52.39995
788.455	45.06787
788.635	35.43962
788.815	51.85825
788.995	38.33889
789.176	33.26609
789.356	39.76274
789.536	47.63748
789.716	54.28475
789.896	42.69684
790.076	41.82002
790.256	53.37525
790.436	25.28306
790.616	37.67075
790.796	52.75673
790.976	45.72267
791.156	40.90698
791.336	57.81562
791.516	53.31895
791.696	46.54464
791.876	33.97696
792.056	50.46166
792.236	61.5232
792.416	58.60227
792.596	54.19514
792.776	54.03508
792.956	59.13457
793.135	72.40863
793.315	37.37265
793.495	63.52802
793.675	59.74559
793.854	59.72039
794.034	61.60868
794.214	34.98595
794.394	58.48023
794.573	66.78406
794.753	52.36785
794.933	40.71834
795.112	51.7664
795.292	63.3994
795.472	73.60282
795.651	34.53027
795.831	49.85722
796.01	45.44458
796.19	47.63414
796.369	50.3405
796.549	55.43306
796.728	48.16453
796.908	34.04994
797.087	35.76891
797.267	46.31095
797.446	36.69152
797.626	56.6165
797.805	54.94766
797.984	41.63371
798.164	60.65635
798.343	40.81334
798.522	53.5927
798.702	52.54554
798.881	36.91146
799.06	47.19638
799.239	30.69743
799.419	40.00068
799.598	73.09106
799.777	53.43958
799.956	65.54817
800.136	45.594
800.315	40.48099
800.494	54.77625
800.673	63.79723
800.852	59.24946
801.031	65.91336
801.21	58.23468
801.389	47.66686
801.568	52.52228
801.747	75.50201
801.926	51.73305
802.105	70.78573
802.284	44.71554
802.463	72.78659
802.642	55.45097
802.821	53.99224
803	70.48105
803.179	62.24425
803.358	64.5344
803.537	44.47481
803.716	50.97316
803.895	43.92201
804.073	49.07432
804.252	44.67336
804.431	57.8168
804.61	49.52207
804.789	62.33648
804.967	44.51013
805.146	45.76665
805.325	80.14068
805.503	56.27251
805.682	35.01722
805.861	96.55182
806.039	70.01497
806.218	46.5946
806.397	54.27304
806.575	53.08972
806.754	56.46188
806.932	39.33438
807.111	66.11995
807.289	63.00511
807.468	54.7779
807.646	65.40031
807.825	62.7325
808.003	56.03971
808.182	65.69527
808.36	53.73037
808.539	42.80362
808.717	72.63514
808.895	43.79254
809.074	56.91565
809.252	50.79857
809.43	62.4264
809.609	69.09601
809.787	76.41626
809.965	49.14683
810.144	51.98242
810.322	52.55938
810.5	58.25969
810.678	47.72695
810.856	84.36788
811.035	67.56653
811.213	61.45395
811.391	74.06805
811.569	57.51886
811.747	106.68921
811.925	70.08035
812.103	44.13312
812.281	56.55976
812.459	79.88872
812.637	80.38129
812.816	65.51949
812.994	86.83375
813.171	74.01399
813.349	62.14868
813.527	70.44439
813.705	73.4253
813.883	95.78653
814.061	66.63195
814.239	80.85363
814.417	89.91147
814.595	63.83859
814.773	61.3368
814.95	59.52929
815.128	63.18103
815.306	58.56087
815.484	54.90315
815.662	44.73829
815.839	41.65535
816.017	49.00689
816.195	73.59112
816.372	50.67009
816.55	67.32282
816.728	77.41355
816.905	55.91941
817.083	83.20698
817.261	57.172
817.438	101.6124
817.616	81.80212
817.793	49.98349
817.971	69.54619
818.148	68.7317
818.326	76.02054
818.503	61.18917
818.681	82.45517
818.858	52.46997
819.036	56.4726
819.213	57.92376
819.391	48.52791
819.568	48.364
819.745	44.43641
819.923	67.57581
820.1	54.57956
820.277	44.92216
820.455	51.88408
820.632	55.05469
820.809	57.05585
820.986	42.31944
821.164	38.20788
821.341	36.09511
821.518	46.27192
821.695	37.91407
821.872	36.40949
822.05	33.21123
822.227	30.20509
822.404	31.56814
822.581	34.22489
822.758	32.02267
822.935	32.60767
823.112	35.20449
823.289	32.88416
823.466	36.32743
823.643	36.18215
823.82	40.29986
823.997	39.87457
824.174	43.75381
824.351	52.13733
824.528	51.33334
824.705	49.88345
824.882	52.93146
825.059	60.0046
825.236	50.28085
825.412	50.45076
825.589	54.33166
825.766	67.1431
825.943	49.80995
826.12	52.13005
826.296	43.78812
826.473	49.37214
826.65	48.48492
826.827	51.96037
827.003	40.39018
827.18	43.77487
827.357	46.85863
827.533	42.28608
827.71	32.46502
827.887	40.13622
828.063	43.78878
828.24	39.46348
828.416	47.20936
828.593	43.12573
828.769	54.04531
828.946	54.8797
829.122	58.83565
829.299	57.4251
829.475	46.47387
829.652	56.87757
829.828	77.90604
830.005	57.52274
830.181	72.08051
830.357	57.46765
830.534	72.97857
830.71	60.53508
830.886	68.94356
831.063	67.91231
831.239	78.56468
831.415	48.98163
831.592	78.21547
831.768	57.23426
831.944	52.47582
832.12	84.47032
832.296	78.72892
832.473	67.9599
832.649	50.37869
832.825	69.71945
833.001	46.19268
833.177	60.68243
833.353	56.28413
833.529	39.25214
833.705	53.82884
833.881	41.24448
834.058	40.46351
834.234	42.58843
834.41	43.02398
834.586	36.8341
834.761	41.82511
834.937	45.46872
835.113	46.32489
835.289	42.99004
835.465	48.96852
835.641	46.5575
835.817	49.91169
835.993	71.00596
836.169	48.3195
836.344	63.83385
836.52	66.90185
836.696	65.0092
836.872	57.06877
837.048	113.19416
837.223	59.29327
837.399	91.55854
837.575	72.90849
837.75	74.00415
837.926	90.89127
838.102	128.36824
838.277	103.99339
838.453	137.69988
838.628	136.87854
838.804	63.28452
838.98	120.49726
839.155	74.03905
839.331	92.51332
839.506	68.76055
839.682	68.12049
839.857	91.5431
840.033	102.00084
840.208	55.71713
840.384	38.36404
840.559	57.96568
840.734	78.00584
840.91	97.58311
841.085	65.16731
841.26	65.21789
841.436	60.06871
841.611	62.36159
841.786	85.8988
841.962	106.78521
842.137	74.71387
842.312	57.13241
842.487	69.27399
842.663	61.94201
842.838	72.96235
843.013	180.66662
843.188	97.56933
843.363	104.86297
843.538	145.26043
843.714	152.30595
843.889	155.99801
844.064	164.59602
844.239	139.41131
844.414	157.46894
844.589	110.86692
844.764	186.62083
844.939	184.60981
845.114	199.3153
845.289	188.46971
845.464	258.27324
845.639	172.87858
845.814	96.08344
845.989	110.5247
846.163	134.73592
846.338	145.19186
846.513	191.41678
846.688	125.78139
846.863	130.2243
847.038	121.28926
847.212	136.49025
847.387	136.0377
847.562	151.53667
847.737	172.63297
847.911	78.55446
848.086	92.40998
848.261	258.13962
848.435	126.73041
848.61	180.99167
848.785	99.87625
848.959	185.09406
849.134	247.26019
849.308	251.0725
849.483	144.85519
849.658	211.05847
849.832	125.87637
850.007	112.33299
850.181	271.83044
850.356	116.64041
850.53	260.13733
850.705	91.35898
850.879	61.26247
851.053	138.31832
851.228	121.77342
851.402	153.3188
851.577	198.67328
851.751	210.8327
851.925	147.36917
852.099	81.5681
852.274	109.99932
852.448	134.14975
852.622	148.63363
852.797	140.77069
852.971	127.18375
853.145	140.56429
853.319	375.54911
853.493	203.02321
853.668	115.92914
853.842	244.20858
854.016	204.35892
854.19	234.95979
854.364	149.01628
854.538	157.20576
854.712	206.25712
854.886	135.29611
855.06	127.06902
855.234	64.61712
855.408	224.24455
855.582	185.91974
855.756	191.71755
855.93	244.22142
856.104	171.02058
856.278	191.44061
856.452	144.22422
856.626	194.72372
856.8	287.41803
856.973	182.04607
857.147	166.5269
857.321	166.15378
857.495	207.53069
857.669	139.94343
857.842	130.12209
858.016	206.36347
858.19	117.72363
858.364	319.76161
858.537	127.28031
858.711	150.0242
858.885	140.23567
859.058	126.19996
859.232	81.55165
859.405	92.50308
859.579	188.22169
859.753	170.28241
859.926	118.36355
860.1	93.47375
860.273	149.19945
860.447	235.06104
860.62	137.17039
860.794	274.74301
860.967	165.82404
861.141	204.87819
861.314	290.77766
861.487	177.68665
861.661	228.73842
861.834	225.18469
862.008	200.64474
862.181	153.35704
862.354	156.79193
862.528	167.01949
862.701	128.98225
862.874	93.27874
863.047	142.74666
863.221	128.34192
863.394	78.007
863.567	235.71453
863.74	67.94599
863.913	187.87984
864.087	169.52953
864.26	195.16842
864.433	150.01567
864.606	250.43663
864.779	151.16413
864.952	80.96352
865.125	126.57247
865.298	141.95868
865.471	151.87098
865.644	287.97612
865.817	230.14365
865.99	194.65618
866.163	225.9105
866.336	130.97829
866.509	158.33365
866.682	139.45394
866.855	222.26001
867.028	108.63561
867.2	182.54554
867.373	80.38329
867.546	165.20599
867.719	290.70634
867.892	179.44659
868.064	119.22822
868.237	178.20076
868.41	157.54525
868.583	109.64139
868.755	106.83292
868.928	156.23716
869.101	301.517
869.273	221.16365
869.446	188.7376
869.619	219.96424
869.791	150.38753
869.964	214.99432
870.136	200.60768
870.309	161.86108
870.481	165.11552
870.654	91.51467
870.826	170.20554
870.999	136.42092
871.171	206.50894
871.344	136.26457
871.516	158.75745
871.689	119.92793
871.861	166.17093
872.033	116.30956
872.206	138.53806
872.378	219.92262
872.55	137.665
872.723	99.89142
872.895	146.46221
873.067	218.81575
873.24	234.94132
873.412	130.46439
873.584	146.58887
873.756	129.02876
873.928	180.87105
874.101	177.47013
874.273	196.76278
874.445	81.14672
874.617	97.77469
874.789	171.76974
874.961	135.09985
875.133	189.49788
875.305	161.51494
875.477	126.81651
875.649	91.07425
875.821	118.29852
875.993	255.57921
876.165	111.00265
876.337	183.17367
876.509	149.41406
876.681	176.19194
876.853	166.09612
877.025	170.40095
877.197	117.09454
877.369	113.73528
877.541	206.76337
877.712	77.34145
877.884	111.60675
878.056	191.6168
878.228	113.50281
878.4	181.96371
878.571	112.63882
878.743	86.67748
878.915	168.13067
879.086	110.54898
879.258	129.32326
879.43	116.48777
879.601	106.06666
879.773	110.35695
879.945	42.16507
880.116	58.79194
880.288	44.13377
880.459	46.22459
880.631	40.21091
880.802	45.37057
880.974	44.25185
881.145	36.93578
881.317	43.57566
881.488	38.11948
881.66	41.52498
881.831	38.77939
882.002	47.20643
882.174	41.97888
882.345	48.25144
882.517	40.23932
882.688	55.16508
882.859	53.37575
883.03	69.78836
883.202	69.95967
883.373	69.74132
883.544	70.75525
883.715	97.34801
883.887	89.63817
884.058	86.08383
884.229	104.09853
884.4	106.01646
884.571	114.46799
884.742	106.80496
884.914	111.34334
885.085	133.91411
885.256	153.95818
885.427	132.67199
885.598	146.12715
885.769	149.88287
885.94	149.60724
886.111	113.21536
886.282	160.65896
886.453	140.37604
886.624	107.68194
886.795	156.09211
886.966	137.32426
887.136	166.81993
887.307	130.50057
887.478	198.43182
887.649	175.73754
887.82	185.34135
887.991	150.89941
888.161	197.03008
888.332	192.23134
888.503	113.14546
888.674	241.65675
888.844	254.92374
889.015	203.71403
889.186	114.71058
889.356	242.25592
889.527	113.03641
889.698	382.48281
889.868	148.49628
890.039	187.17203
890.209	167.81321
890.38	210.04846
890.551	176.10499
890.721	256.08862
890.892	209.48681
891.062	148.87886
891.233	184.45801
891.403	153.72963
891.574	124.65868
891.744	154.58268
891.914	205.32024
892.085	169.1682
892.255	78.8632
892.425	249.76198
892.596	208.23104
892.766	186.7607
892.936	241.92902
893.107	211.10222
893.277	131.57798
893.447	104.45929
893.618	83.91289
893.788	142.77493
893.958	88.71013
894.128	91.27544
894.298	97.10723
894.468	123.89484
894.639	67.75089
894.809	56.09468
894.979	74.71444
895.149	81.27781
895.319	73.73131
895.489	94.69868
895.659	108.78003
895.829	85.98595
895.999	88.76113
896.169	76.61498
896.339	90.81779
896.509	153.49525
896.679	173.51452
896.849	169.48582
897.019	226.91166
897.189	178.95622
897.358	172.63282
897.528	234.08075
897.698	114.4998
897.868	221.1202
898.038	324.35145
898.208	311.64563
898.377	139.45978
898.547	314.17312
898.717	470.31059
898.886	215.29589
899.056	305.86112
899.226	431.83568
899.395	273.7785
899.565	340.422
899.735	239.04802
899.904	379.4587
900.074	305.55953
900.244	180.8943
900.413	559.85351
900.583	158.72684
900.752	234.14023
900.922	338.20874
901.091	76.86094
901.261	304.17447
901.43	290.55058
901.599	299.74638
901.769	598.91548
901.938	328.56061
902.108	323.19137
902.277	393.45342
902.446	142.63911
902.616	144.11197
902.785	204.14176
902.954	320.49576
903.124	217.01504
903.293	177.19641
903.462	112.71546
903.631	139.00411
903.801	109.49668
903.97	71.24355
904.139	103.80848
904.308	80.96695
904.477	72.03632
904.646	54.11576
904.816	70.52362
904.985	94.27329
905.154	130.08829
