Data from WindowProjectSample_Transmission__37__00037.txt Node

Date: Sat May 03 15:47:03 EDT 2025
User: jessi
Spectrometer: SR400872
Trigger mode: 0
Integration Time (sec): 5.000010E-1
Scans to average: 6
Electric dark correction enabled: true
Nonlinearity correction enabled: true
Boxcar width: 0
XAxis mode: Wavelengths
Number of Pixels in Spectrum: 3648
>>>>>Begin Spectral Data<<<<<
184.909	11660.11852
185.132	1353.53372
185.355	-6937.56906
185.578	2399.78873
185.801	1340.78432
186.024	-20274.67127
186.247	2990.75987
186.47	3774.62745
186.693	-760.32388
186.916	1053.71972
187.139	5527.31017
187.362	3712.64183
187.585	19028.77425
187.808	1138.62193
188.031	-29.44471
188.254	2138.2635
188.476	-5272.28355
188.699	-3983.26479
188.922	-411.07637
189.145	-17171.18799
189.368	-273.86746
189.591	-712.71791
189.813	2393.67547
190.036	2039.11012
190.259	9193.62453
190.482	5495.8027
190.705	5580.61534
190.927	-989.33731
191.15	2265.15307
191.373	732.30449
191.595	-1357.72593
191.818	1470.11147
192.041	2478.38533
192.263	11419.68021
192.486	-1058.30956
192.709	-2900.35263
192.931	18372.01545
193.154	11920.83316
193.377	3694.19573
193.599	-13478.26853
193.822	956.00279
194.044	-1838.50047
194.267	468.39986
194.489	-146.53234
194.712	2388.72112
194.934	3080.13283
195.157	380.47652
195.379	626.00086
195.602	2736.62026
195.824	1380.78846
196.047	-4390.96592
196.269	-7256.82523
196.492	-1861.23922
196.714	-6024.53235
196.936	19915.86453
197.159	96508.29698
197.381	-28628.83834
197.604	-907.83335
197.826	6089.51645
198.048	-3277.6773
198.271	8165.90993
198.493	2619.01888
198.715	-22133.81459
198.938	-570.28631
199.16	71935.68405
199.382	1636.23411
199.604	1071.61327
199.827	25981.74824
200.049	1004.60781
200.271	1737.29588
200.493	13968.51751
200.715	15390.36326
200.938	-2610.79015
201.16	-5628.52639
201.382	1924.34097
201.604	-1007.87135
201.826	2728.52941
202.048	866.10029
202.27	2532.78467
202.492	-2862.59893
202.715	10900.11573
202.937	17023.85629
203.159	1840.42583
203.381	-2414.14608
203.603	3235.74841
203.825	-1256.88942
204.047	6099.72564
204.269	-1051.80996
204.491	-1562.79008
204.713	8980.91984
204.935	-1832.59528
205.156	5675.93026
205.378	1585.62529
205.6	-1518.06962
205.822	2065.91026
206.044	-696.38181
206.266	-13757.16611
206.488	1950.94562
206.71	3693.80954
206.932	14718.89139
207.153	-2721.98771
207.375	2953.28467
207.597	11770.24128
207.819	3079.79095
208.041	1842.64365
208.262	689.43611
208.484	-996.70491
208.706	791.10773
208.927	1113.41293
209.149	-733.16447
209.371	-10994.92791
209.593	527.69485
209.814	3570.82769
210.036	1928.9513
210.258	-8612.28401
210.479	-950.65686
210.701	707.47424
210.922	2706.08636
211.144	2808.46726
211.366	-8844.70625
211.587	-608.58927
211.809	-4081.97027
212.03	-537.90591
212.252	-13940.19823
212.473	1342.68523
212.695	-635.70493
212.916	-639.19809
213.138	-2600.33446
213.359	-42298.31689
213.581	26617.17405
213.802	-502.86058
214.024	6664.14697
214.245	-9195.9569
214.466	-231.96613
214.688	8118.25767
214.909	-3245.25974
215.131	5411.58604
215.352	-1651.42378
215.573	13611.09816
215.795	1801.30847
216.016	2713.98422
216.237	-862.60337
216.459	1802.47233
216.68	7098.07627
216.901	9184.44479
217.122	-944.67848
217.344	3664.09583
217.565	-6002.23349
217.786	2247.15879
218.007	1233.00997
218.228	-2737.7098
218.45	12109.76952
218.671	-1789.75905
218.892	1503.83904
219.113	2471.22122
219.334	-503.94123
219.555	-1911.32926
219.776	1011.7672
219.997	4165.87741
220.219	1497.71238
220.44	2613.92165
220.661	2303.80015
220.882	-22453.8296
221.103	518.18099
221.324	1490.96628
221.545	4032.53613
221.766	-6018.89214
221.987	-1243.27673
222.208	-1649.67697
222.429	3536.415
222.65	-523.18588
222.87	-2452.22643
223.091	-22055.81515
223.312	1030.26
223.533	-3544.99601
223.754	1946.22501
223.975	1242.92287
224.196	-1773.32907
224.417	-4263.69555
224.637	-4830.31762
224.858	147.04058
225.079	803.12706
225.3	1191.22765
225.521	2812.6329
225.741	-2318.97575
225.962	765.6524
226.183	474.83505
226.404	723.45731
226.624	818.36296
226.845	435.07617
227.066	441.24609
227.286	271.36041
227.507	144.91681
227.728	100.72684
227.948	174.76059
228.169	51.86416
228.389	55.4389
228.61	28.4269
228.831	39.20969
229.051	3.60637
229.272	24.94634
229.492	33.91547
229.713	10.23259
229.933	26.6092
230.154	21.88945
230.374	34.32828
230.595	26.22435
230.815	17.95634
231.036	25.19912
231.256	-5.04339
231.477	48.25629
231.697	26.05156
231.917	23.34685
232.138	37.69037
232.358	83.93612
232.579	73.9777
232.799	9.27967
233.019	69.05668
233.24	90.39651
233.46	30.72198
233.68	49.43987
233.901	37.66571
234.121	18.83117
234.341	10.43172
234.561	-1.64251
234.782	18.10847
235.002	56.07668
235.222	-4.99512
235.442	45.55958
235.662	22.64322
235.883	49.90946
236.103	42.09978
236.323	32.28169
236.543	21.74679
236.763	31.72599
236.983	31.8024
237.203	35.4598
237.423	48.12839
237.643	67.51768
237.864	60.33593
238.084	14.56899
238.304	22.8045
238.524	36.78584
238.744	29.85091
238.964	51.23771
239.184	47.13185
239.404	49.68144
239.624	25.10198
239.843	46.9194
240.063	27.03708
240.283	18.79193
240.503	20.74137
240.723	18.79798
240.943	8.47408
241.163	15.56157
241.383	6.13616
241.603	5.38873
241.822	7.40171
242.042	5.54229
242.262	6.28365
242.482	7.50259
242.702	8.9924
242.921	2.77161
243.141	6.20802
243.361	4.68488
243.581	7.59713
243.8	6.52986
244.02	4.27768
244.24	7.80643
244.459	7.61145
244.679	15.02543
244.899	9.43838
245.118	11.55143
245.338	9.37187
245.558	12.40374
245.777	7.09716
245.997	8.33118
246.216	8.48345
246.436	4.57192
246.655	3.65235
246.875	2.75306
247.094	5.09962
247.314	1.67783
247.533	2.96011
247.753	3.58551
247.972	2.80698
248.192	1.16087
248.411	1.89892
248.631	3.00893
248.85	3.96021
249.07	3.17001
249.289	5.34422
249.508	3.90096
249.728	6.33896
249.947	6.64627
250.166	6.858
250.386	4.48346
250.605	5.2206
250.824	9.20978
251.044	6.87113
251.263	21.82625
251.482	11.40611
251.701	10.92355
251.921	0.19699
252.14	3.8289
252.359	3.49743
252.578	8.70827
252.798	2.81207
253.017	7.63703
253.236	4.15893
253.455	4.98384
253.674	10.00466
253.893	4.82265
254.112	6.59265
254.331	9.44212
254.551	8.3633
254.77	4.45336
254.989	12.72063
255.208	11.83077
255.427	12.83828
255.646	11.68427
255.865	18.99593
256.084	7.64201
256.303	8.5168
256.522	12.31006
256.741	2.66194
256.96	2.83995
257.179	7.16733
257.397	9.28389
257.616	4.94371
257.835	5.64981
258.054	13.01235
258.273	8.17075
258.492	9.69629
258.711	5.53222
258.93	2.31506
259.148	3.54749
259.367	3.65693
259.586	4.84525
259.805	2.21174
260.023	4.35802
260.242	3.29952
260.461	2.31676
260.68	1.40818
260.898	4.05713
261.117	1.29001
261.336	1.07173
261.554	3.15715
261.773	3.26158
261.992	0.80957
262.21	3.22656
262.429	4.34431
262.648	6.63256
262.866	7.64385
263.085	5.20063
263.303	4.52768
263.522	7.84362
263.74	8.33138
263.959	13.16575
264.178	6.59955
264.396	6.02873
264.615	4.3205
264.833	10.70468
265.051	8.78486
265.27	8.92922
265.488	10.12519
265.707	6.39872
265.925	9.91137
266.144	4.52138
266.362	5.69415
266.58	5.87779
266.799	4.36053
267.017	5.73769
267.235	5.3756
267.454	2.95556
267.672	2.17274
267.89	3.97724
268.109	4.19154
268.327	3.84978
268.545	1.00607
268.763	3.79096
268.982	1.48149
269.2	4.90015
269.418	2.6378
269.636	1.94425
269.854	3.9337
270.073	3.09573
270.291	1.77273
270.509	1.59914
270.727	3.82616
270.945	6.25815
271.163	6.73362
271.381	1.3222
271.599	2.58436
271.817	4.98425
272.036	1.91545
272.254	2.75342
272.472	2.36703
272.69	2.22745
272.908	2.32711
273.126	3.96698
273.344	4.79252
273.562	1.8147
273.779	2.57728
273.997	3.62708
274.215	3.90741
274.433	2.83438
274.651	4.12825
274.869	4.2136
275.087	2.55796
275.305	4.06498
275.523	2.15443
275.74	3.15364
275.958	5.3155
276.176	7.32668
276.394	2.26125
276.612	3.0899
276.829	3.10547
277.047	2.17206
277.265	2.8973
277.483	3.40463
277.7	4.07418
277.918	3.50113
278.136	5.76329
278.353	2.9855
278.571	1.45242
278.789	4.41844
279.006	0.93826
279.224	2.68028
279.442	4.8472
279.659	3.10347
279.877	2.53323
280.094	5.14057
280.312	0.9084
280.529	3.20779
280.747	0.75648
280.964	2.47087
281.182	5.72746
281.399	2.70986
281.617	3.73773
281.834	2.36371
282.052	2.13961
282.269	2.6782
282.487	2.40364
282.704	1.88446
282.921	2.3291
283.139	3.05021
283.356	3.90378
283.574	3.34316
283.791	1.90772
284.008	4.9428
284.226	2.59249
284.443	2.97727
284.66	3.88483
284.877	2.59989
285.095	2.27039
285.312	1.60184
285.529	1.15015
285.746	0.82175
285.964	2.00066
286.181	1.20972
286.398	1.89958
286.615	2.57355
286.832	2.55307
287.05	0.89581
287.267	1.64956
287.484	1.80408
287.701	2.58527
287.918	2.73034
288.135	2.56881
288.352	1.29838
288.569	1.38453
288.786	2.20385
289.003	1.82753
289.22	2.58877
289.437	1.79433
289.654	2.82154
289.871	3.10193
290.088	2.92716
290.305	2.28925
290.522	1.65827
290.739	2.05768
290.956	2.89947
291.173	3.55292
291.39	3.33985
291.607	2.34211
291.824	1.85339
292.04	1.16094
292.257	2.59961
292.474	3.12827
292.691	2.07013
292.908	0.99096
293.125	1.95655
293.341	1.08573
293.558	4.93289
293.775	2.15284
293.992	2.13124
294.208	0.73657
294.425	1.17255
294.642	1.75214
294.858	2.56074
295.075	0.77417
295.292	1.97952
295.508	2.2714
295.725	3.60128
295.942	1.64569
296.158	1.14832
296.375	2.0672
296.591	1.61287
296.808	1.69018
297.024	1.96606
297.241	2.15534
297.458	2.30863
297.674	0.21146
297.891	1.82387
298.107	1.37447
298.323	1.08849
298.54	2.64012
298.756	1.13606
298.973	0.60912
299.189	2.84894
299.406	1.24417
299.622	2.87461
299.838	2.66925
300.055	2.65069
300.271	0.54896
300.487	0.77129
300.704	1.13789
300.92	0.80668
301.136	3.9469
301.353	2.68704
301.569	1.92097
301.785	2.24879
302.001	2.61807
302.218	2.20503
302.434	2.09868
302.65	0.79033
302.866	1.63326
303.083	3.72149
303.299	3.53797
303.515	1.79727
303.731	2.11687
303.947	0.70701
304.163	1.32326
304.379	2.24397
304.595	2.4961
304.812	1.39076
305.028	1.15349
305.244	1.6609
305.46	2.55157
305.676	2.62339
305.892	3.1427
306.108	1.86833
306.324	1.67213
306.54	3.58472
306.756	2.44379
306.972	2.57564
307.187	1.66654
307.403	3.32566
307.619	1.36526
307.835	2.92621
308.051	3.42324
308.267	0.57515
308.483	2.87653
308.699	2.37287
308.914	2.05245
309.13	1.70995
309.346	0.55222
309.562	0.97389
309.778	0.61946
309.993	2.43889
310.209	1.90036
310.425	0.71322
310.641	1.83071
310.856	0.93069
311.072	0.95322
311.288	1.82344
311.503	1.97156
311.719	0.3342
311.935	0.34603
312.15	2.12958
312.366	1.92097
312.581	2.22098
312.797	1.84839
313.013	2.46652
313.228	1.4037
313.444	1.9213
313.659	1.32036
313.875	2.30771
314.09	1.84893
314.306	3.05455
314.521	2.66873
314.737	2.46556
314.952	2.06058
315.168	1.80572
315.383	2.36663
315.599	1.69996
315.814	1.48407
316.029	2.70199
316.245	0.66851
316.46	0.66968
316.675	3.14211
316.891	3.77993
317.106	4.4399
317.321	2.63549
317.537	2.42765
317.752	2.60069
317.967	2.94019
318.183	1.3184
318.398	1.72571
318.613	2.9257
318.828	3.20156
319.043	2.7025
319.259	1.57963
319.474	2.27
319.689	3.04928
319.904	0.37002
320.119	2.59863
320.334	2.30662
320.549	2.05575
320.765	3.01231
320.98	2.25572
321.195	2.96593
321.41	1.84087
321.625	2.62542
321.84	3.51791
322.055	3.77703
322.27	1.28627
322.485	1.11046
322.7	2.04277
322.915	2.9937
323.13	1.45167
323.345	3.28823
323.56	2.87299
323.775	2.71976
323.989	2.4487
324.204	2.27837
324.419	2.70435
324.634	0.79395
324.849	1.76257
325.064	4.28291
325.279	3.09957
325.493	2.58056
325.708	3.05308
325.923	1.28943
326.138	1.12281
326.352	3.42442
326.567	2.79634
326.782	1.71255
326.997	1.33189
327.211	2.47868
327.426	2.41013
327.641	1.62225
327.855	0.61524
328.07	2.52523
328.285	3.78615
328.499	1.81842
328.714	2.48105
328.928	2.55573
329.143	2.31329
329.358	2.88241
329.572	3.14159
329.787	3.30263
330.001	4.29249
330.216	0.86325
330.43	3.71473
330.645	3.64209
330.859	2.81603
331.074	1.40451
331.288	2.29474
331.503	3.25533
331.717	1.10497
331.931	1.94903
332.146	2.03743
332.36	3.55914
332.575	2.65191
332.789	2.21292
333.003	2.13949
333.218	2.67528
333.432	1.77515
333.646	2.74373
333.86	3.3257
334.075	3.63823
334.289	1.89333
334.503	1.4067
334.717	2.82526
334.932	2.67501
335.146	3.37326
335.36	1.9391
335.574	2.69928
335.788	2.66651
336.003	3.22184
336.217	2.61828
336.431	2.77695
336.645	1.71025
336.859	1.14692
337.073	1.90455
337.287	2.31757
337.501	1.39916
337.715	2.27239
337.929	2.69875
338.143	1.21605
338.357	2.2489
338.571	1.15375
338.785	2.55098
338.999	1.73262
339.213	1.99841
339.427	0.9304
339.641	3.20187
339.855	1.90167
340.069	1.48076
340.283	3.25646
340.497	3.75207
340.711	2.37332
340.924	1.64588
341.138	1.16831
341.352	0.69813
341.566	2.51353
341.78	0.59047
341.993	1.59078
342.207	1.20463
342.421	2.33689
342.635	2.18042
342.848	1.62293
343.062	0.17134
343.276	1.35829
343.49	4.08364
343.703	1.55408
343.917	2.65973
344.131	2.94084
344.344	1.50844
344.558	1.59259
344.771	1.29188
344.985	3.25113
345.199	3.33207
345.412	2.12719
345.626	2.29845
345.839	0.68859
346.053	1.11282
346.266	1.02067
346.48	2.76069
346.693	2.294
346.907	2.51605
347.12	1.25631
347.334	2.23044
347.547	2.38041
347.76	1.80825
347.974	3.1419
348.187	2.2514
348.401	1.86335
348.614	1.45283
348.827	1.77924
349.041	2.58642
349.254	0.76238
349.467	1.83837
349.681	0.73464
349.894	1.42606
350.107	3.2597
350.32	3.28771
350.534	0.60484
350.747	1.6416
350.96	1.28664
351.173	1.32515
351.386	1.78926
351.6	1.62783
351.813	1.31
352.026	2.16211
352.239	0.78323
352.452	1.63946
352.665	2.56636
352.878	1.58465
353.092	3.83679
353.305	2.41997
353.518	2.0517
353.731	1.16153
353.944	3.10072
354.157	1.15539
354.37	1.10735
354.583	0.81543
354.796	0.54035
355.009	2.80098
355.222	1.77384
355.435	2.00499
355.647	2.83585
355.86	1.02324
356.073	1.72357
356.286	1.28919
356.499	2.53495
356.712	2.11258
356.925	2.13736
357.138	2.57574
357.35	1.03136
357.563	1.46059
357.776	1.82164
357.989	1.35388
358.201	2.20642
358.414	1.67687
358.627	2.70564
358.84	1.56959
359.052	1.05385
359.265	0.82113
359.478	2.57907
359.69	-0.30038
359.903	2.08178
360.116	2.36123
360.328	0.41962
360.541	2.35321
360.753	0.93772
360.966	1.20857
361.179	1.26645
361.391	1.18917
361.604	0.80286
361.816	1.16292
362.029	0.95168
362.241	0.88187
362.454	1.15906
362.666	0.76555
362.879	1.53024
363.091	1.18211
363.304	0.87029
363.516	1.50648
363.728	0.62116
363.941	1.91241
364.153	1.0528
364.366	-0.0629
364.578	0.79547
364.79	1.79857
365.003	1.56327
365.215	1.34096
365.427	1.88362
365.639	2.49108
365.852	1.82492
366.064	3.18458
366.276	1.08262
366.488	1.95439
366.701	1.2109
366.913	1.50811
367.125	1.45205
367.337	1.06705
367.549	1.2483
367.762	1.67624
367.974	1.62061
368.186	1.1084
368.398	2.38034
368.61	1.99123
368.822	2.09995
369.034	1.66982
369.246	2.11764
369.458	3.4526
369.67	0.85525
369.882	3.0878
370.094	0.13283
370.306	3.00247
370.518	1.22655
370.73	0.92138
370.942	1.10695
371.154	1.33948
371.366	1.0376
371.578	1.83038
371.79	0.92943
372.002	2.47995
372.214	2.88473
372.425	1.68696
372.637	2.54456
372.849	1.52202
373.061	-0.02898
373.273	1.92921
373.484	2.07626
373.696	2.37231
373.908	-0.04795
374.12	2.30448
374.331	2.11559
374.543	0.9292
374.755	0.87062
374.967	1.7097
375.178	2.33305
375.39	1.4159
375.602	1.69336
375.813	0.84748
376.025	0.55474
376.236	1.72773
376.448	1.73591
376.66	1.27816
376.871	1.17259
377.083	2.35868
377.294	2.49725
377.506	1.16422
377.717	2.44052
377.929	1.79989
378.14	1.193
378.352	1.85913
378.563	2.04497
378.775	2.61145
378.986	1.07563
379.197	1.43556
379.409	1.23654
379.62	2.16629
379.832	1.85766
380.043	1.28899
380.254	1.76052
380.466	0.71098
380.677	3.76943
380.888	3.33121
381.1	3.67774
381.311	3.54638
381.522	1.85568
381.733	4.02383
381.945	1.49145
382.156	1.69135
382.367	1.51349
382.578	3.92978
382.789	3.80135
383.001	1.32154
383.212	3.08223
383.423	3.07497
383.634	2.4909
383.845	2.40826
384.056	1.44847
384.267	1.78436
384.478	1.70909
384.69	0.99088
384.901	2.36487
385.112	2.17333
385.323	3.13939
385.534	2.14887
385.745	2.35646
385.956	2.26704
386.167	1.15559
386.378	2.34579
386.588	1.27931
386.799	1.35579
387.01	0.97349
387.221	2.77975
387.432	2.00146
387.643	3.3352
387.854	1.85755
388.065	2.06237
388.275	1.9225
388.486	1.83089
388.697	2.1201
388.908	1.94827
389.119	3.01285
389.329	3.32457
389.54	2.25909
389.751	2.65676
389.962	3.30166
390.172	2.33262
390.383	2.13334
390.594	1.90336
390.804	1.80349
391.015	2.16108
391.226	2.56583
391.436	2.86713
391.647	2.74194
391.858	3.00604
392.068	1.41054
392.279	1.84837
392.489	2.87328
392.7	3.2801
392.91	2.08953
393.121	2.17748
393.331	2.98913
393.542	3.49344
393.752	3.25232
393.963	3.03456
394.173	2.99477
394.384	3.34516
394.594	2.8139
394.804	2.11491
395.015	2.97085
395.225	3.39
395.436	2.22582
395.646	3.36401
395.856	2.69713
396.067	1.95998
396.277	3.76219
396.487	3.38795
396.697	3.51365
396.908	3.95219
397.118	3.51207
397.328	3.46429
397.538	3.88721
397.749	2.80544
397.959	3.92361
398.169	3.6879
398.379	2.49385
398.589	3.57973
398.8	3.75884
399.01	3.56054
399.22	3.28837
399.43	5.01718
399.64	3.50512
399.85	4.20546
400.06	3.58939
400.27	3.14781
400.48	3.62375
400.69	4.5919
400.9	3.47994
401.11	3.11102
401.32	4.40325
401.53	3.54477
401.74	4.82008
401.95	4.29709
402.16	3.65493
402.37	4.35153
402.58	3.75431
402.79	4.24463
403	4.43064
403.209	3.64589
403.419	4.91868
403.629	3.74211
403.839	4.94111
404.049	5.03829
404.258	4.09699
404.468	4.11821
404.678	5.01402
404.888	5.28585
405.097	4.43649
405.307	4.40264
405.517	5.14961
405.727	5.09765
405.936	4.3199
406.146	4.99507
406.356	5.55969
406.565	4.75492
406.775	4.20208
406.984	4.40452
407.194	6.31979
407.404	4.83648
407.613	5.17715
407.823	5.52746
408.032	5.77136
408.242	5.56174
408.451	4.82389
408.661	4.91416
408.87	6.20014
409.08	4.63574
409.289	5.58006
409.499	5.44929
409.708	5.19852
409.918	3.85207
410.127	5.57559
410.336	6.42554
410.546	5.96373
410.755	5.01517
410.964	5.16933
411.174	4.68819
411.383	5.75001
411.592	5.78043
411.802	4.84866
412.011	6.01236
412.22	5.39255
412.429	6.64525
412.639	6.69361
412.848	6.45511
413.057	6.92252
413.266	6.56878
413.475	5.8043
413.685	6.24716
413.894	6.35011
414.103	6.55672
414.312	6.27218
414.521	5.78576
414.73	6.38048
414.939	7.33591
415.148	6.4251
415.357	6.4127
415.566	6.22633
415.776	6.13831
415.985	6.21507
416.194	6.88666
416.403	7.75732
416.611	5.58264
416.82	6.23696
417.029	6.76093
417.238	6.27399
417.447	6.39823
417.656	6.6245
417.865	6.62764
418.074	7.0097
418.283	7.47813
418.492	8.5546
418.7	8.43166
418.909	10.0259
419.118	8.60977
419.327	9.31698
419.536	9.0924
419.744	9.03215
419.953	10.62671
420.162	10.78479
420.371	9.98032
420.579	10.51038
420.788	11.55768
420.997	11.82774
421.205	11.88795
421.414	11.51351
421.623	11.97688
421.831	11.1878
422.04	11.93421
422.249	11.039
422.457	11.32558
422.666	10.53763
422.874	11.50803
423.083	11.61977
423.291	11.58013
423.5	11.67696
423.708	12.09777
423.917	12.82095
424.125	11.86899
424.334	11.78741
424.542	13.7713
424.751	13.1341
424.959	12.62193
425.167	12.93282
425.376	12.44583
425.584	11.29868
425.793	11.2004
426.001	9.97409
426.209	10.3225
426.418	9.13197
426.626	8.51909
426.834	8.29852
427.042	8.199
427.251	7.79576
427.459	8.53098
427.667	8.14423
427.875	7.24416
428.084	7.69732
428.292	8.91878
428.5	8.43455
428.708	7.39515
428.916	7.38002
429.124	8.03251
429.333	7.87937
429.541	8.01615
429.749	8.17692
429.957	8.12034
430.165	9.82172
430.373	7.14957
430.581	8.08696
430.789	9.17599
430.997	8.01904
431.205	7.57097
431.413	8.54774
431.621	8.23948
431.829	8.78877
432.037	8.16684
432.245	8.59459
432.453	8.76823
432.661	8.25332
432.869	9.71151
433.076	8.38017
433.284	9.14361
433.492	9.81624
433.7	10.09906
433.908	9.11916
434.116	9.47455
434.323	9.23121
434.531	9.15353
434.739	9.14568
434.947	9.03398
435.154	9.32967
435.362	8.77048
435.57	8.50499
435.778	8.22883
435.985	8.88545
436.193	8.18204
436.401	9.50353
436.608	8.62172
436.816	8.37042
437.023	9.68613
437.231	9.77429
437.439	8.91938
437.646	9.18769
437.854	9.03263
438.061	9.27381
438.269	8.90673
438.476	9.44814
438.684	9.1969
438.891	9.54369
439.099	9.54285
439.306	9.22032
439.514	9.45578
439.721	11.15857
439.929	10.43181
440.136	11.64766
440.343	11.60397
440.551	11.49266
440.758	13.3854
440.965	11.89875
441.173	11.67222
441.38	11.27703
441.587	11.04821
441.795	10.84577
442.002	10.35591
442.209	10.15397
442.416	9.99596
442.624	9.76111
442.831	9.47182
443.038	8.88683
443.245	8.61082
443.452	9.06477
443.66	9.47499
443.867	8.95537
444.074	8.87761
444.281	9.27447
444.488	9.63283
444.695	10.16033
444.902	10.35023
445.109	11.80536
445.316	11.38744
445.523	11.97467
445.73	12.11169
445.937	12.9252
446.144	13.76482
446.351	14.22113
446.558	12.82346
446.765	15.0268
446.972	14.14092
447.179	13.72166
447.386	14.17669
447.593	12.50738
447.8	13.3368
448.007	11.82019
448.214	11.21455
448.42	10.5606
448.627	11.00749
448.834	10.16476
449.041	9.67868
449.248	9.37752
449.454	9.76001
449.661	10.30426
449.868	9.12748
450.075	8.91085
450.281	8.22854
450.488	8.71267
450.695	8.93154
450.901	8.81432
451.108	9.09342
451.315	9.9054
451.521	8.90904
451.728	10.10141
451.935	8.93488
452.141	9.23236
452.348	9.34236
452.554	9.35756
452.761	9.15274
452.967	10.46885
453.174	9.68248
453.38	9.47814
453.587	8.64352
453.793	9.48372
454	9.6839
454.206	10.79992
454.413	9.91787
454.619	9.66863
454.825	8.97539
455.032	9.77146
455.238	10.00289
455.445	8.57663
455.651	9.52144
455.857	8.41771
456.064	9.40739
456.27	9.08465
456.476	9.09977
456.682	8.70044
456.889	9.52578
457.095	9.78838
457.301	10.78737
457.507	9.43254
457.714	9.4506
457.92	9.54574
458.126	9.1634
458.332	9.47581
458.538	9.46735
458.744	10.10201
458.951	10.73895
459.157	13.2119
459.363	12.56729
459.569	13.13274
459.775	13.86511
459.981	13.61054
460.187	14.05711
460.393	13.92593
460.599	14.19884
460.805	12.72978
461.011	12.03639
461.217	11.70545
461.423	10.82748
461.629	9.9451
461.835	10.0942
462.041	9.61112
462.247	10.7238
462.453	9.45667
462.658	9.49654
462.864	10.26355
463.07	9.97696
463.276	9.73305
463.482	9.66744
463.688	10.7222
463.893	9.20742
464.099	9.62237
464.305	10.76391
464.511	9.49739
464.716	9.5875
464.922	10.20454
465.128	9.28969
465.333	10.75665
465.539	10.15349
465.745	9.78835
465.95	9.89208
466.156	11.59618
466.362	10.64373
466.567	9.93438
466.773	9.62137
466.978	10.7082
467.184	9.30902
467.389	8.98808
467.595	10.10165
467.8	9.40452
468.006	10.82625
468.211	10.62486
468.417	9.50712
468.622	10.23052
468.828	10.21431
469.033	10.34364
469.239	11.79378
469.444	9.70151
469.649	10.53284
469.855	9.91695
470.06	10.04815
470.266	9.36522
470.471	10.44294
470.676	10.15233
470.881	8.91583
471.087	11.08723
471.292	11.40513
471.497	9.3516
471.703	9.87622
471.908	9.73619
472.113	10.0746
472.318	10.73303
472.523	9.36124
472.729	10.51263
472.934	10.49466
473.139	9.94947
473.344	10.3733
473.549	10.95741
473.754	9.74821
473.959	11.81577
474.164	9.68119
474.369	10.02652
474.575	10.31823
474.78	10.19282
474.985	9.7986
475.19	9.03329
475.395	9.74983
475.6	10.04368
475.804	11.23625
476.009	10.24669
476.214	10.06666
476.419	9.9469
476.624	9.24705
476.829	9.92953
477.034	10.7084
477.239	9.94974
477.444	10.62327
477.648	10.7611
477.853	10.86882
478.058	10.15147
478.263	9.92069
478.468	9.84689
478.672	9.84213
478.877	11.38623
479.082	11.5013
479.287	10.64622
479.491	10.49084
479.696	9.88642
479.901	10.93696
480.105	10.7746
480.31	9.91661
480.515	10.45794
480.719	11.85376
480.924	10.32814
481.128	10.34649
481.333	11.4985
481.538	11.81282
481.742	12.3173
481.947	13.80863
482.151	15.0918
482.356	16.31242
482.56	19.16344
482.765	21.65359
482.969	25.77291
483.174	29.04826
483.378	33.56374
483.582	34.96079
483.787	37.20319
483.991	38.03057
484.196	38.11665
484.4	36.99937
484.604	37.1663
484.809	33.70197
485.013	31.57903
485.217	28.44997
485.422	25.06427
485.626	22.69488
485.83	21.59614
486.034	20.76732
486.239	21.4691
486.443	22.12347
486.647	22.89061
486.851	24.66044
487.055	26.57258
487.26	26.76978
487.464	27.949
487.668	27.14044
487.872	28.08402
488.076	28.00893
488.28	26.72361
488.484	25.09058
488.688	24.19505
488.892	22.80064
489.096	21.10112
489.3	19.44268
489.504	18.14695
489.708	17.32504
489.912	17.02363
490.116	16.52952
490.32	16.29
490.524	17.75376
490.728	19.10928
490.932	20.15755
491.136	21.71517
491.34	23.18059
491.544	23.86599
491.748	23.56886
491.951	23.27252
492.155	22.77179
492.359	21.9183
492.563	19.97652
492.767	18.70661
492.97	16.57193
493.174	14.65403
493.378	13.49268
493.582	11.80571
493.785	11.29211
493.989	11.06504
494.193	10.38174
494.396	9.69334
494.6	10.66309
494.804	9.99179
495.007	9.92716
495.211	10.19297
495.414	10.67939
495.618	10.89419
495.822	11.58982
496.025	11.16777
496.229	11.67139
496.432	11.2488
496.636	11.71813
496.839	12.03362
497.043	12.79828
497.246	12.03816
497.45	11.74856
497.653	12.04994
497.856	11.65691
498.06	11.24582
498.263	11.0542
498.467	10.98519
498.67	11.56367
498.873	11.18211
499.077	10.88915
499.28	10.94073
499.483	11.04614
499.686	11.42989
499.89	10.92285
500.093	11.61448
500.296	10.38019
500.499	12.14991
500.703	10.98723
500.906	11.21862
501.109	11.96425
501.312	11.07915
501.515	10.93587
501.719	11.21236
501.922	11.7425
502.125	10.9169
502.328	11.06677
502.531	10.36141
502.734	10.84977
502.937	9.91854
503.14	11.17395
503.343	10.6628
503.546	10.8439
503.749	10.7823
503.952	11.31496
504.155	10.44138
504.358	11.22109
504.561	11.33149
504.764	10.16111
504.967	11.2085
505.17	11.08235
505.373	11.90153
505.576	10.89064
505.778	11.49948
505.981	10.68006
506.184	11.8989
506.387	9.99472
506.59	12.32725
506.793	11.71482
506.995	11.3553
507.198	9.99857
507.401	11.393
507.604	11.31494
507.806	10.53632
508.009	10.86757
508.212	11.58437
508.414	10.78035
508.617	10.88216
508.82	11.2137
509.022	12.21491
509.225	11.36023
509.427	10.37398
509.63	12.12406
509.833	11.29225
510.035	10.92453
510.238	10.48342
510.44	12.02962
510.643	10.42859
510.845	12.44138
511.048	11.57314
511.25	10.96813
511.453	11.27598
511.655	11.58875
511.858	11.21103
512.06	11.81883
512.262	11.41669
512.465	12.03686
512.667	11.33479
512.869	10.65402
513.072	11.58187
513.274	11.62882
513.476	11.7342
513.679	11.90888
513.881	10.73352
514.083	12.29965
514.286	10.8854
514.488	10.87655
514.69	10.73256
514.892	10.61302
515.094	11.78489
515.297	10.9458
515.499	11.44241
515.701	10.93022
515.903	12.40158
516.105	12.33564
516.307	11.67317
516.509	10.42582
516.711	10.62035
516.913	11.21034
517.116	11.33091
517.318	11.14971
517.52	12.07976
517.722	12.09967
517.924	11.65603
518.126	13.10152
518.328	12.85748
518.529	13.67827
518.731	14.44638
518.933	12.78846
519.135	12.89096
519.337	13.47663
519.539	12.79883
519.741	11.08257
519.943	11.50156
520.145	11.3428
520.346	12.11058
520.548	11.29649
520.75	11.83032
520.952	11.36067
521.153	11.7468
521.355	11.90447
521.557	10.92208
521.759	11.64325
521.96	11.15962
522.162	10.92874
522.364	12.16714
522.565	11.12507
522.767	11.90908
522.969	12.14035
523.17	11.7756
523.372	11.652
523.573	11.29072
523.775	11.45557
523.977	10.93846
524.178	12.84895
524.38	11.22031
524.581	12.06988
524.783	11.76452
524.984	13.15458
525.186	13.26765
525.387	14.01473
525.589	14.11527
525.79	14.30247
525.991	14.19528
526.193	14.9733
526.394	14.12823
526.596	15.4325
526.797	16.04986
526.998	15.72351
527.2	16.49814
527.401	19.25884
527.602	20.8789
527.803	24.61629
528.005	26.498
528.206	28.43183
528.407	30.03418
528.608	30.23574
528.81	30.57682
529.011	29.50361
529.212	30.23411
529.413	28.14882
529.614	26.13103
529.815	24.46027
530.017	22.24943
530.218	19.54212
530.419	17.53423
530.62	16.52748
530.821	15.78634
531.022	14.06387
531.223	15.09554
531.424	14.73439
531.625	15.04123
531.826	14.8694
532.027	15.77587
532.228	17.56939
532.429	17.97112
532.63	18.82641
532.831	20.29217
533.032	20.12346
533.233	21.41446
533.433	20.87787
533.634	21.0487
533.835	19.98694
534.036	18.90184
534.237	18.04626
534.438	16.89067
534.638	14.98258
534.839	14.07514
535.04	13.7337
535.241	12.88411
535.441	14.34808
535.642	13.70057
535.843	13.12189
536.043	13.9262
536.244	14.11338
536.445	14.6986
536.645	15.52284
536.846	15.08258
537.047	15.29504
537.247	13.80427
537.448	13.43181
537.648	13.21901
537.849	12.28196
538.049	12.04515
538.25	12.51146
538.451	12.47768
538.651	11.38093
538.851	12.33536
539.052	12.87082
539.252	12.5954
539.453	11.99546
539.653	12.46014
539.854	12.51741
540.054	14.11446
540.254	16.29323
540.455	18.10332
540.655	18.57616
540.855	20.91044
541.056	22.4471
541.256	22.49035
541.456	23.49743
541.657	22.84783
541.857	23.57589
542.057	21.89203
542.257	20.58749
542.458	20.67033
542.658	19.52933
542.858	17.1203
543.058	17.06827
543.258	15.85122
543.458	13.99214
543.659	13.42616
543.859	14.13329
544.059	13.75654
544.259	12.70154
544.459	12.8033
544.659	11.96996
544.859	12.36784
545.059	11.93149
545.259	12.69987
545.459	12.25382
545.659	12.85791
545.859	12.23415
546.059	12.24015
546.259	11.74231
546.459	11.73057
546.659	11.71976
546.859	12.91092
547.059	12.67812
547.258	12.55086
547.458	12.66771
547.658	11.77819
547.858	11.55359
548.058	12.38602
548.258	12.05655
548.457	11.46349
548.657	13.90984
548.857	11.8097
549.057	12.66239
549.256	12.47075
549.456	11.72702
549.656	10.38128
549.855	13.40996
550.055	11.53827
550.255	13.65106
550.454	12.45744
550.654	12.58413
550.853	13.17439
551.053	12.87574
551.253	12.1769
551.452	12.20509
551.652	11.33217
551.851	11.06549
552.051	11.94081
552.25	11.81603
552.45	11.67429
552.649	12.09005
552.849	11.50421
553.048	12.01371
553.248	12.49351
553.447	11.40606
553.646	12.67879
553.846	13.57156
554.045	12.75335
554.244	11.00824
554.444	13.24713
554.643	11.48019
554.842	13.1314
555.042	13.74787
555.241	11.416
555.44	11.00148
555.64	12.58392
555.839	13.61318
556.038	12.58384
556.237	11.4114
556.436	12.46391
556.636	12.45252
556.835	11.47194
557.034	13.56032
557.233	11.92038
557.432	11.13697
557.631	13.00203
557.83	11.94593
558.029	11.8107
558.228	11.3087
558.427	11.50898
558.626	12.19413
558.825	11.14828
559.024	11.97005
559.223	13.67314
559.422	12.02878
559.621	12.30546
559.82	10.0933
560.019	12.09606
560.218	12.22148
560.417	9.90198
560.616	11.55178
560.815	14.88185
561.014	10.94549
561.212	13.61213
561.411	12.29467
561.61	10.68599
561.809	11.91341
562.008	13.15135
562.206	11.9566
562.405	12.50491
562.604	11.96641
562.803	12.25274
563.001	11.68535
563.2	11.06467
563.399	12.60795
563.597	11.12169
563.796	12.20369
563.995	11.26212
564.193	12.49978
564.392	11.87496
564.59	13.76214
564.789	10.63106
564.988	11.79101
565.186	12.49301
565.385	11.98174
565.583	11.86601
565.782	12.02122
565.98	12.10588
566.179	11.91605
566.377	11.50864
566.575	11.64514
566.774	13.1818
566.972	12.92574
567.171	13.80708
567.369	13.07491
567.567	12.45835
567.766	12.58225
567.964	10.36788
568.162	12.41772
568.361	13.06831
568.559	12.01259
568.757	12.36497
568.956	12.42206
569.154	12.07376
569.352	12.31856
569.55	11.89804
569.748	12.24714
569.947	11.56947
570.145	11.43375
570.343	11.47432
570.541	13.21854
570.739	11.18587
570.937	12.14272
571.135	12.56921
571.333	13.69577
571.532	13.62479
571.73	12.53077
571.928	13.03643
572.126	12.66215
572.324	11.84254
572.522	13.55537
572.72	14.54
572.918	12.49216
573.116	12.7778
573.313	12.49675
573.511	12.45737
573.709	11.59734
573.907	13.04062
574.105	11.85512
574.303	11.06251
574.501	10.88229
574.699	12.76846
574.896	12.80512
575.094	12.98228
575.292	11.09102
575.49	13.37886
575.688	12.08431
575.885	13.32923
576.083	13.98853
576.281	12.86539
576.478	11.64951
576.676	12.62348
576.874	10.73438
577.071	12.09682
577.269	14.19096
577.467	12.4078
577.664	12.20114
577.862	13.17322
578.059	11.45592
578.257	12.82571
578.455	11.5563
578.652	12.35956
578.85	10.13577
579.047	12.14177
579.245	11.94913
579.442	12.08261
579.64	11.82023
579.837	10.21189
580.034	14.62284
580.232	11.55407
580.429	10.88646
580.627	12.3206
580.824	13.24716
581.021	12.76342
581.219	11.54376
581.416	11.21723
581.613	13.06906
581.811	13.64849
582.008	11.26382
582.205	12.63671
582.402	12.18266
582.6	13.28029
582.797	11.98302
582.994	12.06932
583.191	12.53404
583.388	11.81457
583.586	12.84334
583.783	12.95757
583.98	11.42152
584.177	12.59627
584.374	8.95271
584.571	11.93617
584.768	11.97572
584.965	11.47945
585.162	12.85131
585.359	13.81833
585.556	12.22607
585.753	12.39885
585.95	10.59873
586.147	10.94528
586.344	12.68546
586.541	11.64698
586.738	10.46013
586.935	11.88425
587.132	11.39456
587.329	13.08511
587.526	11.99028
587.722	17.12908
587.919	10.69273
588.116	12.51491
588.313	13.58679
588.51	14.68833
588.706	11.75605
588.903	12.67232
589.1	13.26959
589.297	15.16636
589.493	12.2764
589.69	12.63636
589.887	11.68625
590.083	11.1153
590.28	11.37579
590.477	12.96772
590.673	13.19355
590.87	13.6329
591.067	12.30497
591.263	12.76879
591.46	12.68392
591.656	11.44656
591.853	13.24647
592.049	11.07704
592.246	11.65534
592.442	13.34328
592.639	13.83095
592.835	11.27
593.032	12.65328
593.228	10.73087
593.425	10.64355
593.621	10.12919
593.817	12.27129
594.014	11.42116
594.21	12.04701
594.406	13.19483
594.603	13.10797
594.799	12.08782
594.995	9.85961
595.192	13.61811
595.388	11.9433
595.584	11.92131
595.78	10.98161
595.977	15.03426
596.173	14.2554
596.369	12.19937
596.565	11.37339
596.761	11.05911
596.957	13.91797
597.154	11.84521
597.35	12.15902
597.546	11.86455
597.742	13.55208
597.938	12.57603
598.134	12.02374
598.33	12.85112
598.526	14.01928
598.722	12.69379
598.918	14.47264
599.114	12.46339
599.31	10.98542
599.506	12.29529
599.702	11.42023
599.898	12.06149
600.094	12.86497
600.29	12.61597
600.485	13.24252
600.681	10.83633
600.877	14.10452
601.073	12.45896
601.269	14.37637
601.465	13.75129
601.66	11.13651
601.856	9.98149
602.052	14.46175
602.248	11.99671
602.443	10.60948
602.639	11.30675
602.835	11.73807
603.03	11.76046
603.226	13.46073
603.422	11.32926
603.617	12.06468
603.813	12.19477
604.009	12.34559
604.204	14.15356
604.4	11.30482
604.595	13.90562
604.791	11.77949
604.986	13.26459
605.182	12.0106
605.377	12.59906
605.573	12.03521
605.768	13.0151
605.964	13.61776
606.159	13.26747
606.355	13.58284
606.55	11.99261
606.746	13.68687
606.941	11.81958
607.136	15.04608
607.332	15.86172
607.527	10.81698
607.722	12.65686
607.918	12.12399
608.113	11.36027
608.308	13.4815
608.503	13.07529
608.699	12.90463
608.894	13.43834
609.089	11.79346
609.284	12.96343
609.479	12.28232
609.675	13.52602
609.87	12.43933
610.065	13.76539
610.26	13.50698
610.455	13.54663
610.65	12.81401
610.845	12.61301
611.04	13.94501
611.235	12.18785
611.43	12.17848
611.625	11.39595
611.82	14.60011
612.015	11.71752
612.21	14.32484
612.405	10.46161
612.6	14.80788
612.795	13.63944
612.99	13.21999
613.185	11.13216
613.38	11.42306
613.575	12.4673
613.77	16.18802
613.965	10.41182
614.159	11.62242
614.354	14.45486
614.549	14.00073
614.744	13.70722
614.938	10.96848
615.133	10.50429
615.328	14.47711
615.523	14.07946
615.717	16.47652
615.912	11.52707
616.107	12.98817
616.301	11.98517
616.496	11.80538
616.691	14.42105
616.885	13.50933
617.08	16.77791
617.274	13.62257
617.469	15.66699
617.664	13.80607
617.858	12.09084
618.053	12.97561
618.247	12.44773
618.442	9.45841
618.636	14.92825
618.831	11.63848
619.025	11.72843
619.219	16.54516
619.414	8.68899
619.608	12.16539
619.803	12.26836
619.997	15.73736
620.191	14.55013
620.386	13.17131
620.58	12.57393
620.774	10.42068
620.969	10.55011
621.163	12.53054
621.357	10.67436
621.551	12.27638
621.746	12.48633
621.94	12.03043
622.134	17.47936
622.328	15.94385
622.522	10.3461
622.716	13.89474
622.911	14.60974
623.105	14.43989
623.299	13.34799
623.493	17.56731
623.687	11.5913
623.881	12.31973
624.075	13.583
624.269	14.54837
624.463	10.06413
624.657	10.68021
624.851	13.70189
625.045	14.37591
625.239	14.76172
625.433	12.5085
625.627	15.30099
625.821	12.09073
626.015	12.08118
626.209	13.64749
626.403	11.29076
626.596	13.67082
626.79	14.57345
626.984	11.34589
627.178	13.61189
627.372	14.16471
627.565	14.2013
627.759	10.8326
627.953	11.60351
628.147	13.71246
628.34	13.76697
628.534	16.06879
628.728	12.8202
628.921	14.03832
629.115	14.05542
629.309	14.25391
629.502	14.78964
629.696	13.07811
629.89	12.81482
630.083	13.3719
630.277	13.30623
630.47	15.6134
630.664	12.41962
630.857	10.63675
631.051	14.26427
631.244	14.66897
631.438	14.32339
631.631	11.72287
631.825	15.59381
632.018	13.95411
632.212	15.90843
632.405	15.43339
632.598	11.83621
632.792	13.2485
632.985	9.4831
633.178	12.99845
633.372	12.97625
633.565	12.5814
633.758	15.54109
633.952	11.83762
634.145	11.36713
634.338	13.50354
634.531	12.49583
634.724	12.17209
634.918	13.3342
635.111	12.94074
635.304	12.5082
635.497	17.24486
635.69	13.72323
635.883	15.65147
636.077	11.79325
636.27	13.92374
636.463	13.33
636.656	13.46781
636.849	12.75245
637.042	14.57775
637.235	15.90516
637.428	14.7349
637.621	14.8883
637.814	16.06094
638.007	16.25387
638.2	15.71027
638.393	16.54354
638.586	10.81717
638.778	12.47547
638.971	12.49423
639.164	16.65054
639.357	13.80902
639.55	15.84035
639.743	15.3121
639.935	14.37622
640.128	17.6899
640.321	15.06917
640.514	13.39545
640.707	18.14041
640.899	14.7815
641.092	10.09185
641.285	28.45811
641.477	9.29826
641.67	18.72071
641.863	16.668
642.055	14.05762
642.248	13.14691
642.441	12.32581
642.633	14.56071
642.826	16.99873
643.018	16.87705
643.211	17.86096
643.403	17.25704
643.596	18.30953
643.788	17.93753
643.981	13.8979
644.173	15.55333
644.366	14.3898
644.558	10.27818
644.751	16.36015
644.943	10.95171
645.135	16.85389
645.328	17.959
645.52	14.95213
645.712	15.928
645.905	20.55044
646.097	12.10969
646.289	14.12014
646.482	18.8752
646.674	12.9462
646.866	16.32326
647.058	15.05347
647.251	11.91895
647.443	12.92458
647.635	14.63268
647.827	11.83101
648.019	12.83262
648.211	14.13193
648.404	14.71802
648.596	17.90445
648.788	14.7404
648.98	14.19421
649.172	15.54668
649.364	15.32957
649.556	11.00346
649.748	20.35165
649.94	12.2217
650.132	15.94644
650.324	11.97325
650.516	13.58009
650.708	16.7545
650.9	11.43863
651.092	10.88323
651.284	11.27697
651.476	11.5794
651.667	16.06777
651.859	16.98699
652.051	13.99645
652.243	14.38943
652.435	13.51239
652.627	15.55913
652.818	15.12684
653.01	11.10341
653.202	11.36356
653.394	13.37407
653.585	15.51285
653.777	24.5163
653.969	17.18805
654.16	16.87394
654.352	11.95314
654.544	13.8576
654.735	17.06764
654.927	14.88049
655.118	17.71625
655.31	15.87232
655.502	17.76632
655.693	13.55513
655.885	16.38465
656.076	17.30954
656.268	14.49856
656.459	18.44321
656.651	18.49451
656.842	13.32226
657.034	13.07973
657.225	17.05876
657.416	18.45472
657.608	17.59953
657.799	15.20726
657.99	17.45969
658.182	13.88928
658.373	14.07484
658.564	16.94395
658.756	15.53432
658.947	14.66949
659.138	13.16386
659.33	13.91035
659.521	13.51844
659.712	15.16656
659.903	14.67446
660.094	13.94352
660.286	11.89758
660.477	19.40641
660.668	16.84617
660.859	14.75299
661.05	11.83332
661.241	16.53848
661.432	16.38697
661.623	14.27732
661.814	13.58439
662.006	11.19222
662.197	15.97671
662.388	18.05835
662.579	16.01578
662.77	17.97124
662.96	22.26784
663.151	17.01969
663.342	11.44044
663.533	16.90905
663.724	15.49195
663.915	20.58389
664.106	15.08629
664.297	19.68242
664.488	16.70597
664.678	13.23215
664.869	17.54802
665.06	18.41453
665.251	15.79138
665.442	16.78681
665.632	12.64955
665.823	19.97248
666.014	7.96168
666.204	17.23182
666.395	18.86788
666.586	22.74029
666.776	17.71704
666.967	20.19749
667.158	16.20487
667.348	18.94088
667.539	12.81628
667.729	18.03886
667.92	13.44829
668.111	18.56592
668.301	17.2486
668.492	15.81704
668.682	16.56448
668.873	15.93083
669.063	12.85436
669.253	17.06171
669.444	18.31041
669.634	14.74154
669.825	21.23471
670.015	19.18592
670.206	13.31387
670.396	21.08397
670.586	15.09682
670.777	17.81576
670.967	9.9354
671.157	15.53918
671.347	14.35322
671.538	19.92255
671.728	17.68597
671.918	22.01317
672.108	18.42065
672.299	15.34344
672.489	17.56264
672.679	14.55516
672.869	17.98452
673.059	22.32242
673.249	17.75017
673.44	13.01069
673.63	16.07054
673.82	19.40157
674.01	14.17887
674.2	16.95187
674.39	25.18346
674.58	18.70825
674.77	16.97692
674.96	15.54294
675.15	28.92016
675.34	21.32842
675.53	16.59146
675.72	15.96394
675.91	12.29513
676.099	22.30492
676.289	24.07642
676.479	19.48726
676.669	15.04631
676.859	17.70371
677.049	14.21703
677.238	16.73926
677.428	22.64229
677.618	18.37694
677.808	20.45226
677.997	18.74208
678.187	13.73826
678.377	17.15983
678.567	14.85434
678.756	15.49653
678.946	15.79044
679.136	12.70006
679.325	14.89139
679.515	13.81116
679.704	13.67413
679.894	19.32327
680.084	17.81164
680.273	19.74873
680.463	15.09694
680.652	14.6028
680.842	17.22235
681.031	19.59664
681.221	14.96172
681.41	18.63567
681.6	16.96296
681.789	19.75456
681.978	21.46536
682.168	18.30265
682.357	18.05007
682.547	19.4939
682.736	18.15049
682.925	21.47149
683.115	21.29564
683.304	18.92067
683.493	19.00819
683.682	18.92197
683.872	18.8503
684.061	21.76258
684.25	19.51548
684.439	24.40074
684.629	19.96034
684.818	29.50412
685.007	17.953
685.196	16.72797
685.385	23.41339
685.574	19.58898
685.763	20.08924
685.952	19.35712
686.142	14.84781
686.331	22.77155
686.52	12.71744
686.709	22.85801
686.898	23.2798
687.087	20.81146
687.276	25.07274
687.465	21.86583
687.654	18.19556
687.842	24.09845
688.031	15.01345
688.22	23.65492
688.409	19.41271
688.598	19.42463
688.787	27.80939
688.976	19.76862
689.165	25.44259
689.353	17.65838
689.542	20.31672
689.731	21.46026
689.92	26.78161
690.108	21.64344
690.297	17.75967
690.486	19.12276
690.675	22.49329
690.863	25.15261
691.052	24.39608
691.241	19.67842
691.429	19.93186
691.618	25.79643
691.806	15.0583
691.995	18.00262
692.184	19.17006
692.372	18.46802
692.561	21.85381
692.749	19.52713
692.938	29.91001
693.126	22.00778
693.315	18.78128
693.503	23.17756
693.692	23.10317
693.88	24.39938
694.068	28.72362
694.257	20.21379
694.445	21.60287
694.634	13.49136
694.822	24.7144
695.01	25.21567
695.199	27.22249
695.387	26.48772
695.575	24.53213
695.763	19.579
695.952	18.73519
696.14	15.03045
696.328	18.45735
696.516	20.67373
696.705	22.08471
696.893	21.84518
697.081	14.61383
697.269	23.39319
697.457	16.93498
697.645	16.85059
697.833	23.05805
698.021	17.86099
698.21	18.86587
698.398	19.7674
698.586	16.62793
698.774	16.64666
698.962	19.75865
699.15	17.64943
699.338	15.55571
699.526	21.96337
699.714	18.4668
699.901	18.41198
700.089	23.60958
700.277	17.9729
700.465	19.54463
700.653	22.78778
700.841	21.64906
701.029	17.15463
701.217	25.90782
701.404	21.48321
701.592	26.46986
701.78	28.45002
701.968	20.55823
702.155	20.09294
702.343	14.81841
702.531	25.99521
702.718	22.25911
702.906	19.92693
703.094	18.41753
703.281	27.49251
703.469	21.7694
703.657	26.78659
703.844	34.68022
704.032	29.73847
704.219	18.56593
704.407	24.5548
704.595	26.34602
704.782	21.13853
704.97	20.43394
705.157	19.25853
705.345	28.1823
705.532	34.18757
705.719	23.73028
705.907	28.54085
706.094	23.155
706.282	30.95498
706.469	21.16683
706.656	22.74788
706.844	20.98942
707.031	26.09532
707.218	23.17847
707.406	30.36354
707.593	26.47801
707.78	25.83276
707.968	22.2176
708.155	18.58486
708.342	24.68899
708.529	25.03926
708.716	22.71455
708.904	31.0828
709.091	25.789
709.278	17.38468
709.465	32.7483
709.652	31.09752
709.839	29.20517
710.026	24.79763
710.213	17.06689
710.4	25.42259
710.587	27.14847
710.774	30.16154
710.961	29.57126
711.148	24.20995
711.335	29.92043
711.522	22.92492
711.709	25.53501
711.896	35.11749
712.083	28.97113
712.27	19.74717
712.457	24.00495
712.644	17.84326
712.831	33.68547
713.017	25.12453
713.204	28.11361
713.391	21.05727
713.578	29.36532
713.765	32.07572
713.951	27.39832
714.138	40.51444
714.325	28.01254
714.512	25.98437
714.698	21.93402
714.885	33.13622
715.072	26.47212
715.258	26.5631
715.445	22.47228
715.631	31.53343
715.818	14.29223
716.005	23.33886
716.191	28.22026
716.378	24.23451
716.564	30.19216
716.751	22.0789
716.937	23.95225
717.124	31.77131
717.31	21.28141
717.497	34.46706
717.683	22.0329
717.869	37.94155
718.056	24.74468
718.242	29.39471
718.429	25.29485
718.615	20.78816
718.801	27.28393
718.988	31.74835
719.174	29.68595
719.36	27.35216
719.547	33.36793
719.733	29.50484
719.919	26.72582
720.105	31.2061
720.291	27.62646
720.478	26.46661
720.664	27.02534
720.85	23.20743
721.036	44.21806
721.222	35.07087
721.408	27.38267
721.595	38.41388
721.781	36.19708
721.967	32.56991
722.153	38.92252
722.339	29.98043
722.525	28.30033
722.711	22.57018
722.897	19.90101
723.083	26.17707
723.269	31.59794
723.455	45.6125
723.641	47.01626
723.827	30.90045
724.012	30.97943
724.198	26.3068
724.384	36.31448
724.57	30.28054
724.756	19.42008
724.942	15.56828
725.127	33.65149
725.313	36.68783
725.499	35.74133
725.685	39.16015
725.87	29.02294
726.056	22.92624
726.242	36.12073
726.428	19.28583
726.613	34.55026
726.799	26.44796
726.985	22.39659
727.17	19.93294
727.356	40.11049
727.541	21.99301
727.727	28.69553
727.913	31.95416
728.098	25.73882
728.284	34.7219
728.469	20.93175
728.655	23.60944
728.84	33.88469
729.026	33.08376
729.211	33.2913
729.397	32.12752
729.582	31.25983
729.767	29.45041
729.953	32.2496
730.138	36.13464
730.323	15.71218
730.509	22.34994
730.694	38.23786
730.879	32.12317
731.065	30.19269
731.25	43.8868
731.435	33.43283
731.621	18.662
731.806	25.34927
731.991	29.3549
732.176	21.67073
732.361	38.10405
732.547	32.68053
732.732	20.32553
732.917	46.4495
733.102	22.68203
733.287	24.41633
733.472	29.6308
733.657	31.16413
733.842	21.02343
734.027	26.6749
734.212	28.28649
734.397	25.01816
734.582	30.57371
734.767	35.37187
734.952	38.45304
735.137	13.94337
735.322	39.15936
735.507	31.57435
735.692	30.90261
735.877	45.10163
736.062	43.29189
736.247	31.58388
736.431	28.81291
736.616	37.90634
736.801	32.45681
736.986	30.01631
737.171	25.12273
737.355	21.06242
737.54	39.12733
737.725	31.47778
737.909	49.36846
738.094	26.6262
738.279	37.26587
738.463	26.61165
738.648	34.37928
738.833	35.27292
739.017	44.45217
739.202	27.74071
739.386	29.80905
739.571	24.44832
739.756	36.46645
739.94	30.01581
740.125	37.60019
740.309	25.09629
740.494	37.04861
740.678	31.28195
740.863	34.2837
741.047	31.71618
741.231	40.80126
741.416	25.96358
741.6	42.74178
741.785	23.66648
741.969	37.99572
742.153	40.10409
742.338	19.04968
742.522	31.81568
742.706	36.36146
742.89	20.71807
743.075	32.21224
743.259	42.24156
743.443	39.64486
743.627	42.40767
743.812	50.93938
743.996	12.28213
744.18	29.72301
744.364	27.00507
744.548	52.59861
744.732	28.27121
744.916	38.53019
745.1	36.69738
745.285	28.70675
745.469	35.66566
745.653	46.0895
745.837	20.96006
746.021	51.75503
746.205	43.98511
746.389	32.3879
746.573	29.86462
746.757	44.79133
746.94	29.00996
747.124	40.79919
747.308	23.75752
747.492	41.22593
747.676	28.21114
747.86	54.66153
748.044	28.72334
748.227	17.68268
748.411	63.51109
748.595	33.76115
748.779	24.68208
748.963	36.25703
749.146	32.65147
749.33	26.30396
749.514	24.02792
749.697	41.59555
749.881	26.84535
750.065	25.98456
750.248	32.55472
750.432	50.5865
750.616	35.21633
750.799	21.59082
750.983	51.73112
751.166	56.70975
751.35	19.61235
751.533	38.62021
751.717	42.66515
751.9	47.29294
752.084	32.19156
752.267	23.76929
752.451	25.4148
752.634	35.45959
752.818	39.69706
753.001	40.0992
753.184	42.22405
753.368	36.85911
753.551	6.11924
753.734	28.94741
753.918	53.20236
754.101	27.97452
754.284	37.75422
754.467	29.95829
754.651	28.41297
754.834	26.23487
755.017	44.00985
755.2	45.24128
755.384	24.36177
755.567	43.36863
755.75	44.76046
755.933	29.7604
756.116	36.91463
756.299	27.85748
756.482	24.65105
756.665	39.81296
756.848	34.68223
757.032	38.24937
757.215	18.07364
757.398	26.17161
757.581	26.40448
757.764	58.58712
757.947	31.51922
758.129	45.90107
758.312	10.03302
758.495	31.57972
758.678	33.74008
758.861	30.0997
759.044	48.52255
759.227	25.6115
759.41	27.75095
759.592	39.47336
759.775	35.22046
759.958	44.3008
760.141	22.94594
760.324	53.3046
760.506	49.52275
760.689	43.09125
760.872	57.08653
761.054	39.46524
761.237	30.5986
761.42	40.12619
761.602	42.84235
761.785	37.14923
761.968	44.45853
762.15	51.87986
762.333	32.97526
762.515	37.2748
762.698	29.93925
762.88	41.98088
763.063	34.54319
763.245	41.08453
763.428	27.58365
763.61	26.6384
763.793	23.84728
763.975	35.87015
764.158	29.65509
764.34	28.30141
764.522	25.85122
764.705	33.34526
764.887	45.97356
765.069	22.03358
765.252	40.66899
765.434	40.47614
765.616	34.21159
765.799	27.47123
765.981	39.88439
766.163	27.54717
766.345	43.55345
766.528	27.09215
766.71	15.20537
766.892	36.27076
767.074	46.42721
767.256	33.63118
767.438	49.87728
767.62	38.06131
767.802	56.83098
767.985	43.21957
768.167	54.6666
768.349	30.5903
768.531	43.51191
768.713	36.12995
768.895	45.52109
769.077	41.41537
769.259	67.4152
769.441	90.88297
769.623	47.21975
769.804	54.92317
769.986	51.18782
770.168	65.34032
770.35	79.925
770.532	55.71319
770.714	64.20759
770.896	62.15891
771.077	22.12922
771.259	69.8805
771.441	57.7308
771.623	73.36337
771.804	94.73297
771.986	22.06054
772.168	43.02299
772.35	66.18731
772.531	89.57571
772.713	52.91087
772.894	73.20003
773.076	49.60021
773.258	39.89912
773.439	78.09521
773.621	82.06019
773.802	34.74765
773.984	48.95402
774.166	57.7673
774.347	83.7173
774.529	68.03848
774.71	23.65651
774.891	49.06448
775.073	48.80866
775.254	84.06321
775.436	42.54947
775.617	84.66536
775.799	43.93638
775.98	79.13391
776.161	79.83533
776.343	85.14142
776.524	52.8657
776.705	49.60995
776.886	25.72988
777.068	57.53788
777.249	106.90013
777.43	93.66089
777.611	39.54822
777.793	49.63634
777.974	84.49892
778.155	43.94648
778.336	45.46258
778.517	92.87761
778.698	44.48113
778.879	20.54589
779.061	9.79917
779.242	61.19915
779.423	64.87513
779.604	46.00412
779.785	53.7566
779.966	55.77043
780.147	73.77724
780.328	73.41499
780.509	101.40767
780.69	73.63316
780.871	42.79422
781.051	28.97795
781.232	60.34593
781.413	55.03888
781.594	46.97566
781.775	46.95983
781.956	44.63925
782.137	19.7934
782.317	41.89655
782.498	60.10208
782.679	59.34683
782.86	56.29423
783.04	42.5712
783.221	58.64673
783.402	90.68101
783.583	55.37821
783.763	67.40799
783.944	47.76962
784.124	29.36762
784.305	85.45495
784.486	68.33379
784.666	50.70046
784.847	28.11596
785.027	111.61514
785.208	45.44883
785.388	44.71696
785.569	44.86993
785.749	45.27747
785.93	45.3839
786.11	27.83762
786.291	62.0268
786.471	58.54402
786.652	71.68459
786.832	53.76044
787.012	59.3619
787.193	34.09527
787.373	54.94846
787.553	49.80306
787.734	58.67036
787.914	48.15199
788.094	66.26051
788.275	57.35422
788.455	47.14171
788.635	32.17212
788.815	55.9025
788.995	34.07437
789.176	28.07917
789.356	39.85028
789.536	47.77103
789.716	60.03086
789.896	38.31542
790.076	44.66513
790.256	56.96736
790.436	18.33116
790.616	36.59539
790.796	56.95231
790.976	46.71655
791.156	40.80031
791.336	71.74799
791.516	61.37928
791.696	50.49379
791.876	32.66771
792.056	57.93952
792.236	68.00859
792.416	74.00419
792.596	63.99573
792.776	58.97415
792.956	62.83295
793.135	84.227
793.315	35.06234
793.495	72.05141
793.675	65.12704
793.854	69.96704
794.034	71.11249
794.214	32.17929
794.394	65.34942
794.573	73.61103
794.753	52.24098
794.933	38.80517
795.112	57.53552
795.292	66.89843
795.472	87.83272
795.651	36.12269
795.831	56.29087
796.01	46.29334
796.19	47.27257
796.369	51.23168
796.549	61.52289
796.728	50.26805
796.908	38.45603
797.087	35.09236
797.267	51.43648
797.446	34.22772
797.626	62.90309
797.805	62.40479
797.984	38.86479
798.164	62.29836
798.343	35.94841
798.522	58.82082
798.702	55.84009
798.881	33.12615
799.06	51.49239
799.239	22.27548
799.419	36.54152
799.598	84.731
799.777	64.7761
799.956	74.48125
800.136	47.02029
800.315	40.24521
800.494	57.17492
800.673	70.7624
800.852	64.31171
801.031	79.1478
801.21	64.97316
801.389	44.4447
801.568	56.94189
801.747	86.22026
801.926	46.36803
802.105	74.69835
802.284	45.43571
802.463	80.79269
802.642	57.69261
802.821	61.63704
803	77.72824
803.179	68.02545
803.358	82.74898
803.537	44.16833
803.716	63.66356
803.895	40.76846
804.073	49.33545
804.252	44.77143
804.431	62.47752
804.61	55.33909
804.789	75.10234
804.967	43.8541
805.146	46.87814
805.325	93.13916
805.503	66.62903
805.682	32.64567
805.861	106.42631
806.039	76.42898
806.218	43.98199
806.397	61.09611
806.575	55.6276
806.754	58.34944
806.932	36.39425
807.111	85.77486
807.289	71.09026
807.468	61.55849
807.646	72.11805
807.825	68.55705
808.003	61.50865
808.182	68.99831
808.36	60.34182
808.539	39.2628
808.717	88.51558
808.895	42.96446
809.074	62.3034
809.252	53.81596
809.43	72.6906
809.609	84.47529
809.787	94.71904
809.965	48.76449
810.144	57.8217
810.322	50.87838
810.5	66.29457
810.678	49.84537
810.856	104.13491
811.035	80.74923
811.213	73.65965
811.391	82.22968
811.569	64.38798
811.747	124.98031
811.925	79.28162
812.103	45.29018
812.281	58.50688
812.459	100.08283
812.637	99.20752
812.816	79.57053
812.994	106.32102
813.171	87.39646
813.349	76.52785
813.527	93.26587
813.705	88.43341
813.883	112.48879
814.061	87.98956
814.239	102.96696
814.417	106.60174
814.595	75.38183
814.773	67.90127
814.95	71.19116
815.128	71.38103
815.306	60.83451
815.484	60.05206
815.662	44.99921
815.839	42.03159
816.017	51.96955
816.195	85.72299
816.372	59.48158
816.55	84.18796
816.728	99.82732
816.905	57.81128
817.083	96.3012
817.261	61.3582
817.438	124.07455
817.616	104.42692
817.793	50.36376
817.971	80.06187
818.148	74.25911
818.326	93.78917
818.503	69.18418
818.681	98.75554
818.858	53.87489
819.036	62.72124
819.213	66.84965
819.391	52.88585
819.568	44.05079
819.745	43.02696
819.923	74.33704
820.1	50.48431
820.277	45.70971
820.455	52.3177
820.632	52.00017
820.809	56.55052
820.986	36.88417
821.164	30.96784
821.341	26.91052
821.518	37.87237
821.695	29.80643
821.872	28.72056
822.05	24.68416
822.227	21.55349
822.404	22.84632
822.581	26.3386
822.758	23.56511
822.935	24.19257
823.112	27.17812
823.289	23.11175
823.466	27.11013
823.643	26.70465
823.82	30.20391
823.997	27.90228
824.174	32.81049
824.351	39.65392
824.528	38.19444
824.705	36.48034
824.882	35.40365
825.059	47.28586
825.236	34.43121
825.412	36.64363
825.589	45.843
825.766	57.12537
825.943	36.20931
826.12	42.09012
826.296	30.53945
826.473	37.65815
826.65	39.17144
826.827	44.6456
827.003	30.95757
827.18	35.23694
827.357	38.28999
827.533	34.11063
827.71	21.57728
827.887	30.81667
828.063	36.61294
828.24	32.19251
828.416	41.57984
828.593	33.46082
828.769	47.90949
828.946	50.34108
829.122	54.78634
829.299	53.26112
829.475	27.50755
829.652	53.06022
829.828	82.23832
830.005	52.36274
830.181	71.30504
830.357	51.91951
830.534	75.5168
830.71	56.7027
830.886	74.12476
831.063	71.00293
831.239	91.54761
831.415	43.07051
831.592	90.84575
831.768	57.88463
831.944	47.39549
832.12	93.01163
832.296	82.64706
832.473	71.49323
832.649	49.21933
832.825	69.4253
833.001	39.75356
833.177	59.55731
833.353	53.26138
833.529	30.05682
833.705	45.27514
833.881	33.73362
834.058	32.63496
834.234	34.82572
834.41	36.78689
834.586	28.45359
834.761	33.59882
834.937	40.11747
835.113	38.57663
835.289	35.54216
835.465	42.36105
835.641	38.33326
835.817	43.61823
835.993	74.6135
836.169	37.03684
836.344	57.40071
836.52	63.55212
836.696	70.52011
836.872	44.30734
837.048	138.2638
837.223	52.24507
837.399	109.46837
837.575	96.86959
837.75	84.37136
837.926	111.73806
838.102	170.69306
838.277	137.85048
838.453	193.61638
838.628	190.76039
838.804	64.82867
838.98	187.12493
839.155	94.18715
839.331	114.15139
839.506	82.74135
839.682	81.39412
839.857	97.68487
840.033	118.27787
840.208	54.10263
840.384	27.51676
840.559	59.4594
840.734	85.84876
840.91	123.15166
841.085	73.25004
841.26	83.40065
841.436	77.34478
841.611	63.5606
841.786	101.60884
841.962	159.74231
842.137	89.7734
842.312	56.68497
842.487	79.02894
842.663	79.14401
842.838	70.98549
843.013	273.61817
843.188	142.93801
843.363	131.82847
843.538	321.37038
843.714	300.55847
843.889	272.04814
844.064	260.69733
844.239	210.9592
844.414	429.40597
844.589	217.74143
844.764	335.17724
844.939	343.08663
845.114	317.1472
845.289	359.36727
845.464	447.66719
845.639	319.04248
845.814	156.35704
845.989	267.36733
846.163	240.11455
846.338	243.72428
846.513	386.91735
846.688	275.42399
846.863	270.12029
847.038	238.07811
847.212	213.84561
847.387	273.74793
847.562	307.81352
847.737	405.10759
847.911	154.7756
848.086	166.92375
848.261	285.28433
848.435	214.17637
848.61	310.46365
848.785	145.08561
848.959	330.37064
849.134	395.77084
849.308	675.07069
849.483	319.55161
849.658	468.77876
849.832	222.61972
850.007	155.56784
850.181	609.01125
850.356	341.04926
850.53	612.51464
850.705	231.88107
850.879	140.8875
851.053	219.55385
851.228	326.24581
851.402	347.61791
851.577	279.90727
851.751	422.74409
851.925	248.96584
852.099	102.75694
852.274	181.77616
852.448	276.37346
852.622	457.09744
852.797	261.53925
852.971	331.10808
853.145	401.33374
853.319	492.44627
853.493	596.82159
853.668	259.22926
853.842	835.58074
854.016	437.59082
854.19	453.15584
854.364	307.63291
854.538	345.26021
854.712	436.66506
854.886	245.45152
855.06	280.02206
855.234	110.84065
855.408	463.46461
855.582	350.44402
855.756	503.41134
855.93	417.93272
856.104	500.41805
856.278	443.33642
856.452	238.02696
856.626	380.13326
856.8	667.12735
856.973	329.77791
857.147	477.44468
857.321	443.85612
857.495	417.14167
857.669	387.49764
857.842	304.4437
858.016	400.04291
858.19	220.46969
858.364	577.3792
858.537	314.64708
858.711	369.77139
858.885	351.25874
859.058	186.35206
859.232	153.88031
859.405	141.23666
859.579	432.75656
859.753	380.43024
859.926	218.93199
860.1	164.29858
860.273	339.3728
860.447	447.40098
860.62	259.7281
860.794	504.06521
860.967	293.52033
861.141	389.61743
861.314	716.32313
861.487	321.43365
861.661	371.70024
861.834	641.6058
862.008	372.5868
862.181	391.49672
862.354	339.38388
862.528	376.04032
862.701	279.01925
862.874	218.50036
863.047	245.69725
863.221	246.08295
863.394	155.23338
863.567	306.47904
863.74	84.22222
863.913	388.27491
864.087	341.22494
864.26	461.8161
864.433	275.90333
864.606	578.94179
864.779	400.98754
864.952	206.04457
865.125	302.07923
865.298	337.82164
865.471	295.66838
865.644	564.60667
865.817	362.61029
865.99	496.59003
866.163	512.12959
866.336	209.89021
866.509	355.07378
866.682	278.97834
866.855	499.87075
867.028	128.73261
867.2	342.54078
867.373	76.10397
867.546	329.41955
867.719	700.00645
867.892	359.90154
868.064	216.68371
868.237	253.87418
868.41	380.43679
868.583	174.15791
868.755	200.26815
868.928	316.55591
869.101	599.39319
869.273	486.57514
869.446	294.727
869.619	618.89103
869.791	396.57854
869.964	483.89428
870.136	566.78123
870.309	279.14382
870.481	303.03499
870.654	149.49122
870.826	270.19427
870.999	207.06731
871.171	378.37489
871.344	203.85642
871.516	275.50747
871.689	204.73441
871.861	295.4323
872.033	199.96135
872.206	256.31172
872.378	323.84008
872.55	353.10734
872.723	177.41325
872.895	283.25375
873.067	416.7228
873.24	342.79355
873.412	245.33585
873.584	271.28552
873.756	246.46959
873.928	320.52541
874.101	295.27718
874.273	404.89753
874.445	133.5154
874.617	181.238
874.789	245.40164
874.961	264.00861
875.133	312.28403
875.305	250.48086
875.477	170.20242
875.649	134.21574
875.821	180.12861
875.993	414.31717
876.165	230.77025
876.337	280.23323
876.509	292.72945
876.681	284.34959
876.853	286.87583
877.025	312.39499
877.197	217.35373
877.369	168.45965
877.541	321.3073
877.712	72.06981
877.884	138.83923
878.056	269.98709
878.228	149.5412
878.4	287.24312
878.571	145.18574
878.743	98.24385
878.915	216.53526
879.086	120.37076
879.258	143.90416
879.43	133.80988
879.601	117.89285
879.773	119.16213
879.945	27.15875
880.116	48.72409
880.288	28.32439
880.459	30.88812
880.631	28.71941
880.802	31.72993
880.974	29.90219
881.145	22.49862
881.317	29.99734
881.488	24.2165
881.66	26.59467
881.831	24.71998
882.002	32.16184
882.174	26.71298
882.345	31.06805
882.517	19.75499
882.688	37.85686
882.859	29.9324
883.03	48.27416
883.202	44.88147
883.373	40.53294
883.544	39.84978
883.715	62.96039
883.887	55.32749
884.058	40.55429
884.229	64.2152
884.4	66.33157
884.571	75.94439
884.742	68.1247
884.914	71.70284
885.085	106.80478
885.256	135.46933
885.427	115.72249
885.598	132.61055
885.769	138.32783
885.94	137.95283
886.111	91.37135
886.282	157.2035
886.453	132.56825
886.624	99.6397
886.795	171.46344
886.966	135.72265
887.136	204.37539
887.307	135.2676
887.478	256.88209
887.649	242.21189
887.82	219.45918
887.991	185.43225
888.161	308.56156
888.332	229.9209
888.503	151.20583
888.674	359.2355
888.844	417.43072
889.015	323.64737
889.186	178.40462
889.356	310.26528
889.527	149.84807
889.698	710.53577
889.868	233.74189
890.039	409.62186
890.209	285.99172
890.38	293.10226
890.551	363.99413
890.721	441.86956
890.892	341.8974
891.062	343.73776
891.233	339.90303
891.403	295.78979
891.574	222.07811
891.744	226.60786
891.914	262.62524
892.085	277.53418
892.255	86.21754
892.425	345.33452
892.596	247.48472
892.766	311.03864
892.936	424.19296
893.107	316.09383
893.277	158.1787
893.447	113.55972
893.618	83.31349
893.788	171.07063
893.958	88.34332
894.128	69.19568
894.298	87.55895
894.468	117.99825
894.639	57.24482
894.809	37.70605
894.979	60.47063
895.149	76.41395
895.319	58.75024
895.489	84.02558
895.659	119.17807
895.829	72.25225
895.999	79.88683
896.169	52.22007
896.339	82.2439
896.509	171.93702
896.679	169.71119
896.849	184.96203
897.019	247.5871
897.189	228.50256
897.358	200.88777
897.528	306.00875
897.698	132.5683
897.868	305.98595
898.038	595.02259
898.208	488.09317
898.377	212.80581
898.547	708.21385
898.717	1597.84651
898.886	382.73466
899.056	676.89076
899.226	784.65954
899.395	789.08517
899.565	761.21645
899.735	569.68889
899.904	1069.5926
900.074	1767.7757
900.244	323.85038
900.413	1800.30153
900.583	440.58616
900.752	681.19039
900.922	799.64144
901.091	65.53481
901.261	729.31107
901.43	548.01855
901.599	892.15342
901.769	1399.15288
901.938	867.27992
902.108	688.70916
902.277	1069.20402
902.446	242.56837
902.616	246.78378
902.785	299.77103
902.954	597.25339
903.124	314.68828
903.293	203.85163
903.462	110.60499
903.631	159.47139
903.801	125.0483
903.97	55.95193
904.139	91.10128
904.308	68.01935
904.477	62.12684
904.646	31.79976
904.816	55.86273
904.985	79.39423
905.154	119.13683
