Data from WindowProjectSample_Transmission__50__00050.txt Node

Date: Sat May 03 16:43:20 EDT 2025
User: jessi
Spectrometer: SR400872
Trigger mode: 0
Integration Time (sec): 5.000010E-1
Scans to average: 6
Electric dark correction enabled: true
Nonlinearity correction enabled: true
Boxcar width: 0
XAxis mode: Wavelengths
Number of Pixels in Spectrum: 3648
>>>>>Begin Spectral Data<<<<<
184.909	172323.00738
185.132	1643.05298
185.355	-1930.7563
185.578	3281.256
185.801	-556.68371
186.024	6262.73186
186.247	990.77016
186.47	957.73879
186.693	-234.40421
186.916	420.03088
187.139	10317.01419
187.362	3504.11512
187.585	2624.31528
187.808	-1482.44014
188.031	457.29105
188.254	6958.08666
188.476	504.81365
188.699	-4163.4662
188.922	-330.70927
189.145	-4304.05807
189.368	-371.86348
189.591	-968.80954
189.813	-1952.70779
190.036	5221.5932
190.259	3367.71779
190.482	2081.18498
190.705	8178.90386
190.927	-1571.11547
191.15	-1600.58675
191.373	4647.62635
191.595	-1963.75209
191.818	9332.5218
192.041	-219.61494
192.263	-2279.41368
192.486	-892.0959
192.709	9095.17795
192.931	-2640.9053
193.154	-1950.05448
193.377	4472.45941
193.599	5472.97159
193.822	-1812.22042
194.044	-1749.55932
194.267	636.15207
194.489	312.78127
194.712	2091.24129
194.934	3479.73399
195.157	-7062.59616
195.379	1977.93505
195.602	4689.84421
195.824	5404.16394
196.047	-8483.90414
196.269	-10477.27213
196.492	-1112.87142
196.714	-4797.82797
196.936	4451.99177
197.159	-2319.5039
197.381	-575.64938
197.604	930.3545
197.826	-3335.08408
198.048	-1331.1756
198.271	-12010.88999
198.493	9597.86484
198.715	-2371.08907
198.938	-692.19961
199.16	-3847.30342
199.382	1693.7629
199.604	-1521.96544
199.827	-1264.72551
200.049	-4617.06507
200.271	2514.66282
200.493	-24455.90222
200.715	5042.87838
200.938	12713.77877
201.16	-231480.43567
201.382	-4879.5819
201.604	-973.08257
201.826	-6628.39963
202.048	-7089.45159
202.27	-4312.79362
202.492	-3612.86903
202.715	-1423.49683
202.937	-3499.73246
203.159	1041.07543
203.381	-98242.18013
203.603	-1021.39628
203.825	-1385.90726
204.047	2155.63854
204.269	-811.8868
204.491	6273.41764
204.713	-8669.21402
204.935	36498.57769
205.156	2077.57613
205.378	-7929.73856
205.6	-1511.25769
205.822	6387.40889
206.044	-229.00945
206.266	-1925.95424
206.488	758.54778
206.71	-491322.99148
206.932	-15150.47769
207.153	10965.32749
207.375	-2069.69096
207.597	15744.66104
207.819	1738.12435
208.041	6126.22278
208.262	655.10468
208.484	-846.73826
208.706	-949.06986
208.927	10195.88427
209.149	-7132.37425
209.371	-2838.26222
209.593	-2133.52373
209.814	-3825.45957
210.036	2163.25725
210.258	-575.72404
210.479	1717.54803
210.701	777.40968
210.922	4156.97468
211.144	-1189.1751
211.366	5844.68109
211.587	-583.25767
211.809	-3689.95343
212.03	-2424.52928
212.252	-428.32924
212.473	2900.23885
212.695	-717.81401
212.916	-762.15755
213.138	687.78447
213.359	-1223.84383
213.581	-3188.70376
213.802	-1181.32665
214.024	10534.87158
214.245	-1046.86827
214.466	-134.08631
214.688	-3549.31164
214.909	-743.44306
215.131	8893.82615
215.352	-1077.78158
215.573	-252386.0172
215.795	4419.54387
216.016	-3784.92617
216.237	-546.38844
216.459	-11961.0807
216.68	-1570.45808
216.901	-1605.53841
217.122	1729.16012
217.344	-7977.53267
217.565	-1609.03026
217.786	21940.96375
218.007	913.92755
218.228	-3462.02913
218.45	-5572.20818
218.671	-1362.63086
218.892	859.05879
219.113	1846.15442
219.334	370.53698
219.555	-5309.39561
219.776	31460.08905
219.997	-6497.82791
220.219	-8803.34759
220.44	-4352.8771
220.661	-1368.18678
220.882	12367.15123
221.103	-864.27236
221.324	2376.33879
221.545	-6716.65355
221.766	-1517.28978
221.987	-478.58945
222.208	1949.82362
222.429	6431.79981
222.65	-153.21806
222.87	-705.14892
223.091	38176.84097
223.312	799.38433
223.533	-2033.00327
223.754	3465.42287
223.975	1713.16708
224.196	-739.62237
224.417	-30496.31631
224.637	-2720.59321
224.858	300.99683
225.079	3841.35894
225.3	1644.27126
225.521	3611.92847
225.741	-2140.27772
225.962	1416.71191
226.183	735.09168
226.404	1854.48344
226.624	1874.61761
226.845	1335.45204
227.066	2258.36362
227.286	640.3955
227.507	412.94488
227.728	342.44894
227.948	511.20832
228.169	132.85334
228.389	117.03678
228.61	54.81272
228.831	83.26826
229.051	9.91071
229.272	44.64487
229.492	59.40332
229.713	22.23247
229.933	50.30404
230.154	43.26321
230.374	67.00394
230.595	50.68351
230.815	35.5351
231.036	50.63907
231.256	-15.59811
231.477	109.16883
231.697	60.25536
231.917	68.27576
232.138	83.46465
232.358	173.19929
232.579	160.87442
232.799	29.75007
233.019	161.27765
233.24	230.22964
233.46	66.75556
233.68	104.81543
233.901	86.48991
234.121	52.80378
234.341	13.1202
234.561	-3.07575
234.782	26.80955
235.002	119.05973
235.222	-3.00573
235.442	91.7445
235.662	44.34171
235.883	108.23876
236.103	86.44243
236.323	57.35822
236.543	57.51037
236.763	61.79864
236.983	63.81395
237.203	77.3206
237.423	106.83474
237.643	148.43159
237.864	136.51026
238.084	28.06056
238.304	46.87604
238.524	89.29967
238.744	65.36662
238.964	108.781
239.184	98.72773
239.404	102.8281
239.624	50.95261
239.843	100.17645
240.063	50.22423
240.283	37.36305
240.503	34.86651
240.723	34.92662
240.943	18.91191
241.163	25.22398
241.383	19.07615
241.603	9.44044
241.822	11.85574
242.042	7.42201
242.262	10.95246
242.482	11.83254
242.702	14.40815
242.921	4.36027
243.141	9.52352
243.361	7.95327
243.581	12.39938
243.8	11.29844
244.02	7.15799
244.24	13.70057
244.459	13.59385
244.679	26.28221
244.899	16.76141
245.118	20.27713
245.338	14.64277
245.558	21.57101
245.777	11.6755
245.997	13.65171
246.216	13.31569
246.436	7.4779
246.655	5.26005
246.875	3.71731
247.094	8.09628
247.314	2.76956
247.533	4.89068
247.753	5.67262
247.972	4.17537
248.192	1.68917
248.411	2.9276
248.631	5.05693
248.85	6.4848
249.07	4.52059
249.289	8.8835
249.508	5.91296
249.728	10.21791
249.947	11.28503
250.166	11.4078
250.386	6.86861
250.605	8.86371
250.824	15.21526
251.044	11.26554
251.263	35.17107
251.482	18.05418
251.701	16.38186
251.921	-0.18669
252.14	4.90846
252.359	6.0295
252.578	14.2758
252.798	4.22486
253.017	12.89589
253.236	6.25037
253.455	7.71141
253.674	16.52592
253.893	9.7942
254.112	11.19615
254.331	16.44656
254.551	13.89504
254.77	6.6704
254.989	23.46821
255.208	19.04191
255.427	19.80787
255.646	19.51655
255.865	32.30031
256.084	11.54861
256.303	14.3365
256.522	19.88831
256.741	4.19648
256.96	5.91623
257.179	10.81383
257.397	16.10364
257.616	8.22178
257.835	8.92482
258.054	20.86244
258.273	13.59181
258.492	15.21349
258.711	8.78844
258.93	3.95771
259.148	4.99729
259.367	5.53344
259.586	7.14991
259.805	3.57093
260.023	6.47534
260.242	4.87849
260.461	3.70538
260.68	1.87689
260.898	5.90765
261.117	1.50222
261.336	1.45529
261.554	4.84173
261.773	4.80196
261.992	1.14956
262.21	5.42377
262.429	6.3561
262.648	10.2433
262.866	11.24271
263.085	7.52641
263.303	7.1337
263.522	12.21326
263.74	12.92684
263.959	20.31888
264.178	10.13823
264.396	10.86163
264.615	7.56642
264.833	16.85103
265.051	14.39934
265.27	13.96992
265.488	15.36609
265.707	10.14846
265.925	15.76752
266.144	7.19419
266.362	8.73477
266.58	8.73763
266.799	6.12797
267.017	8.37177
267.235	7.12276
267.454	5.14403
267.672	3.00661
267.89	5.58365
268.109	6.49638
268.327	6.06713
268.545	1.05011
268.763	5.79517
268.982	2.47987
269.2	6.92217
269.418	4.06642
269.636	3.38561
269.854	6.08258
270.073	4.81263
270.291	2.35439
270.509	2.50368
270.727	5.97677
270.945	9.90795
271.163	9.95023
271.381	2.02142
271.599	3.52815
271.817	7.2194
272.036	2.37121
272.254	4.18293
272.472	3.57021
272.69	3.53135
272.908	3.45958
273.126	6.08219
273.344	7.18811
273.562	2.84321
273.779	3.65624
273.997	4.77413
274.215	6.27092
274.433	4.25386
274.651	6.13842
274.869	6.88336
275.087	4.07522
275.305	5.81947
275.523	3.13301
275.74	4.61746
275.958	7.4642
276.176	11.26582
276.394	3.39659
276.612	4.17472
276.829	4.55309
277.047	3.73684
277.265	4.2727
277.483	4.89805
277.7	5.8711
277.918	4.72331
278.136	8.79193
278.353	4.59094
278.571	2.10732
278.789	7.07815
279.006	1.49484
279.224	3.52579
279.442	6.96723
279.659	4.21086
279.877	3.20676
280.094	7.67732
280.312	1.47243
280.529	4.87652
280.747	1.08185
280.964	3.7808
281.182	8.08523
281.399	3.79599
281.617	5.4055
281.834	3.4108
282.052	2.96784
282.269	4.4564
282.487	3.4562
282.704	2.60049
282.921	3.13953
283.139	4.39874
283.356	5.62226
283.574	5.06211
283.791	2.6353
284.008	7.13407
284.226	3.72353
284.443	4.38091
284.66	5.48743
284.877	4.6343
285.095	2.88914
285.312	2.10778
285.529	1.6212
285.746	1.22168
285.964	2.93471
286.181	1.58955
286.398	2.69605
286.615	3.6486
286.832	3.43834
287.05	1.18502
287.267	2.36761
287.484	2.63252
287.701	3.82836
287.918	3.4081
288.135	3.83546
288.352	2.05546
288.569	2.06932
288.786	3.51135
289.003	2.56805
289.22	3.79682
289.437	2.21588
289.654	3.95682
289.871	4.31384
290.088	4.11874
290.305	3.00177
290.522	2.31493
290.739	2.85138
290.956	4.23633
291.173	5.05802
291.39	4.48723
291.607	3.17535
291.824	2.49192
292.04	1.54132
292.257	3.79834
292.474	4.55178
292.691	2.64924
292.908	1.52307
293.125	2.6907
293.341	1.27926
293.558	7.11817
293.775	2.96166
293.992	3.15086
294.208	1.28459
294.425	1.65803
294.642	2.37704
294.858	4.37519
295.075	0.83456
295.292	2.57475
295.508	3.35983
295.725	5.13426
295.942	2.39938
296.158	1.8522
296.375	2.74234
296.591	2.16752
296.808	2.41268
297.024	2.643
297.241	2.92483
297.458	3.2676
297.674	0.28182
297.891	2.62452
298.107	2.17251
298.323	1.61332
298.54	3.68841
298.756	1.65122
298.973	0.75318
299.189	4.09185
299.406	1.81534
299.622	4.02993
299.838	4.05286
300.055	3.70215
300.271	1.13908
300.487	1.51391
300.704	1.68982
300.92	1.11402
301.136	5.58038
301.353	3.98398
301.569	2.95097
301.785	3.16364
302.001	3.86377
302.218	3.27501
302.434	3.23327
302.65	1.22954
302.866	2.27211
303.083	5.18988
303.299	5.40502
303.515	2.81948
303.731	3.30007
303.947	1.26451
304.163	1.85133
304.379	3.04281
304.595	3.48842
304.812	2.17739
305.028	1.65278
305.244	2.2097
305.46	3.62033
305.676	4.01471
305.892	4.64651
306.108	2.9636
306.324	2.57669
306.54	5.40705
306.756	3.63422
306.972	3.74873
307.187	2.74904
307.403	4.76316
307.619	1.90471
307.835	4.20482
308.051	4.63585
308.267	1.06333
308.483	4.27639
308.699	3.42344
308.914	2.87942
309.13	2.65833
309.346	1.0001
309.562	1.7023
309.778	1.07224
309.993	3.49336
310.209	2.83227
310.425	1.26799
310.641	2.62732
310.856	1.54538
311.072	1.49548
311.288	2.59587
311.503	2.96914
311.719	0.71669
311.935	0.62356
312.15	3.26106
312.366	2.8602
312.581	3.51106
312.797	2.94299
313.013	3.81772
313.228	1.90008
313.444	2.74419
313.659	2.0691
313.875	3.43873
314.09	2.48087
314.306	4.08037
314.521	3.94977
314.737	3.56765
314.952	3.06511
315.168	2.63483
315.383	3.68937
315.599	2.39237
315.814	2.46029
316.029	3.50786
316.245	1.52381
316.46	0.90635
316.675	4.22164
316.891	5.31709
317.106	6.41375
317.321	3.53522
317.537	3.46858
317.752	3.94148
317.967	3.97065
318.183	1.58569
318.398	2.59243
318.613	4.07736
318.828	4.72192
319.043	3.89493
319.259	2.36473
319.474	3.50777
319.689	4.34989
319.904	0.76381
320.119	4.22962
320.334	3.06551
320.549	2.75706
320.765	4.45592
320.98	3.00353
321.195	3.77719
321.41	2.96447
321.625	3.78733
321.84	5.14806
322.055	5.4197
322.27	1.90811
322.485	1.67679
322.7	2.73202
322.915	4.43423
323.13	1.74834
323.345	4.81917
323.56	4.24274
323.775	3.90921
323.989	3.63975
324.204	3.17575
324.419	3.82528
324.634	1.3935
324.849	2.56538
325.064	6.00266
325.279	4.04441
325.493	3.65582
325.708	4.14355
325.923	1.83053
326.138	2.38483
326.352	4.81142
326.567	3.84651
326.782	2.56789
326.997	1.95051
327.211	3.25192
327.426	3.226
327.641	2.50612
327.855	0.90122
328.07	3.45856
328.285	5.20918
328.499	2.51436
328.714	3.60637
328.928	3.97507
329.143	3.06303
329.358	4.26215
329.572	4.35294
329.787	4.81425
330.001	6.19199
330.216	0.8342
330.43	5.43685
330.645	5.2112
330.859	4.07531
331.074	2.0232
331.288	3.38389
331.503	4.88804
331.717	1.48694
331.931	2.87603
332.146	3.16636
332.36	5.10373
332.575	3.629
332.789	3.12737
333.003	2.83115
333.218	3.78539
333.432	2.69012
333.646	4.08921
333.86	4.78367
334.075	4.9775
334.289	2.50269
334.503	1.70289
334.717	3.93778
334.932	3.4245
335.146	4.67374
335.36	2.33947
335.574	3.84911
335.788	3.46459
336.003	4.2897
336.217	4.15439
336.431	3.8317
336.645	2.56251
336.859	1.61267
337.073	2.71879
337.287	3.36504
337.501	1.71429
337.715	3.43338
337.929	3.87233
338.143	1.88106
338.357	2.91635
338.571	2.23882
338.785	3.89191
338.999	2.29375
339.213	2.67069
339.427	1.4893
339.641	4.4023
339.855	2.7122
340.069	2.22514
340.283	4.0952
340.497	5.01322
340.711	3.58191
340.924	2.57908
341.138	1.7147
341.352	1.35061
341.566	3.24317
341.78	1.48196
341.993	2.28283
342.207	1.92182
342.421	3.18094
342.635	3.12929
342.848	2.49439
343.062	0.26214
343.276	2.59303
343.49	5.46819
343.703	2.35627
343.917	3.89934
344.131	4.26667
344.344	2.13603
344.558	2.3794
344.771	1.75965
344.985	4.61051
345.199	4.96414
345.412	3.31056
345.626	3.35504
345.839	1.18736
346.053	1.71885
346.266	1.83612
346.48	3.75856
346.693	3.42688
346.907	3.59635
347.12	1.78054
347.334	3.09531
347.547	3.24347
347.76	2.74807
347.974	4.07901
348.187	3.28837
348.401	2.57552
348.614	2.11243
348.827	2.54656
349.041	3.64405
349.254	1.13466
349.467	2.59066
349.681	1.56511
349.894	2.14601
350.107	4.23895
350.32	5.06411
350.534	1.29144
350.747	2.42336
350.96	1.94487
351.173	2.27318
351.386	2.47572
351.6	2.36224
351.813	2.27377
352.026	2.93122
352.239	1.69314
352.452	2.24172
352.665	4.15826
352.878	2.40231
353.092	5.44695
353.305	3.72111
353.518	2.99963
353.731	1.69596
353.944	4.33388
354.157	2.21491
354.37	2.17657
354.583	1.47147
354.796	1.36472
355.009	3.97101
355.222	2.93562
355.435	3.08105
355.647	4.1184
355.86	2.08658
356.073	2.88299
356.286	2.26739
356.499	3.74214
356.712	3.40786
356.925	3.45048
357.138	3.94066
357.35	1.86172
357.563	2.2893
357.776	2.96471
357.989	2.83836
358.201	3.67118
358.414	3.29694
358.627	4.42214
358.84	2.80129
359.052	1.87106
359.265	1.9693
359.478	3.93013
359.69	0.24822
359.903	3.69411
360.116	4.12142
360.328	1.32575
360.541	3.89212
360.753	2.2151
360.966	2.78842
361.179	2.73798
361.391	2.66308
361.604	2.27713
361.816	2.55248
362.029	2.62266
362.241	2.25154
362.454	2.8027
362.666	2.03251
362.879	3.39176
363.091	2.61358
363.304	2.52292
363.516	2.85423
363.728	1.74747
363.941	3.57917
364.153	2.90915
364.366	1.07239
364.578	1.87674
364.79	3.66322
365.003	3.24124
365.215	2.56983
365.427	3.65651
365.639	4.16199
365.852	3.2303
366.064	4.82301
366.276	2.66967
366.488	3.32418
366.701	2.55987
366.913	2.77437
367.125	2.58734
367.337	2.3596
367.549	2.7237
367.762	3.00909
367.974	3.09542
368.186	2.65437
368.398	4.26393
368.61	3.63796
368.822	3.68232
369.034	2.83848
369.246	4.10865
369.458	5.802
369.67	2.24683
369.882	5.1293
370.094	1.02315
370.306	4.69479
370.518	2.93592
370.73	2.68678
370.942	2.70454
371.154	3.18865
371.366	2.98936
371.578	3.90225
371.79	3.26757
372.002	4.56086
372.214	5.37736
372.425	3.30624
372.637	5.01399
372.849	3.76564
373.061	1.3032
373.273	3.96459
373.484	4.01601
373.696	4.17389
373.908	1.38421
374.12	4.51532
374.331	4.31678
374.543	2.81122
374.755	2.71034
374.967	3.76624
375.178	4.71325
375.39	3.31776
375.602	3.83294
375.813	2.36079
376.025	2.73289
376.236	3.8891
376.448	3.99194
376.66	3.68336
376.871	3.84333
377.083	4.91821
377.294	5.55843
377.506	3.48688
377.717	5.30976
377.929	4.24145
378.14	3.8264
378.352	4.49161
378.563	4.87109
378.775	5.36721
378.986	3.12923
379.197	4.0009
379.409	3.65212
379.62	4.97347
379.832	4.57549
380.043	4.16839
380.254	4.56239
380.466	3.22717
380.677	7.06142
380.888	6.40985
381.1	7.13878
381.311	6.87665
381.522	4.58544
381.733	7.15397
381.945	4.24095
382.156	4.13635
382.367	4.14063
382.578	7.31393
382.789	7.55989
383.001	4.0615
383.212	6.23086
383.423	6.41391
383.634	5.8793
383.845	5.60133
384.056	4.2926
384.267	5.00324
384.478	4.96062
384.69	3.75632
384.901	5.63293
385.112	5.25192
385.323	6.6901
385.534	5.48771
385.745	5.77519
385.956	5.49199
386.167	4.39716
386.378	5.84509
386.588	4.86659
386.799	4.56607
387.01	4.10208
387.221	6.29393
387.432	5.47875
387.643	7.20288
387.854	5.19285
388.065	5.08573
388.275	5.37847
388.486	5.00232
388.697	5.67315
388.908	5.19563
389.119	6.56871
389.329	7.02017
389.54	5.61691
389.751	6.34534
389.962	7.17114
390.172	5.91549
390.383	5.76905
390.594	5.30465
390.804	5.45752
391.015	5.65773
391.226	6.3504
391.436	6.94505
391.647	6.6057
391.858	6.88444
392.068	4.79566
392.279	5.62949
392.489	6.81935
392.7	7.18053
392.91	5.99076
393.121	5.8308
393.331	7.10776
393.542	7.72196
393.752	7.51326
393.963	6.98658
394.173	7.18658
394.384	7.42271
394.594	7.03612
394.804	5.85351
395.015	6.81128
395.225	7.49574
395.436	6.08286
395.646	7.2725
395.856	6.60867
396.067	5.38224
396.277	7.62244
396.487	7.32438
396.697	7.52236
396.908	8.08097
397.118	7.53355
397.328	7.27018
397.538	7.89365
397.749	6.86495
397.959	8.2744
398.169	7.81278
398.379	6.15389
398.589	7.54677
398.8	7.9558
399.01	7.7343
399.22	7.23464
399.43	9.61292
399.64	7.68864
399.85	8.17932
400.06	7.87597
400.27	6.90428
400.48	7.53426
400.69	8.71666
400.9	7.32602
401.11	6.81174
401.32	8.36697
401.53	7.36446
401.74	9.18923
401.95	8.53988
402.16	7.81389
402.37	8.22247
402.58	7.66805
402.79	8.69462
403	8.71723
403.209	7.61325
403.419	9.22493
403.629	7.66743
403.839	9.38869
404.049	9.23085
404.258	8.13256
404.468	8.13207
404.678	9.34595
404.888	9.93795
405.097	8.72827
405.307	8.80163
405.517	9.34996
405.727	9.39994
405.936	8.53375
406.146	9.33052
406.356	10.28062
406.565	8.86484
406.775	8.64458
406.984	8.43828
407.194	10.8421
407.404	8.99198
407.613	9.38308
407.823	9.90008
408.032	10.50159
408.242	9.9002
408.451	8.79903
408.661	9.2339
408.87	10.75009
409.08	8.59352
409.289	9.88047
409.499	9.68792
409.708	9.23751
409.918	7.74469
410.127	9.84841
410.336	10.90806
410.546	10.45628
410.755	9.48615
410.964	9.41633
411.174	8.7576
411.383	10.18329
411.592	9.98495
411.802	9.15134
412.011	10.44744
412.22	9.79011
412.429	10.9074
412.639	11.22437
412.848	10.96331
413.057	11.52374
413.266	10.94263
413.475	10.16458
413.685	10.70131
413.894	11.1655
414.103	11.12104
414.312	10.869
414.521	9.99331
414.73	10.5724
414.939	12.09307
415.148	10.95504
415.357	10.7482
415.566	10.69791
415.776	10.33603
415.985	10.56842
416.194	11.3581
416.403	12.62106
416.611	9.93792
416.82	10.49201
417.029	11.29784
417.238	10.60307
417.447	10.61476
417.656	11.23223
417.865	10.81994
418.074	11.35923
418.283	11.59819
418.492	12.37884
418.7	12.11535
418.909	13.20653
419.118	11.86352
419.327	12.311
419.536	12.06204
419.744	11.94555
419.953	13.33104
420.162	13.59497
420.371	12.8772
420.579	13.589
420.788	14.49777
420.997	14.7653
421.205	15.01269
421.414	14.73451
421.623	15.16933
421.831	14.42033
422.04	14.98529
422.249	13.85628
422.457	14.2395
422.666	13.36675
422.874	14.28354
423.083	14.45259
423.291	14.69046
423.5	14.69313
423.708	15.02585
423.917	15.75236
424.125	14.94279
424.334	14.78656
424.542	16.91217
424.751	16.16541
424.959	15.45536
425.167	15.73826
425.376	15.5265
425.584	13.80838
425.793	13.83746
426.001	12.76931
426.209	13.57723
426.418	12.66898
426.626	12.59154
426.834	12.43638
427.042	13.01894
427.251	12.40345
427.459	13.62824
427.667	12.9528
427.875	11.94759
428.084	12.34583
428.292	13.84625
428.5	13.65714
428.708	12.09963
428.916	12.29793
429.124	13.06376
429.333	12.68939
429.541	12.82498
429.749	13.00867
429.957	12.9301
430.165	15.11971
430.373	11.82356
430.581	13.10073
430.789	14.07966
430.997	13.02474
431.205	12.35291
431.413	13.45691
431.621	12.87857
431.829	13.68541
432.037	12.93844
432.245	13.66816
432.453	13.57256
432.661	13.19544
432.869	14.88655
433.076	12.86795
433.284	13.29849
433.492	14.24167
433.7	14.49731
433.908	13.39067
434.116	13.97509
434.323	13.93929
434.531	13.80456
434.739	14.22545
434.947	14.356
435.154	14.64752
435.362	13.74474
435.57	13.62607
435.778	12.9616
435.985	13.99571
436.193	13.33465
436.401	14.82243
436.608	13.68195
436.816	13.77929
437.023	14.81216
437.231	15.44175
437.439	14.25354
437.646	14.66244
437.854	14.3263
438.061	14.81853
438.269	13.87375
438.476	14.77793
438.684	14.36386
438.891	13.97879
439.099	14.13703
439.306	13.35611
439.514	13.48615
439.721	14.90085
439.929	13.91862
440.136	14.77974
440.343	14.71691
440.551	14.55087
440.758	16.34733
440.965	14.90639
441.173	14.73496
441.38	14.29887
441.587	14.80894
441.795	14.44859
442.002	14.76965
442.209	14.72611
442.416	14.95992
442.624	14.91301
442.831	14.96207
443.038	14.2081
443.245	13.86433
443.452	14.12657
443.66	15.26234
443.867	14.38034
444.074	14.10592
444.281	14.23598
444.488	14.53083
444.695	14.8083
444.902	14.3514
445.109	15.29009
445.316	14.63526
445.523	15.26582
445.73	15.29658
445.937	16.35783
446.144	17.01386
446.351	17.62506
446.558	16.20302
446.765	18.56389
446.972	17.55028
447.179	16.99776
447.386	17.66511
447.593	15.61838
447.8	16.76864
448.007	15.16386
448.214	15.16476
448.42	14.89006
448.627	15.92796
448.834	15.19057
449.041	14.87667
449.248	14.97671
449.454	15.65452
449.661	16.33811
449.868	14.89113
450.075	14.5512
450.281	13.81061
450.488	14.46852
450.695	14.23557
450.901	14.3465
451.108	14.389
451.315	15.79242
451.521	14.64932
451.728	15.75042
451.935	14.66327
452.141	14.77208
452.348	15.11945
452.554	15.20319
452.761	14.69784
452.967	16.26705
453.174	15.4172
453.38	15.27311
453.587	14.43996
453.793	15.52487
454	15.68544
454.206	16.76009
454.413	15.81283
454.619	15.56224
454.825	14.81524
455.032	15.60013
455.238	16.00468
455.445	14.46999
455.651	15.40433
455.857	14.11439
456.064	15.03793
456.27	14.93473
456.476	14.94477
456.682	14.35938
456.889	15.37283
457.095	15.72207
457.301	17.01064
457.507	15.4444
457.714	15.57392
457.92	15.76005
458.126	14.87496
458.332	15.61226
458.538	15.28801
458.744	15.58023
458.951	15.49409
459.157	17.20864
459.363	16.42814
459.569	16.68548
459.775	17.48572
459.981	17.48305
460.187	17.9877
460.393	17.68478
460.599	17.87999
460.805	16.50147
461.011	16.08942
461.217	16.98215
461.423	16.9712
461.629	16.08727
461.835	16.55383
462.041	15.99221
462.247	17.38362
462.453	15.7173
462.658	15.71303
462.864	16.51663
463.07	16.29458
463.276	16.24427
463.482	15.97416
463.688	17.2798
463.893	15.38373
464.099	15.80156
464.305	17.36103
464.511	15.40165
464.716	15.86583
464.922	16.54298
465.128	15.27608
465.333	17.25899
465.539	16.7606
465.745	16.53173
465.95	16.12744
466.156	18.56146
466.362	17.1591
466.567	16.25086
466.773	16.00922
466.978	17.40285
467.184	15.60129
467.389	14.99652
467.595	16.58896
467.8	15.71072
468.006	17.37372
468.211	17.20003
468.417	15.54302
468.622	16.64774
468.828	16.75131
469.033	16.42204
469.239	18.52032
469.444	15.91642
469.649	16.92976
469.855	16.44675
470.06	16.54134
470.266	15.7365
470.471	16.99039
470.676	16.90362
470.881	14.93181
471.087	17.87738
471.292	18.12505
471.497	15.55221
471.703	16.53142
471.908	16.30418
472.113	16.90256
472.318	17.39801
472.523	15.9898
472.729	17.16389
472.934	16.8466
473.139	16.57364
473.344	17.1844
473.549	17.98316
473.754	16.03286
473.959	18.73825
474.164	16.36171
474.369	16.58088
474.575	17.50924
474.78	16.78043
474.985	16.50009
475.19	15.71076
475.395	16.41947
475.6	16.7519
475.804	18.34585
476.009	17.10223
476.214	16.85313
476.419	16.64891
476.624	15.95032
476.829	16.66281
477.034	17.68461
477.239	16.96448
477.444	17.82884
477.648	17.938
477.853	17.71256
478.058	17.08723
478.263	16.71693
478.468	16.53297
478.672	16.69638
478.877	18.83765
479.082	18.91079
479.287	17.74069
479.491	17.32854
479.696	16.87327
479.901	18.07478
480.105	17.99681
480.31	16.93524
480.515	17.44492
480.719	19.11295
480.924	17.20795
481.128	16.68036
481.333	17.77093
481.538	18.02192
481.742	17.41956
481.947	18.85515
482.151	20.22396
482.356	22.09602
482.56	26.04239
482.765	29.26113
482.969	34.67985
483.174	38.96465
483.378	44.96971
483.582	46.65083
483.787	49.16719
483.991	49.94522
484.196	50.35155
484.4	49.22285
484.604	48.37162
484.809	44.05062
485.013	40.81735
485.217	36.85091
485.422	32.65394
485.626	29.68427
485.83	28.24927
486.034	27.50458
486.239	28.47844
486.443	29.61515
486.647	30.57301
486.851	32.73436
487.055	35.33245
487.26	35.72264
487.464	37.37728
487.668	36.64584
487.872	37.43142
488.076	37.49117
488.28	35.67893
488.484	33.34425
488.688	31.98458
488.892	29.96961
489.096	27.61268
489.3	25.37209
489.504	23.83776
489.708	22.64711
489.912	22.25988
490.116	21.67569
490.32	22.05856
490.524	24.13728
490.728	25.7595
490.932	27.41141
491.136	29.53817
491.34	31.15205
491.544	31.85133
491.748	31.75303
491.951	31.46958
492.155	30.54507
492.359	29.23858
492.563	26.58042
492.767	24.67441
492.97	21.92894
493.174	19.44567
493.378	18.67342
493.582	18.39628
493.785	18.80222
493.989	18.83404
494.193	18.81647
494.396	18.36862
494.6	18.95998
494.804	18.27353
495.007	17.94037
495.211	18.25866
495.414	18.20238
495.618	18.71633
495.822	19.72211
496.025	18.64543
496.229	19.17503
496.432	18.36227
496.636	18.54107
496.839	18.64973
497.043	19.46506
497.246	18.96752
497.45	18.40794
497.653	18.85866
497.856	19.00134
498.06	18.30121
498.263	18.67934
498.467	18.66791
498.67	19.37316
498.873	18.98804
499.077	18.67863
499.28	18.78566
499.483	18.91872
499.686	19.33031
499.89	18.68482
500.093	19.10469
500.296	18.1149
500.499	20.00592
500.703	18.58831
500.906	19.10887
501.109	19.74638
501.312	18.89554
501.515	18.61472
501.719	18.98314
501.922	19.47193
502.125	18.6849
502.328	18.96018
502.531	17.89352
502.734	18.85314
502.937	17.62948
503.14	19.15056
503.343	18.4335
503.546	18.56155
503.749	18.48951
503.952	19.23249
504.155	18.28506
504.358	19.38337
504.561	19.10393
504.764	17.81147
504.967	19.10335
505.17	18.73939
505.373	19.88822
505.576	18.79994
505.778	19.36752
505.981	18.18614
506.184	19.85469
506.387	17.69322
506.59	20.33245
506.793	19.78044
506.995	19.29809
507.198	17.54593
507.401	19.45179
507.604	19.48907
507.806	18.31017
508.009	18.63712
508.212	19.79073
508.414	18.71283
508.617	18.84343
508.82	19.3812
509.022	20.30898
509.225	19.69175
509.427	18.4151
509.63	20.38273
509.833	19.22228
510.035	19.15879
510.238	18.19866
510.44	20.51902
510.643	18.24704
510.845	20.94444
511.048	19.83002
511.25	19.09243
511.453	19.25653
511.655	19.77379
511.858	19.38585
512.06	20.30547
512.262	19.54449
512.465	20.24453
512.667	19.39123
512.869	18.64186
513.072	20.10912
513.274	20.24373
513.476	20.1916
513.679	20.4243
513.881	19.1277
514.083	20.84446
514.286	19.14863
514.488	19.10728
514.69	18.95566
514.892	18.67501
515.094	20.4451
515.297	19.24912
515.499	19.60074
515.701	18.83743
515.903	21.0736
516.105	21.04945
516.307	20.30036
516.509	18.38525
516.711	19.03006
516.913	19.62905
517.116	20.17176
517.318	19.70048
517.52	20.65023
517.722	20.28939
517.924	19.15763
518.126	20.48125
518.328	19.64667
518.529	20.3165
518.731	21.40826
518.933	19.81254
519.135	20.15497
519.337	21.02115
519.539	20.64526
519.741	18.82978
519.943	19.90823
520.145	19.90499
520.346	20.94212
520.548	20.12997
520.75	20.50165
520.952	19.72328
521.153	20.50897
521.355	20.39297
521.557	19.65637
521.759	20.04726
521.96	19.93476
522.162	19.27094
522.364	20.95838
522.565	19.56198
522.767	20.52967
522.969	20.83297
523.17	20.87165
523.372	20.22672
523.573	20.10903
523.775	20.2687
523.977	19.27263
524.178	21.42684
524.38	19.80958
524.581	20.7692
524.783	20.03207
524.984	20.70045
525.186	20.56445
525.387	20.83176
525.589	20.53499
525.79	20.29794
525.991	20.54322
526.193	21.25744
526.394	20.39034
526.596	21.64716
526.797	22.11716
526.998	21.97351
527.2	23.49347
527.401	27.10231
527.602	29.77587
527.803	34.29378
528.005	37.24687
528.206	39.86938
528.407	41.78618
528.608	42.12013
528.81	42.69653
529.011	41.23134
529.212	41.41856
529.413	38.91953
529.614	36.03197
529.815	33.30954
530.017	30.02777
530.218	26.61898
530.419	24.02374
530.62	22.67875
530.821	21.95324
531.022	20.13577
531.223	21.40779
531.424	21.34802
531.625	21.1937
531.826	21.16738
532.027	22.24824
532.228	24.65173
532.429	25.46926
532.63	26.70963
532.831	28.48646
533.032	28.55181
533.233	29.94249
533.433	29.32085
533.634	29.27546
533.835	28.22225
534.036	26.64237
534.237	25.12041
534.438	23.31231
534.638	20.89852
534.839	21.04465
535.04	21.64583
535.241	21.11231
535.441	22.56135
535.642	21.63518
535.843	20.36631
536.043	20.67218
536.244	20.66373
536.445	20.99898
536.645	21.99393
536.846	21.70879
537.047	22.17137
537.247	20.58482
537.448	21.30839
537.648	21.48709
537.849	21.15615
538.049	21.3774
538.25	21.84659
538.451	21.97673
538.651	20.41876
538.851	21.54447
539.052	22.32872
539.252	22.03465
539.453	21.01663
539.653	21.72349
539.854	21.14091
540.054	21.41471
540.254	23.15128
540.455	25.61629
540.655	26.78875
540.855	29.90462
541.056	31.68229
541.256	31.96544
541.456	33.07178
541.657	32.54472
541.857	33.00061
542.057	30.7029
542.257	29.20498
542.458	28.53621
542.658	27.01599
542.858	24.16483
543.058	23.77886
543.258	22.56389
543.458	20.9007
543.659	21.0172
543.859	22.24335
544.059	22.15652
544.259	21.57713
544.459	22.62166
544.659	21.40246
544.859	22.00216
545.059	21.2081
545.259	22.22078
545.459	21.81309
545.659	22.25874
545.859	21.67982
546.059	21.62
546.259	21.24699
546.459	20.65576
546.659	20.79173
546.859	22.32802
547.059	21.96756
547.258	22.05778
547.458	22.17916
547.658	21.23825
547.858	20.95211
548.058	22.0653
548.258	21.4741
548.457	20.95654
548.657	23.64763
548.857	21.60062
549.057	22.27904
549.256	22.39726
549.456	20.75894
549.656	19.50367
549.855	23.0142
550.055	20.96485
550.255	23.10823
550.454	21.7849
550.654	22.06319
550.853	22.80516
551.053	22.15405
551.253	21.79698
551.452	21.94204
551.652	20.63648
551.851	20.03318
552.051	21.22375
552.25	20.86386
552.45	21.13365
552.649	21.52255
552.849	20.82698
553.048	21.62931
553.248	22.1479
553.447	20.5822
553.646	22.39093
553.846	23.62897
554.045	22.72815
554.244	20.59253
554.444	22.97233
554.643	20.81282
554.842	23.05943
555.042	23.796
555.241	20.87791
555.44	20.54233
555.64	22.40181
555.839	23.34516
556.038	21.96201
556.237	20.81356
556.436	21.8663
556.636	21.81288
556.835	21.0726
557.034	22.88985
557.233	21.64795
557.432	20.33124
557.631	22.74412
557.83	21.55313
558.029	21.03854
558.228	20.44095
558.427	20.59004
558.626	21.80599
558.825	20.43285
559.024	21.64868
559.223	23.1741
559.422	21.25277
559.621	21.98435
559.82	19.06878
560.019	21.45264
560.218	21.55605
560.417	19.00945
560.616	20.71507
560.815	25.01412
561.014	20.41748
561.212	23.36353
561.411	21.67544
561.61	20.11689
561.809	21.46784
562.008	23.13951
562.206	21.18149
562.405	22.12256
562.604	21.30373
562.803	22.00804
563.001	21.55428
563.2	20.04193
563.399	22.13065
563.597	20.25374
563.796	21.54529
563.995	20.47661
564.193	22.50514
564.392	21.38382
564.59	24.36824
564.789	20.10468
564.988	21.11455
565.186	21.85772
565.385	21.62687
565.583	21.88735
565.782	21.83271
565.98	21.83077
566.179	21.87153
566.377	21.34884
566.575	21.52278
566.774	23.51026
566.972	22.82215
567.171	23.95089
567.369	23.44024
567.567	22.2569
567.766	22.51889
567.964	20.27074
568.162	22.56635
568.361	22.95207
568.559	21.75011
568.757	22.28648
568.956	22.1591
569.154	22.0248
569.352	22.5479
569.55	21.80403
569.748	21.82447
569.947	21.28302
570.145	21.13007
570.343	21.39626
570.541	22.97818
570.739	21.03601
570.937	21.86723
571.135	22.44016
571.333	24.04947
571.532	23.65183
571.73	22.15221
571.928	23.37762
572.126	22.67101
572.324	21.98212
572.522	23.61729
572.72	25.1456
572.918	22.34239
573.116	22.826
573.313	22.5271
573.511	22.46159
573.709	21.60261
573.907	23.52732
574.105	22.01211
574.303	20.89233
574.501	20.63267
574.699	22.91658
574.896	22.85125
575.094	23.10266
575.292	21.04338
575.49	23.22318
575.688	22.00819
575.885	23.47528
576.083	24.90991
576.281	23.22052
576.478	21.28822
576.676	22.97663
576.874	20.58754
577.071	22.27011
577.269	25.00144
577.467	22.23441
577.664	22.17049
577.862	23.60416
578.059	21.24404
578.257	23.41909
578.455	21.37234
578.652	22.36097
578.85	19.80394
579.047	22.00107
579.245	22.10094
579.442	22.09742
579.64	22.16632
579.837	20.3584
580.034	25.37803
580.232	21.86239
580.429	20.10529
580.627	22.73282
580.824	23.65858
581.021	22.93255
581.219	21.37065
581.416	20.9983
581.613	24.4592
581.811	24.02481
582.008	20.98926
582.205	23.18732
582.402	21.92873
582.6	23.87972
582.797	22.16591
582.994	22.41296
583.191	22.83823
583.388	21.95537
583.586	22.96914
583.783	23.36984
583.98	21.34748
584.177	22.16981
584.374	18.56401
584.571	22.11519
584.768	21.55856
584.965	20.85785
585.162	22.81045
585.359	24.49706
585.556	22.37144
585.753	22.30163
585.95	20.41376
586.147	21.35221
586.344	22.97852
586.541	21.87463
586.738	20.51783
586.935	21.72409
587.132	20.9968
587.329	23.71695
587.526	22.15053
587.722	28.43663
587.919	20.52075
588.116	23.26799
588.313	24.45955
588.51	25.06359
588.706	21.85877
588.903	23.26004
589.1	23.81576
589.297	25.34328
589.493	22.47492
589.69	23.15398
589.887	22.07738
590.083	21.37578
590.28	21.54671
590.477	23.25737
590.673	23.95567
590.87	24.46706
591.067	22.61692
591.263	22.93183
591.46	22.9807
591.656	21.81423
591.853	24.10144
592.049	21.3404
592.246	21.51237
592.442	24.47238
592.639	23.88344
592.835	20.99896
593.032	22.77067
593.228	21.11432
593.425	20.38111
593.621	20.19898
593.817	23.30473
594.014	21.36443
594.21	22.72927
594.406	24.41082
594.603	23.33138
594.799	22.02867
594.995	20.03273
595.192	24.27303
595.388	22.1027
595.584	22.4674
595.78	21.28388
595.977	25.85818
596.173	25.12262
596.369	22.75421
596.565	21.60705
596.761	21.30857
596.957	24.69937
597.154	21.97693
597.35	22.2084
597.546	22.01155
597.742	23.76662
597.938	23.18492
598.134	21.9365
598.33	23.59982
598.526	24.45219
598.722	23.2339
598.918	24.89264
599.114	23.11789
599.31	21.35091
599.506	22.50143
599.702	21.60594
599.898	22.52526
600.094	23.75552
600.29	23.46409
600.485	24.31645
600.681	22.09605
600.877	24.95748
601.073	23.02165
601.269	25.4427
601.465	24.40723
601.66	21.46128
601.856	20.28936
602.052	24.97629
602.248	22.38593
602.443	20.65536
602.639	21.40184
602.835	22.11243
603.03	21.69169
603.226	24.02467
603.422	21.94257
603.617	22.67596
603.813	22.54359
604.009	22.50162
604.204	24.67818
604.4	21.68166
604.595	24.26136
604.791	21.84297
604.986	23.786
605.182	22.45562
605.377	23.05333
605.573	22.7858
605.768	23.46825
605.964	23.76996
606.159	23.7353
606.355	24.4981
606.55	22.36799
606.746	24.66635
606.941	22.886
607.136	25.9626
607.332	26.86767
607.527	21.54298
607.722	23.14743
607.918	22.62925
608.113	22.08624
608.308	24.2761
608.503	23.6335
608.699	23.76367
608.894	23.95435
609.089	21.94423
609.284	23.32457
609.479	22.77313
609.675	24.64581
609.87	22.67822
610.065	24.56951
610.26	24.27551
610.455	24.07215
610.65	23.54223
610.845	22.92
611.04	24.61806
611.235	22.33983
611.43	22.21121
611.625	21.19943
611.82	25.10241
612.015	21.81288
612.21	25.22345
612.405	20.88049
612.6	25.304
612.795	24.59106
612.99	23.44343
613.185	20.78818
613.38	21.77973
613.575	23.32985
613.77	27.36917
613.965	20.16522
614.159	21.47171
614.354	24.96989
614.549	24.29114
614.744	24.35904
614.938	21.16193
615.133	20.24522
615.328	25.27074
615.523	24.30345
615.717	27.83762
615.912	21.43466
616.107	22.7609
616.301	22.15928
616.496	21.86471
616.691	25.0164
616.885	24.26205
617.08	28.40905
617.274	24.6698
617.469	26.32004
617.664	24.33876
617.858	22.80003
618.053	23.79688
618.247	22.84151
618.442	19.0398
618.636	26.20289
618.831	22.03247
619.025	22.06227
619.219	27.89994
619.414	18.11886
619.608	22.64046
619.803	22.33865
619.997	26.74838
620.191	24.77465
620.386	23.51271
620.58	22.29506
620.774	20.47409
620.969	20.02413
621.163	23.2337
621.357	21.8917
621.551	21.87027
621.746	22.84243
621.94	21.96853
622.134	28.59019
622.328	27.17767
622.522	20.17968
622.716	24.21037
622.911	25.26258
623.105	24.85268
623.299	24.41001
623.493	28.83876
623.687	21.70423
623.881	22.21908
624.075	24.48047
624.269	25.22939
624.463	19.95133
624.657	20.14109
624.851	24.10813
625.045	24.77652
625.239	25.55271
625.433	23.65593
625.627	25.95029
625.821	22.58448
626.015	22.06819
626.209	23.98127
626.403	21.35938
626.596	24.24238
626.79	25.17072
626.984	21.53899
627.178	24.83188
627.372	24.73457
627.565	25.02772
627.759	21.2117
627.953	21.75269
628.147	24.32022
628.34	25.12512
628.534	27.12472
628.728	22.47167
628.921	24.35322
629.115	24.43688
629.309	24.89595
629.502	25.60817
629.696	23.31833
629.89	23.25852
630.083	24.67547
630.277	24.14713
630.47	27.0439
630.664	22.90063
630.857	19.87291
631.051	24.78695
631.244	25.58225
631.438	24.96595
631.631	21.47564
631.825	26.34884
632.018	24.95028
632.212	27.63213
632.405	25.5915
632.598	22.04346
632.792	23.84475
632.985	19.02114
633.178	23.6916
633.372	23.1815
633.565	23.09356
633.758	26.58625
633.952	22.50608
634.145	21.66799
634.338	23.52494
634.531	22.4123
634.724	22.69214
634.918	23.59089
635.111	22.70316
635.304	22.34577
635.497	28.88329
635.69	24.05331
635.883	26.42669
636.077	21.80268
636.27	24.68666
636.463	23.89155
636.656	24.03562
636.849	23.16819
637.042	25.03767
637.235	26.91372
637.428	25.28761
637.621	26.04057
637.814	26.64738
638.007	26.8879
638.2	26.45612
638.393	27.94159
638.586	21.42562
638.778	22.74462
638.971	23.47795
639.164	27.31973
639.357	24.57918
639.55	27.19609
639.743	25.69857
639.935	24.47924
640.128	28.02391
640.321	25.27244
640.514	23.51568
640.707	28.98519
640.899	25.51551
641.092	19.86407
641.285	42.7987
641.477	18.63237
641.67	30.14671
641.863	27.57301
642.055	24.59779
642.248	23.39378
642.441	22.59804
642.633	25.53552
642.826	26.82237
643.018	27.98748
643.211	29.11851
643.403	28.98738
643.596	29.37963
643.788	28.30579
643.981	23.52638
644.173	27.35361
644.366	23.88741
644.558	19.51094
644.751	27.51388
644.943	20.56196
645.135	28.38368
645.328	28.86179
645.52	25.1285
645.712	27.62879
645.905	32.4686
646.097	20.98361
646.289	24.7879
646.482	30.61807
646.674	23.19685
646.866	27.99675
647.058	25.68603
647.251	21.77511
647.443	22.6027
647.635	24.5259
647.827	21.20097
648.019	23.02209
648.211	24.53447
648.404	24.15491
648.596	28.97246
648.788	25.11923
648.98	24.68652
649.172	25.5293
649.364	25.7221
649.556	20.78394
649.748	32.06273
649.94	22.12749
650.132	26.66728
650.324	21.92339
650.516	23.42897
650.708	28.15577
650.9	21.11138
651.092	20.4621
651.284	22.05311
651.476	22.59328
651.667	26.32102
651.859	28.05259
652.051	24.11436
652.243	24.95718
652.435	23.86671
652.627	27.06757
652.818	25.83363
653.01	20.601
653.202	22.63412
653.394	24.04136
653.585	26.13146
653.777	37.17922
653.969	28.63875
654.16	28.54554
654.352	21.60325
654.544	23.92918
654.735	27.81786
654.927	25.71425
655.118	29.13066
655.31	26.6515
655.502	28.61139
655.693	24.02872
655.885	27.27305
656.076	28.25203
656.268	26.52519
656.459	29.52878
656.651	29.18364
656.842	24.46375
657.034	23.40942
657.225	27.6107
657.416	29.21831
657.608	29.55093
657.799	25.55275
657.99	29.97432
658.182	25.11638
658.373	24.63652
658.564	28.11669
658.756	26.51084
658.947	25.78857
659.138	23.50439
659.33	24.5405
659.521	23.96933
659.712	26.03999
659.903	25.48883
660.094	24.31085
660.286	21.90229
660.477	31.32574
660.668	28.02338
660.859	25.94251
661.05	21.71901
661.241	28.11525
661.432	27.24489
661.623	24.0777
661.814	23.79911
662.006	21.91619
662.197	25.72758
662.388	29.16911
662.579	26.54726
662.77	29.24747
662.96	34.17245
663.151	27.74283
663.342	20.57888
663.533	28.02554
663.724	25.98827
663.915	31.47578
664.106	25.97783
664.297	30.64977
664.488	28.53688
664.678	23.30335
664.869	28.03307
665.06	29.58993
665.251	26.72227
665.442	27.53894
665.632	22.21738
665.823	31.83555
666.014	16.80101
666.204	28.97291
666.395	30.44988
666.586	34.06208
666.776	28.82868
666.967	31.57845
667.158	26.90253
667.348	31.12285
667.539	23.1195
667.729	28.71006
667.92	23.61076
668.111	29.88023
668.301	28.15172
668.492	25.36831
668.682	27.97141
668.873	26.57278
669.063	23.08147
669.253	28.67314
669.444	28.79447
669.634	25.47771
669.825	33.75298
670.015	31.09819
670.206	23.46151
670.396	33.46477
670.586	26.40192
670.777	28.35642
670.967	19.03379
671.157	25.65606
671.347	23.7067
671.538	31.89016
671.728	29.30884
671.918	33.9399
672.108	29.4737
672.299	25.84553
672.489	29.02884
672.679	23.98191
672.869	28.03282
673.059	34.06853
673.249	28.38715
673.44	22.9602
673.63	26.79614
673.82	30.19383
674.01	23.45437
674.2	28.81594
674.39	37.51944
674.58	30.65483
674.77	27.27587
674.96	27.06171
675.15	41.61838
675.34	32.38996
675.53	27.23425
675.72	26.80738
675.91	22.47727
676.099	35.02163
676.289	36.4208
676.479	31.3837
676.669	25.17076
676.859	28.59173
677.049	24.36583
677.238	26.9893
677.428	33.75018
677.618	29.72956
677.808	32.65148
677.997	30.00426
678.187	24.23244
678.377	28.91365
678.567	26.235
678.756	25.6141
678.946	27.06849
679.136	23.89205
679.325	25.76341
679.515	24.44955
679.704	24.40914
679.894	30.81942
680.084	29.34698
680.273	32.71658
680.463	26.82813
680.652	25.99374
680.842	28.36359
681.031	31.98804
681.221	25.32996
681.41	31.09786
681.6	28.52007
681.789	31.6109
681.978	33.26272
682.168	28.87071
682.357	28.39592
682.547	30.49609
682.736	29.71385
682.925	33.06099
683.115	31.94049
683.304	31.94626
683.493	30.33906
683.682	31.14504
683.872	31.28516
684.061	33.61616
684.25	30.9906
684.439	35.9878
684.629	32.05081
684.818	43.72731
685.007	29.44061
685.196	27.35974
685.385	36.13756
685.574	31.20616
685.763	31.47553
685.952	30.2008
686.142	24.39056
686.331	35.16298
686.52	21.65292
686.709	36.24976
686.898	35.63218
687.087	31.13831
687.276	35.36509
687.465	34.61995
687.654	28.96405
687.842	35.71275
688.031	25.79474
688.22	35.36273
688.409	30.56621
688.598	30.76724
688.787	41.28795
688.976	30.00328
689.165	39.41434
689.353	28.0407
689.542	31.71122
689.731	34.92129
689.92	39.0537
690.108	33.7246
690.297	29.76198
690.486	30.65594
690.675	34.46006
690.863	38.76709
691.052	38.45185
691.241	31.66308
691.429	31.46934
691.618	38.92376
691.806	25.22313
691.995	28.99606
692.184	31.15638
692.372	28.60675
692.561	32.23417
692.749	31.8949
692.938	43.75419
693.126	33.93203
693.315	30.67435
693.503	33.4241
693.692	34.16694
693.88	36.39954
694.068	42.60409
694.257	31.54922
694.445	34.437
694.634	22.58757
694.822	35.41794
695.01	38.66755
695.199	39.90543
695.387	40.09223
695.575	37.88784
695.763	32.4595
695.952	28.7574
696.14	25.61941
696.328	30.58575
696.516	32.04269
696.705	33.22111
696.893	32.83736
697.081	25.37096
697.269	36.18524
697.457	27.57915
697.645	28.47214
697.833	35.79368
698.021	28.7273
698.21	30.19883
698.398	31.34678
698.586	27.64898
698.774	28.03984
698.962	30.99998
699.15	28.95683
699.338	26.78792
699.526	34.29685
699.714	29.59296
699.901	29.97948
700.089	36.88068
700.277	29.58852
700.465	32.26339
700.653	36.55892
700.841	33.78681
701.029	29.04342
701.217	38.91474
701.404	33.27146
701.592	41.19081
701.78	43.57041
701.968	31.93566
702.155	32.44473
702.343	25.88302
702.531	39.96099
702.718	34.18289
702.906	32.63291
703.094	29.23961
703.281	40.76231
703.469	35.55156
703.657	39.32991
703.844	50.85129
704.032	43.584
704.219	30.70408
704.407	34.25406
704.595	40.64282
704.782	34.53395
704.97	32.98995
705.157	32.30453
705.345	41.29936
705.532	50.35238
705.719	36.71221
705.907	41.59222
706.094	33.99005
706.282	43.67871
706.469	32.89139
706.656	35.61695
706.844	33.52623
707.031	40.23912
707.218	36.52967
707.406	45.28184
707.593	39.6989
707.78	38.31666
707.968	34.63336
708.155	30.14457
708.342	40.01366
708.529	38.32306
708.716	37.42561
708.904	46.08205
709.091	40.18927
709.278	28.86855
709.465	49.59338
709.652	45.6453
709.839	44.02982
710.026	37.3925
710.213	27.32541
710.4	38.25228
710.587	41.83329
710.774	44.15318
710.961	43.18813
711.148	36.85181
711.335	41.69699
711.522	34.82719
711.709	38.2784
711.896	49.66047
712.083	42.9104
712.27	32.04063
712.457	37.28011
712.644	29.41912
712.831	49.04813
713.017	39.02468
713.204	41.91109
713.391	36.21786
713.578	43.68637
713.765	47.52796
713.951	41.97791
714.138	58.06053
714.325	42.32022
714.512	39.48271
714.698	32.98294
714.885	48.34088
715.072	40.40921
715.258	39.49046
715.445	35.23229
715.631	46.94971
715.818	24.33759
716.005	35.33738
716.191	43.24213
716.378	35.15438
716.564	46.59844
716.751	33.59727
716.937	36.60515
717.124	46.13315
717.31	34.23465
717.497	50.87894
717.683	35.68892
717.869	56.00121
718.056	36.54871
718.242	43.71765
718.429	38.26887
718.615	31.58641
718.801	41.41524
718.988	45.54334
719.174	43.40588
719.36	40.17213
719.547	46.20353
719.733	42.8399
719.919	43.99266
720.105	47.24145
720.291	41.99349
720.478	40.267
720.664	40.78348
720.85	37.62181
721.036	60.70432
721.222	51.65285
721.408	42.64264
721.595	55.31079
721.781	53.45527
721.967	49.31074
722.153	52.79527
722.339	48.50724
722.525	44.13341
722.711	34.88848
722.897	31.7693
723.083	39.66661
723.269	50.4487
723.455	60.82209
723.641	67.08059
723.827	45.13317
724.012	45.07173
724.198	39.59323
724.384	52.10946
724.57	45.25929
724.756	30.225
724.942	28.30547
725.127	51.59676
725.313	52.1908
725.499	51.99138
725.685	57.02091
725.87	41.66823
726.056	35.53601
726.242	51.85101
726.428	30.98876
726.613	50.50006
726.799	39.46068
726.985	34.19025
727.17	30.72809
727.356	56.22131
727.541	33.77685
727.727	40.11571
727.913	49.81494
728.098	39.50932
728.284	47.81491
728.469	34.3349
728.655	35.76057
728.84	49.27758
729.026	49.66286
729.211	50.05797
729.397	46.64667
729.582	48.56086
729.767	44.09203
729.953	48.11723
730.138	51.55046
730.323	26.90916
730.509	34.59427
730.694	55.87096
730.879	47.59795
731.065	44.3262
731.25	60.31219
731.435	49.95471
731.621	32.92218
731.806	39.46847
731.991	46.92668
732.176	31.51391
732.361	54.28029
732.547	48.50542
732.732	31.56996
732.917	63.4354
733.102	36.17371
733.287	37.80536
733.472	45.39564
733.657	44.59681
733.842	32.88993
734.027	39.64843
734.212	42.58462
734.397	37.72145
734.582	47.75994
734.767	54.62303
734.952	56.00553
735.137	22.78653
735.322	56.24439
735.507	47.94772
735.692	47.77529
735.877	65.99438
736.062	61.36263
736.247	48.89144
736.431	43.8847
736.616	56.65083
736.801	48.53097
736.986	43.18016
737.171	38.07305
737.355	31.43513
737.54	57.16028
737.725	44.8851
737.909	68.90851
738.094	40.75657
738.279	54.56129
738.463	40.73407
738.648	52.14727
738.833	48.94023
739.017	63.55759
739.202	42.40717
739.386	43.55301
739.571	37.34239
739.756	52.33165
739.94	46.2697
740.125	53.00759
740.309	40.40181
740.494	52.04664
740.678	47.1526
740.863	49.03066
741.047	49.8442
741.231	59.19246
741.416	39.46047
741.6	61.05187
741.785	38.82145
741.969	55.41344
742.153	58.32725
742.338	27.80679
742.522	47.19311
742.706	56.37085
742.89	33.901
743.075	52.31285
743.259	60.99291
743.443	56.43585
743.627	62.01945
743.812	71.99124
743.996	23.19715
744.18	45.7157
744.364	39.61612
744.548	72.91433
744.732	47.64286
744.916	54.28834
745.1	56.47138
745.285	45.33107
745.469	52.68825
745.653	66.75206
745.837	33.35858
746.021	73.61023
746.205	60.37909
746.389	47.29404
746.573	46.96021
746.757	65.87214
746.94	43.87001
747.124	61.64484
747.308	39.58048
747.492	61.25552
747.676	43.40172
747.86	77.29521
748.044	47.26117
748.227	30.24274
748.411	89.05796
748.595	50.87871
748.779	38.54319
748.963	53.9732
749.146	51.64447
749.33	42.59662
749.514	37.75198
749.697	59.63548
749.881	41.71423
750.065	35.8717
750.248	45.95749
750.432	78.34684
750.616	49.23236
750.799	33.61606
750.983	72.39633
751.166	79.64702
751.35	32.1235
751.533	56.16558
751.717	64.68087
751.9	64.9594
752.084	42.49756
752.267	36.45921
752.451	41.45876
752.634	49.79127
752.818	59.57141
753.001	58.90489
753.184	62.12354
753.368	54.7674
753.551	11.59746
753.734	42.61618
753.918	74.90712
754.101	38.0983
754.284	58.2557
754.467	46.68665
754.651	42.56756
754.834	41.71255
755.017	65.08112
755.2	62.6332
755.384	40.41446
755.567	58.18263
755.75	62.96433
755.933	47.16306
756.116	52.96498
756.299	43.10247
756.482	38.70423
756.665	57.16768
756.848	52.54916
757.032	55.11638
757.215	31.80651
757.398	40.57828
757.581	41.90505
757.764	86.33815
757.947	47.668
758.129	65.72475
758.312	18.58793
758.495	49.16688
758.678	48.65008
758.861	47.19925
759.044	75.14617
759.227	39.7936
759.41	41.91598
759.592	63.17055
759.775	49.11129
759.958	64.39512
760.141	34.44651
760.324	76.88816
760.506	69.31922
760.689	62.39466
760.872	81.81501
761.054	58.72808
761.237	47.01303
761.42	54.62544
761.602	61.83136
761.785	57.51345
761.968	65.88022
762.15	74.67418
762.333	48.86138
762.515	57.6126
762.698	42.06655
762.88	59.18432
763.063	51.29984
763.245	57.18848
763.428	39.17475
763.61	39.28144
763.793	37.01465
763.975	49.84451
764.158	43.91321
764.34	42.25477
764.522	37.99206
764.705	46.39216
764.887	63.37152
765.069	32.65133
765.252	58.16863
765.434	58.82644
765.616	53.87697
765.799	44.38885
765.981	57.92469
766.163	44.14174
766.345	65.47965
766.528	43.90904
766.71	25.7525
766.892	52.35117
767.074	69.8423
767.256	48.79728
767.438	75.8673
767.62	59.2339
767.802	84.36609
767.985	58.39157
768.167	79.43338
768.349	49.41359
768.531	63.52467
768.713	56.01897
768.895	66.09397
769.077	54.31594
769.259	91.766
769.441	127.72853
769.623	69.38847
769.804	80.77611
769.986	79.0928
770.168	89.93168
770.35	116.66323
770.532	91.05099
770.714	89.56862
770.896	93.09158
771.077	41.97039
771.259	97.52315
771.441	78.70153
771.623	105.66145
771.804	127.93563
771.986	37.7294
772.168	63.14767
772.35	100.65712
772.531	132.2872
772.713	77.42969
772.894	102.93015
773.076	70.34465
773.258	63.98737
773.439	112.01804
773.621	120.58536
773.802	54.85462
773.984	72.88901
774.166	83.56402
774.347	126.47664
774.529	102.08962
774.71	34.87904
774.891	76.55765
775.073	79.3713
775.254	122.08769
775.436	66.34115
775.617	134.58101
775.799	65.20593
775.98	124.79365
776.161	124.29397
776.343	101.5253
776.524	77.19636
776.705	76.35727
776.886	42.42538
777.068	86.21759
777.249	147.18652
777.43	127.51122
777.611	54.65506
777.793	78.87414
777.974	118.69973
778.155	65.98826
778.336	60.30152
778.517	130.54278
778.698	59.52548
778.879	41.30278
779.061	17.45972
779.242	94.40478
779.423	92.25042
779.604	66.22059
779.785	75.51609
779.966	89.92917
780.147	108.50206
780.328	105.9341
780.509	144.01601
780.69	105.74258
780.871	69.72299
781.051	43.45217
781.232	85.27113
781.413	87.12163
781.594	72.43186
781.775	65.00761
781.956	61.52008
782.137	43.87184
782.317	64.9271
782.498	84.56145
782.679	90.18903
782.86	89.65256
783.04	70.26159
783.221	93.11296
783.402	135.7252
783.583	83.59217
783.763	106.77754
783.944	70.44463
784.124	43.99103
784.305	126.59938
784.486	103.05454
784.666	83.82922
784.847	44.65535
785.027	173.96536
785.208	67.00359
785.388	67.88653
785.569	67.36531
785.749	74.3831
785.93	64.21237
786.11	45.28421
786.291	95.69207
786.471	92.24805
786.652	105.94871
786.832	75.38914
787.012	84.49552
787.193	48.21621
787.373	83.96443
787.553	71.60609
787.734	88.70314
787.914	68.79172
788.094	91.67396
788.275	89.64613
788.455	71.39524
788.635	48.93213
788.815	78.62333
788.995	50.95208
789.176	45.17781
789.356	60.45367
789.536	68.70425
789.716	89.51516
789.896	59.09879
790.076	68.6147
790.256	81.40844
790.436	28.9324
790.616	54.46726
790.796	85.0289
790.976	66.48855
791.156	62.20528
791.336	99.33413
791.516	85.41906
791.696	78.47978
791.876	45.42478
792.056	82.42835
792.236	105.09956
792.416	99.30369
792.596	97.35618
792.776	100.88247
792.956	89.50446
793.135	121.19862
793.315	50.83011
793.495	111.71584
793.675	96.18581
793.854	102.73466
794.034	101.9347
794.214	55.33274
794.394	99.57955
794.573	111.80333
794.753	83.3211
794.933	60.80469
795.112	87.14777
795.292	99.75724
795.472	127.44669
795.651	49.27814
795.831	74.57879
796.01	66.8454
796.19	70.12181
796.369	74.79285
796.549	94.74258
796.728	75.33158
796.908	48.8216
797.087	53.2006
797.267	80.54534
797.446	52.13508
797.626	95.2471
797.805	86.66836
797.984	60.41173
798.164	93.19679
798.343	53.78728
798.522	84.68603
798.702	80.96529
798.881	56.68228
799.06	73.99514
799.239	37.89452
799.419	54.55813
799.598	118.093
799.777	94.85383
799.956	111.18977
800.136	66.54411
800.315	65.11951
800.494	88.95867
800.673	109.59807
800.852	102.14088
801.031	109.36289
801.21	93.42555
801.389	68.30531
801.568	87.65972
801.747	138.46499
801.926	78.96802
802.105	121.07833
802.284	71.57392
802.463	124.9926
802.642	82.4237
802.821	85.63238
803	119.2375
803.179	99.51101
803.358	116.79182
803.537	66.99474
803.716	98.7416
803.895	62.98944
804.073	79.37778
804.252	66.60598
804.431	93.97819
804.61	84.83615
804.789	108.12693
804.967	75.54714
805.146	66.80575
805.325	146.02977
805.503	101.09093
805.682	40.87036
805.861	158.56621
806.039	117.09979
806.218	65.15679
806.397	88.85279
806.575	91.6366
806.754	83.75737
806.932	55.8791
807.111	139.25665
807.289	106.14095
807.468	88.33178
807.646	105.16354
807.825	96.52475
808.003	92.70438
808.182	112.1172
808.36	84.58442
808.539	67.05179
808.717	126.47723
808.895	59.98835
809.074	87.78709
809.252	74.91988
809.43	111.6927
809.609	120.63854
809.787	138.25156
809.965	80.98491
810.144	87.49043
810.322	75.24665
810.5	101.01613
810.678	87.53756
810.856	157.0106
811.035	109.71723
811.213	114.66945
811.391	125.99125
811.569	84.00277
811.747	193.33885
811.925	136.28915
812.103	70.2352
812.281	75.33059
812.459	169.49912
812.637	132.72348
812.816	136.10976
812.994	152.59319
813.171	123.60469
813.349	105.94361
813.527	140.34202
813.705	134.41216
813.883	150.73502
814.061	132.98561
814.239	160.06765
814.417	165.34838
814.595	114.90158
814.773	111.25419
814.95	99.01589
815.128	112.87261
815.306	93.81494
815.484	88.86531
815.662	68.61433
815.839	58.79004
816.017	76.3702
816.195	116.00044
816.372	83.12387
816.55	124.24771
816.728	135.26873
816.905	90.59224
817.083	135.49995
817.261	94.19448
817.438	189.90522
817.616	152.00475
817.793	79.66981
817.971	115.58355
818.148	116.20164
818.326	135.5218
818.503	105.55102
818.681	148.14753
818.858	77.22521
819.036	95.00655
819.213	104.4664
819.391	74.2517
819.568	70.94849
819.745	57.15853
819.923	100.7413
820.1	73.20829
820.277	60.49414
820.455	76.0003
820.632	80.73138
820.809	80.71205
820.986	52.78709
821.164	46.15616
821.341	39.42249
821.518	52.91395
821.695	41.55767
821.872	39.8586
822.05	36.4278
822.227	32.48839
822.404	34.59702
822.581	36.97684
822.758	35.4294
822.935	34.90878
823.112	37.76802
823.289	34.42147
823.466	38.58816
823.643	37.88677
823.82	42.60988
823.997	39.73573
824.174	43.84646
824.351	55.0045
824.528	53.43666
824.705	48.71321
824.882	53.31489
825.059	66.9773
825.236	49.40268
825.412	49.70004
825.589	59.7579
825.766	77.11315
825.943	53.15597
826.12	60.25743
826.296	44.68464
826.473	52.60466
826.65	53.09719
826.827	60.76228
827.003	45.42698
827.18	49.17117
827.357	52.86945
827.533	48.36439
827.71	32.02655
827.887	43.50995
828.063	50.74773
828.24	43.0086
828.416	56.21129
828.593	48.16407
828.769	65.63486
828.946	69.51399
829.122	72.70175
829.299	76.23447
829.475	45.30683
829.652	70.87305
829.828	109.28185
830.005	72.92703
830.181	102.21525
830.357	76.1631
830.534	97.19909
830.71	84.52154
830.886	112.53328
831.063	100.69461
831.239	134.00714
831.415	59.39104
831.592	122.39489
831.768	81.84537
831.944	64.01021
832.12	124.24836
832.296	125.11191
832.473	102.89907
832.649	68.96352
832.825	97.27879
833.001	58.11028
833.177	80.10334
833.353	69.87759
833.529	44.34564
833.705	62.96404
833.881	47.12486
834.058	52.53317
834.234	50.61159
834.41	49.43169
834.586	41.62551
834.761	47.30584
834.937	52.54016
835.113	54.34184
835.289	51.07326
835.465	57.40895
835.641	55.9852
835.817	59.44536
835.993	108.36678
836.169	54.1483
836.344	79.64217
836.52	95.49631
836.696	102.04221
836.872	74.17986
837.048	199.37396
837.223	77.50716
837.399	165.88676
837.575	141.68555
837.75	116.41713
837.926	171.8084
838.102	281.6306
838.277	202.5237
838.453	283.73055
838.628	278.13152
838.804	112.83273
838.98	253.50996
839.155	131.55985
839.331	172.05556
839.506	122.13839
839.682	116.65488
839.857	148.12628
840.033	163.76279
840.208	79.97491
840.384	49.64582
840.559	86.31607
840.734	137.62474
840.91	172.06883
841.085	115.02432
841.26	115.03715
841.436	125.38418
841.611	105.61216
841.786	156.59619
841.962	231.51057
842.137	147.26513
842.312	76.5986
842.487	128.10762
842.663	118.65592
842.838	129.39517
843.013	539.4277
843.188	292.47955
843.363	202.99616
843.538	484.24622
843.714	504.15896
843.889	464.06288
844.064	508.05825
844.239	274.56306
844.414	533.45099
844.589	319.50789
844.764	723.35127
844.939	495.08578
845.114	436.52554
845.289	659.33371
845.464	760.10816
845.639	753.16232
845.814	231.81924
845.989	474.7596
846.163	405.34854
846.338	755.39687
846.513	607.48879
846.688	344.85613
846.863	734.88178
847.038	397.65098
847.212	339.37305
847.387	729.71235
847.562	400.89994
847.737	598.80659
847.911	293.19307
848.086	244.8539
848.261	511.41404
848.435	344.13419
848.61	551.83979
848.785	264.95052
848.959	502.16295
849.134	638.33945
849.308	1076.87011
849.483	612.8992
849.658	688.39016
849.832	381.1548
850.007	244.64374
850.181	1055.4042
850.356	635.18681
850.53	978.78035
850.705	398.55396
850.879	243.77381
851.053	536.49099
851.228	421.3382
851.402	827.92031
851.577	642.65289
851.751	808.10309
851.925	433.53043
852.099	267.98891
852.274	316.06538
852.448	376.45359
852.622	1031.91577
852.797	389.60712
852.971	452.73695
853.145	874.37066
853.319	998.86751
853.493	1169.11484
853.668	455.26247
853.842	1491.82945
854.016	1067.52914
854.19	1535.38808
854.364	593.44889
854.538	598.85603
854.712	780.29389
854.886	404.25733
855.06	333.35793
855.234	140.18168
855.408	809.8832
855.582	603.75131
855.756	885.07633
855.93	570.97096
856.104	663.31254
856.278	766.53162
856.452	374.35498
856.626	653.58149
856.8	1146.33795
856.973	1221.48737
857.147	1146.71429
857.321	1434.0613
857.495	542.09467
857.669	768.59267
857.842	615.79613
858.016	492.10717
858.19	362.67493
858.364	1289.18845
858.537	585.96933
858.711	1203.7793
858.885	911.63234
859.058	305.70274
859.232	227.94274
859.405	381.26027
859.579	772.89503
859.753	659.0265
859.926	879.14032
860.1	597.26067
860.273	990.38739
860.447	865.96086
860.62	661.66953
860.794	855.76804
860.967	644.77283
861.141	566.45058
861.314	712.90877
861.487	690.72422
861.661	515.75027
861.834	816.02491
862.008	1115.90098
862.181	807.46764
862.354	1473.85329
862.528	674.19301
862.701	407.72498
862.874	402.14147
863.047	488.771
863.221	523.18425
863.394	332.36716
863.567	471.62478
863.74	183.95977
863.913	995.57178
864.087	662.94015
864.26	633.5729
864.433	721.62009
864.606	1030.82032
864.779	1590.25195
864.952	321.87507
865.125	1010.47407
865.298	607.35577
865.471	595.70539
865.644	988.82315
865.817	578.62631
865.99	1002.78952
866.163	871.17724
866.336	444.36196
866.509	404.16483
866.682	589.51174
866.855	1255.1002
867.028	202.70465
867.2	631.47362
867.373	94.34744
867.546	501.52769
867.719	1283.00761
867.892	632.01987
868.064	437.65197
868.237	461.21207
868.41	473.08256
868.583	248.29751
868.755	301.40526
868.928	627.36918
869.101	919.33035
869.273	1641.49804
869.446	465.39285
869.619	967.15603
869.791	481.74425
869.964	759.22299
870.136	1006.9317
870.309	417.32201
870.481	376.81292
870.654	338.1319
870.826	421.99355
870.999	310.44894
871.171	516.18499
871.344	290.75908
871.516	445.72962
871.689	468.34921
871.861	578.25645
872.033	337.75197
872.206	362.40388
872.378	500.33823
872.55	467.33936
872.723	405.28172
872.895	640.14576
873.067	535.99462
873.24	520.28513
873.412	479.03228
873.584	371.23968
873.756	611.91109
873.928	761.64704
874.101	369.94644
874.273	521.21143
874.445	180.21784
874.617	316.07721
874.789	365.5725
874.961	361.94678
875.133	445.24706
875.305	563.88647
875.477	421.3689
875.649	246.90732
875.821	283.70515
875.993	699.41804
876.165	340.71069
876.337	507.67615
876.509	521.42697
876.681	451.84348
876.853	431.52811
877.025	715.86182
877.197	251.08474
877.369	278.94942
877.541	406.28571
877.712	95.47722
877.884	195.92838
878.056	523.25941
878.228	250.28853
878.4	472.45799
878.571	254.852
878.743	157.29065
878.915	310.58893
879.086	178.09513
879.258	200.75568
879.43	188.22913
879.601	165.04628
879.773	153.4747
879.945	44.06708
880.116	62.68976
880.288	42.84553
880.459	46.98163
880.631	37.80441
880.802	45.13862
880.974	42.53757
881.145	33.58236
881.317	41.34928
881.488	33.73187
881.66	37.50733
881.831	35.50873
882.002	43.49451
882.174	36.23852
882.345	42.74432
882.517	29.74878
882.688	50.77033
882.859	41.08421
883.03	63.86135
883.202	59.42219
883.373	55.57192
883.544	55.17884
883.715	84.22653
883.887	74.84153
884.058	64.10727
884.229	91.6601
884.4	88.76253
884.571	110.88086
884.742	85.8661
884.914	92.81797
885.085	140.29539
885.256	187.85175
885.427	154.50464
885.598	168.78168
885.769	187.66463
885.94	192.75864
886.111	106.20154
886.282	195.92037
886.453	214.73694
886.624	159.62473
886.795	251.91164
886.966	205.99686
887.136	271.85675
887.307	202.10434
887.478	409.07453
887.649	323.5881
887.82	345.84446
887.991	256.0357
888.161	421.4334
888.332	405.66963
888.503	225.94795
888.674	477.54372
888.844	697.80648
889.015	654.64697
889.186	290.11128
889.356	620.50543
889.527	310.34431
889.698	1002.22135
889.868	309.08144
890.039	533.01086
890.209	350.24207
890.38	626.33776
890.551	459.47438
890.721	815.4386
890.892	504.79866
891.062	1098.68466
891.233	501.40826
891.403	816.80694
891.574	546.01219
891.744	389.89465
891.914	345.42173
892.085	503.18398
892.255	112.0519
892.425	546.72696
892.596	425.04101
892.766	501.05913
892.936	769.93258
893.107	443.6688
893.277	232.11869
893.447	195.09788
893.618	127.43732
893.788	236.72353
893.958	125.40984
894.128	105.13778
894.298	126.07443
894.468	167.63013
894.639	76.65478
894.809	47.97491
894.979	73.28385
895.149	103.32721
895.319	82.77095
895.489	110.98484
895.659	148.0146
895.829	92.97764
895.999	101.77205
896.169	94.41122
896.339	122.62894
896.509	246.56304
896.679	246.93297
896.849	266.67929
897.019	349.76707
897.189	310.85063
897.358	269.85842
897.528	469.3797
897.698	213.00825
897.868	371.52671
898.038	862.72809
898.208	1016.34699
898.377	243.44265
898.547	1803.47939
898.717	3334.66899
898.886	905.74344
899.056	757.28606
899.226	2079.25234
899.395	2141.82476
899.565	2467.57862
899.735	4569.48301
899.904	1570.56192
900.074	5716.91073
900.244	610.37657
900.413	3379.61708
900.583	639.49018
900.752	-1808.29184
900.922	1029.11281
901.091	181.64375
901.261	2143.64711
901.43	1249.25716
901.599	3031.57941
901.769	2723.0989
901.938	2597.12603
902.108	990.48484
902.277	1437.4386
902.446	459.01228
902.616	660.25067
902.785	587.05726
902.954	875.59655
903.124	475.93494
903.293	356.47236
903.462	141.77985
903.631	214.50315
903.801	150.54477
903.97	79.13916
904.139	122.22931
904.308	97.00726
904.477	83.04459
904.646	45.56209
904.816	71.81535
904.985	106.06172
905.154	174.14063
