Data from WindowProjectSample3_Transmission__64__00064.txt Node

Date: Sun May 04 11:44:58 EDT 2025
User: jessi
Spectrometer: SR400872
Trigger mode: 0
Integration Time (sec): 5.000050E-1
Scans to average: 20
Electric dark correction enabled: true
Nonlinearity correction enabled: true
Boxcar width: 0
XAxis mode: Wavelengths
Number of Pixels in Spectrum: 3648
>>>>>Begin Spectral Data<<<<<
184.909	-1411.43381
185.132	-1263.07417
185.355	-1524.9584
185.578	-1541.26894
185.801	1233.24604
186.024	-1299.10493
186.247	-23204.62232
186.47	-2264.7816
186.693	-3568.358
186.916	-732.52991
187.139	-960.91052
187.362	-1172.53353
187.585	-1198.48146
187.808	-1103.87384
188.031	656.09391
188.254	-1092.43511
188.476	-796.29757
188.699	-1015.28883
188.922	275.73584
189.145	-1001.24088
189.368	6669.68519
189.591	3152.84787
189.813	-4149.95738
190.036	-1402.00228
190.259	-7749.85526
190.482	-3201.67638
190.705	-2892.82364
190.927	-1912.33128
191.15	-1344.02
191.373	-3743.37557
191.595	31394.45877
191.818	-3070.6461
192.041	-949.66236
192.263	-1602.09647
192.486	-895.48897
192.709	-1891.23174
192.931	-4761.40172
193.154	-1371.25375
193.377	-1623.36956
193.599	1199.13446
193.822	8499.87239
194.044	-10139.89633
194.267	-3453.69187
194.489	19.65649
194.712	-1926.76968
194.934	-2618.94007
195.157	-574.40617
195.379	-4710.68283
195.602	-1551.94484
195.824	-2435.21899
196.047	2513.44362
196.269	-1282.4674
196.492	-1389.45541
196.714	-964.86403
196.936	-2068.34174
197.159	-3953.94508
197.381	-1179.7073
197.604	-8584.70561
197.826	-2367.65796
198.048	-2245.78882
198.271	-1460.67308
198.493	-2360.91895
198.715	-3165.46086
198.938	-8012.89843
199.16	-4624.39111
199.382	-1476.10638
199.604	-1538.46512
199.827	-3854.78056
200.049	-18503.40932
200.271	-1211.2235
200.493	-4392.22007
200.715	-1065.61961
200.938	-889.17027
201.16	-927.34517
201.382	-2990.59721
201.604	-3658.34685
201.826	-1222.23242
202.048	-1707.15483
202.27	-1122.44709
202.492	-1487.3859
202.715	-1759.53575
202.937	-4182.46985
203.159	-4592.69953
203.381	6774.93982
203.603	-1349.09558
203.825	6142.87142
204.047	-2679.50374
204.269	3695.18789
204.491	-2221.6303
204.713	-1568.23251
204.935	-1035.40468
205.156	-3989.65919
205.378	-2694.98575
205.6	-1534.53686
205.822	-1631.08835
206.044	1302.40301
206.266	-18918.82566
206.488	-1375.40438
206.71	-2996.285
206.932	23907.46401
207.153	-1371.16555
207.375	-2692.32072
207.597	-1305.66242
207.819	-1541.98205
208.041	-1275.89838
208.262	-1295.69805
208.484	-1847.29306
208.706	-9016.25439
208.927	-1943.34147
209.149	-9845.18953
209.371	-1341.64683
209.593	1029.04976
209.814	-2246.96126
210.036	461.51317
210.258	-1398.64602
210.479	-2835.56589
210.701	-6297.56325
210.922	-2602.38901
211.144	4213.91542
211.366	-2225.2933
211.587	1620.4007
211.809	-2305.7754
212.03	168703.35659
212.252	523.55531
212.473	-39086.77942
212.695	3220.78261
212.916	-2860.3921
213.138	811.08126
213.359	-1215.25212
213.581	-8845.33061
213.802	-1318.44551
214.024	-5801.40441
214.245	3230.31039
214.466	474.95131
214.688	-2175.61713
214.909	-1704.79235
215.131	-3331.78012
215.352	16962.41514
215.573	-1605.92366
215.795	-4510.03522
216.016	-1899.00827
216.237	1229.3752
216.459	10059.78049
216.68	-1595.2961
216.901	-3692.16132
217.122	18470.67643
217.344	-1788.84685
217.565	-1907.82176
217.786	-2352.22418
218.007	4402.07132
218.228	6192.52189
218.45	-2699.62447
218.671	19601.93769
218.892	-3210.81813
219.113	-7534.63283
219.334	-71.19994
219.555	-14800.3585
219.776	-2195.68392
219.997	-2500.9174
220.219	-2614.54005
220.44	7807.46125
220.661	8756.15727
220.882	-4991.34166
221.103	2481.96987
221.324	7844.31939
221.545	-9556.77442
221.766	-2357.43785
221.987	1101.99433
222.208	1673.2097
222.429	-1552.5837
222.65	152.84345
222.87	749.21363
223.091	3422.86585
223.312	510.54899
223.533	5572.64213
223.754	-4835.49421
223.975	1724.34013
224.196	1142.8968
224.417	6111.39223
224.637	652.08028
224.858	70.82941
225.079	769.70244
225.3	483.26368
225.521	-2075.25942
225.741	602.16349
225.962	613.63477
226.183	119.37358
226.404	1310.96812
226.624	470.79083
226.845	680.6959
227.066	480.68073
227.286	271.02557
227.507	128.91163
227.728	101.20445
227.948	204.49612
228.169	61.93107
228.389	67.42875
228.61	40.75651
228.831	53.16312
229.051	3.40735
229.272	32.5533
229.492	45.87458
229.713	13.83955
229.933	32.78198
230.154	28.35302
230.374	48.46163
230.595	36.37737
230.815	23.40941
231.036	34.78244
231.256	-3.81611
231.477	62.96686
231.697	36.16899
231.917	39.32276
232.138	54.73855
232.358	109.59181
232.579	92.22572
232.799	15.50458
233.019	82.99894
233.24	98.3976
233.46	34.94052
233.68	47.99694
233.901	35.19157
234.121	23.59933
234.341	9.5577
234.561	-5.45387
234.782	17.62798
235.002	58.79032
235.222	0.23832
235.442	50.50815
235.662	24.86541
235.883	52.11638
236.103	42.11748
236.323	29.9008
236.543	24.74887
236.763	33.2917
236.983	33.03615
237.203	36.14784
237.423	48.75449
237.643	75.00134
237.864	63.58877
238.084	16.37407
238.304	22.15769
238.524	39.22627
238.744	33.09593
238.964	56.4066
239.184	48.31528
239.404	53.33978
239.624	28.23749
239.843	45.92391
240.063	27.78522
240.283	17.89111
240.503	20.06206
240.723	20.67206
240.943	13.18621
241.163	17.01895
241.383	12.24331
241.603	6.38357
241.822	7.21862
242.042	5.42893
242.262	7.18636
242.482	7.45457
242.702	8.97475
242.921	3.02053
243.141	6.31065
243.361	5.70522
243.581	8.43372
243.8	7.19881
244.02	4.56376
244.24	8.36739
244.459	7.80863
244.679	15.9265
244.899	9.84724
245.118	12.2863
245.338	10.96678
245.558	11.55116
245.777	7.12172
245.997	8.31958
246.216	8.55477
246.436	5.15798
246.655	3.66269
246.875	2.81167
247.094	5.47782
247.314	2.05103
247.533	3.38287
247.753	3.78358
247.972	3.15217
248.192	1.14742
248.411	1.89617
248.631	3.2427
248.85	4.09958
249.07	4.00368
249.289	5.54657
249.508	4.14044
249.728	6.08621
249.947	6.51148
250.166	7.97383
250.386	4.31638
250.605	5.91521
250.824	9.66056
251.044	6.18445
251.263	19.23408
251.482	11.76176
251.701	9.73767
251.921	0.11265
252.14	3.24062
252.359	4.2049
252.578	8.75745
252.798	3.22024
253.017	7.61944
253.236	3.84283
253.455	4.93092
253.674	10.05611
253.893	4.40557
254.112	6.9802
254.331	10.26418
254.551	8.30933
254.77	4.005
254.989	11.49273
255.208	8.71304
255.427	13.45202
255.646	11.18149
255.865	17.15558
256.084	7.33804
256.303	9.27778
256.522	11.07088
256.741	2.93211
256.96	3.11189
257.179	7.20371
257.397	8.82536
257.616	5.01127
257.835	5.59964
258.054	12.96696
258.273	8.71012
258.492	9.1448
258.711	5.73904
258.93	2.72714
259.148	3.96871
259.367	3.85369
259.586	4.78551
259.805	2.25616
260.023	4.05522
260.242	3.04765
260.461	2.4746
260.68	1.25548
260.898	3.67229
261.117	1.35828
261.336	0.88768
261.554	3.27469
261.773	3.18935
261.992	0.7624
262.21	3.10542
262.429	3.44317
262.648	5.98094
262.866	7.00864
263.085	5.1837
263.303	4.11317
263.522	7.55359
263.74	7.53892
263.959	12.7785
264.178	6.58971
264.396	5.4869
264.615	3.96919
264.833	9.35355
265.051	7.83566
265.27	8.97423
265.488	9.03988
265.707	5.68298
265.925	8.85485
266.144	4.43041
266.362	4.93095
266.58	4.85757
266.799	4.24563
267.017	4.9642
267.235	4.71686
267.454	3.00356
267.672	1.63896
267.89	3.65135
268.109	4.06634
268.327	3.99624
268.545	0.98338
268.763	3.4474
268.982	1.63418
269.2	4.34633
269.418	2.86012
269.636	1.91402
269.854	3.93134
270.073	2.9343
270.291	1.88736
270.509	1.69297
270.727	3.74584
270.945	6.19561
271.163	6.05362
271.381	1.49825
271.599	2.78871
271.817	4.20122
272.036	1.45595
272.254	2.9711
272.472	2.02716
272.69	2.02315
272.908	2.17872
273.126	3.51828
273.344	4.54169
273.562	1.6428
273.779	2.34024
273.997	3.62956
274.215	3.51568
274.433	2.61217
274.651	3.95403
274.869	3.91872
275.087	2.97891
275.305	3.7117
275.523	2.44135
275.74	2.48482
275.958	4.77334
276.176	6.8576
276.394	2.3019
276.612	2.92474
276.829	2.95134
277.047	2.46352
277.265	2.60095
277.483	3.07307
277.7	3.36971
277.918	3.0332
278.136	5.18328
278.353	2.65427
278.571	1.58914
278.789	4.13969
279.006	0.91705
279.224	2.67643
279.442	4.25922
279.659	3.08754
279.877	2.07232
280.094	4.57494
280.312	0.94661
280.529	2.97405
280.747	1.23286
280.964	2.46707
281.182	4.78336
281.399	2.60164
281.617	3.06397
281.834	2.27445
282.052	1.66141
282.269	2.81279
282.487	2.09029
282.704	2.0537
282.921	1.95074
283.139	2.85467
283.356	3.29019
283.574	3.44724
283.791	1.54177
284.008	4.39489
284.226	2.66909
284.443	2.87305
284.66	3.64799
284.877	3.10081
285.095	1.90307
285.312	1.45422
285.529	0.88114
285.746	0.78351
285.964	1.7804
286.181	1.25528
286.398	1.64362
286.615	2.40267
286.832	2.39665
287.05	0.60452
287.267	1.71409
287.484	1.74099
287.701	2.39605
287.918	2.25241
288.135	2.31526
288.352	1.07288
288.569	1.28392
288.786	2.24869
289.003	1.69514
289.22	2.61082
289.437	1.52784
289.654	2.41847
289.871	2.55141
290.088	2.49799
290.305	1.979
290.522	1.64084
290.739	1.80557
290.956	2.63685
291.173	3.09261
291.39	2.94874
291.607	2.06643
291.824	1.66106
292.04	1.1931
292.257	2.70066
292.474	2.87291
292.691	1.76793
292.908	0.92423
293.125	1.62033
293.341	1.08688
293.558	4.24285
293.775	1.85881
293.992	2.07247
294.208	0.69216
294.425	1.31536
294.642	1.66854
294.858	2.50135
295.075	0.7107
295.292	1.8662
295.508	2.17406
295.725	2.96531
295.942	1.58305
296.158	1.26642
296.375	1.92695
296.591	1.42454
296.808	1.53425
297.024	1.84208
297.241	1.96536
297.458	2.07813
297.674	0.33771
297.891	1.71491
298.107	1.44903
298.323	1.07355
298.54	2.41298
298.756	1.30785
298.973	0.63419
299.189	2.62588
299.406	1.23842
299.622	2.58617
299.838	2.66684
300.055	2.3074
300.271	0.68312
300.487	1.07145
300.704	1.204
300.92	0.75832
301.136	3.36484
301.353	2.62169
301.569	1.80667
301.785	2.03347
302.001	2.34767
302.218	2.1052
302.434	2.22286
302.65	0.86831
302.866	1.40511
303.083	3.61343
303.299	3.53212
303.515	1.88021
303.731	2.09863
303.947	0.87722
304.163	1.40291
304.379	1.92398
304.595	2.20324
304.812	1.39298
305.028	1.2011
305.244	1.67235
305.46	2.34829
305.676	2.55556
305.892	2.94623
306.108	2.2693
306.324	1.65541
306.54	3.30619
306.756	2.26386
306.972	2.20486
307.187	1.62179
307.403	3.10928
307.619	1.39393
307.835	2.7875
308.051	2.84851
308.267	1.05551
308.483	2.67285
308.699	2.20404
308.914	1.8379
309.13	1.85605
309.346	0.711
309.562	1.01353
309.778	0.67564
309.993	2.2106
310.209	1.78609
310.425	0.87235
310.641	1.66087
310.856	1.04969
311.072	0.97291
311.288	1.75539
311.503	1.87043
311.719	0.53404
311.935	0.53704
312.15	2.07134
312.366	1.83307
312.581	2.17702
312.797	1.75546
313.013	2.32361
313.228	1.36874
313.444	1.80268
313.659	1.13905
313.875	2.0577
314.09	1.74605
314.306	2.96705
314.521	2.45756
314.737	2.34481
314.952	1.9801
315.168	1.92917
315.383	2.08861
315.599	1.62718
315.814	1.73098
316.029	2.49191
316.245	0.97388
316.46	0.50995
316.675	2.85425
316.891	3.4551
317.106	4.13641
317.321	2.31098
317.537	2.22058
317.752	2.61829
317.967	2.54828
318.183	1.35381
318.398	1.62858
318.613	2.63212
318.828	2.95282
319.043	2.56095
319.259	1.65603
319.474	2.08173
319.689	2.86117
319.904	0.58129
320.119	2.62606
320.334	2.1088
320.549	1.73666
320.765	2.90533
320.98	2.26887
321.195	2.62956
321.41	1.92003
321.625	2.622
321.84	3.26375
322.055	3.31976
322.27	1.48628
322.485	1.1812
322.7	2.26363
322.915	2.75008
323.13	1.29715
323.345	3.05373
323.56	2.31256
323.775	2.499
323.989	2.37005
324.204	2.00951
324.419	2.5622
324.634	0.96536
324.849	1.87901
325.064	3.44834
325.279	2.60716
325.493	2.25761
325.708	2.69045
325.923	1.44531
326.138	1.49542
326.352	3.14494
326.567	2.56303
326.782	1.6926
326.997	1.50059
327.211	2.40753
327.426	2.27684
327.641	1.82053
327.855	0.7791
328.07	2.46835
328.285	3.43584
328.499	1.87139
328.714	2.24731
328.928	2.56349
329.143	2.06811
329.358	2.96209
329.572	2.7502
329.787	3.00802
330.001	4.18426
330.216	1.0288
330.43	3.36867
330.645	3.33239
330.859	2.8338
331.074	1.3555
331.288	2.07115
331.503	3.31622
331.717	1.21304
331.931	2.04636
332.146	2.35654
332.36	3.64266
332.575	2.44634
332.789	2.18288
333.003	2.0092
333.218	2.47695
333.432	1.54935
333.646	2.67037
333.86	3.34078
334.075	3.40512
334.289	1.61764
334.503	1.2756
334.717	2.57858
334.932	2.44732
335.146	2.8932
335.36	1.69434
335.574	2.7267
335.788	2.56294
336.003	2.96893
336.217	2.88585
336.431	2.3598
336.645	1.73897
336.859	1.25597
337.073	2.13999
337.287	2.11904
337.501	1.26784
337.715	2.34244
337.929	2.45766
338.143	1.31032
338.357	1.98273
338.571	1.52854
338.785	2.55855
338.999	1.63123
339.213	1.736
339.427	1.12661
339.641	3.03121
339.855	1.82166
340.069	1.59218
340.283	2.9091
340.497	3.23201
340.711	2.47065
340.924	2.01787
341.138	1.47008
341.352	1.14298
341.566	2.17322
341.78	0.80669
341.993	1.67662
342.207	1.41175
342.421	2.24749
342.635	1.99972
342.848	1.7228
343.062	0.46879
343.276	1.60218
343.49	3.61313
343.703	1.63624
343.917	2.73902
344.131	2.76208
344.344	1.5269
344.558	1.73565
344.771	1.34048
344.985	2.81631
345.199	3.24619
345.412	2.18208
345.626	2.3594
345.839	0.8514
346.053	1.29578
346.266	1.38156
346.48	2.51307
346.693	2.28336
346.907	2.42891
347.12	1.40115
347.334	2.08546
347.547	2.2122
347.76	1.90928
347.974	2.87707
348.187	2.37366
348.401	1.93426
348.614	1.61242
348.827	1.81937
349.041	2.44235
349.254	0.90891
349.467	1.90665
349.681	1.31323
349.894	1.63203
350.107	2.80513
350.32	3.39118
350.534	1.04816
350.747	1.82122
350.96	1.44712
351.173	1.55174
351.386	1.70736
351.6	1.68474
351.813	1.68182
352.026	2.03286
352.239	1.1595
352.452	1.86541
352.665	2.76642
352.878	1.793
353.092	3.55672
353.305	2.48861
353.518	2.08906
353.731	1.43529
353.944	2.67684
354.157	1.58424
354.37	1.50125
354.583	1.2924
354.796	0.92198
355.009	2.76123
355.222	2.13411
355.435	2.01834
355.647	2.73927
355.86	1.46556
356.073	1.97746
356.286	1.63005
356.499	2.52507
356.712	2.36905
356.925	2.17232
357.138	2.56407
357.35	1.30733
357.563	1.68673
357.776	1.97115
357.989	1.88167
358.201	2.30481
358.414	2.14379
358.627	2.69831
358.84	1.76135
359.052	1.23755
359.265	1.29318
359.478	2.49956
359.69	0.34134
359.903	2.48445
360.116	2.52058
360.328	0.93312
360.541	2.38457
360.753	1.39839
360.966	1.60793
361.179	1.68475
361.391	1.62976
361.604	1.36974
361.816	1.70931
362.029	1.60337
362.241	1.38194
362.454	1.6832
362.666	1.41119
362.879	1.98693
363.091	1.68184
363.304	1.40021
363.516	1.80526
363.728	1.16354
363.941	2.1398
364.153	1.75701
364.366	0.59185
364.578	1.24595
364.79	2.19826
365.003	1.97115
365.215	1.62938
365.427	2.28493
365.639	2.69184
365.852	2.00494
366.064	2.94792
366.276	1.70141
366.488	2.201
366.701	1.71828
366.913	1.78803
367.125	1.79629
367.337	1.53081
367.549	1.62294
367.762	1.93641
367.974	1.9797
368.186	1.67269
368.398	2.60486
368.61	2.34714
368.822	2.46066
369.034	1.89293
369.246	2.46198
369.458	3.52492
369.67	1.40853
369.882	3.17562
370.094	0.75651
370.306	2.94197
370.518	1.72246
370.73	1.67519
370.942	1.55562
371.154	1.88801
371.366	1.7231
371.578	2.31139
371.79	1.66701
372.002	2.71459
372.214	3.2353
372.425	2.14962
372.637	2.93754
372.849	2.27636
373.061	0.72498
373.273	2.37343
373.484	2.38556
373.696	2.58999
373.908	0.61756
374.12	2.75592
374.331	2.39949
374.543	1.58158
374.755	1.37542
374.967	2.11841
375.178	2.63958
375.39	1.93301
375.602	2.11203
375.813	1.17844
376.025	1.34147
376.236	2.03375
376.448	2.20179
376.66	1.86766
376.871	1.82161
377.083	2.53467
377.294	2.80088
377.506	1.81392
377.717	2.82543
377.929	2.14519
378.14	1.65368
378.352	2.34802
378.563	2.45003
378.775	2.86013
378.986	1.62772
379.197	2.26304
379.409	1.68247
379.62	2.60306
379.832	2.22667
380.043	1.98979
380.254	2.26207
380.466	1.39626
380.677	3.77232
380.888	3.42047
381.1	3.78166
381.311	3.67301
381.522	2.20914
381.733	4.00814
381.945	2.04628
382.156	2.18293
382.367	1.86327
382.578	3.88209
382.789	3.87747
383.001	1.83847
383.212	3.14767
383.423	3.20852
383.634	2.889
383.845	2.60504
384.056	1.95835
384.267	2.24284
384.478	2.2149
384.69	1.6273
384.901	2.50776
385.112	2.49079
385.323	3.27065
385.534	2.49423
385.745	2.38696
385.956	2.52798
386.167	1.64949
386.378	2.68273
386.588	1.68747
386.799	1.79768
387.01	1.36727
387.221	2.78154
387.432	2.27986
387.643	3.41421
387.854	2.07791
388.065	2.12024
388.275	2.21548
388.486	1.99511
388.697	2.22991
388.908	2.11652
389.119	2.95524
389.329	3.3439
389.54	2.31171
389.751	2.53039
389.962	3.12409
390.172	2.4791
390.383	2.09834
390.594	1.90002
390.804	1.97728
391.015	2.01385
391.226	2.33647
391.436	2.72834
391.647	2.52024
391.858	2.75184
392.068	1.42012
392.279	1.72622
392.489	2.45624
392.7	2.84918
392.91	1.77306
393.121	1.95086
393.331	2.63545
393.542	2.96306
393.752	2.76903
393.963	2.50124
394.173	2.46603
394.384	2.81999
394.594	2.36101
394.804	1.76241
395.015	2.5283
395.225	2.87082
395.436	1.80162
395.646	2.75898
395.856	2.08253
396.067	1.68709
396.277	2.94847
396.487	2.7438
396.697	2.57985
396.908	2.97848
397.118	2.84506
397.328	2.53174
397.538	3.00047
397.749	2.18147
397.959	3.01741
398.169	2.83109
398.379	1.68407
398.589	2.82486
398.8	2.54151
399.01	2.56119
399.22	2.31562
399.43	3.70212
399.64	2.34825
399.85	2.86055
400.06	2.4609
400.27	2.13063
400.48	2.53757
400.69	3.29296
400.9	2.22829
401.11	2.04686
401.32	2.99653
401.53	2.25637
401.74	3.39737
401.95	2.88481
402.16	2.12791
402.37	2.8943
402.58	2.20681
402.79	2.92682
403	2.97666
403.209	2.16334
403.419	2.96415
403.629	2.23742
403.839	2.98066
404.049	3.02458
404.258	2.15424
404.468	2.03932
404.678	2.88717
404.888	2.99883
405.097	2.17358
405.307	2.51308
405.517	2.8644
405.727	2.74466
405.936	2.35708
406.146	2.66903
406.356	3.30522
406.565	2.49671
406.775	2.3423
406.984	2.32193
407.194	3.57836
407.404	2.62495
407.613	2.79628
407.823	2.99704
408.032	3.32205
408.242	3.23545
408.451	2.35036
408.661	2.64771
408.87	3.63957
409.08	2.26731
409.289	2.83163
409.499	2.76838
409.708	2.59183
409.918	1.55825
410.127	2.64561
410.336	3.47831
410.546	3.06092
410.755	2.52909
410.964	2.39111
411.174	2.23181
411.383	2.97237
411.592	2.87879
411.802	2.13771
412.011	3.23073
412.22	2.70493
412.429	3.58397
412.639	3.47948
412.848	3.3949
413.057	3.60663
413.266	3.35724
413.475	2.73349
413.685	3.09335
413.894	3.28744
414.103	3.34788
414.312	3.12701
414.521	2.69789
414.73	2.93366
414.939	3.72015
415.148	3.05483
415.357	2.92876
415.566	2.58882
415.776	2.64017
415.985	2.50832
416.194	3.18595
416.403	3.67739
416.611	2.15943
416.82	2.55154
417.029	2.95716
417.238	2.68045
417.447	2.61664
417.656	2.96865
417.865	2.95324
418.074	3.20433
418.283	3.56302
418.492	4.31113
418.7	4.18009
418.909	5.06985
419.118	4.06408
419.327	4.36541
419.536	4.19596
419.744	3.87433
419.953	5.05637
420.162	5.15054
420.371	4.24663
420.579	4.27153
420.788	5.31415
420.997	5.35647
421.205	5.43687
421.414	5.08409
421.623	5.15994
421.831	4.68209
422.04	5.45894
422.249	4.47288
422.457	5.03795
422.666	4.42271
422.874	5.40792
423.083	5.40256
423.291	5.39406
423.5	5.13826
423.708	5.27516
423.917	5.88411
424.125	5.21752
424.334	4.97485
424.542	6.80602
424.751	5.97124
424.959	5.70972
425.167	5.91824
425.376	5.88802
425.584	4.90397
425.793	5.09457
426.001	4.20213
426.209	4.80948
426.418	3.86348
426.626	3.75621
426.834	3.41007
427.042	3.73133
427.251	3.28072
427.459	4.02701
427.667	3.41321
427.875	2.70473
428.084	2.98579
428.292	3.67451
428.5	3.3964
428.708	2.63182
428.916	2.67645
429.124	3.10683
429.333	2.96332
429.541	3.01942
429.749	3.1341
429.957	3.11851
430.165	4.17216
430.373	2.47703
430.581	3.1772
430.789	3.74409
430.997	2.93719
431.205	2.8327
431.413	3.24161
431.621	3.05269
431.829	3.64792
432.037	3.37511
432.245	3.74445
432.453	3.77413
432.661	3.59011
432.869	4.94235
433.076	3.42935
433.284	3.89258
433.492	4.40509
433.7	4.76781
433.908	3.83839
434.116	4.11788
434.323	4.06705
434.531	3.98761
434.739	4.05964
434.947	4.12022
435.154	4.07204
435.362	3.60148
435.57	3.32635
435.778	3.25321
435.985	3.584
436.193	3.11003
436.401	4.1464
436.608	3.40666
436.816	3.15603
437.023	4.36783
437.231	4.40798
437.439	3.79932
437.646	4.04259
437.854	3.90172
438.061	4.01237
438.269	3.84411
438.476	4.25895
438.684	4.06165
438.891	4.03436
439.099	3.88316
439.306	3.56368
439.514	3.90317
439.721	4.9395
439.929	4.41564
440.136	5.08522
440.343	5.11017
440.551	4.72319
440.758	6.24524
440.965	5.24838
441.173	5.03812
441.38	4.58331
441.587	4.90349
441.795	4.40333
442.002	4.595
442.209	4.56329
442.416	4.58616
442.624	4.36618
442.831	4.23302
443.038	3.74465
443.245	3.46114
443.452	3.58395
443.66	4.31083
443.867	3.66908
444.074	3.79013
444.281	3.90465
444.488	4.09315
444.695	4.40875
444.902	4.27988
445.109	5.20045
445.316	4.89262
445.523	5.00303
445.73	4.78205
445.937	5.58957
446.144	5.96238
446.351	6.10237
446.558	5.13833
446.765	6.62033
446.972	6.319
447.179	5.65925
447.386	6.55144
447.593	5.15928
447.8	6.10778
448.007	4.97166
448.214	4.78593
448.42	4.35437
448.627	5.14181
448.834	4.33025
449.041	4.17071
449.248	4.05018
449.454	4.3063
449.661	4.83879
449.868	3.5148
450.075	3.40748
450.281	2.64185
450.488	2.98835
450.695	3.09229
450.901	3.16065
451.108	3.44487
451.315	3.98114
451.521	3.4225
451.728	4.11975
451.935	3.33354
452.141	3.63019
452.348	3.67216
452.554	3.66467
452.761	3.57682
452.967	4.52487
453.174	3.89144
453.38	3.82657
453.587	3.11028
453.793	3.71417
454	3.8819
454.206	4.52185
454.413	4.02914
454.619	3.66978
454.825	3.19436
455.032	3.75593
455.238	3.96097
455.445	2.93489
455.651	3.55087
455.857	2.64359
456.064	3.34021
456.27	3.3723
456.476	3.38047
456.682	2.84723
456.889	3.66805
457.095	3.7298
457.301	4.53653
457.507	3.53824
457.714	3.63972
457.92	3.54331
458.126	3.43629
458.332	3.94883
458.538	3.95651
458.744	4.32418
458.951	4.61162
459.157	6.09243
459.363	5.4085
459.569	5.41529
459.775	6.05677
459.981	5.31424
460.187	5.78942
460.393	6.10338
460.599	6.32794
460.805	5.50396
461.011	5.06033
461.217	5.4253
461.423	4.91625
461.629	4.16226
461.835	4.3584
462.041	3.71155
462.247	4.38821
462.453	3.49013
462.658	3.54825
462.864	3.98969
463.07	3.74149
463.276	3.71814
463.482	3.84128
463.688	4.28747
463.893	3.36774
464.099	3.5011
464.305	4.47731
464.511	3.4525
464.716	3.64831
464.922	4.05197
465.128	3.31599
465.333	4.47848
465.539	3.94677
465.745	3.61829
465.95	3.7929
466.156	4.94139
466.362	4.29739
466.567	3.69641
466.773	3.50622
466.978	4.50227
467.184	3.34581
467.389	2.7819
467.595	3.97675
467.8	3.38963
468.006	4.38817
468.211	4.29198
468.417	3.29869
468.622	4.01642
468.828	4.08507
469.033	3.88169
469.239	5.13468
469.444	3.45838
469.649	4.17104
469.855	3.74669
470.06	3.8337
470.266	3.28953
470.471	4.0951
470.676	3.97738
470.881	3.06609
471.087	4.23201
471.292	4.52893
471.497	3.24378
471.703	3.69855
471.908	3.57707
472.113	3.88303
472.318	4.16624
472.523	3.30992
472.729	3.99888
472.934	4.02298
473.139	3.6911
473.344	4.10691
473.549	4.42692
473.754	3.51324
473.959	4.73608
474.164	3.56096
474.369	3.81304
474.575	4.30641
474.78	3.97404
474.985	3.59503
475.19	3.12218
475.395	3.54537
475.6	3.81813
475.804	4.48911
476.009	3.83175
476.214	3.77968
476.419	3.60281
476.624	3.08528
476.829	3.47287
477.034	4.17266
477.239	3.65623
477.444	4.08375
477.648	4.3499
477.853	4.34684
478.058	3.87769
478.263	3.77659
478.468	3.5458
478.672	3.60865
478.877	4.76304
479.082	4.88806
479.287	4.29042
479.491	4.06664
479.696	3.52076
479.901	4.50967
480.105	4.52383
480.31	3.92885
480.515	4.27655
480.719	5.705
480.924	4.33161
481.128	4.2152
481.333	5.08706
481.538	5.31156
481.742	5.28612
481.947	6.10983
482.151	6.67292
482.356	6.99207
482.56	8.44282
482.765	9.16817
482.969	11.0829
483.174	12.54158
483.378	14.41919
483.582	14.42685
483.787	15.57003
483.991	15.66553
484.196	15.78009
484.4	15.37681
484.604	15.47845
484.809	13.87916
485.013	13.17128
485.217	11.91585
485.422	10.4585
485.626	9.72351
485.83	9.1874
486.034	9.04317
486.239	9.37061
486.443	9.40779
486.647	9.6229
486.851	10.59328
487.055	11.37462
487.26	11.02481
487.464	11.67466
487.668	11.14932
487.872	11.24594
488.076	11.6712
488.28	11.05445
488.484	10.26945
488.688	10.01271
488.892	9.7495
489.096	9.11387
489.3	8.27524
489.504	7.80172
489.708	7.71294
489.912	7.58596
490.116	7.39078
490.32	6.95583
490.524	7.88997
490.728	8.38587
490.932	8.69529
491.136	8.99917
491.34	10.04736
491.544	10.33007
491.748	9.95177
491.951	9.89792
492.155	9.60422
492.359	9.43561
492.563	8.21483
492.767	7.67339
492.97	7.01608
493.174	6.22353
493.378	5.7778
493.582	5.00523
493.785	5.07246
493.989	5.00351
494.193	4.72659
494.396	4.39289
494.6	4.84757
494.804	4.36913
495.007	4.21551
495.211	4.09133
495.414	4.36289
495.618	4.76057
495.822	5.28859
496.025	4.96045
496.229	5.4948
496.432	4.77832
496.636	5.20103
496.839	5.21833
497.043	6.13003
497.246	5.47325
497.45	5.12739
497.653	5.22543
497.856	5.33577
498.06	4.63879
498.263	4.82485
498.467	4.55152
498.67	5.30213
498.873	5.0252
499.077	4.51091
499.28	4.39627
499.483	4.64216
499.686	4.80386
499.89	4.47032
500.093	4.54504
500.296	3.79391
500.499	4.75981
500.703	4.0798
500.906	4.14417
501.109	4.8908
501.312	4.08654
501.515	4.01429
501.719	4.33314
501.922	4.71483
502.125	4.22772
502.328	4.08392
502.531	3.57601
502.734	4.1103
502.937	3.29985
503.14	4.15632
503.343	3.6593
503.546	3.97325
503.749	3.81986
503.952	4.36436
504.155	3.66679
504.358	4.39998
504.561	4.19105
504.764	3.61662
504.967	4.12314
505.17	4.09944
505.373	4.92135
505.576	4.15374
505.778	4.4627
505.981	3.84749
506.184	4.79062
506.387	3.41599
506.59	4.93679
506.793	4.68695
506.995	4.39188
507.198	3.3149
507.401	4.24682
507.604	4.44437
507.806	3.83935
508.009	4.04672
508.212	4.74624
508.414	4.24683
508.617	4.33055
508.82	4.60184
509.022	5.3445
509.225	4.80516
509.427	3.90296
509.63	5.3041
509.833	4.58875
510.035	4.47443
510.238	3.78498
510.44	5.10854
510.643	3.55949
510.845	5.50874
511.048	4.72952
511.25	4.26721
511.453	4.49111
511.655	4.72179
511.858	4.30735
512.06	4.90724
512.262	4.43918
512.465	4.95006
512.667	4.17683
512.869	3.86647
513.072	4.5029
513.274	4.65171
513.476	4.45806
513.679	4.59044
513.881	3.72158
514.083	4.95091
514.286	3.87352
514.488	3.94863
514.69	3.78816
514.892	3.64321
515.094	4.54905
515.297	3.89873
515.499	4.2361
515.701	3.83646
515.903	5.04107
516.105	4.98209
516.307	4.52591
516.509	3.35034
516.711	3.70036
516.913	4.28265
517.116	4.45001
517.318	4.42769
517.52	5.48814
517.722	5.49405
517.924	4.73889
518.126	5.81479
518.328	5.32854
518.529	5.96676
518.731	6.68944
518.933	5.37671
519.135	5.61155
519.337	6.0969
519.539	5.62874
519.741	4.34693
519.943	4.83361
520.145	4.54746
520.346	4.82816
520.548	4.2549
520.75	4.49977
520.952	4.05393
521.153	4.30937
521.355	4.51151
521.557	3.75046
521.759	4.33168
521.96	4.23034
522.162	3.71964
522.364	4.76438
522.565	3.85526
522.767	4.53692
522.969	4.80583
523.17	4.44792
523.372	4.42796
523.573	3.99671
523.775	4.13966
523.977	3.82791
524.178	5.16464
524.38	4.37151
524.581	5.39885
524.783	5.13685
524.984	5.88317
525.186	5.80233
525.387	6.3336
525.589	6.17447
525.79	6.05354
525.991	5.98056
526.193	6.61965
526.394	5.69067
526.596	6.69709
526.797	6.82534
526.998	6.49518
527.2	6.64527
527.401	8.51621
527.602	8.91145
527.803	10.92318
528.005	11.14369
528.206	12.08079
528.407	12.71552
528.608	12.5407
528.81	12.55674
529.011	11.84819
529.212	12.79224
529.413	11.72862
529.614	10.77844
529.815	10.47185
530.017	9.56603
530.218	8.48221
530.419	7.45495
530.62	7.26943
530.821	6.958
531.022	5.91333
531.223	6.86155
531.424	6.63277
531.625	6.67655
531.826	6.61715
532.027	6.94829
532.228	8.04311
532.429	7.87141
532.63	7.97269
532.831	8.68504
533.032	8.61447
533.233	9.23132
533.433	8.89655
533.634	9.16038
533.835	8.34213
534.036	7.80775
534.237	7.67691
534.438	7.13732
534.638	6.18817
534.839	5.97517
535.04	6.18285
535.241	5.54904
535.441	6.73468
535.642	6.1877
535.843	5.61065
536.043	5.7346
536.244	6.03929
536.445	6.05673
536.645	6.9339
536.846	6.58729
537.047	6.92907
537.247	5.84988
537.448	5.83411
537.648	5.75455
537.849	5.31377
538.049	5.06636
538.25	5.18562
538.451	4.93853
538.651	4.20717
538.851	4.79241
539.052	5.16727
539.252	5.15321
539.453	4.82152
539.653	5.25786
539.854	5.55747
540.054	6.15808
540.254	7.36461
540.455	8.09832
540.655	7.84652
540.855	8.91428
541.056	9.6505
541.256	9.26545
541.456	10.28603
541.657	9.47816
541.857	10.36416
542.057	8.74381
542.257	8.44807
542.458	8.86679
542.658	8.53253
542.858	7.02891
543.058	7.81581
543.258	7.15055
543.458	5.84755
543.659	5.56404
543.859	6.46796
544.059	6.18074
544.259	5.48303
544.459	5.79461
544.659	4.98076
544.859	5.45812
545.059	4.8107
545.259	5.38341
545.459	5.08007
545.659	5.67457
545.859	5.22981
546.059	5.47444
546.259	4.94025
546.459	4.65432
546.659	4.85405
546.859	5.56747
547.059	5.42444
547.258	5.3849
547.458	5.13477
547.658	4.23548
547.858	4.07167
548.058	4.57896
548.258	4.39178
548.457	4.14732
548.657	5.78866
548.857	4.3829
549.057	4.96993
549.256	4.85357
549.456	4.41249
549.656	3.50266
549.855	5.51615
550.055	4.36955
550.255	5.6679
550.454	4.80355
550.654	5.07804
550.853	5.31721
551.053	5.05584
551.253	4.7361
551.452	4.78615
551.652	3.97005
551.851	3.60168
552.051	4.3258
552.25	4.27926
552.45	4.11563
552.649	4.36011
552.849	4.03058
553.048	4.49545
553.248	4.82652
553.447	4.08062
553.646	5.05229
553.846	5.35184
554.045	5.19215
554.244	4.0054
554.444	5.63703
554.643	3.98429
554.842	5.39235
555.042	5.86179
555.241	4.30247
555.44	4.16879
555.64	4.90376
555.839	5.81539
556.038	4.98643
556.237	4.21594
556.436	4.59894
556.636	4.91934
556.835	4.13069
557.034	5.62406
557.233	4.60093
557.432	4.01334
557.631	5.38123
557.83	4.59483
558.029	4.33277
558.228	4.41641
558.427	4.09569
558.626	5.05696
558.825	4.18517
559.024	4.82967
559.223	5.80717
559.422	4.56344
559.621	4.90438
559.82	3.25301
560.019	4.66266
560.218	4.52055
560.417	3.02333
560.616	4.44839
560.815	6.52851
561.014	3.83255
561.212	5.38523
561.411	4.8711
561.61	3.67507
561.809	4.5149
562.008	5.508
562.206	4.5594
562.405	5.00023
562.604	4.61621
562.803	4.74424
563.001	4.46855
563.2	3.8847
563.399	4.96188
563.597	3.92711
563.796	4.75211
563.995	3.93739
564.193	5.10286
564.392	4.39052
564.59	5.9975
564.789	3.45524
564.988	4.3304
565.186	4.67663
565.385	4.38416
565.583	4.28642
565.782	4.38921
565.98	4.37569
566.179	4.436
566.377	3.79305
566.575	4.05967
566.774	5.19067
566.972	5.01817
567.171	5.7727
567.369	5.2602
567.567	4.60202
567.766	4.92071
567.964	3.38566
568.162	4.99413
568.361	5.17423
568.559	4.56529
568.757	4.99904
568.956	4.69288
569.154	4.57617
569.352	5.01622
569.55	4.62572
569.748	4.57717
569.947	4.08186
570.145	4.1225
570.343	3.85687
570.541	5.19242
570.739	3.71802
570.937	4.54385
571.135	4.79028
571.333	5.46444
571.532	5.38314
571.73	4.70794
571.928	5.10916
572.126	4.75727
572.324	4.30113
572.522	5.34759
572.72	6.2063
572.918	4.54118
573.116	4.7928
573.313	4.64172
573.511	4.53437
573.709	4.40984
573.907	4.97722
574.105	4.39896
574.303	3.62573
574.501	3.74896
574.699	4.77761
574.896	4.80528
575.094	4.92706
575.292	3.77472
575.49	5.15699
575.688	4.47801
575.885	5.48573
576.083	5.79826
576.281	4.9105
576.478	4.34547
576.676	5.03278
576.874	3.98298
577.071	4.56371
577.269	6.3053
577.467	4.7269
577.664	4.70391
577.862	5.25323
578.059	4.32429
578.257	5.40018
578.455	4.67163
578.652	4.83178
578.85	3.55182
579.047	4.8721
579.245	4.9436
579.442	4.6762
579.64	4.85756
579.837	3.60266
580.034	6.49276
580.232	4.7129
580.429	4.10335
580.627	5.19339
580.824	5.83623
581.021	5.20622
581.219	4.5885
581.416	4.20888
581.613	6.05763
581.811	5.81399
582.008	4.30709
582.205	5.58895
582.402	5.05655
582.6	5.90413
582.797	5.09549
582.994	5.33186
583.191	5.44146
583.388	4.91562
583.586	5.57565
583.783	5.85071
583.98	4.40566
584.177	5.15067
584.374	2.98784
584.571	4.98089
584.768	4.848
584.965	4.7589
585.162	5.49718
585.359	6.17065
585.556	5.05925
585.753	5.2496
585.95	4.17646
586.147	4.37807
586.344	5.42069
586.541	4.72356
586.738	4.19187
586.935	4.9007
587.132	4.39056
587.329	5.77035
587.526	4.85964
587.722	8.73319
587.919	4.07858
588.116	5.32489
588.313	6.12042
588.51	6.66285
588.706	4.66053
588.903	5.26885
589.1	5.74229
589.297	7.10719
589.493	4.7774
589.69	5.35518
589.887	4.46728
590.083	4.03597
590.28	4.35767
590.477	5.71996
590.673	5.53127
590.87	5.96302
591.067	4.68207
591.263	5.51729
591.46	5.40971
591.656	4.89391
591.853	6.15922
592.049	4.29841
592.246	4.62572
592.442	6.04712
592.639	5.58288
592.835	4.11785
593.032	5.41811
593.228	4.00293
593.425	3.819
593.621	3.72699
593.817	5.0409
594.014	4.28938
594.21	5.05042
594.406	5.66835
594.603	5.41992
594.799	4.56644
594.995	3.20345
595.192	5.8063
595.388	4.59276
595.584	4.49775
595.78	3.72825
595.977	6.27097
596.173	6.0707
596.369	4.6415
596.565	4.08651
596.761	3.67411
596.957	5.7111
597.154	4.18974
597.35	4.42266
597.546	4.15693
597.742	5.26876
597.938	5.05937
598.134	4.27879
598.33	5.08166
598.526	6.31723
598.722	5.43136
598.918	6.64147
599.114	5.46159
599.31	4.43509
599.506	5.2454
599.702	4.49101
599.898	5.52386
600.094	6.05632
600.29	5.69823
600.485	5.8948
600.681	4.75627
600.877	6.58707
601.073	5.20169
601.269	6.69657
601.465	6.08647
601.66	4.45615
601.856	3.60849
602.052	6.24347
602.248	4.66335
602.443	3.43475
602.639	3.99741
602.835	4.15328
603.03	4.2451
603.226	5.58164
603.422	4.01526
603.617	4.50165
603.813	4.41446
604.009	4.21894
604.204	5.53015
604.4	3.48919
604.595	5.35599
604.791	4.01924
604.986	4.90562
605.182	4.16303
605.377	4.47983
605.573	4.45602
605.768	4.98287
605.964	5.41276
606.159	5.50075
606.355	6.10069
606.55	4.73481
606.746	5.91132
606.941	5.14655
607.136	6.89275
607.332	7.59311
607.527	4.09519
607.722	5.37158
607.918	5.15319
608.113	4.2895
608.308	5.49346
608.503	5.28329
608.699	5.23407
608.894	5.36681
609.089	4.17676
609.284	5.02358
609.479	4.4043
609.675	5.34912
609.87	4.60961
610.065	5.46312
610.26	5.76849
610.455	5.72802
610.65	4.82538
610.845	5.22824
611.04	5.86795
611.235	5.03693
611.43	4.86328
611.625	4.25111
611.82	6.57877
612.015	4.47326
612.21	6.60448
612.405	4.03888
612.6	7.12408
612.795	6.50735
612.99	5.8905
613.185	4.33466
613.38	4.74204
613.575	5.69643
613.77	7.94611
613.965	3.95881
614.159	4.61668
614.354	6.66056
614.549	6.3432
614.744	6.14429
614.938	4.54525
615.133	4.06878
615.328	6.66631
615.523	6.0617
615.717	8.33487
615.912	4.91802
616.107	5.6554
616.301	5.07453
616.496	4.94001
616.691	7.27776
616.885	6.36605
617.08	8.08575
617.274	6.69858
617.469	7.75153
617.664	6.16999
617.858	4.97375
618.053	5.92444
618.247	5.34202
618.442	3.72623
618.636	6.93761
618.831	4.99934
619.025	5.01144
619.219	8.27124
619.414	2.30038
619.608	5.62357
619.803	4.74749
619.997	7.78816
620.191	6.81601
620.386	5.99424
620.58	5.82321
620.774	3.74571
620.969	4.20621
621.163	5.83276
621.357	4.46818
621.551	5.37394
621.746	5.83007
621.94	5.54663
622.134	9.30827
622.328	7.72327
622.522	4.00091
622.716	6.91344
622.911	6.81389
623.105	6.5773
623.299	6.24269
623.493	9.29869
623.687	4.85251
623.881	5.22494
624.075	6.42948
624.269	6.93977
624.463	3.82189
624.657	4.03582
624.851	6.15439
625.045	6.68656
625.239	6.58822
625.433	4.84256
625.627	6.94895
625.821	5.01577
626.015	4.65577
626.209	5.6004
626.403	4.12375
626.596	5.71839
626.79	6.28114
626.984	4.16774
627.178	5.8807
627.372	5.8958
627.565	6.41182
627.759	4.02834
627.953	4.10976
628.147	5.9523
628.34	6.2472
628.534	7.78731
628.728	5.35637
628.921	6.76769
629.115	6.44756
629.309	6.81954
629.502	6.6636
629.696	5.99728
629.89	5.67774
630.083	6.22609
630.277	6.14707
630.47	7.93284
630.664	5.61462
630.857	4.36736
631.051	6.81376
631.244	7.22721
631.438	6.94875
631.631	5.10137
631.825	7.41557
632.018	6.79356
632.212	8.20098
632.405	7.46901
632.598	5.21049
632.792	6.21364
632.985	3.1762
633.178	5.58573
633.372	5.82054
633.565	5.85312
633.758	7.48569
633.952	4.79854
634.145	5.05056
634.338	5.80171
634.531	5.42385
634.724	5.15289
634.918	6.09268
635.111	5.70182
635.304	5.4812
635.497	8.58546
635.69	6.3516
635.883	7.52155
636.077	4.58335
636.27	6.85917
636.463	6.17872
636.656	6.64468
636.849	5.60676
637.042	6.47739
637.235	8.04307
637.428	7.01335
637.621	6.7679
637.814	7.99489
638.007	8.15696
638.2	8.39815
638.393	8.89036
638.586	4.72552
638.778	5.85586
638.971	6.64045
639.164	8.82419
639.357	7.06184
639.55	8.38276
639.743	7.69805
639.935	7.49136
640.128	9.12843
640.321	7.42946
640.514	7.05082
640.707	9.88041
640.899	7.57877
641.092	4.41071
641.285	16.03248
641.477	3.84541
641.67	9.7425
641.863	8.44803
642.055	7.17912
642.248	6.86668
642.441	6.43793
642.633	7.31731
642.826	9.0278
643.018	8.83224
643.211	9.55645
643.403	8.93232
643.596	10.1315
643.788	9.58838
643.981	6.62129
644.173	8.3438
644.366	6.81353
644.558	4.65914
644.751	8.36401
644.943	5.24742
645.135	9.61701
645.328	9.79439
645.52	8.11711
645.712	8.58199
645.905	11.86499
646.097	5.8764
646.289	7.60572
646.482	10.12308
646.674	6.44938
646.866	8.86403
647.058	8.12579
647.251	5.66495
647.443	6.47356
647.635	7.08232
647.827	5.74825
648.019	5.91575
648.211	7.53766
648.404	7.48063
648.596	9.73233
648.788	7.77902
648.98	7.82331
649.172	7.9849
649.364	7.75598
649.556	4.70453
649.748	11.24566
649.94	6.3622
650.132	8.01288
650.324	6.02791
650.516	6.31383
650.708	9.05858
650.9	5.16551
651.092	4.89686
651.284	4.95141
651.476	5.48512
651.667	8.21355
651.859	8.87203
652.051	7.17245
652.243	7.43581
652.435	6.35868
652.627	7.89946
652.818	8.01912
653.01	4.83863
653.202	5.89483
653.394	6.66779
653.585	8.2624
653.777	14.49432
653.969	9.42284
654.16	9.37985
654.352	5.93013
654.544	7.56701
654.735	9.13708
654.927	7.94587
655.118	10.0634
655.31	8.84904
655.502	8.98435
655.693	6.80869
655.885	8.59072
656.076	9.96396
656.268	7.41357
656.459	9.73679
656.651	9.65956
656.842	6.75922
657.034	6.40897
657.225	8.81112
657.416	9.86569
657.608	9.82579
657.799	6.9779
657.99	9.1291
658.182	6.11215
658.373	6.19613
658.564	8.11361
658.756	7.02171
658.947	6.68733
659.138	5.66343
659.33	6.2484
659.521	5.68312
659.712	6.75749
659.903	6.71435
660.094	6.20147
660.286	4.7287
660.477	10.37349
660.668	8.31219
660.859	7.42402
661.05	5.16611
661.241	8.4217
661.432	8.47386
661.623	7.23814
661.814	6.84916
662.006	4.89318
662.197	8.6716
662.388	9.79876
662.579	8.46108
662.77	12.91442
662.96	12.83508
663.151	9.69121
663.342	5.32076
663.533	8.97777
663.724	7.86381
663.915	11.17597
664.106	8.10179
664.297	11.57348
664.488	9.48143
664.678	7.3325
664.869	9.42887
665.06	10.05126
665.251	9.01466
665.442	9.33943
665.632	6.72825
665.823	12.00824
666.014	2.97215
666.204	9.35698
666.395	11.00388
666.586	13.76685
666.776	9.85576
666.967	11.80468
667.158	8.50373
667.348	11.43332
667.539	6.52971
667.729	10.20442
667.92	7.14172
668.111	10.25938
668.301	9.53599
668.492	8.07953
668.682	8.38307
668.873	7.95508
669.063	6.42117
669.253	8.73236
669.444	9.8401
669.634	8.19958
669.825	12.00268
670.015	10.425
670.206	7.08618
670.396	12.46323
670.586	8.15339
670.777	9.65525
670.967	4.70387
671.157	8.43469
671.347	7.77003
671.538	11.56173
671.728	9.39545
671.918	12.29089
672.108	11.42076
672.299	8.83809
672.489	9.63041
672.679	7.7737
672.869	10.22793
673.059	12.10355
673.249	9.8848
673.44	7.30002
673.63	8.80468
673.82	10.85137
674.01	7.38008
674.2	9.95763
674.39	14.94177
674.58	9.99329
674.77	9.38904
674.96	8.64532
675.15	17.4897
675.34	11.24135
675.53	9.19355
675.72	8.64471
675.91	6.27129
676.099	12.75429
676.289	13.35569
676.479	11.10426
676.669	8.35418
676.859	10.08494
677.049	7.09551
677.238	9.23993
677.428	12.89204
677.618	9.40237
677.808	10.99158
677.997	10.27254
678.187	7.01521
678.377	9.22069
678.567	8.18746
678.756	7.98295
678.946	8.34381
679.136	6.40446
679.325	7.00487
679.515	7.03228
679.704	6.17607
679.894	9.40022
680.084	8.86268
680.273	10.81295
680.463	6.88174
680.652	6.9711
680.842	8.5536
681.031	10.52731
681.221	7.01675
681.41	10.0238
681.6	8.59819
681.789	10.41902
681.978	11.837
682.168	9.41897
682.357	9.87466
682.547	10.86947
682.736	9.75103
682.925	12.15299
683.115	11.72614
683.304	11.26556
683.493	10.60085
683.682	10.96873
683.872	10.43206
684.061	12.62758
684.25	11.33021
684.439	13.84647
684.629	11.383
684.818	17.76632
685.007	9.67469
685.196	9.51482
685.385	13.48211
685.574	11.33398
685.763	11.11548
685.952	10.55121
686.142	7.87073
686.331	13.46079
686.52	6.45971
686.709	13.7197
686.898	13.55494
687.087	12.15712
687.276	14.63239
687.465	12.80097
687.654	10.1746
687.842	14.36738
688.031	7.58608
688.22	13.60858
688.409	10.95543
688.598	11.20623
688.787	16.61253
688.976	10.823
689.165	14.66107
689.353	9.93004
689.542	11.59338
689.731	12.23099
689.92	15.60516
690.108	13.20494
690.297	9.90401
690.486	11.32871
690.675	12.71163
690.863	15.26096
691.052	15.31977
691.241	12.20217
691.429	11.90024
691.618	14.80615
691.806	8.63345
691.995	10.33105
692.184	11.30314
692.372	10.10135
692.561	11.50843
692.749	11.40028
692.938	17.14441
693.126	12.66742
693.315	10.32243
693.503	12.89413
693.692	12.88199
693.88	14.05471
694.068	17.40776
694.257	11.57143
694.445	12.63517
694.634	6.59007
694.822	14.70424
695.01	15.14317
695.199	14.59413
695.387	16.07938
695.575	14.93784
695.763	11.52313
695.952	11.15056
696.14	7.70902
696.328	9.96165
696.516	11.92916
696.705	12.06063
696.893	11.91356
697.081	7.1861
697.269	12.33622
697.457	8.25904
697.645	7.80045
697.833	12.54288
698.021	8.36763
698.21	8.92392
698.398	9.8334
698.586	7.55279
698.774	6.52427
698.962	9.32657
699.15	7.63896
699.338	6.53111
699.526	11.26526
699.714	8.71815
699.901	9.24664
700.089	13.04793
700.277	8.98948
700.465	10.42954
700.653	13.24518
700.841	12.57301
701.029	9.07068
701.217	14.71651
701.404	12.07742
701.592	15.9541
701.78	16.46651
701.968	10.79987
702.155	11.15426
702.343	8.41231
702.531	15.73175
702.718	13.31063
702.906	11.98811
703.094	10.44338
703.281	15.71372
703.469	11.9449
703.657	15.19729
703.844	21.38212
704.032	17.09206
704.219	10.94098
704.407	13.57271
704.595	16.10584
704.782	12.98605
704.97	11.491
705.157	11.77909
705.345	17.49468
705.532	20.7041
705.719	13.86991
705.907	17.28917
706.094	13.80907
706.282	18.032
706.469	11.93739
706.656	13.33666
706.844	12.28846
707.031	15.78838
707.218	13.88552
707.406	18.11151
707.593	15.45984
707.78	15.00122
707.968	12.72753
708.155	10.75456
708.342	15.11098
708.529	14.84869
708.716	13.74599
708.904	18.77346
709.091	15.74373
709.278	9.99366
709.465	19.58519
709.652	19.07985
709.839	17.78323
710.026	14.70909
710.213	8.68171
710.4	15.25666
710.587	16.50177
710.774	17.74259
710.961	16.94447
711.148	14.40212
711.335	17.86683
711.522	13.44647
711.709	14.84729
711.896	20.66415
712.083	17.4138
712.27	10.88149
712.457	14.9867
712.644	9.4488
712.831	21.27665
713.017	14.64645
713.204	16.50119
713.391	12.48055
713.578	18.82541
713.765	18.31461
713.951	15.81015
714.138	25.03625
714.325	16.80589
714.512	14.70093
714.698	12.15051
714.885	19.90487
715.072	15.69517
715.258	15.63424
715.445	12.53845
715.631	19.26404
715.818	7.0223
716.005	12.57277
716.191	16.99088
716.378	14.11785
716.564	18.62367
716.751	12.14833
716.937	13.29751
717.124	19.22521
717.31	13.0223
717.497	20.08319
717.683	12.91959
717.869	24.62619
718.056	13.64827
718.242	17.26083
718.429	16.04664
718.615	12.36888
718.801	15.95905
718.988	18.8755
719.174	17.50646
719.36	16.11427
719.547	20.73143
719.733	17.065
719.919	17.50895
720.105	19.21234
720.291	15.44325
720.478	17.42904
720.664	15.63929
720.85	14.41701
721.036	27.44028
721.222	21.62425
721.408	16.02227
721.595	24.13397
721.781	23.08321
721.967	20.65583
722.153	22.96898
722.339	19.48466
722.525	18.56901
722.711	12.48741
722.897	11.8708
723.083	15.13053
723.269	21.13456
723.455	26.64167
723.641	27.97349
723.827	17.86588
724.012	19.1226
724.198	15.88498
724.384	22.54523
724.57	19.10534
724.756	11.94779
724.942	10.27155
725.127	20.79394
725.313	23.45285
725.499	22.81222
725.685	24.75
725.87	18.64793
726.056	14.16523
726.242	23.09275
726.428	11.29327
726.613	21.20982
726.799	16.29708
726.985	13.78315
727.17	11.61085
727.356	23.46206
727.541	14.32287
727.727	17.07125
727.913	20.42342
728.098	15.20235
728.284	20.51705
728.469	12.43671
728.655	13.75114
728.84	20.64465
729.026	20.90658
729.211	21.2965
729.397	18.95711
729.582	19.63282
729.767	17.29956
729.953	18.69239
730.138	21.42929
730.323	9.18904
730.509	13.02428
730.694	24.63955
730.879	19.34452
731.065	18.00516
731.25	27.05741
731.435	20.35733
731.621	11.49988
731.806	15.31544
731.991	18.82931
732.176	11.54853
732.361	22.65027
732.547	18.35981
732.732	11.5054
732.917	27.83599
733.102	13.38299
733.287	15.08909
733.472	18.11369
733.657	17.40723
733.842	11.93735
734.027	16.6934
734.212	17.69793
734.397	15.4133
734.582	18.48838
734.767	21.31109
734.952	24.1295
735.137	8.21128
735.322	24.21109
735.507	19.68275
735.692	19.61665
735.877	28.42232
736.062	26.00358
736.247	20.11031
736.431	17.7205
736.616	24.27277
736.801	19.47368
736.986	18.72816
737.171	15.38612
737.355	14.39897
737.54	23.81671
737.725	18.56174
737.909	31.95317
738.094	15.88992
738.279	23.03046
738.463	17.94775
738.648	22.21726
738.833	20.61983
739.017	27.07599
739.202	17.89866
739.386	18.90258
739.571	12.38335
739.756	21.4446
739.94	18.90065
740.125	23.69181
740.309	15.57843
740.494	23.44076
740.678	19.49086
740.863	22.39082
741.047	21.04299
741.231	24.60839
741.416	15.48644
741.6	27.99381
741.785	16.13984
741.969	22.8347
742.153	25.14006
742.338	10.0018
742.522	19.80226
742.706	22.4611
742.89	14.17696
743.075	19.64781
743.259	26.76911
743.443	23.21051
743.627	25.9777
743.812	31.71081
743.996	11.9412
744.18	18.57044
744.364	16.85054
744.548	32.38478
744.732	19.05602
744.916	23.31939
745.1	21.77057
745.285	18.00204
745.469	22.36313
745.653	28.18959
745.837	12.76786
746.021	32.65244
746.205	26.51047
746.389	20.40821
746.573	18.20971
746.757	28.54201
746.94	17.9611
747.124	25.85155
747.308	14.00359
747.492	26.69638
747.676	16.41506
747.86	33.57137
748.044	17.94418
748.227	12.1676
748.411	39.9455
748.595	21.52039
748.779	15.72905
748.963	22.71494
749.146	21.10543
749.33	16.99896
749.514	15.1665
749.697	25.96724
749.881	17.0703
750.065	15.57018
750.248	20.96069
750.432	34.16391
750.616	20.35904
750.799	14.4942
750.983	31.65767
751.166	35.52725
751.35	13.3296
751.533	26.8982
751.717	26.42886
751.9	29.9429
752.084	18.02558
752.267	15.58793
752.451	16.41685
752.634	21.84599
752.818	24.23025
753.001	25.13633
753.184	26.43618
753.368	22.22981
753.551	5.22193
753.734	16.65988
753.918	31.46124
754.101	16.4421
754.284	24.91725
754.467	17.73398
754.651	16.62589
754.834	16.76262
755.017	27.41616
755.2	25.83158
755.384	15.09512
755.567	26.92295
755.75	27.75557
755.933	19.52491
756.116	22.66798
756.299	18.74515
756.482	16.2915
756.665	23.78748
756.848	20.62395
757.032	23.58459
757.215	13.55043
757.398	16.35045
757.581	16.82589
757.764	37.24848
757.947	21.04676
758.129	29.11943
758.312	6.95024
758.495	20.63823
758.678	20.53395
758.861	19.54087
759.044	32.09772
759.227	16.71299
759.41	16.92421
759.592	24.79175
759.775	19.90514
759.958	27.95437
760.141	14.61161
760.324	35.19473
760.506	29.54273
760.689	27.21402
760.872	35.96645
761.054	24.36365
761.237	20.08282
761.42	24.16649
761.602	26.751
761.785	22.78461
761.968	26.9087
762.15	31.99469
762.333	19.8198
762.515	22.91313
762.698	18.27528
762.88	24.96438
763.063	22.93284
763.245	24.85005
763.428	15.80846
763.61	17.17094
763.793	13.6318
763.975	21.60284
764.158	17.96966
764.34	17.14881
764.522	15.16634
764.705	18.31411
764.887	26.60938
765.069	12.56009
765.252	24.73165
765.434	24.87667
765.616	21.09309
765.799	17.51958
765.981	25.88828
766.163	16.227
766.345	26.76834
766.528	17.7359
766.71	9.24853
766.892	22.33228
767.074	28.72848
767.256	20.07702
767.438	32.85773
767.62	23.26076
767.802	35.44025
767.985	25.99975
768.167	35.68676
768.349	17.57778
768.531	25.99734
768.713	23.98744
768.895	27.37427
769.077	25.01819
769.259	38.72595
769.441	55.80936
769.623	28.28507
769.804	34.24896
769.986	32.52107
770.168	40.40479
770.35	47.91973
770.532	33.69519
770.714	37.43698
770.896	39.27396
771.077	15.90157
771.259	40.65643
771.441	32.12336
771.623	44.01338
771.804	53.45335
771.986	14.67681
772.168	25.64836
772.35	41.25211
772.531	52.62928
772.713	31.45182
772.894	43.85071
773.076	29.86148
773.258	26.98996
773.439	41.04761
773.621	47.78313
773.802	21.75525
773.984	27.94374
774.166	33.82119
774.347	45.18619
774.529	42.45432
774.71	15.33414
774.891	31.39722
775.073	28.31434
775.254	47.30404
775.436	25.66602
775.617	49.82961
775.799	28.20356
775.98	45.99462
776.161	50.41157
776.343	48.16794
776.524	30.5924
776.705	28.67142
776.886	15.76101
777.068	36.26737
777.249	58.93663
777.43	50.77397
777.611	21.44039
777.793	28.38111
777.974	48.24684
778.155	27.70068
778.336	24.89555
778.517	55.05576
778.698	26.27512
778.879	15.42214
779.061	8.78543
779.242	36.48775
779.423	37.68395
779.604	27.10695
779.785	31.58107
779.966	34.8625
780.147	42.06435
780.328	44.66401
780.509	64.22154
780.69	39.92672
780.871	25.05921
781.051	19.2848
781.232	36.16602
781.413	34.08965
781.594	29.7448
781.775	28.17689
781.956	25.4657
782.137	13.98917
782.317	26.19128
782.498	36.70885
782.679	34.21635
782.86	34.06018
783.04	25.46216
783.221	36.45732
783.402	51.78516
783.583	34.65123
783.763	38.82981
783.944	28.98405
784.124	18.99644
784.305	49.55957
784.486	37.24016
784.666	30.40824
784.847	16.23937
785.027	58.76881
785.208	25.3517
785.388	26.00477
785.569	26.3851
785.749	30.14507
785.93	27.28646
786.11	17.80134
786.291	38.52047
786.471	33.28606
786.652	40.32483
786.832	32.19116
787.012	36.79007
787.193	22.17361
787.373	33.61105
787.553	29.47513
787.734	36.98146
787.914	28.3864
788.094	37.03229
788.275	36.23328
788.455	28.71754
788.635	20.5342
788.815	35.60789
788.995	21.89846
789.176	20.33621
789.356	25.16734
789.536	30.0097
789.716	38.63287
789.896	24.80727
790.076	27.08344
790.256	34.3833
790.436	11.65114
790.616	23.74411
790.796	34.22297
790.976	27.40992
791.156	24.94343
791.336	41.29099
791.516	36.45227
791.696	29.70621
791.876	18.16854
792.056	32.92744
792.236	40.98912
792.416	38.4406
792.596	36.47179
792.776	36.61838
792.956	37.31629
793.135	47.52507
793.315	22.24649
793.495	45.25785
793.675	38.65553
793.854	40.48204
794.034	41.48923
794.214	21.62803
794.394	38.87051
794.573	45.53479
794.753	33.68289
794.933	23.50432
795.112	34.6877
795.292	40.82451
795.472	53.12583
795.651	21.10337
795.831	31.89923
796.01	28.26124
796.19	30.55441
796.369	31.91692
796.549	38.2528
796.728	30.72937
796.908	19.14621
797.087	22.39895
797.267	29.11978
797.446	21.04231
797.626	38.61416
797.805	36.9555
797.984	25.34131
798.164	39.26363
798.343	22.9214
798.522	35.77736
798.702	32.22633
798.881	20.12928
799.06	29.94302
799.239	13.48933
799.419	23.52309
799.598	48.4848
799.777	37.70521
799.956	44.38643
800.136	28.75684
800.315	24.9262
800.494	35.67559
800.673	44.06278
800.852	39.07657
801.031	42.07206
801.21	37.95188
801.389	27.40285
801.568	34.03434
801.747	51.67657
801.926	32.73856
802.105	49.37857
802.284	27.67513
802.463	47.42206
802.642	32.58425
802.821	34.08629
803	46.62597
803.179	42.75951
803.358	45.88182
803.537	26.93186
803.716	32.12967
803.895	25.51198
804.073	30.27045
804.252	26.40432
804.431	36.44275
804.61	30.39379
804.789	44.35537
804.967	27.69179
805.146	26.9961
805.325	52.27756
805.503	38.32735
805.682	17.33138
805.861	61.33829
806.039	45.26092
806.218	27.56608
806.397	35.81272
806.575	34.1651
806.754	35.88485
806.932	23.50965
807.111	50.42769
807.289	40.74068
807.468	33.83909
807.646	44.19905
807.825	40.08026
808.003	36.86951
808.182	42.33161
808.36	36.13974
808.539	26.03256
808.717	49.1956
808.895	25.55847
809.074	38.38869
809.252	34.05622
809.43	40.82069
809.609	44.48409
809.787	52.0325
809.965	32.69404
810.144	35.26757
810.322	31.61576
810.5	40.05654
810.678	32.5152
810.856	58.32228
811.035	47.65993
811.213	42.13671
811.391	50.55493
811.569	36.26724
811.747	65.98156
811.925	48.38586
812.103	25.10555
812.281	33.47597
812.459	53.98063
812.637	55.49475
812.816	47.01248
812.994	59.29731
813.171	45.80726
813.349	40.08347
813.527	48.22055
813.705	51.16766
813.883	65.98768
814.061	48.9399
814.239	58.87296
814.417	61.58868
814.595	40.05853
814.773	39.76907
814.95	39.03128
815.128	39.88839
815.306	29.57433
815.484	33.59547
815.662	27.49147
815.839	24.13529
816.017	27.04795
816.195	52.99
816.372	32.93419
816.55	42.24653
816.728	52.30993
816.905	33.37639
817.083	57.812
817.261	36.53911
817.438	60.2693
817.616	58.85493
817.793	30.6796
817.971	46.11557
818.148	42.97342
818.326	51.8674
818.503	40.38995
818.681	51.60279
818.858	30.19123
819.036	34.57371
819.213	39.52167
819.391	27.54124
819.568	27.60793
819.745	25.60339
819.923	44.27725
820.1	30.4928
820.277	25.95054
820.455	31.04638
820.632	31.68136
820.809	32.11731
820.986	21.59367
821.164	17.82282
821.341	15.77089
821.518	20.90882
821.695	15.46166
821.872	14.73835
822.05	12.47614
822.227	9.50776
822.404	10.13378
822.581	12.52345
822.758	9.74538
822.935	9.94921
823.112	12.00706
823.289	9.16368
823.466	12.02773
823.643	11.26424
823.82	14.24114
823.997	12.91016
824.174	15.83456
824.351	20.47481
824.528	19.67501
824.705	17.7494
824.882	20.26264
825.059	26.25373
825.236	17.57173
825.412	18.8724
825.589	23.65535
825.766	31.77232
825.943	20.82912
826.12	24.33748
826.296	15.94247
826.473	20.37725
826.65	20.91528
826.827	25.91287
827.003	17.43545
827.18	18.69407
827.357	21.61543
827.533	19.26956
827.71	10.23408
827.887	16.63712
828.063	18.74478
828.24	16.87442
828.416	23.70264
828.593	19.1663
828.769	27.02903
828.946	31.17893
829.122	31.21738
829.299	28.29415
829.475	17.6007
829.652	29.16348
829.828	47.86091
830.005	29.99188
830.181	40.81941
830.357	28.18424
830.534	43.91906
830.71	32.57002
830.886	41.58214
831.063	39.76506
831.239	51.10237
831.415	23.49405
831.592	50.95406
831.768	32.01554
831.944	27.53175
832.12	49.50658
832.296	45.49028
832.473	42.2014
832.649	29.05009
832.825	39.41592
833.001	22.12334
833.177	36.27208
833.353	32.8343
833.529	18.33899
833.705	26.79303
833.881	19.54189
834.058	19.56843
834.234	20.89476
834.41	20.862
834.586	16.4528
834.761	20.78187
834.937	22.58043
835.113	23.90005
835.289	21.19304
835.465	25.55055
835.641	20.71589
835.817	25.27879
835.993	45.34792
836.169	22.62524
836.344	33.89991
836.52	37.70582
836.696	37.43744
836.872	26.30946
837.048	71.91236
837.223	30.52849
837.399	60.88294
837.575	47.56175
837.75	45.08893
837.926	58.30397
838.102	96.09667
838.277	73.33508
838.453	91.42041
838.628	89.81867
838.804	39.35701
838.98	84.69835
839.155	42.45287
839.331	58.02492
839.506	42.37235
839.682	42.37352
839.857	53.71767
840.033	61.43125
840.208	32.06476
840.384	17.05806
840.559	31.94686
840.734	48.73232
840.91	71.46714
841.085	44.09375
841.26	40.1484
841.436	39.68914
841.611	37.85935
841.786	59.09812
841.962	74.0805
842.137	48.25953
842.312	30.20936
842.487	40.00506
842.663	33.46546
842.838	39.10968
843.013	134.63755
843.188	67.48191
843.363	51.80342
843.538	116.18111
843.714	115.26012
843.889	120.09857
844.064	114.73054
844.239	99.23904
844.414	124.8118
844.589	78.78248
844.764	129.38677
844.939	132.75042
845.114	158.43394
845.289	158.20562
845.464	168.33809
845.639	133.15103
845.814	68.35203
845.989	82.87652
846.163	90.7183
846.338	105.31333
846.513	148.67085
846.688	98.88458
846.863	98.72491
847.038	90.24933
847.212	103.68587
847.387	103.62316
847.562	112.24302
847.737	132.65306
847.911	53.2929
848.086	69.75122
848.261	223.86745
848.435	87.1058
848.61	137.43496
848.785	65.0403
848.959	128.7897
849.134	175.57486
849.308	217.15859
849.483	108.33764
849.658	157.10757
849.832	90.50954
850.007	78.66427
850.181	223.11599
850.356	80.98088
850.53	190.06618
850.705	60.90242
850.879	45.4989
851.053	91.82575
851.228	86.03471
851.402	123.5314
851.577	156.30285
851.751	155.8359
851.925	111.03975
852.099	44.64104
852.274	77.53243
852.448	95.63513
852.622	135.33042
852.797	101.71092
852.971	99.18563
853.145	116.79694
853.319	233.24779
853.493	170.29323
853.668	86.32744
853.842	194.79283
854.016	155.59032
854.19	182.32423
854.364	113.11021
854.538	125.76692
854.712	156.87434
854.886	107.7233
855.06	87.67451
855.234	38.85378
855.408	182.1632
855.582	154.6057
855.756	164.50403
855.93	186.88364
856.104	112.50356
856.278	149.71607
856.452	95.99898
856.626	130.61195
856.8	221.08014
856.973	132.03446
857.147	118.69815
857.321	134.90517
857.495	147.80507
857.669	104.54528
857.842	96.2669
858.016	156.24197
858.19	76.43137
858.364	285.39626
858.537	94.48133
858.711	118.45358
858.885	99.22044
859.058	88.84905
859.232	51.12351
859.405	53.2324
859.579	144.53411
859.753	124.85582
859.926	76.09766
860.1	46.74956
860.273	102.4448
860.447	178.32863
860.62	101.2931
860.794	200.11477
860.967	125.521
861.141	167.34564
861.314	238.68291
861.487	121.27535
861.661	165.21254
861.834	190.3981
862.008	154.92424
862.181	105.6546
862.354	112.82747
862.528	133.39867
862.701	91.21318
862.874	59.65075
863.047	97.51124
863.221	84.97619
863.394	50.49447
863.567	163.47676
863.74	41.37398
863.913	150.98605
864.087	124.4602
864.26	143.32479
864.433	102.13367
864.606	206.61037
864.779	110.83879
864.952	51.6011
865.125	90.63425
865.298	109.94206
865.471	111.28709
865.644	187.56504
865.817	152.52284
865.99	152.30823
866.163	181.87391
866.336	90.70241
866.509	105.04977
866.682	85.76828
866.855	165.76016
867.028	65.75958
867.2	129.29378
867.373	39.45139
867.546	111.8084
867.719	198.90108
867.892	122.74025
868.064	78.08574
868.237	124.88743
868.41	111.3112
868.583	61.69881
868.755	64.07831
868.928	98.26797
869.101	226.05903
869.273	151.74229
869.446	121.82629
869.619	162.69289
869.791	108.41098
869.964	153.89087
870.136	148.36883
870.309	119.90669
870.481	106.77479
870.654	58.51635
870.826	125.72262
870.999	89.69879
871.171	129.46977
871.344	78.45752
871.516	96.46307
871.689	75.15704
871.861	113.91446
872.033	74.50249
872.206	91.64439
872.378	152.40278
872.55	93.00579
872.723	59.38882
872.895	95.59974
873.067	148.92646
873.24	155.39606
873.412	81.93032
873.584	98.93034
873.756	91.10015
873.928	117.47173
874.101	121.21412
874.273	128.10544
874.445	42.75429
874.617	66.12918
874.789	112.29289
874.961	91.09264
875.133	127.67682
875.305	103.86741
875.477	70.41204
875.649	56.79433
875.821	70.61061
875.993	164.46742
876.165	66.52433
876.337	117.33691
876.509	102.53918
876.681	109.65503
876.853	110.44717
877.025	107.58034
877.197	71.40326
877.369	66.11951
877.541	131.29576
877.712	35.18521
877.884	57.48523
878.056	114.06223
878.228	58.59234
878.4	119.41229
878.571	64.04587
878.743	46.30387
878.915	92.81231
879.086	60.12949
879.258	75.88926
879.43	61.23666
879.601	54.95009
879.773	60.93275
879.945	16.69689
880.116	25.19871
880.288	16.55602
880.459	18.52274
880.631	14.21068
880.802	17.10293
880.974	16.2814
881.145	11.35657
881.317	15.62695
881.488	11.08686
881.66	12.64485
881.831	12.08832
882.002	16.64284
882.174	11.42945
882.345	15.37794
882.517	7.67314
882.688	19.4688
882.859	15.2513
883.03	25.09954
883.202	25.20952
883.373	20.90605
883.544	20.10674
883.715	33.31981
883.887	29.49124
884.058	24.70846
884.229	34.70369
884.4	35.99052
884.571	41.33539
884.742	34.11687
884.914	35.72299
885.085	54.47418
885.256	71.04905
885.427	58.20555
885.598	69.02267
885.769	67.41956
885.94	68.68044
886.111	46.72664
886.282	82.85785
886.453	60.75298
886.624	48.77237
886.795	81.76088
886.966	69.29636
887.136	91.58198
887.307	61.65617
887.478	122.42653
887.649	94.98272
887.82	106.01407
887.991	84.47123
888.161	120.74287
888.332	106.814
888.503	53.86633
888.674	149.36888
888.844	171.84075
889.015	125.56274
889.186	59.99265
889.356	164.53596
889.527	57.66833
889.698	225.20742
889.868	79.23987
890.039	117.27305
890.209	96.03688
890.38	123.69795
890.551	108.50187
890.721	169.10927
890.892	129.40898
891.062	93.91123
891.233	116.60239
891.403	91.49767
891.574	72.55869
891.744	88.3645
891.914	108.27554
892.085	98.63535
892.255	37.0156
892.425	150.05287
892.596	112.76904
892.766	110.87242
892.936	148.52486
893.107	127.40583
893.277	64.37431
893.447	53.49577
893.618	35.58822
893.788	76.20155
893.958	43.5577
894.128	40.65562
894.298	48.52338
894.468	63.67736
894.639	30.46012
894.809	21.25901
894.979	33.83157
895.149	39.80986
895.319	32.10166
895.489	48.40392
895.659	59.7991
895.829	39.63807
895.999	43.82405
896.169	34.83295
896.339	38.51549
896.509	80.28882
896.679	90.70924
896.849	90.35148
897.019	124.3299
897.189	93.22635
897.358	83.87045
897.528	132.08285
897.698	40.85753
897.868	109.39882
898.038	194.64595
898.208	199.12545
898.377	53.12979
898.547	194.20031
898.717	244.13251
898.886	117.46666
899.056	198.69705
899.226	266.53376
899.395	159.53034
899.565	234.20554
899.735	161.63035
899.904	225.08838
900.074	214.45234
900.244	85.85659
900.413	340.67123
900.583	70.51793
900.752	138.83006
900.922	262.97228
901.091	23.60679
901.261	190.66989
901.43	179.49897
901.599	173.55591
901.769	423.46969
901.938	233.88197
902.108	192.95581
902.277	271.49122
902.446	72.51788
902.616	87.93341
902.785	101.39982
902.954	186.90473
903.124	116.18906
903.293	86.8067
903.462	52.54718
903.631	75.8152
903.801	56.69105
903.97	30.33846
904.139	46.51425
904.308	38.64293
904.477	31.653
904.646	19.65787
904.816	24.39176
904.985	46.10994
905.154	69.62846
