Data from WindowProjectSample_Transmission__43__00043.txt Node

Date: Sat May 03 16:33:57 EDT 2025
User: jessi
Spectrometer: SR400872
Trigger mode: 0
Integration Time (sec): 5.000010E-1
Scans to average: 6
Electric dark correction enabled: true
Nonlinearity correction enabled: true
Boxcar width: 0
XAxis mode: Wavelengths
Number of Pixels in Spectrum: 3648
>>>>>Begin Spectral Data<<<<<
184.909	180849.38479
185.132	1686.52686
185.355	-2071.1006
185.578	3314.72781
185.801	-599.68994
186.024	6205.02174
186.247	1117.60678
186.47	1033.41039
186.693	-78.37563
186.916	329.81792
187.139	10467.16159
187.362	3581.43823
187.585	2599.45937
187.808	-1430.82429
188.031	117.63026
188.254	7926.32345
188.476	493.58822
188.699	-4229.36247
188.922	-478.96903
189.145	-4485.07066
189.368	-494.30081
189.591	-1006.41002
189.813	-2227.16614
190.036	4934.39619
190.259	3496.77993
190.482	2169.96765
190.705	8555.96633
190.927	-1676.8795
191.15	-1662.84068
191.373	4603.73425
191.595	-2069.60572
191.818	9276.04277
192.041	-235.89615
192.263	-2450.0826
192.486	-797.17456
192.709	9601.91364
192.931	-2506.02212
193.154	-2037.41904
193.377	4765.80511
193.599	6377.46429
193.822	-1843.30306
194.044	-1918.62699
194.267	644.77565
194.489	194.67687
194.712	2176.94772
194.934	3504.30945
195.157	-7555.60662
195.379	2220.91901
195.602	5418.2247
195.824	5458.82219
196.047	-9081.71057
196.269	-10862.94896
196.492	-1226.68041
196.714	-5172.73542
196.936	4692.68221
197.159	-2430.69245
197.381	-618.90381
197.604	1273.39534
197.826	-3529.21069
198.048	-1295.34197
198.271	-12593.62437
198.493	9711.79061
198.715	-2522.35787
198.938	-703.15997
199.16	-3907.10657
199.382	1875.24816
199.604	-1361.32328
199.827	-1339.11889
200.049	-4384.5391
200.271	2551.16236
200.493	-27861.0602
200.715	4695.21657
200.938	12583.50583
201.16	-249855.64907
201.382	-5775.69359
201.604	-1115.31928
201.826	-6957.28589
202.048	-7320.42793
202.27	-4683.47006
202.492	-3498.46968
202.715	-1481.15127
202.937	-3808.76656
203.159	1133.56337
203.381	-91271.7594
203.603	-1036.44889
203.825	-1243.72716
204.047	2273.98048
204.269	-898.19789
204.491	6580.06163
204.713	-8730.88947
204.935	38089.92553
205.156	2112.19907
205.378	-7289.99829
205.6	-1735.13309
205.822	6399.77367
206.044	-314.62293
206.266	-2067.08649
206.488	750.36882
206.71	-517177.48503
206.932	-17052.56326
207.153	10773.74982
207.375	-2270.3557
207.597	15698.60993
207.819	1758.29508
208.041	6388.44727
208.262	624.79523
208.484	-997.42591
208.706	-893.7918
208.927	10268.73452
209.149	-8138.27251
209.371	-2854.76148
209.593	-2042.88462
209.814	-4244.28861
210.036	2835.89467
210.258	-685.42102
210.479	1864.04695
210.701	801.06263
210.922	4022.62171
211.144	-1456.70047
211.366	5921.84471
211.587	-754.7661
211.809	-3524.96896
212.03	-2305.6561
212.252	-371.68652
212.473	3077.34903
212.695	-842.91462
212.916	-903.00911
213.138	777.00595
213.359	-1239.76062
213.581	-3289.51229
213.802	-1297.69066
214.024	10825.76443
214.245	-1062.57083
214.466	-185.82142
214.688	-3650.43605
214.909	-821.08962
215.131	9280.00254
215.352	-1310.86685
215.573	-252149.2891
215.795	4498.24379
216.016	-3953.80819
216.237	-484.80955
216.459	-11632.39848
216.68	-1670.12205
216.901	-1671.76035
217.122	1905.26503
217.344	-8624.01927
217.565	-1594.16964
217.786	23946.30308
218.007	1044.66079
218.228	-4473.91884
218.45	-5940.64193
218.671	-1639.47849
218.892	944.36737
219.113	1619.0409
219.334	369.40935
219.555	-6274.86005
219.776	34335.12397
219.997	-6508.44767
220.219	-9205.94132
220.44	-4810.31136
220.661	-1364.08703
220.882	14154.77726
221.103	-758.40905
221.324	2765.15883
221.545	-6607.29312
221.766	-1478.53322
221.987	-421.48538
222.208	1969.54958
222.429	6452.2936
222.65	-153.96793
222.87	-529.49754
223.091	35544.9927
223.312	757.34403
223.533	-2289.48456
223.754	3670.18242
223.975	1764.79911
224.196	-818.64545
224.417	-29856.9682
224.637	-2527.60234
224.858	401.5893
225.079	3625.12614
225.3	1729.30337
225.521	3589.91785
225.741	-2568.49728
225.962	1687.32182
226.183	947.51552
226.404	1814.10001
226.624	1809.76799
226.845	1412.89495
227.066	2447.78555
227.286	652.87597
227.507	420.23935
227.728	388.57602
227.948	534.40977
228.169	141.90138
228.389	133.13867
228.61	57.67385
228.831	82.48828
229.051	11.69963
229.272	46.35302
229.492	65.57469
229.713	23.88384
229.933	51.36504
230.154	39.44285
230.374	72.25031
230.595	57.30534
230.815	36.64823
231.036	55.23121
231.256	-11.89682
231.477	105.13045
231.697	57.82698
231.917	58.51986
232.138	87.18535
232.358	177.0932
232.579	172.55304
232.799	28.60609
233.019	159.64826
233.24	247.11035
233.46	70.20974
233.68	109.43758
233.901	94.12909
234.121	50.33052
234.341	24.00776
234.561	-11.71871
234.782	36.95509
235.002	123.23128
235.222	-1.9854
235.442	100.46446
235.662	47.84626
235.883	107.72202
236.103	82.23364
236.323	67.14074
236.543	48.8037
236.763	72.0253
236.983	72.97318
237.203	83.6887
237.423	102.24519
237.643	152.42555
237.864	140.06968
238.084	27.73377
238.304	48.89357
238.524	85.20659
238.744	61.60922
238.964	110.74222
239.184	102.02312
239.404	101.74249
239.624	54.25351
239.843	101.8482
240.063	53.17481
240.283	35.18275
240.503	38.16722
240.723	35.08492
240.943	20.10574
241.163	26.56484
241.383	19.56003
241.603	9.82739
241.822	12.81712
242.042	8.51912
242.262	10.39301
242.482	11.86739
242.702	14.25353
242.921	5.26535
243.141	9.81218
243.361	7.94384
243.581	11.87296
243.8	11.56749
244.02	7.26151
244.24	14.79653
244.459	13.47126
244.679	27.46423
244.899	16.29876
245.118	21.74499
245.338	16.6098
245.558	21.11269
245.777	11.51232
245.997	13.47559
246.216	13.95324
246.436	7.2976
246.655	5.67229
246.875	4.37033
247.094	8.18761
247.314	2.84081
247.533	4.77146
247.753	5.74107
247.972	4.60577
248.192	1.84721
248.411	2.87648
248.631	5.44597
248.85	6.28925
249.07	4.68387
249.289	8.32764
249.508	5.96114
249.728	10.81066
249.947	11.65538
250.166	12.10991
250.386	6.56173
250.605	10.76872
250.824	15.14095
251.044	12.12452
251.263	37.02445
251.482	18.27286
251.701	17.58525
251.921	-0.07363
252.14	4.53611
252.359	6.12484
252.578	14.11151
252.798	4.82936
253.017	12.47334
253.236	6.83936
253.455	7.97192
253.674	17.27854
253.893	7.47399
254.112	11.52337
254.331	17.13901
254.551	14.67935
254.77	7.25869
254.989	21.69841
255.208	17.72745
255.427	20.98786
255.646	19.9099
255.865	32.26709
256.084	11.84267
256.303	16.87413
256.522	20.51489
256.741	4.49051
256.96	6.95762
257.179	12.61219
257.397	15.70149
257.616	8.50915
257.835	8.6759
258.054	21.79319
258.273	13.40097
258.492	15.78997
258.711	9.22778
258.93	4.12748
259.148	5.57201
259.367	5.57451
259.586	7.40808
259.805	3.36083
260.023	6.73659
260.242	5.23981
260.461	3.75612
260.68	2.11688
260.898	5.72102
261.117	1.99344
261.336	1.50737
261.554	5.4086
261.773	5.41524
261.992	1.38379
262.21	5.12012
262.429	6.6246
262.648	10.35121
262.866	12.2751
263.085	7.58538
263.303	7.39556
263.522	13.16206
263.74	13.39746
263.959	21.38902
264.178	11.74557
264.396	10.00993
264.615	7.19745
264.833	17.55529
265.051	14.58641
265.27	13.83213
265.488	15.615
265.707	9.62115
265.925	15.53566
266.144	6.61408
266.362	9.172
266.58	9.00477
266.799	6.39684
267.017	8.70829
267.235	7.65546
267.454	4.46658
267.672	2.94487
267.89	5.94866
268.109	6.21654
268.327	6.02698
268.545	1.47523
268.763	5.70862
268.982	2.2227
269.2	7.42487
269.418	4.22989
269.636	3.32925
269.854	6.72549
270.073	5.34192
270.291	2.4274
270.509	3.07109
270.727	5.78309
270.945	10.08382
271.163	10.16655
271.381	2.44983
271.599	4.03111
271.817	7.20677
272.036	2.73863
272.254	4.38268
272.472	3.43082
272.69	3.5801
272.908	3.36354
273.126	5.96543
273.344	7.16986
273.562	2.48075
273.779	3.70687
273.997	5.16459
274.215	6.02833
274.433	4.13501
274.651	6.47291
274.869	6.48562
275.087	4.04054
275.305	6.10644
275.523	3.46896
275.74	4.77148
275.958	7.56874
276.176	11.12238
276.394	3.42695
276.612	4.51198
276.829	4.48027
277.047	3.64385
277.265	4.34929
277.483	5.56776
277.7	6.52848
277.918	5.4464
278.136	9.02044
278.353	4.18822
278.571	2.39365
278.789	7.3253
279.006	1.62992
279.224	4.50419
279.442	6.97128
279.659	5.40582
279.877	4.05624
280.094	7.86562
280.312	1.42966
280.529	5.13474
280.747	1.20336
280.964	3.47751
281.182	8.23459
281.399	3.91946
281.617	5.3457
281.834	3.79888
282.052	3.12916
282.269	4.37034
282.487	3.43404
282.704	2.94568
282.921	3.05797
283.139	4.65294
283.356	5.9286
283.574	5.07772
283.791	2.67485
284.008	7.51707
284.226	4.0567
284.443	4.24786
284.66	5.54717
284.877	4.71473
285.095	3.32985
285.312	2.01735
285.529	1.63438
285.746	1.37847
285.964	2.80712
286.181	1.87821
286.398	2.84772
286.615	3.72587
286.832	3.41561
287.05	1.02462
287.267	2.69919
287.484	2.84168
287.701	3.98407
287.918	3.89084
288.135	3.80219
288.352	1.87824
288.569	2.12102
288.786	3.36031
289.003	2.73562
289.22	4.18
289.437	2.59474
289.654	4.09638
289.871	4.43182
290.088	4.05698
290.305	3.13887
290.522	2.34561
290.739	3.1075
290.956	4.35441
291.173	5.4781
291.39	4.69592
291.607	3.63435
291.824	2.57631
292.04	1.42258
292.257	3.88372
292.474	4.73899
292.691	2.86423
292.908	1.59906
293.125	2.55655
293.341	1.49674
293.558	7.21249
293.775	2.88741
293.992	3.15511
294.208	1.11019
294.425	1.72464
294.642	2.3725
294.858	4.08292
295.075	1.0195
295.292	2.69949
295.508	3.40416
295.725	5.24093
295.942	2.6394
296.158	1.80678
296.375	3.05805
296.591	2.32671
296.808	2.44691
297.024	2.77023
297.241	2.94162
297.458	3.20709
297.674	0.31443
297.891	2.71826
298.107	1.968
298.323	1.6099
298.54	3.89885
298.756	1.80401
298.973	0.8477
299.189	4.03667
299.406	1.83974
299.622	4.12615
299.838	3.99328
300.055	3.85454
300.271	1.02264
300.487	1.32056
300.704	1.68723
300.92	0.95461
301.136	5.57933
301.353	3.96067
301.569	2.81844
301.785	3.2685
302.001	3.72065
302.218	3.43392
302.434	3.14899
302.65	1.07898
302.866	2.40861
303.083	5.36958
303.299	5.20282
303.515	2.85207
303.731	3.00723
303.947	1.20099
304.163	1.71007
304.379	3.25079
304.595	3.6024
304.812	2.14491
305.028	1.77912
305.244	2.42688
305.46	3.76961
305.676	3.96086
305.892	4.53143
306.108	3.01118
306.324	2.15494
306.54	5.2576
306.756	3.7778
306.972	3.42635
307.187	2.56423
307.403	4.76709
307.619	2.17308
307.835	4.01041
308.051	4.8171
308.267	1.2205
308.483	4.22245
308.699	3.47975
308.914	2.99097
309.13	2.66078
309.346	0.84002
309.562	1.37487
309.778	0.96773
309.993	3.43277
310.209	2.54193
310.425	1.10419
310.641	2.34117
310.856	1.22294
311.072	1.4431
311.288	2.39897
311.503	2.83098
311.719	0.65142
311.935	0.45693
312.15	3.19984
312.366	2.79536
312.581	3.29905
312.797	2.7633
313.013	3.49336
313.228	2.02687
313.444	3.04757
313.659	1.89187
313.875	3.10928
314.09	2.51455
314.306	4.34402
314.521	3.83883
314.737	3.6144
314.952	3.20198
315.168	2.62188
315.383	3.62362
315.599	2.33846
315.814	2.1332
316.029	3.78547
316.245	1.10313
316.46	1.13348
316.675	4.25484
316.891	5.14388
317.106	6.46774
317.321	3.73459
317.537	3.5669
317.752	4.01611
317.967	3.72596
318.183	1.8335
318.398	2.30891
318.613	4.44393
318.828	4.63805
319.043	3.9636
319.259	2.34286
319.474	3.60193
319.689	4.27037
319.904	0.69955
320.119	3.78892
320.334	3.07714
320.549	2.64828
320.765	4.21305
320.98	2.94595
321.195	4.00899
321.41	2.60731
321.625	3.99996
321.84	5.15628
322.055	5.14159
322.27	1.85487
322.485	1.62142
322.7	2.83887
322.915	4.31763
323.13	1.96094
323.345	4.69489
323.56	3.83784
323.775	3.80181
323.989	3.37615
324.204	3.00453
324.419	3.77198
324.634	1.27926
324.849	2.58125
325.064	5.93188
325.279	4.2096
325.493	3.76088
325.708	4.1905
325.923	1.8673
326.138	2.06742
326.352	4.8386
326.567	4.02564
326.782	2.36543
326.997	1.92506
327.211	3.46648
327.426	3.35144
327.641	2.30027
327.855	1.3833
328.07	3.62201
328.285	5.03778
328.499	2.6262
328.714	3.43391
328.928	3.74341
329.143	3.1944
329.358	4.09644
329.572	4.39528
329.787	4.7374
330.001	5.97508
330.216	1.12119
330.43	5.61878
330.645	5.16072
330.859	4.04745
331.074	2.11167
331.288	3.21644
331.503	4.74842
331.717	1.50247
331.931	2.98542
332.146	3.05906
332.36	5.28224
332.575	3.76254
332.789	3.23289
333.003	2.8516
333.218	3.70192
333.432	2.45292
333.646	3.40349
333.86	4.88222
334.075	5.19831
334.289	2.67484
334.503	2.04739
334.717	4.28317
334.932	3.64831
335.146	4.73094
335.36	2.96995
335.574	3.58137
335.788	3.68943
336.003	4.56493
336.217	4.10343
336.431	3.6607
336.645	2.1689
336.859	1.63675
337.073	2.72238
337.287	3.53369
337.501	1.70656
337.715	3.21925
337.929	3.72992
338.143	1.69893
338.357	2.82939
338.571	1.8855
338.785	3.55759
338.999	2.22379
339.213	2.54314
339.427	1.257
339.641	4.13428
339.855	2.63854
340.069	2.24273
340.283	4.03964
340.497	4.97896
340.711	3.4123
340.924	2.51203
341.138	1.62109
341.352	1.23016
341.566	3.09863
341.78	1.14154
341.993	2.25469
342.207	1.48131
342.421	3.19314
342.635	3.1442
342.848	2.10171
343.062	0.57978
343.276	2.18659
343.49	5.30052
343.703	2.1429
343.917	3.70977
344.131	3.97092
344.344	2.12589
344.558	2.1216
344.771	1.77786
344.985	4.55574
345.199	4.77671
345.412	3.11257
345.626	3.09916
345.839	1.07247
346.053	1.60386
346.266	1.47944
346.48	3.79046
346.693	3.18659
346.907	3.39551
347.12	1.79503
347.334	3.006
347.547	3.22546
347.76	2.60239
347.974	4.04586
348.187	3.19817
348.401	2.40723
348.614	2.21856
348.827	2.39711
349.041	3.403
349.254	0.85185
349.467	2.62246
349.681	1.21782
349.894	2.03536
350.107	4.15749
350.32	4.48361
350.534	1.12347
350.747	2.14023
350.96	1.80389
351.173	2.0716
351.386	2.37282
351.6	2.18847
351.813	1.90622
352.026	2.62694
352.239	1.4934
352.452	2.1874
352.665	3.80501
352.878	2.35964
353.092	5.2802
353.305	3.44848
353.518	3.05435
353.731	1.69002
353.944	4.21487
354.157	1.73142
354.37	1.80999
354.583	1.22282
354.796	1.08986
355.009	3.76909
355.222	2.63113
355.435	2.7506
355.647	3.88541
355.86	1.72702
356.073	2.32491
356.286	2.0656
356.499	3.25381
356.712	2.99828
356.925	3.00477
357.138	3.64268
357.35	1.47597
357.563	2.05149
357.776	2.71429
357.989	2.27315
358.201	3.14983
358.414	2.58884
358.627	3.79164
358.84	2.30058
359.052	1.35343
359.265	1.43593
359.478	3.67184
359.69	-0.42451
359.903	3.12849
360.116	3.38283
360.328	0.76469
360.541	3.32258
360.753	1.55393
360.966	1.94384
361.179	2.06182
361.391	1.98098
361.604	1.41835
361.816	1.89752
362.029	1.70687
362.241	1.5696
362.454	1.91085
362.666	1.47724
362.879	2.65925
363.091	1.99858
363.304	1.66766
363.516	2.25971
363.728	1.11865
363.941	2.82483
364.153	2.08756
364.366	0.26621
364.578	1.28033
364.79	2.8799
365.003	2.47647
365.215	1.93342
365.427	2.88363
365.639	3.54672
365.852	2.66743
366.064	4.49887
366.276	1.82924
366.488	2.85119
366.701	1.94744
366.913	2.09844
367.125	1.83485
367.337	1.73155
367.549	1.90837
367.762	2.34759
367.974	2.25165
368.186	2.03404
368.398	3.37085
368.61	3.11496
368.822	2.97897
369.034	2.42018
369.246	3.41221
369.458	5.20766
369.67	1.60676
369.882	4.32033
370.094	0.47255
370.306	4.00319
370.518	2.14219
370.73	1.67433
370.942	1.84401
371.154	2.11541
371.366	1.95663
371.578	2.9352
371.79	1.94409
372.002	3.82608
372.214	4.47429
372.425	2.40781
372.637	3.9902
372.849	2.62435
373.061	0.40594
373.273	3.00168
373.484	3.19566
373.696	3.47014
373.908	0.3188
374.12	3.55681
374.331	3.09902
374.543	1.55892
374.755	1.59384
374.967	2.57179
375.178	3.51431
375.39	2.40076
375.602	2.78729
375.813	1.28607
376.025	1.39855
376.236	2.62213
376.448	2.70134
376.66	2.30708
376.871	2.55511
377.083	3.56402
377.294	4.05744
377.506	2.33156
377.717	3.82806
377.929	2.88888
378.14	2.14485
378.352	3.28842
378.563	3.5022
378.775	3.96268
378.986	1.7338
379.197	2.72277
379.409	2.13461
379.62	3.42176
379.832	3.03625
380.043	2.63497
380.254	2.93263
380.466	1.68521
380.677	5.69108
380.888	4.84889
381.1	5.45241
381.311	5.41738
381.522	3.22056
381.733	5.68599
381.945	2.67268
382.156	2.65966
382.367	2.53388
382.578	5.83138
382.789	5.71848
383.001	2.29869
383.212	4.50765
383.423	4.91276
383.634	4.15968
383.845	3.74928
384.056	2.62471
384.267	3.17601
384.478	3.31959
384.69	2.03927
384.901	3.86805
385.112	3.5511
385.323	4.81895
385.534	3.67125
385.745	3.66079
385.956	3.72522
386.167	2.41295
386.378	3.72191
386.588	2.63886
386.799	2.49885
387.01	1.76121
387.221	4.27062
387.432	3.51071
387.643	5.24522
387.854	3.14474
388.065	3.11654
388.275	3.39227
388.486	2.85957
388.697	3.36584
388.908	2.97753
389.119	4.5389
389.329	5.05513
389.54	3.54863
389.751	4.03446
389.962	4.83702
390.172	3.55394
390.383	3.52712
390.594	2.94699
390.804	3.00846
391.015	3.21471
391.226	3.77932
391.436	4.28002
391.647	4.07324
391.858	4.36051
392.068	2.18708
392.279	2.95548
392.489	4.00407
392.7	4.6472
392.91	3.22557
393.121	3.21307
393.331	4.48752
393.542	4.9001
393.752	4.72019
393.963	4.39876
394.173	4.33971
394.384	4.54529
394.594	3.98162
394.804	3.10078
395.015	3.9181
395.225	4.59185
395.436	3.25778
395.646	4.669
395.856	3.81866
396.067	2.89237
396.277	5.02802
396.487	4.45965
396.697	4.54544
396.908	5.26271
397.118	4.71061
397.328	4.59393
397.538	5.23994
397.749	3.89891
397.959	5.13982
398.169	4.95005
398.379	2.84204
398.589	4.68463
398.8	4.759
399.01	4.78457
399.22	4.47747
399.43	6.53406
399.64	4.34954
399.85	5.16482
400.06	4.61425
400.27	3.99688
400.48	4.6431
400.69	5.84852
400.9	4.01874
401.11	3.8428
401.32	5.46829
401.53	4.27426
401.74	5.96996
401.95	5.4043
402.16	4.4402
402.37	5.11785
402.58	4.46088
402.79	5.47124
403	5.65172
403.209	4.38824
403.419	5.7552
403.629	4.41183
403.839	5.8174
404.049	5.84658
404.258	4.75205
404.468	4.76352
404.678	5.88871
404.888	6.29836
405.097	5.0819
405.307	5.15171
405.517	5.82337
405.727	5.66569
405.936	5.02687
406.146	5.72111
406.356	6.5912
406.565	5.20117
406.775	4.86552
406.984	4.94432
407.194	7.05735
407.404	5.55077
407.613	5.87148
407.823	6.27776
408.032	6.63215
408.242	6.19541
408.451	5.05334
408.661	5.45263
408.87	7.03502
409.08	4.85759
409.289	5.88491
409.499	6.00749
409.708	5.57015
409.918	3.97657
410.127	6.1726
410.336	7.28685
410.546	6.52415
410.755	5.53859
410.964	5.58776
411.174	5.01413
411.383	6.2341
411.592	6.03932
411.802	5.36672
412.011	6.84857
412.22	5.75981
412.429	7.16153
412.639	7.26671
412.848	6.86923
413.057	7.67845
413.266	7.14067
413.475	6.2398
413.685	6.95345
413.894	6.91114
414.103	7.06814
414.312	7.13227
414.521	5.975
414.73	6.53121
414.939	8.27252
415.148	6.93185
415.357	6.74632
415.566	6.59164
415.776	6.50482
415.985	6.17785
416.194	7.40733
416.403	8.36046
416.611	5.81335
416.82	6.33728
417.029	7.19684
417.238	6.34071
417.447	6.55487
417.656	6.93887
417.865	6.627
418.074	6.9063
418.283	7.14752
418.492	8.17142
418.7	7.89457
418.909	8.97366
419.118	7.50146
419.327	7.94392
419.536	7.68101
419.744	7.42968
419.953	8.7231
420.162	8.94573
420.371	8.02129
420.579	8.58761
420.788	9.48096
420.997	9.67512
421.205	9.69239
421.414	9.45165
421.623	9.2794
421.831	8.99679
422.04	9.70037
422.249	8.71205
422.457	9.17938
422.666	8.45098
422.874	9.42475
423.083	9.58984
423.291	9.51616
423.5	9.58895
423.708	9.68492
423.917	10.53911
424.125	9.64952
424.334	9.53068
424.542	11.29079
424.751	10.74062
424.959	10.1805
425.167	10.54001
425.376	10.33409
425.584	9.13368
425.793	9.12859
426.001	8.03296
426.209	9.00224
426.418	8.09609
426.626	8.05108
426.834	7.97778
427.042	8.61877
427.251	7.89811
427.459	9.19306
427.667	8.37433
427.875	7.28303
428.084	7.74703
428.292	9.38422
428.5	8.94491
428.708	7.5503
428.916	7.62485
429.124	8.41175
429.333	8.15367
429.541	8.16487
429.749	8.6685
429.957	8.21428
430.165	10.35395
430.373	7.03001
430.581	8.50855
430.789	9.65976
430.997	8.40528
431.205	7.8269
431.413	8.79809
431.621	8.22222
431.829	9.07272
432.037	8.48436
432.245	8.89415
432.453	9.25691
432.661	8.40863
432.869	10.02081
433.076	8.24882
433.284	8.70748
433.492	9.54719
433.7	9.74332
433.908	8.7038
434.116	8.86983
434.323	9.1717
434.531	8.8715
434.739	9.55352
434.947	9.60888
435.154	9.81694
435.362	9.15677
435.57	8.71638
435.778	8.25638
435.985	9.24913
436.193	8.5005
436.401	9.95911
436.608	8.81796
436.816	8.57483
437.023	10.18034
437.231	10.35071
437.439	9.08964
437.646	9.69534
437.854	9.38884
438.061	9.81765
438.269	9.22533
438.476	10.10857
438.684	9.34424
438.891	8.92555
439.099	9.06422
439.306	8.43404
439.514	8.71687
439.721	10.01794
439.929	8.9155
440.136	9.88453
440.343	9.78574
440.551	9.53868
440.758	11.2536
440.965	10.12248
441.173	9.69271
441.38	9.29739
441.587	9.9179
441.795	9.47344
442.002	9.49756
442.209	9.92357
442.416	9.94437
442.624	10.05517
442.831	9.99001
443.038	9.27022
443.245	8.95088
443.452	9.27078
443.66	10.07295
443.867	9.27955
444.074	9.21243
444.281	9.11207
444.488	9.32948
444.695	9.74355
444.902	9.52847
445.109	10.22065
445.316	9.75173
445.523	9.91828
445.73	9.97
445.937	10.90188
446.144	11.38855
446.351	11.99324
446.558	10.49542
446.765	12.62419
446.972	11.96468
447.179	11.19701
447.386	12.00901
447.593	10.29088
447.8	11.36475
448.007	9.95288
448.214	10.15698
448.42	9.87415
448.627	10.96534
448.834	9.85194
449.041	9.8926
449.248	9.82425
449.454	10.62471
449.661	11.26611
449.868	9.65216
450.075	9.5044
450.281	8.68924
450.488	9.06654
450.695	9.2019
450.901	9.19356
451.108	9.59788
451.315	10.53757
451.521	9.5574
451.728	10.77613
451.935	9.435
452.141	9.87134
452.348	9.99313
452.554	9.73494
452.761	9.62732
452.967	11.2305
453.174	10.28079
453.38	10.36646
453.587	9.10316
453.793	10.1664
454	10.379
454.206	11.83236
454.413	10.77861
454.619	10.58792
454.825	9.61836
455.032	10.44809
455.238	10.52205
455.445	9.25387
455.651	10.3186
455.857	8.83606
456.064	9.97984
456.27	10.08573
456.476	9.87511
456.682	9.02988
456.889	10.46178
457.095	10.50047
457.301	11.83145
457.507	10.41111
457.714	10.36674
457.92	10.3071
458.126	9.65806
458.332	10.34618
458.538	9.93734
458.744	10.10087
458.951	10.25965
459.157	11.9092
459.363	10.97528
459.569	11.17628
459.775	11.90022
459.981	11.57131
460.187	11.92322
460.393	12.00345
460.599	12.32238
460.805	11.28279
461.011	10.94532
461.217	11.69988
461.423	11.74275
461.629	10.71146
461.835	11.3
462.041	10.5503
462.247	12.01724
462.453	10.56194
462.658	10.41738
462.864	11.26677
463.07	10.75333
463.276	10.60149
463.482	10.68724
463.688	12.06919
463.893	10.1047
464.099	10.39714
464.305	11.92788
464.511	10.43968
464.716	10.5668
464.922	11.48771
465.128	9.93907
465.333	12.05759
465.539	11.44492
465.745	11.18985
465.95	10.83486
466.156	13.23225
466.362	11.94239
466.567	10.96911
466.773	10.69468
466.978	12.14547
467.184	10.30941
467.389	9.77362
467.595	11.29351
467.8	10.48501
468.006	12.12498
468.211	12.01216
468.417	10.1529
468.622	11.3637
468.828	11.44735
469.033	11.27212
469.239	13.45748
469.444	10.66949
469.649	11.76994
469.855	10.9362
470.06	11.25606
470.266	10.50313
470.471	11.66148
470.676	11.37882
470.881	9.67626
471.087	12.56732
471.292	12.75203
471.497	10.22724
471.703	11.17391
471.908	10.85433
472.113	11.37884
472.318	12.02005
472.523	10.41225
472.729	11.62224
472.934	11.70079
473.139	11.19083
473.344	11.73339
473.549	12.41222
473.754	10.83246
473.959	13.33724
474.164	10.9508
474.369	11.0832
474.575	11.99114
474.78	11.31816
474.985	10.85865
475.19	10.05347
475.395	10.98714
475.6	11.51324
475.804	12.54526
476.009	11.57238
476.214	11.38965
476.419	11.08886
476.624	10.26188
476.829	11.10091
477.034	12.12632
477.239	11.18744
477.444	12.24816
477.648	12.12863
477.853	12.15542
478.058	11.47808
478.263	11.08401
478.468	11.039
478.672	11.28104
478.877	12.9551
479.082	13.04138
479.287	12.08511
479.491	11.75806
479.696	11.09086
479.901	12.38586
480.105	12.30946
480.31	11.34412
480.515	11.91626
480.719	13.60091
480.924	11.52856
481.128	11.03944
481.333	12.12322
481.538	12.14918
481.742	11.77863
481.947	12.86844
482.151	13.88738
482.356	14.9482
482.56	17.59793
482.765	19.65303
482.969	23.79981
483.174	26.72815
483.378	30.93259
483.582	32.14002
483.787	34.18072
483.991	34.40986
484.196	34.69396
484.4	33.8927
484.604	33.63357
484.809	30.30215
485.013	28.55303
485.217	25.4835
485.422	22.51863
485.626	20.39957
485.83	19.47016
486.034	18.91165
486.239	19.6365
486.443	20.0938
486.647	20.71365
486.851	22.46004
487.055	24.44835
487.26	24.24803
487.464	25.60892
487.668	24.93507
487.872	25.41768
488.076	25.80521
488.28	24.46329
488.484	22.68361
488.688	21.82437
488.892	20.65377
489.096	19.2878
489.3	17.5649
489.504	16.22942
489.708	15.6079
489.912	15.39033
490.116	15.00423
490.32	14.90815
490.524	16.44372
490.728	17.60344
490.932	18.8323
491.136	20.04942
491.34	21.28827
491.544	21.99585
491.748	21.55949
491.951	21.66011
492.155	21.00078
492.359	20.11063
492.563	17.99409
492.767	16.97731
492.97	15.08737
493.174	13.21481
493.378	12.7378
493.582	12.30925
493.785	12.80087
493.989	12.909
494.193	12.74142
494.396	12.60116
494.6	13.1211
494.804	12.45037
495.007	12.05711
495.211	12.38894
495.414	12.19968
495.618	12.80408
495.822	13.42281
496.025	12.61368
496.229	13.16355
496.432	12.27098
496.636	12.6686
496.839	12.71335
497.043	13.34197
497.246	12.74609
497.45	12.46456
497.653	12.77487
497.856	12.92616
498.06	12.40851
498.263	12.59872
498.467	12.64737
498.67	13.549
498.873	13.00643
499.077	12.45362
499.28	12.79055
499.483	12.75519
499.686	13.40083
499.89	12.83061
500.093	13.31123
500.296	12.34994
500.499	14.06627
500.703	12.5484
500.906	12.92584
501.109	13.90399
501.312	12.83123
501.515	12.58866
501.719	12.95934
501.922	13.64267
502.125	12.91191
502.328	12.68293
502.531	11.97689
502.734	12.68762
502.937	11.57584
503.14	12.8178
503.343	12.26587
503.546	12.70405
503.749	12.53626
503.952	13.3607
504.155	12.33385
504.358	13.2438
504.561	13.151
504.764	11.78907
504.967	13.04528
505.17	13.03598
505.373	14.13906
505.576	12.73938
505.778	13.36803
505.981	12.16379
506.184	13.8441
506.387	11.78709
506.59	14.45227
506.793	13.88829
506.995	13.23398
507.198	11.46765
507.401	13.43137
507.604	13.28805
507.806	12.41112
508.009	12.75049
508.212	13.60402
508.414	12.47251
508.617	12.61683
508.82	13.17067
509.022	14.15911
509.225	13.46714
509.427	12.09852
509.63	14.17218
509.833	13.05458
510.035	12.81186
510.238	11.98287
510.44	14.25007
510.643	11.77907
510.845	14.68111
511.048	13.51446
511.25	12.73374
511.453	13.20928
511.655	13.56355
511.858	13.17535
512.06	13.94585
512.262	13.33714
512.465	14.22719
512.667	13.24388
512.869	12.47174
513.072	13.54534
513.274	13.94443
513.476	13.79256
513.679	14.17709
513.881	12.52704
514.083	14.68323
514.286	12.74777
514.488	12.88024
514.69	12.48022
514.892	12.15395
515.094	13.97995
515.297	12.97951
515.499	13.56079
515.701	12.59007
515.903	14.67979
516.105	14.72993
516.307	13.84632
516.509	12.16583
516.711	12.68337
516.913	13.3949
517.116	13.53303
517.318	13.33871
517.52	14.20804
517.722	14.00713
517.924	12.80532
518.126	14.13096
518.328	13.30478
518.529	13.9331
518.731	14.95296
518.933	13.46446
519.135	13.80704
519.337	14.74261
519.539	14.29532
519.741	12.51332
519.943	13.58851
520.145	13.61785
520.346	14.45325
520.548	13.62289
520.75	13.92953
520.952	13.52806
521.153	13.92983
521.355	14.10356
521.557	13.15231
521.759	13.67873
521.96	13.64053
522.162	12.70163
522.364	14.49037
522.565	13.13745
522.767	14.19351
522.969	14.42053
523.17	13.86961
523.372	13.9015
523.573	13.44659
523.775	13.55467
523.977	12.88488
524.178	14.99541
524.38	13.41425
524.581	14.3641
524.783	13.54766
524.984	14.29135
525.186	13.99111
525.387	14.29019
525.589	14.13194
525.79	13.79793
525.991	13.72759
526.193	14.62658
526.394	13.63022
526.596	14.92273
526.797	15.25121
526.998	14.91945
527.2	15.82897
527.401	18.5769
527.602	20.29422
527.803	23.70416
528.005	25.40373
528.206	27.41346
528.407	28.93312
528.608	28.95662
528.81	29.36506
529.011	28.43827
529.212	29.05374
529.413	27.09819
529.614	24.99656
529.815	23.10132
530.017	21.1175
530.218	18.61423
530.419	16.49826
530.62	15.79615
530.821	14.88913
531.022	13.63167
531.223	14.89255
531.424	14.74242
531.625	14.87557
531.826	14.5347
532.027	15.31676
532.228	17.00119
532.429	17.38588
532.63	18.1825
532.831	19.50692
533.032	19.45372
533.233	20.58318
533.433	20.13783
533.634	20.47818
533.835	19.39887
534.036	18.1015
534.237	17.30603
534.438	16.11049
534.638	14.32492
534.839	14.36417
535.04	14.82721
535.241	14.30079
535.441	15.7483
535.642	14.87212
535.843	13.69161
536.043	14.01006
536.244	13.95024
536.445	14.31665
536.645	14.98835
536.846	14.92557
537.047	15.39032
537.247	14.12199
537.448	14.52716
537.648	14.59506
537.849	14.51475
538.049	14.54934
538.25	14.96049
538.451	15.07431
538.651	13.83966
538.851	14.69221
539.052	15.35813
539.252	15.20711
539.453	14.29667
539.653	14.87162
539.854	14.2969
540.054	14.64048
540.254	15.79005
540.455	17.7164
540.655	18.28823
540.855	20.3848
541.056	21.91699
541.256	21.96265
541.456	22.95484
541.657	22.34445
541.857	22.80129
542.057	21.00832
542.257	19.89401
542.458	19.93395
542.658	18.75481
542.858	16.47882
543.058	16.46276
543.258	15.53073
543.458	14.26553
543.659	14.17663
543.859	15.32606
544.059	15.36728
544.259	14.75948
544.459	15.55477
544.659	14.37962
544.859	15.01583
545.059	14.38835
545.259	15.41182
545.459	15.04988
545.659	15.54628
545.859	14.74196
546.059	14.80143
546.259	14.13586
546.459	13.89579
546.659	14.01987
546.859	15.1469
547.059	14.9876
547.258	15.18134
547.458	15.16625
547.658	14.19486
547.858	13.89674
548.058	15.19922
548.258	14.51986
548.457	13.90262
548.657	16.67993
548.857	14.60072
549.057	15.3221
549.256	15.27566
549.456	14.30004
549.656	12.76549
549.855	16.15706
550.055	14.1079
550.255	16.13529
550.454	14.91244
550.654	14.90044
550.853	15.49279
551.053	15.3103
551.253	14.82342
551.452	15.05714
551.652	13.72365
551.851	13.35697
552.051	14.42941
552.25	14.13505
552.45	14.21279
552.649	14.55987
552.849	13.98911
553.048	14.56791
553.248	15.07979
553.447	13.9193
553.646	15.42011
553.846	16.42942
554.045	15.75353
554.244	13.32164
554.444	16.04503
554.643	13.89777
554.842	16.06737
555.042	16.67678
555.241	13.9001
555.44	13.82811
555.64	15.20456
555.839	16.63738
556.038	15.08679
556.237	13.65712
556.436	14.75086
556.636	15.01234
556.835	14.0358
557.034	16.17458
557.233	14.8761
557.432	13.2998
557.631	15.88635
557.83	14.37725
558.029	14.17221
558.228	13.87817
558.427	13.60699
558.626	14.87259
558.825	13.24885
559.024	14.86986
559.223	16.28591
559.422	14.53594
559.621	15.18392
559.82	12.13281
560.019	14.70821
560.218	14.23792
560.417	11.72082
560.616	14.00784
560.815	17.86376
561.014	13.37166
561.212	16.46313
561.411	14.99059
561.61	13.23883
561.809	14.42144
562.008	15.97095
562.206	14.49118
562.405	15.46374
562.604	14.4796
562.803	15.20045
563.001	14.29634
563.2	13.59554
563.399	15.30918
563.597	13.4203
563.796	14.87497
563.995	13.77211
564.193	15.49458
564.392	14.66492
564.59	16.85647
564.789	13.20319
564.988	14.0698
565.186	14.8414
565.385	14.48299
565.583	14.85839
565.782	14.79844
565.98	14.6397
566.179	14.87653
566.377	13.99085
566.575	14.23968
566.774	16.24427
566.972	16.08256
567.171	16.82445
567.369	16.10658
567.567	15.34351
567.766	15.30759
567.964	13.07287
568.162	15.32333
568.361	15.74051
568.559	14.90239
568.757	15.50463
568.956	14.96591
569.154	14.94155
569.352	15.71237
569.55	15.01235
569.748	14.9918
569.947	14.36623
570.145	14.00324
570.343	14.18957
570.541	15.96527
570.739	13.73471
570.937	14.73693
571.135	15.40197
571.333	16.90866
571.532	16.65771
571.73	15.55348
571.928	16.15467
572.126	15.6885
572.324	14.52853
572.522	16.65094
572.72	18.01645
572.918	15.35205
573.116	15.43895
573.313	15.24688
573.511	15.14817
573.709	14.60225
573.907	15.86222
574.105	14.77047
574.303	13.56121
574.501	13.66608
574.699	15.73961
574.896	15.46066
575.094	15.53001
575.292	13.83588
575.49	16.34988
575.688	14.70555
575.885	16.44728
576.083	17.47426
576.281	15.75782
576.478	14.22126
576.676	15.82986
576.874	13.38719
577.071	14.77203
577.269	17.4628
577.467	15.31601
577.664	14.98238
577.862	16.24355
578.059	13.89147
578.257	16.0935
578.455	14.38416
578.652	15.03218
578.85	12.78212
579.047	15.31878
579.245	14.85436
579.442	14.74988
579.64	15.07487
579.837	13.22151
580.034	18.20556
580.232	14.75216
580.429	13.07205
580.627	15.43296
580.824	16.76668
581.021	15.12904
581.219	14.27134
581.416	13.69487
581.613	16.83409
581.811	16.818
582.008	14.07315
582.205	15.88896
582.402	14.98177
582.6	17.02158
582.797	14.69185
582.994	15.16877
583.191	15.36814
583.388	14.64151
583.586	16.10343
583.783	16.28318
583.98	14.0819
584.177	14.98238
584.374	11.42918
584.571	14.77267
584.768	14.38509
584.965	13.84121
585.162	15.16502
585.359	16.50796
585.556	14.98523
585.753	15.19319
585.95	13.29948
586.147	13.97073
586.344	15.73322
586.541	14.72466
586.738	13.49168
586.935	14.69657
587.132	13.79571
587.329	16.25709
587.526	14.8859
587.722	21.91989
587.919	13.03041
588.116	15.7767
588.313	17.12809
588.51	17.86227
588.706	14.52795
588.903	16.0377
589.1	16.49923
589.297	18.21744
589.493	15.32549
589.69	15.82062
589.887	14.478
590.083	14.11439
590.28	14.4029
590.477	16.30591
590.673	16.44643
590.87	17.31235
591.067	14.93478
591.263	15.69416
591.46	15.43351
591.656	14.58654
591.853	16.60553
592.049	13.8136
592.246	14.46256
592.442	16.66462
592.639	17.00767
592.835	14.19114
593.032	15.52928
593.228	13.25461
593.425	12.95598
593.621	13.15207
593.817	15.96434
594.014	14.40262
594.21	15.27193
594.406	16.64005
594.603	15.91986
594.799	14.81803
594.995	12.20851
595.192	17.04902
595.388	14.76024
595.584	15.24255
595.78	13.75998
595.977	18.48988
596.173	17.77298
596.369	15.12427
596.565	14.44183
596.761	14.05475
596.957	17.00386
597.154	14.66787
597.35	15.13704
597.546	14.91766
597.742	16.59759
597.938	16.095
598.134	14.7866
598.33	15.81172
598.526	17.22317
598.722	15.68907
598.918	17.5105
599.114	16.19035
599.31	13.87251
599.506	15.23337
599.702	14.12893
599.898	15.21728
600.094	15.98707
600.29	16.23094
600.485	16.65274
600.681	13.99096
600.877	17.85481
601.073	15.62294
601.269	17.86192
601.465	17.27214
601.66	14.18865
601.856	12.73873
602.052	17.65894
602.248	14.72641
602.443	13.16739
602.639	14.06414
602.835	14.37837
603.03	14.02343
603.226	16.86769
603.422	14.20849
603.617	15.26378
603.813	15.43808
604.009	15.13919
604.204	17.44431
604.4	14.02106
604.595	17.00848
604.791	14.61315
604.986	16.11638
605.182	14.83308
605.377	15.70376
605.573	15.48838
605.768	15.83675
605.964	16.26332
606.159	16.29762
606.355	17.23989
606.55	14.77278
606.746	17.22978
606.941	14.85148
607.136	18.58325
607.332	19.82273
607.527	13.74373
607.722	16.15991
607.918	15.24584
608.113	14.66689
608.308	16.5738
608.503	16.31394
608.699	16.19167
608.894	16.68129
609.089	14.56177
609.284	15.76658
609.479	15.32576
609.675	16.55376
609.87	15.02985
610.065	17.17506
610.26	17.02078
610.455	16.79804
610.65	15.62732
610.845	15.77597
611.04	17.18402
611.235	15.51053
611.43	14.50865
611.625	13.99732
611.82	18.03296
612.015	14.27568
612.21	17.48273
612.405	13.30323
612.6	18.46115
612.795	17.22856
612.99	16.86663
613.185	13.49885
613.38	14.84953
613.575	15.52669
613.77	20.18234
613.965	12.88691
614.159	14.13424
614.354	17.42069
614.549	17.54216
614.744	16.78698
614.938	13.70745
615.133	13.36336
615.328	18.35789
615.523	16.9321
615.717	20.22337
615.912	14.51388
616.107	15.67018
616.301	14.95751
616.496	14.85612
616.691	17.77083
616.885	17.01275
617.08	21.1706
617.274	16.59084
617.469	19.08748
617.664	16.89093
617.858	15.04136
618.053	16.7257
618.247	15.39687
618.442	11.59697
618.636	18.50715
618.831	14.88554
619.025	14.57768
619.219	20.82273
619.414	10.63979
619.608	15.62317
619.803	14.91859
619.997	19.53417
620.191	17.74881
620.386	16.15285
620.58	15.34552
620.774	13.30387
620.969	13.04749
621.163	15.57321
621.357	14.08903
621.551	14.69402
621.746	15.54133
621.94	15.03752
622.134	21.86271
622.328	19.6259
622.522	12.95324
622.716	17.52251
622.911	17.78918
623.105	18.07964
623.299	16.75582
623.493	21.24804
623.687	13.78165
623.881	15.04776
624.075	16.92879
624.269	18.4166
624.463	12.50101
624.657	13.05869
624.851	17.12947
625.045	17.49217
625.239	17.61648
625.433	15.80625
625.627	18.66545
625.821	15.11952
626.015	14.9769
626.209	16.5882
626.403	14.26485
626.596	17.17568
626.79	17.4786
626.984	14.26432
627.178	17.31989
627.372	17.1987
627.565	17.7307
627.759	13.55169
627.953	14.52221
628.147	17.30562
628.34	17.71053
628.534	19.89542
628.728	16.25974
628.921	17.35633
629.115	17.35154
629.309	17.68792
629.502	18.54726
629.696	16.06476
629.89	15.98296
630.083	16.49543
630.277	16.59561
630.47	19.34224
630.664	15.29087
630.857	13.24177
631.051	18.92079
631.244	18.66897
631.438	17.77012
631.631	14.45723
631.825	19.23464
632.018	17.7891
632.212	20.21973
632.405	18.38896
632.598	15.52732
632.792	15.86265
632.985	11.97498
633.178	16.2158
633.372	15.56889
633.565	15.96431
633.758	19.31409
633.952	14.61279
634.145	14.3892
634.338	16.24791
634.531	14.65097
634.724	14.95321
634.918	16.11976
635.111	15.46786
635.304	15.27855
635.497	21.64759
635.69	17.33368
635.883	19.20094
636.077	14.55605
636.27	17.14033
636.463	16.97321
636.656	17.14291
636.849	15.99713
637.042	18.12717
637.235	20.27626
637.428	17.9536
637.621	18.71487
637.814	19.5335
638.007	20.45277
638.2	19.67772
638.393	20.41804
638.586	14.08107
638.778	16.3275
638.971	16.53703
639.164	20.74475
639.357	17.20905
639.55	19.9391
639.743	18.83096
639.935	18.33187
640.128	21.45428
640.321	18.77094
640.514	17.01564
640.707	23.35348
640.899	18.52085
641.092	12.90852
641.285	35.10414
641.477	12.10889
641.67	22.59651
641.863	20.5469
642.055	17.98918
642.248	16.59775
642.441	16.12292
642.633	18.64686
642.826	19.06464
643.018	21.03557
643.211	22.38327
643.403	21.91196
643.596	22.72336
643.788	23.09799
643.981	16.63852
644.173	19.36285
644.366	17.4453
644.558	12.77582
644.751	19.80433
644.943	13.68679
645.135	20.88057
645.328	21.70619
645.52	18.72714
645.712	20.3925
645.905	25.57941
646.097	14.72683
646.289	17.22404
646.482	22.90072
646.674	15.98983
646.866	21.24927
647.058	19.44542
647.251	14.50072
647.443	15.6482
647.635	17.3875
647.827	13.93793
648.019	15.78547
648.211	17.58016
648.404	16.89428
648.596	22.20734
648.788	18.28435
648.98	18.00218
649.172	18.98406
649.364	18.98413
649.556	14.03092
649.748	25.40124
649.94	15.28356
650.132	19.28497
650.324	15.25948
650.516	16.47869
650.708	20.97611
650.9	13.93078
651.092	16.3512
651.284	14.65456
651.476	14.65688
651.667	19.49922
651.859	20.91478
652.051	17.55473
652.243	17.78668
652.435	16.07486
652.627	19.949
652.818	19.41597
653.01	13.72393
653.202	15.4575
653.394	17.14898
653.585	18.64641
653.777	30.96343
653.969	21.83314
654.16	19.64865
654.352	14.80211
654.544	16.86284
654.735	21.46891
654.927	18.45205
655.118	22.13196
655.31	19.04053
655.502	21.48717
655.693	16.88293
655.885	20.23445
656.076	21.88302
656.268	19.28441
656.459	23.20666
656.651	22.2393
656.842	17.32822
657.034	16.57952
657.225	21.09492
657.416	22.62713
657.608	22.47464
657.799	18.19558
657.99	22.10205
658.182	17.16917
658.373	17.00542
658.564	20.80227
658.756	18.85336
658.947	18.13618
659.138	15.96584
659.33	17.06799
659.521	16.82407
659.712	18.37072
659.903	17.8598
660.094	17.08038
660.286	14.74723
660.477	23.72528
660.668	20.16197
660.859	18.90002
661.05	14.93112
661.241	20.88707
661.432	20.01484
661.623	17.99217
661.814	18.13814
662.006	14.08518
662.197	18.05661
662.388	22.2235
662.579	20.02481
662.77	23.21403
662.96	27.08209
663.151	21.78193
663.342	12.84305
663.533	20.82912
663.724	19.53327
663.915	25.27147
664.106	18.4827
664.297	24.64092
664.488	21.67791
664.678	16.57381
664.869	21.51221
665.06	22.92813
665.251	19.5472
665.442	21.02282
665.632	14.23978
665.823	25.63406
666.014	9.54279
666.204	21.41951
666.395	24.12691
666.586	28.5446
666.776	21.69972
666.967	24.56358
667.158	19.98764
667.348	24.30352
667.539	16.4989
667.729	22.61881
667.92	16.18506
668.111	22.54604
668.301	21.26144
668.492	19.51527
668.682	20.64388
668.873	19.53412
669.063	16.44921
669.253	20.54222
669.444	22.00574
669.634	18.79179
669.825	27.28715
670.015	23.60493
670.206	18.00578
670.396	26.70755
670.586	18.80219
670.777	21.19785
670.967	13.50598
671.157	19.31901
671.347	17.08132
671.538	24.95112
671.728	21.89318
671.918	26.68302
672.108	22.52835
672.299	19.80005
672.489	21.38317
672.679	18.47289
672.869	22.46217
673.059	27.67255
673.249	22.90276
673.44	15.84977
673.63	19.44937
673.82	23.461
674.01	18.09787
674.2	22.35846
674.39	30.59514
674.58	24.30125
674.77	19.02162
674.96	19.47237
675.15	35.96674
675.34	26.74917
675.53	20.85353
675.72	20.49772
675.91	15.77815
676.099	28.357
676.289	29.32232
676.479	25.07055
676.669	19.21951
676.859	22.62085
677.049	18.24028
677.238	21.27724
677.428	28.35644
677.618	23.12826
677.808	26.13732
677.997	22.90228
678.187	17.07538
678.377	21.51279
678.567	19.09219
678.756	19.24371
678.946	20.43816
679.136	15.75734
679.325	18.86809
679.515	17.98127
679.704	17.31153
679.894	23.17614
680.084	22.45928
680.273	23.77088
680.463	18.42947
680.652	17.9937
680.842	21.069
681.031	24.76383
681.221	18.2144
681.41	23.16207
681.6	20.86124
681.789	24.60439
681.978	25.75685
682.168	22.15045
682.357	21.91995
682.547	23.80748
682.736	22.00054
682.925	26.3968
683.115	25.50704
683.304	24.77657
683.493	23.41994
683.682	23.11913
683.872	24.60597
684.061	28.16215
684.25	23.60906
684.439	29.71715
684.629	25.35298
684.818	36.45534
685.007	22.4786
685.196	21.34567
685.385	29.94084
685.574	23.76054
685.763	24.52029
685.952	24.53761
686.142	18.71829
686.331	27.32079
686.52	15.59339
686.709	30.53934
686.898	29.15918
687.087	25.87659
687.276	29.7958
687.465	27.6544
687.654	22.42566
687.842	30.61303
688.031	18.55709
688.22	27.78071
688.409	24.58502
688.598	24.05094
688.787	35.29783
688.976	24.15805
689.165	32.02867
689.353	21.337
689.542	26.76224
689.731	27.82302
689.92	32.98526
690.108	28.08591
690.297	21.91563
690.486	23.78645
690.675	27.92939
690.863	33.08336
691.052	31.20375
691.241	24.94141
691.429	24.76148
691.618	32.18143
691.806	19.07691
691.995	23.29436
692.184	24.9431
692.372	22.14455
692.561	27.4164
692.749	24.98279
692.938	37.65085
693.126	27.32958
693.315	24.65839
693.503	27.78954
693.692	27.92151
693.88	30.52687
694.068	35.86099
694.257	25.11127
694.445	28.74821
694.634	15.28143
694.822	30.48777
695.01	31.61267
695.199	34.24491
695.387	32.3154
695.575	31.18155
695.763	25.33809
695.952	22.60933
696.14	19.77439
696.328	23.06353
696.516	26.00072
696.705	26.86901
696.893	27.02886
697.081	17.49636
697.269	28.65967
697.457	21.18626
697.645	20.28646
697.833	28.48917
698.021	21.97622
698.21	23.09866
698.398	24.66437
698.586	20.64355
698.774	20.24061
698.962	23.94844
699.15	21.53092
699.338	18.25571
699.526	26.87032
699.714	22.374
699.901	22.64671
700.089	29.97583
700.277	22.14856
700.465	24.80356
700.653	28.77914
700.841	27.10918
701.029	21.99111
701.217	32.18596
701.404	26.83803
701.592	34.1855
701.78	37.17228
701.968	25.66577
702.155	25.63064
702.343	18.48448
702.531	34.5959
702.718	28.13506
702.906	26.61602
703.094	23.57146
703.281	33.00385
703.469	28.25047
703.657	33.15047
703.844	43.90179
704.032	36.0632
704.219	24.01464
704.407	29.15634
704.595	34.81874
704.782	27.97088
704.97	26.09218
705.157	25.54084
705.345	34.79616
705.532	44.55928
705.719	30.8943
705.907	36.05981
706.094	28.60086
706.282	37.11412
706.469	26.20972
706.656	28.21402
706.844	27.70335
707.031	34.13941
707.218	30.47695
707.406	37.9684
707.593	33.03775
707.78	32.82714
707.968	29.18416
708.155	24.96813
708.342	33.26965
708.529	32.36862
708.716	29.91577
708.904	37.76191
709.091	33.39512
709.278	22.21368
709.465	41.11823
709.652	39.83764
709.839	36.32037
710.026	31.3076
710.213	20.9888
710.4	32.59529
710.587	35.33562
710.774	36.80937
710.961	36.64172
711.148	30.16678
711.335	36.554
711.522	29.59762
711.709	31.17211
711.896	43.73019
712.083	36.44499
712.27	25.93454
712.457	31.5049
712.644	22.25448
712.831	42.84349
713.017	31.89999
713.204	35.39791
713.391	26.71961
713.578	37.40886
713.765	40.43528
713.951	36.19518
714.138	52.30872
714.325	35.54579
714.512	32.42168
714.698	22.46314
714.885	42.1759
715.072	34.08983
715.258	32.2122
715.445	27.2083
715.631	39.98027
715.818	18.64593
716.005	29.00231
716.191	37.08582
716.378	30.07946
716.564	39.98618
716.751	28.38978
716.937	30.56966
717.124	39.89384
717.31	27.94005
717.497	43.20734
717.683	29.60978
717.869	49.02316
718.056	29.46471
718.242	37.29915
718.429	31.92944
718.615	26.84046
718.801	34.58498
718.988	41.03784
719.174	37.90381
719.36	34.44242
719.547	38.88872
719.733	35.36845
719.919	35.6483
720.105	41.44642
720.291	33.54315
720.478	36.56513
720.664	33.89705
720.85	31.9616
721.036	55.49688
721.222	44.1702
721.408	34.9854
721.595	49.73053
721.781	46.60022
721.967	43.4702
722.153	47.90137
722.339	38.1274
722.525	37.58136
722.711	28.23643
722.897	26.52633
723.083	32.19593
723.269	44.73011
723.455	56.95727
723.641	62.80332
723.827	39.07745
724.012	39.19061
724.198	32.62271
724.384	46.46797
724.57	39.62701
724.756	23.9821
724.942	21.45182
725.127	43.66818
725.313	48.14478
725.499	46.73715
725.685	50.67525
725.87	38.38091
726.056	29.2994
726.242	47.33641
726.428	26.59504
726.613	45.69205
726.799	33.28417
726.985	28.45664
727.17	25.36385
727.356	51.21908
727.541	28.86958
727.727	35.01311
727.913	42.62144
728.098	32.89405
728.284	42.71101
728.469	26.54638
728.655	31.70621
728.84	43.86486
729.026	43.03499
729.211	44.42303
729.397	39.7193
729.582	41.25109
729.767	37.51024
729.953	40.89239
730.138	45.65036
730.323	21.67913
730.509	28.76066
730.694	50.75905
730.879	41.59043
731.065	36.86119
731.25	55.78006
731.435	42.67244
731.621	26.64555
731.806	33.16095
731.991	40.71299
732.176	27.19475
732.361	47.1021
732.547	42.73866
732.732	25.6405
732.917	57.5585
733.102	29.77364
733.287	30.39051
733.472	37.77543
733.657	38.60001
733.842	25.96709
734.027	34.11923
734.212	37.13732
734.397	30.95917
734.582	37.72567
734.767	46.01079
734.952	51.99537
735.137	19.48714
735.322	53.41272
735.507	43.38166
735.692	41.61699
735.877	59.13381
736.062	58.77441
736.247	41.89981
736.431	39.19027
736.616	52.34637
736.801	43.28478
736.986	37.21339
737.171	33.44867
737.355	26.07565
737.54	52.26347
737.725	41.59773
737.909	66.11524
738.094	34.88352
738.279	46.54747
738.463	38.53831
738.648	44.78584
738.833	42.8313
739.017	57.16445
739.202	36.60595
739.386	38.96956
739.571	31.96084
739.756	46.02137
739.94	39.82514
740.125	47.97536
740.309	36.22876
740.494	47.11623
740.678	39.83506
740.863	45.83207
741.047	41.9018
741.231	54.21297
741.416	32.02302
741.6	56.98106
741.785	32.0232
741.969	52.60244
742.153	54.27016
742.338	21.04678
742.522	43.8089
742.706	52.88959
742.89	30.12243
743.075	45.37035
743.259	54.18645
743.443	49.78698
743.627	54.04016
743.812	67.13856
743.996	18.12756
744.18	38.38826
744.364	37.95069
744.548	69.76879
744.732	41.46548
744.916	51.06875
745.1	48.51435
745.285	41.14961
745.469	47.47625
745.653	60.63708
745.837	27.49068
746.021	67.28329
746.205	55.30666
746.389	43.46392
746.573	38.77506
746.757	63.38387
746.94	39.41848
747.124	56.1997
747.308	31.30706
747.492	57.1736
747.676	41.51557
747.86	70.14674
748.044	39.4409
748.227	25.06715
748.411	87.63524
748.595	48.52125
748.779	32.827
748.963	44.74804
749.146	46.22334
749.33	34.97265
749.514	34.78314
749.697	61.76137
749.881	37.4298
750.065	31.7204
750.248	43.42488
750.432	72.17571
750.616	46.40375
750.799	28.74279
750.983	65.73511
751.166	71.90945
751.35	26.52546
751.533	49.40493
751.717	59.01641
751.9	60.4261
752.084	37.25034
752.267	31.57723
752.451	37.20901
752.634	45.75362
752.818	51.56643
753.001	55.67262
753.184	57.30733
753.368	48.57066
753.551	7.17741
753.734	36.74624
753.918	69.84603
754.101	35.95892
754.284	51.6691
754.467	39.02407
754.651	37.93332
754.834	34.63412
755.017	58.01332
755.2	57.88613
755.384	33.91726
755.567	55.71352
755.75	59.69095
755.933	40.8351
756.116	48.35054
756.299	39.13345
756.482	33.19232
756.665	48.80608
756.848	43.72462
757.032	51.64826
757.215	28.72092
757.398	32.54634
757.581	34.35931
757.764	80.73251
757.947	43.98944
758.129	60.7078
758.312	13.10565
758.495	41.60261
758.678	45.618
758.861	42.24397
759.044	70.39731
759.227	36.74592
759.41	37.17559
759.592	55.19688
759.775	43.51953
759.958	58.04651
760.141	29.09275
760.324	71.52298
760.506	67.5793
760.689	57.61968
760.872	77.20375
761.054	52.0724
761.237	40.58004
761.42	51.66734
761.602	58.87429
761.785	50.90951
761.968	59.12393
762.15	68.52736
762.333	42.41798
762.515	49.70439
762.698	38.11043
762.88	51.06453
763.063	45.69878
763.245	52.20261
763.428	32.08115
763.61	33.26823
763.793	30.18607
763.975	43.8891
764.158	38.11386
764.34	37.09589
764.522	32.93938
764.705	42.25713
764.887	60.34377
765.069	29.19215
765.252	52.83573
765.434	53.51729
765.616	45.9495
765.799	37.786
765.981	53.24789
766.163	36.84915
766.345	60.37456
766.528	37.15125
766.71	17.44308
766.892	48.3856
767.074	62.27473
767.256	42.44353
767.438	69.8292
767.62	52.54465
767.802	78.20126
767.985	57.37388
768.167	76.41367
768.349	39.44654
768.531	63.50623
768.713	52.38537
768.895	65.07517
769.077	52.15757
769.259	92.66192
769.441	127.85944
769.623	66.39165
769.804	80.9562
769.986	76.7511
770.168	89.73244
770.35	114.28549
770.532	84.8158
770.714	89.88345
770.896	95.28796
771.077	29.83142
771.259	92.81357
771.441	78.8706
771.623	104.86232
771.804	127.31364
771.986	32.91706
772.168	63.64235
772.35	95.61917
772.531	125.23328
772.713	77.03194
772.894	98.85285
773.076	70.32042
773.258	60.95052
773.439	102.82986
773.621	114.62193
773.802	47.5514
773.984	58.9784
774.166	76.10467
774.347	115.82582
774.529	100.59931
774.71	27.27497
774.891	73.06792
775.073	71.68111
775.254	118.02342
775.436	65.44748
775.617	123.02587
775.799	63.97699
775.98	117.31285
776.161	121.60738
776.343	102.659
776.524	72.84993
776.705	64.25258
776.886	30.87831
777.068	79.65067
777.249	143.25706
777.43	123.34762
777.611	50.39567
777.793	73.10467
777.974	115.44796
778.155	67.34447
778.336	58.60475
778.517	125.22064
778.698	57.58475
778.879	36.58264
779.061	14.15912
779.242	91.99907
779.423	89.69151
779.604	62.69683
779.785	71.80459
779.966	86.64561
780.147	103.36518
780.328	107.54683
780.509	144.35261
780.69	99.77822
780.871	69.19718
781.051	42.02619
781.232	82.60256
781.413	81.87678
781.594	64.49772
781.775	61.36754
781.956	62.25391
782.137	33.99696
782.317	62.98553
782.498	85.34614
782.679	84.66739
782.86	79.57489
783.04	59.45005
783.221	83.8196
783.402	127.49932
783.583	80.1549
783.763	95.66661
783.944	69.12518
784.124	42.49131
784.305	122.03658
784.486	99.64584
784.666	77.16246
784.847	40.87127
785.027	170.15647
785.208	64.53696
785.388	62.65198
785.569	62.72241
785.749	73.3951
785.93	61.20968
786.11	37.62625
786.291	93.59782
786.471	90.16756
786.652	98.58444
786.832	72.32645
787.012	87.96666
787.193	47.56531
787.373	76.79707
787.553	70.42538
787.734	85.25244
787.914	62.82616
788.094	88.00796
788.275	83.83604
788.455	66.62428
788.635	43.61078
788.815	78.58305
788.995	44.89321
789.176	40.04341
789.356	58.27128
789.536	65.7095
789.716	85.26689
789.896	59.32073
790.076	61.61386
790.256	77.40593
790.436	27.3122
790.616	54.83997
790.796	80.44519
790.976	62.30083
791.156	56.95406
791.336	100.76577
791.516	79.35054
791.696	71.61768
791.876	38.88281
792.056	81.34079
792.236	100.27143
792.416	95.86854
792.596	90.1543
792.776	93.76893
792.956	94.42726
793.135	120.62514
793.315	55.12207
793.495	110.14558
793.675	87.23929
793.854	94.85148
794.034	98.20613
794.214	51.29706
794.394	94.75718
794.573	105.4568
794.753	76.11439
794.933	62.68386
795.112	78.66454
795.292	97.03082
795.472	123.48157
795.651	46.3644
795.831	72.20363
796.01	64.27034
796.19	65.78132
796.369	70.29492
796.549	91.09962
796.728	65.60228
796.908	45.62554
797.087	50.15749
797.267	72.3195
797.446	44.39689
797.626	89.86767
797.805	83.677
797.984	59.19037
798.164	91.64567
798.343	54.52007
798.522	77.41276
798.702	79.18255
798.881	47.05583
799.06	71.31342
799.239	35.79079
799.419	49.04433
799.598	113.53466
799.777	91.80446
799.956	110.2398
800.136	62.56677
800.315	64.08309
800.494	87.09652
800.673	100.00844
800.852	101.66571
801.031	111.54042
801.21	88.73203
801.389	62.83637
801.568	82.452
801.747	125.28244
801.926	75.17085
802.105	113.10218
802.284	69.84032
802.463	115.11975
802.642	86.79034
802.821	80.7187
803	113.38633
803.179	99.81765
803.358	112.56062
803.537	63.42855
803.716	95.06425
803.895	58.14846
804.073	75.42402
804.252	68.588
804.431	94.40893
804.61	85.37126
804.789	109.85169
804.967	65.17069
805.146	66.07455
805.325	140.75403
805.503	95.23727
805.682	44.1954
805.861	155.17725
806.039	113.54498
806.218	65.63983
806.397	90.05707
806.575	82.08436
806.754	82.4805
806.932	56.26759
807.111	127.14851
807.289	104.0611
807.468	89.06219
807.646	108.76773
807.825	88.08633
808.003	86.91018
808.182	111.05702
808.36	85.63787
808.539	61.36617
808.717	121.19609
808.895	56.36655
809.074	84.15276
809.252	71.91126
809.43	104.95632
809.609	132.44917
809.787	141.66374
809.965	79.23875
810.144	77.43142
810.322	77.94765
810.5	103.1455
810.678	76.53035
810.856	148.32368
811.035	114.64373
811.213	120.23301
811.391	112.2714
811.569	82.52978
811.747	193.02192
811.925	129.26492
812.103	63.99973
812.281	67.07664
812.459	160.51278
812.637	132.93638
812.816	131.90996
812.994	152.50788
813.171	126.92335
813.349	108.16833
813.527	143.27927
813.705	138.87442
813.883	147.95322
814.061	124.85004
814.239	146.0905
814.417	166.46409
814.595	107.69409
814.773	108.62688
814.95	100.9384
815.128	105.82178
815.306	83.73089
815.484	80.18764
815.662	64.47757
815.839	54.09518
816.017	68.63387
816.195	119.14894
816.372	84.35485
816.55	130.57287
816.728	137.07439
816.905	92.95974
817.083	131.81399
817.261	91.02414
817.438	187.99411
817.616	149.44546
817.793	78.44883
817.971	118.17339
818.148	110.84234
818.326	136.13112
818.503	102.16661
818.681	138.38019
818.858	71.31587
819.036	92.5748
819.213	96.85342
819.391	71.49898
819.568	62.10096
819.745	56.54392
819.923	101.49089
820.1	68.71118
820.277	55.94723
820.455	67.31583
820.632	73.18126
820.809	75.21791
820.986	44.95362
821.164	39.35254
821.341	36.15308
821.518	48.50379
821.695	36.54675
821.872	35.14016
822.05	30.78692
822.227	26.56169
822.404	28.4127
822.581	30.17521
822.758	28.73995
822.935	28.67685
823.112	31.98895
823.289	28.09771
823.466	33.03117
823.643	31.73475
823.82	36.15358
823.997	35.12886
824.174	40.48269
824.351	49.9292
824.528	50.31434
824.705	46.02531
824.882	49.51132
825.059	63.0956
825.236	50.19647
825.412	48.45393
825.589	59.79383
825.766	74.8622
825.943	50.72305
826.12	57.81662
826.296	42.17254
826.473	50.66877
826.65	49.69952
826.827	58.53615
827.003	40.45053
827.18	45.15929
827.357	47.44545
827.533	42.48175
827.71	27.97861
827.887	40.08195
828.063	46.22853
828.24	38.37203
828.416	52.63762
828.593	42.66236
828.769	61.7383
828.946	68.17242
829.122	71.6683
829.299	74.62138
829.475	38.39825
829.652	74.94544
829.828	115.18907
830.005	69.59267
830.181	107.56199
830.357	76.78633
830.534	96.316
830.71	84.11894
830.886	104.23529
831.063	97.11011
831.239	136.09682
831.415	59.9992
831.592	121.9102
831.768	78.35603
831.944	65.98604
832.12	124.48897
832.296	121.71706
832.473	97.65073
832.649	70.67799
832.825	92.33439
833.001	51.08613
833.177	78.68284
833.353	68.26847
833.529	39.37174
833.705	54.9726
833.881	41.62607
834.058	41.89735
834.234	45.39801
834.41	44.59254
834.586	37.07785
834.761	41.80694
834.937	46.18537
835.113	51.20578
835.289	47.53736
835.465	58.4329
835.641	54.4816
835.817	56.43179
835.993	104.42552
836.169	53.01709
836.344	78.09144
836.52	92.14258
836.696	102.27765
836.872	69.33707
837.048	197.39566
837.223	86.25437
837.399	171.82678
837.575	129.96198
837.75	125.08471
837.926	182.42568
838.102	265.94554
838.277	203.00119
838.453	289.19795
838.628	270.88279
838.804	96.7013
838.98	254.64334
839.155	134.47806
839.331	169.31232
839.506	125.69928
839.682	103.46078
839.857	156.29657
840.033	168.40416
840.208	71.58424
840.384	41.72771
840.559	80.65056
840.734	125.8699
840.91	163.3431
841.085	107.2515
841.26	110.92744
841.436	123.59774
841.611	93.27672
841.786	150.25509
841.962	242.13446
842.137	156.69495
842.312	82.96586
842.487	125.40743
842.663	117.97888
842.838	131.62679
843.013	542.37873
843.188	319.88709
843.363	205.03427
843.538	515.85628
843.714	522.16591
843.889	463.19746
844.064	519.42035
844.239	283.71836
844.414	541.47329
844.589	317.55657
844.764	747.86439
844.939	487.12433
845.114	444.09419
845.289	668.5398
845.464	780.80923
845.639	721.81041
845.814	244.13642
845.989	467.93093
846.163	388.58533
846.338	750.39754
846.513	635.62771
846.688	363.22631
846.863	752.59966
847.038	410.47534
847.212	369.2816
847.387	778.6005
847.562	411.08186
847.737	598.27606
847.911	310.9734
848.086	242.07757
848.261	505.16627
848.435	367.68705
848.61	581.38167
848.785	279.15139
848.959	549.65472
849.134	656.41409
849.308	1110.4072
849.483	676.57287
849.658	722.37428
849.832	375.95688
850.007	264.60694
850.181	1067.509
850.356	646.61491
850.53	968.71247
850.705	422.58262
850.879	275.18669
851.053	508.58631
851.228	439.0879
851.402	838.77543
851.577	657.29902
851.751	818.61698
851.925	474.87733
852.099	248.87449
852.274	304.36438
852.448	395.52932
852.622	1007.6194
852.797	382.43122
852.971	469.38711
853.145	937.0869
853.319	1000.38283
853.493	1187.1984
853.668	531.10014
853.842	1490.54106
854.016	1138.62542
854.19	1609.75998
854.364	589.52149
854.538	606.01341
854.712	773.68228
854.886	450.01212
855.06	377.19691
855.234	212.09738
855.408	834.64152
855.582	589.41957
855.756	906.90605
855.93	574.59323
856.104	722.96056
856.278	800.20481
856.452	409.62605
856.626	652.41946
856.8	1159.31582
856.973	1137.13279
857.147	1122.80789
857.321	1533.19018
857.495	553.42096
857.669	769.74424
857.842	676.52446
858.016	524.19482
858.19	420.3446
858.364	1314.99725
858.537	595.28755
858.711	1182.11472
858.885	903.5563
859.058	334.24623
859.232	295.64046
859.405	435.67169
859.579	818.70763
859.753	675.87814
859.926	919.27799
860.1	491.26767
860.273	1107.80567
860.447	904.90535
860.62	651.36991
860.794	842.86678
860.967	640.92407
861.141	513.47842
861.314	770.95528
861.487	637.7247
861.661	527.89584
861.834	861.6924
862.008	1118.79402
862.181	842.75133
862.354	1434.59977
862.528	657.15547
862.701	417.3747
862.874	380.10041
863.047	485.81854
863.221	515.38874
863.394	345.03597
863.567	485.47319
863.74	195.51056
863.913	1047.98679
864.087	643.1107
864.26	642.61402
864.433	726.30886
864.606	1046.37288
864.779	1691.35074
864.952	325.584
865.125	1040.4106
865.298	596.94028
865.471	600.53555
865.644	988.76328
865.817	591.07831
865.99	959.87873
866.163	860.44495
866.336	438.9921
866.509	451.18678
866.682	679.55971
866.855	1275.07851
867.028	220.2716
867.2	638.57271
867.373	122.14108
867.546	480.89516
867.719	1241.24124
867.892	687.56708
868.064	472.56176
868.237	469.09042
868.41	496.94585
868.583	272.03543
868.755	313.10978
868.928	693.69283
869.101	905.73032
869.273	1742.58847
869.446	462.94642
869.619	968.53036
869.791	513.96361
869.964	760.99556
870.136	1016.02455
870.309	432.30702
870.481	403.27272
870.654	366.38711
870.826	433.25142
870.999	305.27753
871.171	530.69892
871.344	305.16735
871.516	440.31864
871.689	433.43782
871.861	555.71199
872.033	360.14157
872.206	358.60962
872.378	474.27731
872.55	439.49496
872.723	354.08497
872.895	662.61774
873.067	566.6051
873.24	503.35117
873.412	463.72255
873.584	370.6156
873.756	646.61439
873.928	784.0624
874.101	393.88589
874.273	524.32757
874.445	197.44622
874.617	325.87634
874.789	375.43873
874.961	345.24749
875.133	476.56205
875.305	541.20445
875.477	424.96049
875.649	256.16039
875.821	288.41795
875.993	748.93832
876.165	386.7455
876.337	518.20902
876.509	504.12859
876.681	450.20394
876.853	456.20121
877.025	750.71606
877.197	279.60697
877.369	294.27071
877.541	417.41972
877.712	97.70712
877.884	216.13127
878.056	506.22807
878.228	244.55766
878.4	496.43952
878.571	223.45339
878.743	152.38868
878.915	325.67634
879.086	174.12161
879.258	197.11876
879.43	186.14692
879.601	161.83465
879.773	147.55068
879.945	41.31092
880.116	58.8421
880.288	41.20816
880.459	39.96516
880.631	33.5627
880.802	39.36982
880.974	35.48898
881.145	27.04484
881.317	35.9432
881.488	28.67316
881.66	32.27664
881.831	29.99492
882.002	38.28711
882.174	30.75334
882.345	37.25362
882.517	24.61121
882.688	46.03342
882.859	37.60445
883.03	60.64609
883.202	57.4409
883.373	54.21449
883.544	51.45765
883.715	86.22568
883.887	78.60684
884.058	69.49325
884.229	91.1994
884.4	98.13652
884.571	121.42728
884.742	94.52196
884.914	111.39679
885.085	147.68092
885.256	193.62139
885.427	166.88592
885.598	181.96987
885.769	200.38695
885.94	205.85867
886.111	125.30807
886.282	206.70289
886.453	216.14846
886.624	176.01029
886.795	254.88046
886.966	232.78495
887.136	292.30352
887.307	184.29273
887.478	429.89539
887.649	346.63003
887.82	375.33632
887.991	265.47937
888.161	473.20891
888.332	399.58575
888.503	217.81202
888.674	461.94145
888.844	707.10088
889.015	684.43152
889.186	323.09313
889.356	624.0328
889.527	333.60599
889.698	1027.98096
889.868	285.80071
890.039	550.38722
890.209	393.94114
890.38	635.76815
890.551	500.28611
890.721	811.94417
890.892	563.68419
891.062	1270.99663
891.233	537.42133
891.403	772.88311
891.574	548.41331
891.744	359.08871
891.914	365.30442
892.085	522.53682
892.255	130.93921
892.425	516.63602
892.596	446.64757
892.766	518.86626
892.936	803.56287
893.107	457.71445
893.277	240.85013
893.447	210.46262
893.618	152.87732
893.788	242.99525
893.958	126.77112
894.128	101.46761
894.298	132.58734
894.468	160.34994
894.639	79.53452
894.809	51.4797
894.979	74.84594
895.149	104.0463
895.319	76.22411
895.489	115.86885
895.659	151.64412
895.829	91.78918
895.999	107.48331
896.169	87.878
896.339	123.62815
896.509	265.76794
896.679	249.52532
896.849	275.31899
897.019	356.24652
897.189	354.44573
897.358	291.81513
897.528	501.71287
897.698	202.55159
897.868	371.32545
898.038	920.98529
898.208	994.59232
898.377	251.9953
898.547	2092.23171
898.717	3366.04352
898.886	918.51422
899.056	771.72327
899.226	2126.22046
899.395	2311.01399
899.565	2570.074
899.735	4238.42035
899.904	1601.81175
900.074	6166.32101
900.244	690.40285
900.413	3390.30056
900.583	919.29966
900.752	-1983.8746
900.922	1076.45484
901.091	346.18304
901.261	2190.20262
901.43	1193.65451
901.599	3304.48491
901.769	2771.50078
901.938	2765.07753
902.108	991.76185
902.277	1519.27153
902.446	580.08146
902.616	696.04285
902.785	560.09632
902.954	826.61471
903.124	510.3658
903.293	368.76945
903.462	144.00413
903.631	215.01571
903.801	156.68479
903.97	69.57853
904.139	120.48368
904.308	90.57648
904.477	80.25336
904.646	42.16573
904.816	76.32506
904.985	105.45997
905.154	170.86382
