Data from WindowProjectSample3_Transmission__16__00016.txt Node

Date: Sun May 04 09:58:41 EDT 2025
User: jessi
Spectrometer: SR400872
Trigger mode: 0
Integration Time (sec): 5.000070E-1
Scans to average: 10
Electric dark correction enabled: true
Nonlinearity correction enabled: true
Boxcar width: 0
XAxis mode: Wavelengths
Number of Pixels in Spectrum: 3648
>>>>>Begin Spectral Data<<<<<
184.909	-5766.1403
185.132	10953.30645
185.355	-8311.5684
185.578	-54552.79341
185.801	5532.70404
186.024	-138722.12365
186.247	-583.97755
186.47	1471.03926
186.693	743.32731
186.916	-143.19761
187.139	-2573545.2987
187.362	-2770.58479
187.585	7531.72849
187.808	1975.70295
188.031	-54.79732
188.254	4440.60824
188.476	-1921.44673
188.699	2531.18669
188.922	420.4301
189.145	-6048.52885
189.368	-3867.71544
189.591	1639.09677
189.813	-150010.0478
190.036	8889.44081
190.259	1525.02906
190.482	5254.43383
190.705	16576.70424
190.927	17166.47997
191.15	-4187.3554
191.373	2189.87306
191.595	1472.64533
191.818	17134.42639
192.041	1058.15254
192.263	-7900.92311
192.486	-1764.32548
192.709	2805.91964
192.931	-3341.34941
193.154	13518.05009
193.377	2580.74402
193.599	30516.56821
193.822	2163.5393
194.044	2240.62885
194.267	1063.67958
194.489	-268.2136
194.712	3642.01844
194.934	33966.61229
195.157	-605.77508
195.379	10165.54354
195.602	1774.95356
195.824	4504.92794
196.047	6138.82714
196.269	14155.48137
196.492	-11193.24287
196.714	3956.40089
196.936	7149.04547
197.159	11240.792
197.381	4363.44967
197.604	1866369.73041
197.826	1989.69796
198.048	2111.0519
198.271	9373.82319
198.493	1980.38263
198.715	2739.03249
198.938	8409.32
199.16	3467.41784
199.382	9814.22338
199.604	10380.36138
199.827	1790.49546
200.049	3076.18772
200.271	21084.0799
200.493	1898.02979
200.715	7207.08147
200.938	8047.5828
201.16	-3804.39369
201.382	33113.85174
201.604	4177.4204
201.826	8674.37705
202.048	4148.25573
202.27	1945.90708
202.492	5871.49717
202.715	20963.20171
202.937	3975.48553
203.159	1563.61186
203.381	2161.35916
203.603	2812.61891
203.825	-1392.21568
204.047	-22433.47319
204.269	3579.76098
204.491	7485.29404
204.713	-1722918.38924
204.935	2326.10985
205.156	3986.99193
205.378	1717.70944
205.6	37517.45147
205.822	4737.80015
206.044	3783.44751
206.266	6251.72262
206.488	1449.01183
206.71	9477.45535
206.932	1456.08268
207.153	29745.76189
207.375	16197.45859
207.597	12510.32624
207.819	39422.90425
208.041	-44787.38262
208.262	1215.70583
208.484	13594.96833
208.706	3480.68394
208.927	2470.38658
209.149	926.85224
209.371	3681.35791
209.593	1250.65901
209.814	10786.2835
210.036	-377154.30908
210.258	1732.88062
210.479	2398.89013
210.701	3335.25342
210.922	-5489.43129
211.144	-3079.05664
211.366	5165.50003
211.587	2494.83206
211.809	5610.76678
212.03	-66307.83405
212.252	460.81173
212.473	954.31267
212.695	778.01193
212.916	1330.23008
213.138	661.92896
213.359	4984.07714
213.581	2832.64303
213.802	879.99646
214.024	7391.74697
214.245	-14987.02349
214.466	435.14427
214.688	3978.12734
214.909	9973.18574
215.131	4179.11653
215.352	2806.44952
215.573	11786.80318
215.795	2174.97702
216.016	2028.73323
216.237	-761712.89945
216.459	1933.54965
216.68	5816.27189
216.901	3044.82367
217.122	833.88115
217.344	3030.65357
217.565	7156.009
217.786	3512.03059
218.007	969.00715
218.228	2675.00896
218.45	-16869.17824
218.671	43260.24571
218.892	21326.67678
219.113	1536.88595
219.334	8013.28909
219.555	-8649.34689
219.776	1838.91338
219.997	4198.6843
220.219	1133.22681
220.44	1527.12068
220.661	1672.96159
220.882	5847.46513
221.103	1471.20273
221.324	8044.20067
221.545	3197.78292
221.766	3136.75323
221.987	1478.38471
222.208	926.94433
222.429	2278.11627
222.65	214.73304
222.87	850.06749
223.091	1736.80879
223.312	1151.99837
223.533	2013.86641
223.754	1602.90502
223.975	1807.47388
224.196	984.88013
224.417	5268.32445
224.637	625.12744
224.858	66.62886
225.079	1179.7874
225.3	603.88282
225.521	2262.05118
225.741	616.59703
225.962	625.37715
226.183	179.57773
226.404	1011.08772
226.624	574.82039
226.845	622.94027
227.066	474.758
227.286	316.27965
227.507	202.42823
227.728	156.5542
227.948	276.16208
228.169	89.3943
228.389	105.47758
228.61	56.93227
228.831	82.75844
229.051	7.7804
229.272	51.19213
229.492	71.76364
229.713	21.06436
229.933	51.77745
230.154	43.54973
230.374	74.6281
230.595	55.40597
230.815	37.56095
231.036	58.07642
231.256	-14.54236
231.477	95.7387
231.697	53.38883
231.917	57.91174
232.138	87.34154
232.358	154.80589
232.579	153.46012
232.799	22.92225
233.019	135.84733
233.24	162.07738
233.46	64.48179
233.68	87.85872
233.901	63.50834
234.121	42.82617
234.341	20.18697
234.561	-0.72463
234.782	34.83733
235.002	100.22655
235.222	1.56489
235.442	90.30912
235.662	47.50695
235.883	88.3383
236.103	77.54393
236.323	56.8463
236.543	42.69753
236.763	58.8833
236.983	65.9225
237.203	61.24311
237.423	85.80452
237.643	131.44686
237.864	114.28257
238.084	32.06498
238.304	42.82929
238.524	67.14673
238.744	57.26448
238.964	96.46047
239.184	88.74856
239.404	92.11908
239.624	47.7019
239.843	83.22163
240.063	49.18384
240.283	32.51891
240.503	38.83638
240.723	36.02911
240.943	21.12557
241.163	28.32667
241.383	21.33298
241.603	11.08394
241.822	12.69147
242.042	9.87019
242.262	11.94644
242.482	13.34387
242.702	16.04082
242.921	5.14435
243.141	10.38145
243.361	10.03523
243.581	14.41896
243.8	12.02082
244.02	8.97751
244.24	15.12901
244.459	14.31401
244.679	28.76279
244.899	19.62218
245.118	20.85108
245.338	18.09158
245.558	21.08058
245.777	13.56387
245.997	14.76569
246.216	14.80053
246.436	8.63022
246.655	5.96601
246.875	4.6615
247.094	8.56013
247.314	3.34216
247.533	5.18642
247.753	6.36594
247.972	5.65154
248.192	1.69483
248.411	2.89544
248.631	5.63694
248.85	7.41855
249.07	6.22077
249.289	10.00199
249.508	7.73863
249.728	11.95265
249.947	11.4127
250.166	13.59257
250.386	7.67979
250.605	10.37908
250.824	16.59431
251.044	12.52179
251.263	36.07019
251.482	19.28447
251.701	17.69873
251.921	0.13906
252.14	5.46268
252.359	6.66483
252.578	14.18963
252.798	5.38648
253.017	13.77762
253.236	7.46754
253.455	9.24839
253.674	18.32819
253.893	8.57611
254.112	13.59599
254.331	17.95009
254.551	15.77709
254.77	7.35736
254.989	21.66927
255.208	16.90932
255.427	23.62335
255.646	20.763
255.865	31.72203
256.084	13.81714
256.303	15.91046
256.522	20.43945
256.741	4.08043
256.96	6.25476
257.179	11.93198
257.397	16.71124
257.616	9.34647
257.835	9.36018
258.054	22.50732
258.273	14.76837
258.492	16.13322
258.711	9.4732
258.93	4.44904
259.148	6.32946
259.367	6.24019
259.586	7.97316
259.805	3.46666
260.023	7.00792
260.242	5.44028
260.461	3.92187
260.68	2.23826
260.898	6.56022
261.117	2.23315
261.336	1.50285
261.554	5.49758
261.773	6.1997
261.992	1.23237
262.21	5.97679
262.429	6.56478
262.648	10.78723
262.866	12.28987
263.085	8.74769
263.303	7.42588
263.522	13.61332
263.74	13.93573
263.959	23.00606
264.178	12.51955
264.396	10.55032
264.615	8.30904
264.833	17.68015
265.051	13.81107
265.27	15.48596
265.488	15.9045
265.707	10.20392
265.925	15.88269
266.144	7.22291
266.362	8.59447
266.58	8.6841
266.799	7.43038
267.017	8.458
267.235	7.61741
267.454	5.29549
267.672	3.38916
267.89	6.8234
268.109	6.86346
268.327	6.56468
268.545	1.45585
268.763	6.19005
268.982	3.03123
269.2	7.27866
269.418	4.41242
269.636	3.79834
269.854	7.10787
270.073	5.48262
270.291	3.11212
270.509	3.32684
270.727	6.90871
270.945	10.66737
271.163	10.88363
271.381	2.81404
271.599	4.59917
271.817	7.9313
272.036	2.58724
272.254	4.77052
272.472	3.49473
272.69	3.91787
272.908	3.74475
273.126	6.23256
273.344	8.14792
273.562	3.21079
273.779	3.98587
273.997	5.96024
274.215	6.38723
274.433	4.43264
274.651	6.96971
274.869	7.29449
275.087	4.30284
275.305	6.27553
275.523	3.88922
275.74	4.65296
275.958	8.33848
276.176	12.23761
276.394	3.71725
276.612	5.11063
276.829	5.38109
277.047	4.54293
277.265	4.69034
277.483	5.84144
277.7	6.94217
277.918	5.48648
278.136	9.74236
278.353	4.73051
278.571	2.63814
278.789	7.77958
279.006	1.65864
279.224	4.3286
279.442	7.33333
279.659	5.83227
279.877	3.58214
280.094	8.5833
280.312	1.95864
280.529	5.64593
280.747	1.76806
280.964	4.10836
281.182	8.69714
281.399	4.51283
281.617	5.372
281.834	3.69963
282.052	2.84886
282.269	4.80564
282.487	3.72728
282.704	3.37773
282.921	3.70742
283.139	5.14025
283.356	6.3869
283.574	5.70599
283.791	3.00693
284.008	8.22852
284.226	4.62079
284.443	5.32459
284.66	6.26229
284.877	5.00917
285.095	3.13346
285.312	2.3894
285.529	1.7587
285.746	1.24131
285.964	3.25699
286.181	2.22305
286.398	2.88942
286.615	4.2281
286.832	3.80307
287.05	1.23546
287.267	3.01728
287.484	3.08165
287.701	4.2887
287.918	4.09141
288.135	4.10466
288.352	1.79456
288.569	2.44374
288.786	4.01176
289.003	3.12574
289.22	4.29567
289.437	2.48699
289.654	4.53051
289.871	4.59444
290.088	4.42542
290.305	3.40031
290.522	2.69331
290.739	3.17117
290.956	4.78496
291.173	5.54956
291.39	5.32542
291.607	3.66376
291.824	2.79144
292.04	1.924
292.257	4.42856
292.474	5.00546
292.691	3.23651
292.908	1.44157
293.125	2.57008
293.341	1.82966
293.558	7.98751
293.775	3.00626
293.992	3.26767
294.208	1.4451
294.425	2.12014
294.642	2.85444
294.858	4.32123
295.075	1.32776
295.292	3.05034
295.508	3.74663
295.725	5.36062
295.942	2.70959
296.158	1.8159
296.375	3.17755
296.591	2.52548
296.808	2.6272
297.024	2.80963
297.241	3.2581
297.458	3.52489
297.674	0.31863
297.891	2.84667
298.107	2.24845
298.323	1.76521
298.54	4.04348
298.756	2.19209
298.973	1.09317
299.189	4.41926
299.406	1.89296
299.622	4.57132
299.838	4.30959
300.055	3.69694
300.271	1.01002
300.487	1.57195
300.704	1.93177
300.92	1.02927
301.136	5.74328
301.353	4.38709
301.569	3.09494
301.785	3.55729
302.001	4.23408
302.218	3.66902
302.434	3.53534
302.65	0.98319
302.866	2.45281
303.083	5.88367
303.299	5.56168
303.515	2.87702
303.731	3.19591
303.947	1.00629
304.163	2.14983
304.379	3.10629
304.595	3.75291
304.812	2.12163
305.028	1.90746
305.244	2.40964
305.46	4.17951
305.676	4.12734
305.892	4.87325
306.108	3.43718
306.324	2.66875
306.54	5.66825
306.756	3.97364
306.972	3.79358
307.187	2.46266
307.403	5.32922
307.619	2.46925
307.835	4.70035
308.051	5.02501
308.267	1.50481
308.483	4.49614
308.699	3.44921
308.914	3.23398
309.13	2.81914
309.346	0.9904
309.562	1.5854
309.778	0.95906
309.993	3.65087
310.209	2.65362
310.425	1.45296
310.641	2.44425
310.856	1.41892
311.072	1.48471
311.288	2.82047
311.503	2.98672
311.719	0.7064
311.935	0.44481
312.15	3.11537
312.366	3.07157
312.581	3.48298
312.797	2.90864
313.013	3.93261
313.228	2.22842
313.444	3.16087
313.659	1.88554
313.875	3.57077
314.09	2.82076
314.306	5.01382
314.521	4.07651
314.737	3.71625
314.952	3.35688
315.168	2.86105
315.383	3.66106
315.599	2.56878
315.814	2.51608
316.029	4.08016
316.245	1.29031
316.46	0.84097
316.675	4.80054
316.891	5.82469
317.106	6.94093
317.321	3.93812
317.537	3.7381
317.752	4.20627
317.967	4.30024
318.183	2.02387
318.398	2.642
318.613	4.5994
318.828	4.98883
319.043	4.30008
319.259	2.51173
319.474	3.56234
319.689	4.71485
319.904	0.55405
320.119	4.2804
320.334	3.5471
320.549	2.74119
320.765	4.70432
320.98	3.47576
321.195	4.11878
321.41	2.94913
321.625	4.31354
321.84	5.60302
322.055	5.69068
322.27	2.04814
322.485	1.8675
322.7	3.61069
322.915	4.72092
323.13	1.89463
323.345	5.08708
323.56	4.18205
323.775	4.07992
323.989	3.68559
324.204	3.5588
324.419	4.16397
324.634	1.37082
324.849	2.87601
325.064	6.27373
325.279	4.43599
325.493	3.96687
325.708	4.52116
325.923	2.20346
326.138	2.14397
326.352	5.36742
326.567	4.42741
326.782	2.74093
326.997	2.05373
327.211	3.93064
327.426	3.82553
327.641	2.61042
327.855	1.08161
328.07	3.85626
328.285	5.34937
328.499	2.75811
328.714	3.69755
328.928	4.38628
329.143	3.17646
329.358	4.69909
329.572	4.85231
329.787	5.06139
330.001	6.92472
330.216	1.62742
330.43	5.33312
330.645	5.35483
330.859	4.35908
331.074	2.34917
331.288	3.51566
331.503	5.18988
331.717	1.91003
331.931	3.00709
332.146	3.32313
332.36	5.92281
332.575	4.03818
332.789	3.64429
333.003	3.00215
333.218	3.8705
333.432	2.23599
333.646	4.18989
333.86	5.19435
334.075	5.71025
334.289	2.59614
334.503	1.87489
334.717	3.8427
334.932	3.57297
335.146	4.98381
335.36	2.83697
335.574	4.29808
335.788	4.02768
336.003	5.21602
336.217	4.6221
336.431	4.20168
336.645	2.54779
336.859	1.86658
337.073	2.91145
337.287	3.56676
337.501	1.85469
337.715	3.43974
337.929	3.88778
338.143	1.62165
338.357	3.16856
338.571	1.92892
338.785	3.74348
338.999	2.47145
339.213	2.64084
339.427	1.43456
339.641	4.83427
339.855	2.88331
340.069	2.58773
340.283	4.80634
340.497	5.37394
340.711	3.67693
340.924	2.92744
341.138	1.72392
341.352	1.36504
341.566	3.38437
341.78	1.32967
341.993	2.76156
342.207	1.7937
342.421	3.3779
342.635	2.93412
342.848	2.37761
343.062	0.5503
343.276	2.18579
343.49	5.96816
343.703	2.21126
343.917	4.2654
344.131	4.31475
344.344	2.23027
344.558	2.54722
344.771	1.91147
344.985	4.6618
345.199	5.03991
345.412	3.39668
345.626	3.48526
345.839	1.16158
346.053	1.57211
346.266	1.77839
346.48	4.1189
346.693	3.45929
346.907	3.74428
347.12	1.99377
347.334	3.64429
347.547	3.3326
347.76	2.75202
347.974	4.70116
348.187	3.81428
348.401	2.50037
348.614	2.30206
348.827	2.74627
349.041	3.87515
349.254	1.07701
349.467	2.79157
349.681	1.65728
349.894	2.23099
350.107	4.46785
350.32	5.19453
350.534	1.14222
350.747	2.71165
350.96	2.07846
351.173	2.20708
351.386	2.29423
351.6	2.58833
351.813	2.11801
352.026	3.088
352.239	1.22877
352.452	2.7187
352.665	4.12028
352.878	2.6256
353.092	5.59305
353.305	3.84045
353.518	3.0499
353.731	1.8333
353.944	4.03272
354.157	2.27134
354.37	1.78141
354.583	1.68556
354.796	1.00784
355.009	4.37156
355.222	2.91734
355.435	2.87456
355.647	3.94282
355.86	1.61474
356.073	2.744
356.286	2.28816
356.499	3.71759
356.712	3.20259
356.925	3.18671
357.138	4.15219
357.35	1.55704
357.563	2.37658
357.776	2.80644
357.989	2.44769
358.201	3.43417
358.414	3.03342
358.627	4.12239
358.84	2.38422
359.052	1.44638
359.265	1.54221
359.478	3.9794
359.69	-0.15223
359.903	3.39557
360.116	3.62946
360.328	0.86463
360.541	3.47497
360.753	1.63331
360.966	2.04077
361.179	2.08815
361.391	2.02455
361.604	1.3836
361.816	1.92612
362.029	1.77095
362.241	1.53342
362.454	1.95952
362.666	1.431
362.879	2.72492
363.091	2.34658
363.304	1.76541
363.516	2.4612
363.728	1.08004
363.941	3.13145
364.153	1.9889
364.366	0.21008
364.578	1.3212
364.79	3.12124
365.003	2.55653
365.215	2.11442
365.427	2.9326
365.639	3.86169
365.852	2.93955
366.064	4.57281
366.276	1.9988
366.488	3.0071
366.701	2.10043
366.913	2.33996
367.125	2.3729
367.337	1.78076
367.549	2.05672
367.762	2.52948
367.974	2.54017
368.186	1.79935
368.398	3.68749
368.61	3.22338
368.822	3.25669
369.034	2.46734
369.246	3.42718
369.458	5.38372
369.67	1.43441
369.882	4.6927
370.094	0.42334
370.306	4.33542
370.518	2.06381
370.73	1.84778
370.942	1.73886
371.154	2.28307
371.366	1.94357
371.578	3.08057
371.79	1.89926
372.002	3.87563
372.214	4.68931
372.425	2.80771
372.637	4.24842
372.849	3.07074
373.061	0.46669
373.273	3.1796
373.484	3.04337
373.696	3.57005
373.908	0.20126
374.12	3.79859
374.331	3.22637
374.543	1.82096
374.755	1.65697
374.967	2.75364
375.178	3.65203
375.39	2.55339
375.602	2.9178
375.813	1.24336
376.025	1.38484
376.236	2.65275
376.448	2.87096
376.66	2.29804
376.871	2.40752
377.083	3.67074
377.294	4.04416
377.506	2.17168
377.717	4.21966
377.929	2.99472
378.14	2.07056
378.352	3.37444
378.563	3.30072
378.775	4.21066
378.986	1.91392
379.197	3.01655
379.409	2.20857
379.62	3.69715
379.832	3.02802
380.043	2.54821
380.254	3.08649
380.466	1.61326
380.677	5.69278
380.888	5.24243
381.1	5.51956
381.311	5.57676
381.522	2.88256
381.733	6.02358
381.945	2.40871
382.156	2.9481
382.367	2.57296
382.578	6.10375
382.789	6.10433
383.001	2.46583
383.212	4.69283
383.423	4.86179
383.634	4.34316
383.845	3.64201
384.056	2.67134
384.267	3.31882
384.478	2.97576
384.69	1.97674
384.901	3.64956
385.112	3.37622
385.323	4.85494
385.534	3.61837
385.745	3.5006
385.956	3.56126
386.167	2.21931
386.378	3.72706
386.588	2.18162
386.799	2.35181
387.01	1.67571
387.221	4.19394
387.432	3.22799
387.643	5.16741
387.854	3.00117
388.065	3.09962
388.275	3.17537
388.486	2.95407
388.697	3.31562
388.908	3.01074
389.119	4.63902
389.329	5.3305
389.54	3.55923
389.751	3.73057
389.962	4.77278
390.172	3.7296
390.383	2.98281
390.594	2.70051
390.804	2.70226
391.015	2.99577
391.226	3.70629
391.436	4.1191
391.647	3.92945
391.858	4.19971
392.068	2.01838
392.279	2.61695
392.489	3.98848
392.7	4.72055
392.91	2.59968
393.121	2.93169
393.331	4.19352
393.542	5.03163
393.752	4.57502
393.963	3.99926
394.173	3.96103
394.384	4.50501
394.594	3.82921
394.804	2.72238
395.015	3.9135
395.225	4.70116
395.436	2.90483
395.646	4.64682
395.856	3.51438
396.067	2.55563
396.277	5.26742
396.487	4.45953
396.697	4.39291
396.908	4.93544
397.118	4.63158
397.328	4.24374
397.538	5.20743
397.749	3.44825
397.959	5.1706
398.169	4.79829
398.379	2.96063
398.589	5.02183
398.8	4.50384
399.01	4.27089
399.22	4.14354
399.43	6.71773
399.64	4.13717
399.85	5.01897
400.06	4.51347
400.27	3.77554
400.48	4.48069
400.69	5.90458
400.9	4.02642
401.11	3.62233
401.32	5.47268
401.53	4.06163
401.74	6.43879
401.95	5.37615
402.16	4.10849
402.37	5.05164
402.58	4.19509
402.79	5.35474
403	5.67719
403.209	4.18346
403.419	5.72972
403.629	4.19696
403.839	5.78696
404.049	5.7645
404.258	4.43728
404.468	4.23446
404.678	5.65325
404.888	6.02606
405.097	4.51273
405.307	4.93576
405.517	5.68151
405.727	5.57634
405.936	4.73378
406.146	5.43499
406.356	6.5518
406.565	5.28759
406.775	4.79478
406.984	4.87117
407.194	7.21719
407.404	5.285
407.613	5.80846
407.823	6.10545
408.032	6.75247
408.242	6.46227
408.451	5.04755
408.661	5.45407
408.87	7.20408
409.08	5.03713
409.289	5.75423
409.499	5.8842
409.708	5.72081
409.918	3.72816
410.127	5.8415
410.336	7.15109
410.546	6.49835
410.755	5.27296
410.964	5.36262
411.174	4.9036
411.383	6.36209
411.592	6.26972
411.802	4.84026
412.011	6.61559
412.22	6.01041
412.429	7.52536
412.639	7.43591
412.848	7.05597
413.057	7.61421
413.266	7.11603
413.475	6.04336
413.685	6.80508
413.894	6.99148
414.103	7.25974
414.312	6.75219
414.521	6.00536
414.73	6.26713
414.939	8.08743
415.148	6.70298
415.357	6.60165
415.566	6.12864
415.776	6.10322
415.985	6.03305
416.194	7.23488
416.403	8.07724
416.611	5.44142
416.82	6.03522
417.029	6.82035
417.238	6.0888
417.447	6.09429
417.656	6.38739
417.865	6.10477
418.074	6.51421
418.283	6.75375
418.492	7.69692
418.7	7.48033
418.909	8.28314
419.118	7.00775
419.327	7.49786
419.536	7.24841
419.744	6.68459
419.953	7.90511
420.162	7.87892
420.371	6.93347
420.579	7.21714
420.788	8.29766
420.997	8.33778
421.205	8.56224
421.414	8.24424
421.623	8.27857
421.831	7.67765
422.04	8.46376
422.249	7.42345
422.457	7.93824
422.666	7.35587
422.874	8.31506
423.083	8.48268
423.291	8.2965
423.5	8.19398
423.708	8.4102
423.917	9.08837
424.125	8.42161
424.334	8.21587
424.542	10.11803
424.751	9.37893
424.959	8.95846
425.167	9.22966
425.376	8.96276
425.584	8.04814
425.793	8.41782
426.001	7.37475
426.209	8.64371
426.418	7.54844
426.626	7.5042
426.834	7.31314
427.042	7.95951
427.251	7.33798
427.459	8.53249
427.667	8.25506
427.875	6.77207
428.084	7.36913
428.292	8.75358
428.5	8.4341
428.708	6.88591
428.916	7.07777
429.124	7.88107
429.333	7.63167
429.541	7.73177
429.749	7.84158
429.957	7.73119
430.165	10.06529
430.373	6.51547
430.581	7.94159
430.789	9.18438
430.997	7.39798
431.205	7.28555
431.413	7.98803
431.621	7.64148
431.829	8.48703
432.037	7.75405
432.245	8.14399
432.453	8.22488
432.661	7.86341
432.869	9.67829
433.076	7.46346
433.284	8.04648
433.492	8.86684
433.7	9.35108
433.908	7.86077
434.116	8.45782
434.323	8.5606
434.531	8.33332
434.739	8.79801
434.947	9.08935
435.154	8.90247
435.362	8.50389
435.57	8.10053
435.778	7.76755
435.985	8.65957
436.193	7.79659
436.401	9.24583
436.608	8.37918
436.816	7.90578
437.023	9.7238
437.231	9.89991
437.439	8.57309
437.646	8.88335
437.854	8.75913
438.061	9.02809
438.269	8.16073
438.476	9.13722
438.684	8.72173
438.891	8.29176
439.099	8.14441
439.306	7.49529
439.514	7.84805
439.721	9.00752
439.929	8.12784
440.136	8.99231
440.343	8.87015
440.551	8.45721
440.758	10.20315
440.965	9.2315
441.173	8.89009
441.38	8.34663
441.587	9.06802
441.795	8.4196
442.002	9.03114
442.209	9.04937
442.416	9.32053
442.624	9.27091
442.831	9.08979
443.038	8.46605
443.245	8.02208
443.452	8.50731
443.66	9.38556
443.867	8.24515
444.074	8.20398
444.281	8.26642
444.488	8.66206
444.695	8.61535
444.902	8.43061
445.109	9.24373
445.316	8.56895
445.523	8.50554
445.73	8.28394
445.937	9.13585
446.144	9.66664
446.351	9.9527
446.558	8.67399
446.765	10.42619
446.972	10.02026
447.179	9.30937
447.386	10.15421
447.593	8.67242
447.8	9.90592
448.007	9.03321
448.214	9.10282
448.42	8.59386
448.627	9.98891
448.834	9.08359
449.041	8.80031
449.248	8.67622
449.454	9.71932
449.661	10.30516
449.868	8.72772
450.075	8.56894
450.281	7.11185
450.488	7.81999
450.695	8.00271
450.901	8.26664
451.108	8.46478
451.315	9.66159
451.521	8.73484
451.728	9.71761
451.935	8.14596
452.141	8.77679
452.348	8.83454
452.554	8.74778
452.761	8.61104
452.967	10.23379
453.174	9.0716
453.38	9.18194
453.587	7.94548
453.793	9.04475
454	9.56307
454.206	10.61368
454.413	9.91001
454.619	9.19332
454.825	8.41476
455.032	9.62481
455.238	9.57045
455.445	7.9321
455.651	9.00908
455.857	7.27423
456.064	8.88361
456.27	8.51444
456.476	8.70844
456.682	7.87264
456.889	9.22424
457.095	9.41054
457.301	10.89258
457.507	8.9229
457.714	9.19771
457.92	8.99695
458.126	8.405
458.332	8.86851
458.538	8.59808
458.744	8.81841
458.951	8.79151
459.157	10.3123
459.363	9.1478
459.569	9.06796
459.775	9.8337
459.981	8.95664
460.187	9.40522
460.393	9.84553
460.599	10.26119
460.805	9.57731
461.011	9.49395
461.217	10.33069
461.423	10.4338
461.629	9.38945
461.835	10.00066
462.041	9.10261
462.247	10.72121
462.453	9.01454
462.658	9.13082
462.864	9.84649
463.07	9.22698
463.276	9.47786
463.482	9.41922
463.688	10.63191
463.893	8.68839
464.099	8.85406
464.305	10.60688
464.511	8.75551
464.716	9.21907
464.922	10.01314
465.128	8.73179
465.333	10.86302
465.539	9.90515
465.745	9.21848
465.95	9.35384
466.156	11.70572
466.362	10.30802
466.567	9.28951
466.773	8.80922
466.978	10.52733
467.184	8.52555
467.389	7.74116
467.595	9.77247
467.8	8.76779
468.006	10.62364
468.211	10.51019
468.417	8.55871
468.622	9.82143
468.828	9.9559
469.033	9.8077
469.239	11.87711
469.444	9.09917
469.649	10.0926
469.855	9.35682
470.06	9.73177
470.266	8.53626
470.471	9.94837
470.676	9.84529
470.881	8.04679
471.087	10.8296
471.292	11.25384
471.497	8.50329
471.703	9.34674
471.908	9.1086
472.113	9.51172
472.318	10.42371
472.523	8.56221
472.729	9.66374
472.934	9.78608
473.139	9.09591
473.344	9.93841
473.549	10.69945
473.754	8.7396
473.959	11.37436
474.164	8.96256
474.369	9.44862
474.575	10.13859
474.78	9.61824
474.985	9.197
475.19	8.36278
475.395	8.94713
475.6	9.47751
475.804	10.61774
476.009	9.55504
476.214	9.68911
476.419	9.229
476.624	8.4385
476.829	9.02622
477.034	9.96047
477.239	9.05827
477.444	9.8067
477.648	10.09506
477.853	10.23211
478.058	9.41793
478.263	9.11304
478.468	8.82964
478.672	9.08636
478.877	10.85078
479.082	11.18031
479.287	10.04621
479.491	9.78869
479.696	8.74621
479.901	10.38873
480.105	10.29834
480.31	9.20469
480.515	9.55708
480.719	11.5769
480.924	9.20433
481.128	8.82055
481.333	9.80742
481.538	9.82133
481.742	9.47486
481.947	10.02672
482.151	10.37079
482.356	11.10928
482.56	13.21265
482.765	14.7164
482.969	17.49236
483.174	19.84653
483.378	22.69719
483.582	23.12436
483.787	24.70788
483.991	24.77989
484.196	24.69315
484.4	24.18668
484.604	24.16011
484.809	21.43607
485.013	20.0903
485.217	17.86964
485.422	15.87416
485.626	14.49955
485.83	14.02761
486.034	13.60794
486.239	14.33529
486.443	14.80764
486.647	15.23145
486.851	16.52563
487.055	17.85269
487.26	17.38457
487.464	18.3044
487.668	17.75011
487.872	17.98508
488.076	18.12007
488.28	17.22772
488.484	15.97721
488.688	15.3431
488.892	14.76643
489.096	13.71736
489.3	12.44995
489.504	11.59812
489.708	11.46255
489.912	11.27579
490.116	11.18643
490.32	10.72949
490.524	12.23186
490.728	13.02245
490.932	13.64178
491.136	14.32781
491.34	15.52872
491.544	15.85935
491.748	15.44442
491.951	15.36989
492.155	14.75943
492.359	14.33468
492.563	12.70568
492.767	11.80619
492.97	10.59807
493.174	10.15483
493.378	10.29603
493.582	9.75722
493.785	10.31014
493.989	10.55435
494.193	10.3248
494.396	9.99756
494.6	10.61498
494.804	10.19004
495.007	9.67389
495.211	9.55979
495.414	9.78725
495.618	10.1778
495.822	11.00595
496.025	9.85026
496.229	10.62188
496.432	9.58981
496.636	10.06117
496.839	10.01542
497.043	11.25316
497.246	10.34229
497.45	9.77582
497.653	10.138
497.856	10.39679
498.06	9.43714
498.263	10.09752
498.467	9.95772
498.67	10.96792
498.873	10.54297
499.077	9.95272
499.28	9.95817
499.483	10.4384
499.686	10.98131
499.89	10.3966
500.093	10.80615
500.296	9.61442
500.499	11.58323
500.703	10.11538
500.906	10.38614
501.109	11.46344
501.312	10.19763
501.515	10.02997
501.719	10.62001
501.922	11.45243
502.125	10.43154
502.328	10.14945
502.531	9.23626
502.734	10.14014
502.937	8.80817
503.14	10.28305
503.343	9.29145
503.546	9.87447
503.749	9.60223
503.952	10.54969
504.155	9.4753
504.358	10.769
504.561	10.16108
504.764	9.10335
504.967	10.33344
505.17	10.21651
505.373	11.44337
505.576	10.25221
505.778	10.81216
505.981	9.55896
506.184	11.11143
506.387	8.75732
506.59	11.66134
506.793	11.15832
506.995	10.53951
507.198	8.64614
507.401	10.44912
507.604	10.6522
507.806	9.33415
508.009	9.60256
508.212	10.66262
508.414	9.69166
508.617	9.72776
508.82	10.22659
509.022	11.36628
509.225	10.49406
509.427	9.26579
509.63	11.37209
509.833	10.242
510.035	10.17907
510.238	9.08181
510.44	11.25425
510.643	8.51883
510.845	12.00257
511.048	10.69674
511.25	9.92157
511.453	10.05208
511.655	10.59092
511.858	9.87301
512.06	11.04169
512.262	10.45411
512.465	10.88437
512.667	9.85167
512.869	9.35744
513.072	10.61468
513.274	11.09692
513.476	10.921
513.679	11.13582
513.881	9.49595
514.083	11.45957
514.286	9.75074
514.488	9.6944
514.69	9.4586
514.892	9.01471
515.094	10.83329
515.297	9.61506
515.499	10.14656
515.701	9.4679
515.903	11.69743
516.105	11.58842
516.307	10.82629
516.509	8.63483
516.711	9.18682
516.913	10.26566
517.116	10.31136
517.318	9.89782
517.52	11.05483
517.722	10.68697
517.924	9.33459
518.126	10.61704
518.328	9.79045
518.529	10.68396
518.731	11.81122
518.933	10.06564
519.135	10.35261
519.337	11.22827
519.539	10.93378
519.741	9.17258
519.943	10.4092
520.145	10.21852
520.346	10.88296
520.548	10.296
520.75	10.59842
520.952	10.16861
521.153	10.6415
521.355	10.78634
521.557	9.43889
521.759	10.32271
521.96	10.44506
522.162	9.38695
522.364	11.19626
522.565	9.57132
522.767	10.8929
522.969	11.17198
523.17	10.71322
523.372	10.46054
523.573	9.89146
523.775	10.15495
523.977	9.34848
524.178	11.62628
524.38	9.78285
524.581	10.7272
524.783	9.9234
524.984	10.81686
525.186	10.26715
525.387	10.70765
525.589	10.27643
525.79	10.19157
525.991	9.81603
526.193	10.56456
526.394	9.58886
526.596	10.63324
526.797	10.61026
526.998	10.12292
527.2	10.25163
527.401	12.63107
527.602	13.772
527.803	16.26284
528.005	17.05906
528.206	18.28861
528.407	19.15194
528.608	18.70877
528.81	19.02612
529.011	18.00738
529.212	18.98044
529.413	17.32227
529.614	16.07631
529.815	14.91212
530.017	13.57061
530.218	11.99082
530.419	10.73026
530.62	10.8835
530.821	11.11903
531.022	9.98252
531.223	11.22037
531.424	10.9968
531.625	10.9475
531.826	10.66894
532.027	10.61805
532.228	11.77444
532.429	11.82234
532.63	12.05844
532.831	12.89511
533.032	13.01198
533.233	13.79513
533.433	13.27599
533.634	13.42905
533.835	12.4632
534.036	11.74701
534.237	11.09832
534.438	10.69081
534.638	10.15771
534.839	10.42103
535.04	11.15625
535.241	10.50241
535.441	11.91919
535.642	10.85862
535.843	9.78247
536.043	10.01237
536.244	10.00729
536.445	10.06265
536.645	11.2182
536.846	10.72345
537.047	11.63036
537.247	10.01966
537.448	10.47849
537.648	10.80333
537.849	10.62883
538.049	10.75239
538.25	11.39198
538.451	11.00274
538.651	9.96722
538.851	11.01903
539.052	11.54744
539.252	11.29883
539.453	10.43418
539.653	10.65045
539.854	10.51146
540.054	10.44122
540.254	10.99642
540.455	12.06129
540.655	11.93802
540.855	13.40305
541.056	14.30245
541.256	13.99372
541.456	15.00698
541.657	14.15503
541.857	15.02692
542.057	13.10455
542.257	12.59193
542.458	12.80133
542.658	12.18638
542.858	10.376
543.058	11.70415
543.258	11.30495
543.458	10.18538
543.659	10.0253
543.859	11.37763
544.059	11.42755
544.259	10.57861
544.459	11.52002
544.659	10.47654
544.859	11.16278
545.059	10.3927
545.259	11.28816
545.459	11.01525
545.659	11.47389
545.859	10.58951
546.059	10.78289
546.259	9.94215
546.459	9.51716
546.659	9.8825
546.859	11.19485
547.059	11.21103
547.258	11.07721
547.458	11.06404
547.658	9.89764
547.858	9.87495
548.058	10.9794
548.258	10.55013
548.457	10.03441
548.657	13.07976
548.857	10.48021
549.057	11.3739
549.256	11.38291
549.456	10.19548
549.656	8.70245
549.855	12.38967
550.055	10.49336
550.255	12.53983
550.454	10.9683
550.654	11.56619
550.853	12.00196
551.053	11.52914
551.253	11.01151
551.452	10.99553
551.652	9.61671
551.851	9.27209
552.051	10.43109
552.25	10.07777
552.45	9.66161
552.649	10.39031
552.849	9.98613
553.048	10.41662
553.248	11.51706
553.447	9.6207
553.646	11.66859
553.846	12.42927
554.045	11.89665
554.244	9.32675
554.444	12.64928
554.643	9.87565
554.842	12.28841
555.042	12.98314
555.241	9.8522
555.44	9.75382
555.64	11.06572
555.839	12.8172
556.038	11.19008
556.237	9.86047
556.436	10.61959
556.636	11.21
556.835	10.05508
557.034	12.64025
557.233	10.69761
557.432	9.40911
557.631	12.13463
557.83	10.33545
558.029	9.92305
558.228	10.14133
558.427	9.73158
558.626	10.91831
558.825	9.70053
559.024	10.79673
559.223	12.93537
559.422	10.52975
559.621	11.25398
559.82	7.94344
560.019	10.80294
560.218	10.3502
560.417	7.69528
560.616	10.01945
560.815	14.47913
561.014	8.93287
561.212	12.31428
561.411	10.69133
561.61	8.79381
561.809	10.08031
562.008	12.48802
562.206	10.34611
562.405	11.52469
562.604	10.58059
562.803	10.89189
563.001	10.17921
563.2	9.09494
563.399	11.12358
563.597	9.28506
563.796	10.86323
563.995	9.44216
564.193	11.42594
564.392	10.07031
564.59	13.19916
564.789	8.46916
564.988	10.18008
565.186	11.03095
565.385	10.27482
565.583	10.1569
565.782	10.59203
565.98	10.41462
566.179	10.84927
566.377	9.57798
566.575	9.8736
566.774	11.98
566.972	11.77245
567.171	13.3322
567.369	12.368
567.567	10.88251
567.766	11.00508
567.964	8.61347
568.162	11.61834
568.361	11.9273
568.559	10.57465
568.757	11.34948
568.956	10.72612
569.154	10.38632
569.352	11.63734
569.55	10.73059
569.748	10.727
569.947	9.7818
570.145	9.73533
570.343	9.78891
570.541	11.91793
570.739	9.32081
570.937	10.96689
571.135	11.17189
571.333	12.75083
571.532	12.5365
571.73	11.24266
571.928	11.97082
572.126	11.37146
572.324	10.36282
572.522	12.40873
572.72	14.09616
572.918	10.82019
573.116	11.59943
573.313	10.7822
573.511	10.83982
573.709	10.22093
573.907	11.79675
574.105	10.59571
574.303	9.15543
574.501	9.19264
574.699	11.40422
574.896	11.44803
575.094	11.41347
575.292	9.45756
575.49	12.07821
575.688	10.93453
575.885	12.56595
576.083	13.41344
576.281	11.71664
576.478	10.08766
576.676	11.74716
576.874	9.58801
577.071	10.71167
577.269	14.23793
577.467	10.80748
577.664	10.92771
577.862	12.07131
578.059	9.90524
578.257	12.08511
578.455	10.65223
578.652	11.05017
578.85	8.56457
579.047	11.07418
579.245	10.81406
579.442	11.09545
579.64	11.00141
579.837	8.66721
580.034	14.42487
580.232	10.50977
580.429	9.49553
580.627	11.63892
580.824	12.65875
581.021	11.7256
581.219	10.53629
581.416	9.61415
581.613	12.79586
581.811	12.7721
582.008	9.77815
582.205	11.85338
582.402	11.41441
582.6	13.29717
582.797	11.49105
582.994	11.99689
583.191	12.3135
583.388	11.24126
583.586	12.25066
583.783	12.75416
583.98	9.69098
584.177	11.23066
584.374	7.48206
584.571	10.89954
584.768	11.08676
584.965	10.69587
585.162	12.00697
585.359	13.66945
585.556	11.05189
585.753	11.70064
585.95	9.67787
586.147	10.14937
586.344	11.98744
586.541	10.95547
586.738	9.33888
586.935	10.97527
587.132	10.02873
587.329	12.90314
587.526	11.16081
587.722	18.39127
587.919	9.56027
588.116	12.16965
588.313	13.41473
588.51	14.64872
588.706	11.14785
588.903	12.26255
589.1	12.68581
589.297	15.17208
589.493	11.3975
589.69	12.24419
589.887	10.62498
590.083	9.54953
590.28	10.35349
590.477	12.6268
590.673	12.75693
590.87	13.353
591.067	10.59551
591.263	12.0628
591.46	11.92398
591.656	10.91513
591.853	13.29469
592.049	10.15067
592.246	10.50323
592.442	13.4272
592.639	13.03674
592.835	10.08064
593.032	12.036
593.228	9.07624
593.425	9.46971
593.621	8.96891
593.817	11.86292
594.014	10.38521
594.21	11.83918
594.406	12.61921
594.603	12.21222
594.799	10.94414
594.995	8.05996
595.192	12.86485
595.388	11.01641
595.584	10.9066
595.78	9.30188
595.977	14.52903
596.173	13.67339
596.369	10.98867
596.565	9.96287
596.761	9.62264
596.957	13.02159
597.154	10.39194
597.35	10.76866
597.546	10.44969
597.742	12.18671
597.938	12.06299
598.134	10.31681
598.33	11.93895
598.526	14.04215
598.722	12.30275
598.918	14.33166
599.114	12.44946
599.31	10.38795
599.506	11.84695
599.702	9.96933
599.898	12.08916
600.094	12.86843
600.29	12.83619
600.485	12.78847
600.681	10.85159
600.877	14.20568
601.073	11.67701
601.269	14.64076
601.465	13.94835
601.66	10.50359
601.856	9.01056
602.052	14.11752
602.248	10.82947
602.443	8.71939
602.639	9.8116
602.835	10.47585
603.03	10.32987
603.226	13.10375
603.422	10.29215
603.617	11.03344
603.813	10.74736
604.009	10.79238
604.204	13.3069
604.4	9.39875
604.595	12.94012
604.791	10.09488
604.986	11.95064
605.182	10.52843
605.377	10.9047
605.573	10.60133
605.768	12.02123
605.964	12.40596
606.159	12.81767
606.355	13.79259
606.55	11.22838
606.746	13.49766
606.941	11.48664
607.136	15.00484
607.332	16.64182
607.527	9.75632
607.722	12.35882
607.918	11.40599
608.113	10.41976
608.308	12.76504
608.503	12.38309
608.699	11.99189
608.894	12.21248
609.089	10.5736
609.284	11.83422
609.479	11.12426
609.675	12.6691
609.87	11.36155
610.065	12.8422
610.26	13.48723
610.455	13.17013
610.65	11.53936
610.845	11.84074
611.04	13.56019
611.235	11.65429
611.43	11.20657
611.625	9.79816
611.82	14.43598
612.015	10.75109
612.21	14.4373
612.405	9.37837
612.6	15.62364
612.795	14.41661
612.99	13.46434
613.185	9.979
613.38	10.89533
613.575	12.45174
613.77	17.42213
613.965	9.43547
614.159	10.49305
614.354	14.52503
614.549	14.40013
614.744	13.64975
614.938	10.19781
615.133	9.51624
615.328	14.94697
615.523	14.55451
615.717	17.81092
615.912	11.10275
616.107	12.72137
616.301	11.90163
616.496	10.95774
616.691	15.86552
616.885	13.80613
617.08	17.87117
617.274	14.75557
617.469	16.31934
617.664	13.83445
617.858	11.13415
618.053	13.20986
618.247	11.92783
618.442	8.21493
618.636	15.09674
618.831	11.74223
619.025	11.67793
619.219	17.75929
619.414	6.73558
619.608	12.26891
619.803	11.30768
619.997	16.95093
620.191	14.90914
620.386	13.65658
620.58	12.46422
620.774	8.90115
620.969	9.14585
621.163	12.58958
621.357	10.50099
621.551	12.07441
621.746	12.7673
621.94	12.22359
622.134	19.48554
622.328	16.89154
622.522	9.91635
622.716	14.9976
622.911	14.78177
623.105	14.82404
623.299	13.58124
623.493	18.36059
623.687	10.85463
623.881	11.59016
624.075	13.74447
624.269	15.11501
624.463	9.12264
624.657	9.41591
624.851	13.97238
625.045	14.28387
625.239	14.7041
625.433	11.49443
625.627	15.59231
625.821	11.5448
626.015	11.26416
626.209	12.51602
626.403	9.84492
626.596	13.47729
626.79	13.96565
626.984	10.30774
627.178	13.2533
627.372	13.23552
627.565	13.87597
627.759	9.40198
627.953	10.20668
628.147	13.5328
628.34	13.81287
628.534	17.17192
628.728	12.22472
628.921	14.59868
629.115	14.37453
629.309	14.79671
629.502	14.9037
629.696	13.62243
629.89	12.9818
630.083	13.02235
630.277	13.63729
630.47	17.01475
630.664	12.3865
630.857	9.71947
631.051	14.81661
631.244	15.6083
631.438	14.9638
631.631	10.71652
631.825	16.31745
632.018	14.79584
632.212	18.10078
632.405	16.0459
632.598	11.37128
632.792	13.6139
632.985	8.13755
633.178	11.61066
633.372	13.01074
633.565	12.97452
633.758	15.81805
633.952	11.07374
634.145	11.14507
634.338	12.63541
634.531	12.20809
634.724	11.75987
634.918	13.92257
635.111	12.54458
635.304	11.97772
635.497	18.51831
635.69	14.09879
635.883	16.24178
636.077	10.60742
636.27	14.4337
636.463	13.63454
636.656	14.07451
636.849	12.48318
637.042	14.81213
637.235	17.09855
637.428	14.98449
637.621	14.77379
637.814	17.66896
638.007	17.83247
638.2	17.6071
638.393	18.30852
638.586	11.53902
638.778	12.81159
638.971	13.86429
639.164	17.38305
639.357	15.0006
639.55	17.76854
639.743	15.79542
639.935	15.40987
640.128	19.30132
640.321	16.24769
640.514	14.85954
640.707	20.75509
640.899	16.09497
641.092	9.75333
641.285	34.61525
641.477	8.54149
641.67	19.46784
641.863	18.31988
642.055	15.34174
642.248	14.54775
642.441	13.38505
642.633	15.6863
642.826	18.15925
643.018	18.38181
643.211	20.14453
643.403	18.81953
643.596	21.23801
643.788	19.59313
643.981	13.79756
644.173	16.99157
644.366	13.94398
644.558	10.09191
644.751	17.15446
644.943	10.97481
645.135	19.75084
645.328	20.09125
645.52	17.31083
645.712	18.1179
645.905	24.48891
646.097	12.02916
646.289	15.89259
646.482	21.0439
646.674	13.17015
646.866	18.97198
647.058	16.86703
647.251	12.32147
647.443	13.99283
647.635	15.48519
647.827	12.81246
648.019	12.51549
648.211	15.4276
648.404	15.75155
648.596	19.64289
648.788	16.05027
648.98	16.35103
649.172	16.64446
649.364	16.81833
649.556	10.13724
649.748	23.13517
649.94	12.68307
650.132	16.61324
650.324	13.12843
650.516	13.276
650.708	19.08914
650.9	11.15888
651.092	10.19208
651.284	11.12063
651.476	12.34848
651.667	17.14222
651.859	19.59246
652.051	15.00603
652.243	16.27166
652.435	13.81122
652.627	16.89614
652.818	17.15352
653.01	10.54861
653.202	13.12033
653.394	14.984
653.585	17.55131
653.777	29.49285
653.969	19.96945
654.16	19.63321
654.352	12.79826
654.544	15.30748
654.735	19.1044
654.927	15.88404
655.118	20.58004
655.31	18.7912
655.502	19.09463
655.693	14.71544
655.885	18.12444
656.076	19.87584
656.268	16.39967
656.459	20.70791
656.651	19.93661
656.842	14.24957
657.034	13.74879
657.225	18.71942
657.416	20.66719
657.608	19.87246
657.799	15.30974
657.99	18.70516
658.182	13.67948
658.373	13.50089
658.564	18.31752
658.756	15.9636
658.947	15.26779
659.138	13.01941
659.33	14.2868
659.521	13.24912
659.712	15.35934
659.903	14.9078
660.094	13.55401
660.286	11.13658
660.477	21.91984
660.668	17.5865
660.859	16.1153
661.05	11.50433
661.241	18.41466
661.432	18.20888
661.623	15.72081
661.814	15.30693
662.006	11.35987
662.197	18.33909
662.388	20.37712
662.579	17.01754
662.77	21.21902
662.96	26.15112
663.151	19.90268
663.342	11.00212
663.533	18.54668
663.724	17.03759
663.915	22.8084
664.106	16.18524
664.297	23.89288
664.488	19.80189
664.678	15.50891
664.869	19.64556
665.06	21.14274
665.251	17.54861
665.442	19.35696
665.632	13.86569
665.823	24.54698
666.014	7.75857
666.204	19.99719
666.395	22.26326
666.586	28.03407
666.776	20.00104
666.967	24.1539
667.158	17.23609
667.348	23.01544
667.539	13.81506
667.729	20.66389
667.92	14.50264
668.111	21.72693
668.301	19.40469
668.492	16.58049
668.682	17.48106
668.873	16.66199
669.063	13.69533
669.253	17.82337
669.444	21.26918
669.634	17.13109
669.825	25.29605
670.015	22.25991
670.206	14.66509
670.396	26.12631
670.586	17.48095
670.777	20.20657
670.967	10.44129
671.157	17.71894
671.347	15.97885
671.538	24.28081
671.728	19.33672
671.918	25.39065
672.108	22.99123
672.299	17.79038
672.489	19.39501
672.679	16.09742
672.869	21.66717
673.059	25.66452
673.249	21.20857
673.44	15.21338
673.63	17.6855
673.82	22.15562
674.01	15.25082
674.2	20.67571
674.39	31.15792
674.58	21.78197
674.77	19.6607
674.96	18.76824
675.15	35.7456
675.34	23.2955
675.53	19.30749
675.72	16.99535
675.91	14.11581
676.099	26.45681
676.289	28.14823
676.479	23.51883
676.669	16.76617
676.859	20.73629
677.049	14.45432
677.238	18.86072
677.428	26.58857
677.618	19.96706
677.808	24.37076
677.997	20.56891
678.187	14.72474
678.377	18.2866
678.567	16.4219
678.756	16.63432
678.946	17.67322
679.136	13.14614
679.325	15.48991
679.515	14.76217
679.704	13.05012
679.894	20.74783
680.084	19.14035
680.273	23.32866
680.463	14.79727
680.652	14.74737
680.842	18.31845
681.031	22.26279
681.221	15.35434
681.41	20.84314
681.6	17.78749
681.789	21.44457
681.978	24.26099
682.168	19.72428
682.357	20.43098
682.547	21.92605
682.736	19.59672
682.925	24.31731
683.115	25.02738
683.304	23.68922
683.493	21.42966
683.682	22.40856
683.872	21.37184
684.061	25.5884
684.25	22.29036
684.439	28.11781
684.629	22.36021
684.818	34.1132
685.007	20.17074
685.196	19.11015
685.385	27.31691
685.574	23.19735
685.763	23.41673
685.952	21.2533
686.142	15.3022
686.331	27.64568
686.52	13.04229
686.709	28.78006
686.898	27.63126
687.087	24.03797
687.276	28.67464
687.465	25.3698
687.654	19.00346
687.842	28.55099
688.031	14.70936
688.22	27.54171
688.409	21.84335
688.598	22.67485
688.787	32.88858
688.976	21.76117
689.165	30.55214
689.353	19.92678
689.542	24.18876
689.731	25.15078
689.92	31.45886
690.108	26.56678
690.297	20.62975
690.486	22.37967
690.675	27.04307
690.863	30.87612
691.052	30.2187
691.241	24.92225
691.429	24.52333
691.618	29.09383
691.806	16.21492
691.995	21.50157
692.184	22.52312
692.372	20.6143
692.561	24.24516
692.749	22.83908
692.938	36.25661
693.126	26.78226
693.315	21.36928
693.503	26.26718
693.692	27.02871
693.88	28.6682
694.068	35.26912
694.257	23.61738
694.445	26.11988
694.634	13.73614
694.822	29.60421
695.01	29.90773
695.199	31.20677
695.387	31.65554
695.575	30.92213
695.763	23.77413
695.952	21.99131
696.14	16.24757
696.328	20.02687
696.516	23.98199
696.705	25.51209
696.893	24.19088
697.081	15.2046
697.269	25.52653
697.457	17.25116
697.645	16.2519
697.833	25.47409
698.021	17.60721
698.21	19.85158
698.398	20.6514
698.586	16.18691
698.774	16.01184
698.962	19.75783
699.15	17.36532
699.338	15.03215
699.526	23.43265
699.714	18.54421
699.901	19.83538
700.089	27.14969
700.277	19.19507
700.465	21.59043
700.653	27.2783
700.841	26.14351
701.029	19.57977
701.217	30.56283
701.404	24.39893
701.592	32.54379
701.78	34.43797
701.968	21.03653
702.155	22.71248
702.343	17.66371
702.531	32.2091
702.718	27.05779
702.906	23.33909
703.094	21.44989
703.281	32.07466
703.469	23.06338
703.657	31.98163
703.844	43.74854
704.032	35.63029
704.219	22.02358
704.407	28.39455
704.595	34.30952
704.782	25.99373
704.97	22.56079
705.157	22.72204
705.345	35.36312
705.532	42.30488
705.719	28.41433
705.907	34.143
706.094	27.76392
706.282	36.76129
706.469	25.11849
706.656	26.10372
706.844	23.44346
707.031	32.40152
707.218	27.00303
707.406	36.39026
707.593	30.67286
707.78	30.7012
707.968	25.82493
708.155	20.43688
708.342	29.32507
708.529	30.70492
708.716	28.05771
708.904	38.31088
709.091	30.40358
709.278	19.89199
709.465	38.57669
709.652	38.87906
709.839	34.67805
710.026	28.73049
710.213	17.00361
710.4	30.10101
710.587	32.50555
710.774	36.68009
710.961	35.78323
711.148	27.98157
711.335	35.06103
711.522	26.82216
711.709	29.63109
711.896	42.12988
712.083	33.66022
712.27	23.03969
712.457	28.91844
712.644	18.95289
712.831	41.11604
713.017	29.69654
713.204	34.13071
713.391	24.48534
713.578	36.47813
713.765	37.47277
713.951	32.60067
714.138	50.26775
714.325	34.58499
714.512	29.34275
714.698	25.01903
714.885	39.71221
715.072	31.59785
715.258	30.47173
715.445	25.97456
715.631	38.78528
715.818	14.30506
716.005	25.63638
716.191	33.69174
716.378	28.81302
716.564	36.626
716.751	23.88819
716.937	27.96237
717.124	38.93206
717.31	26.29173
717.497	43.04227
717.683	25.15253
717.869	48.35774
718.056	28.34621
718.242	34.91522
718.429	30.89435
718.615	22.89497
718.801	32.42856
718.988	39.47294
719.174	36.01697
719.36	30.76505
719.547	41.7098
719.733	34.7435
719.919	35.70513
720.105	37.85634
720.291	32.05669
720.478	34.12479
720.664	30.50941
720.85	28.52526
721.036	57.11869
721.222	44.10985
721.408	32.71202
721.595	49.91611
721.781	46.56924
721.967	41.87634
722.153	45.39531
722.339	39.00027
722.525	36.50221
722.711	25.9707
722.897	22.68334
723.083	29.89248
723.269	43.37573
723.455	56.20416
723.641	59.96138
723.827	36.77349
724.012	38.73131
724.198	31.91249
724.384	47.30013
724.57	38.72753
724.756	22.6639
724.942	18.3502
725.127	43.26
725.313	47.59011
725.499	46.7691
725.685	51.26434
725.87	38.82586
726.056	28.86811
726.242	46.5686
726.428	21.98878
726.613	43.2596
726.799	31.12015
726.985	26.63034
727.17	23.87654
727.356	50.73769
727.541	28.2653
727.727	34.05119
727.913	41.74174
728.098	30.937
728.284	42.29883
728.469	24.9895
728.655	29.29859
728.84	41.49551
729.026	41.74861
729.211	41.74793
729.397	37.33577
729.582	42.62383
729.767	35.6651
729.953	38.32667
730.138	44.09598
730.323	17.35399
730.509	25.04469
730.694	50.50652
730.879	39.08045
731.065	36.60506
731.25	56.2852
731.435	41.04978
731.621	22.69045
731.806	30.15441
731.991	38.14489
732.176	23.16318
732.361	47.99801
732.547	37.21386
732.732	22.61906
732.917	56.02167
733.102	26.51566
733.287	30.74528
733.472	36.54463
733.657	38.29079
733.842	25.61607
734.027	33.49098
734.212	35.73919
734.397	30.03909
734.582	38.38814
734.767	45.867
734.952	50.78261
735.137	14.37799
735.322	50.99925
735.507	40.63737
735.692	38.89074
735.877	58.15549
736.062	55.60761
736.247	42.5024
736.431	36.71393
736.616	49.55889
736.801	40.35362
736.986	39.3618
737.171	29.1498
737.355	25.01429
737.54	50.65918
737.725	38.70888
737.909	65.89588
738.094	32.90131
738.279	47.65038
738.463	35.23659
738.648	43.78135
738.833	40.94373
739.017	57.99964
739.202	36.63005
739.386	39.01193
739.571	29.64494
739.756	46.8563
739.94	39.05558
740.125	49.10246
740.309	31.43704
740.494	49.00359
740.678	40.20706
740.863	45.32514
741.047	41.75963
741.231	52.71609
741.416	31.26547
741.6	57.88187
741.785	33.15888
741.969	48.67842
742.153	53.40385
742.338	20.92074
742.522	42.24728
742.706	48.77097
742.89	26.34449
743.075	42.22844
743.259	57.43241
743.443	49.31947
743.627	54.83128
743.812	64.65811
743.996	23.81148
744.18	38.68178
744.364	38.0071
744.548	69.96365
744.732	40.61042
744.916	49.06065
745.1	46.77279
745.285	39.99144
745.469	45.85666
745.653	62.99924
745.837	26.15918
746.021	68.82836
746.205	53.57365
746.389	45.43129
746.573	38.90022
746.757	59.66001
746.94	34.96495
747.124	55.71027
747.308	29.4943
747.492	54.38566
747.676	33.97752
747.86	69.47896
748.044	37.98693
748.227	22.86565
748.411	83.50032
748.595	43.40659
748.779	32.1204
748.963	47.78165
749.146	44.26112
749.33	31.59914
749.514	30.54397
749.697	56.5012
749.881	36.79969
750.065	32.14058
750.248	44.0225
750.432	72.12171
750.616	42.66865
750.799	29.84261
750.983	70.44072
751.166	75.63525
751.35	25.38298
751.533	51.07573
751.717	59.77123
751.9	61.68764
752.084	38.45512
752.267	30.81922
752.451	36.05643
752.634	45.94449
752.818	49.67802
753.001	53.48935
753.184	55.86888
753.368	50.40262
753.551	8.67084
753.734	35.92154
753.918	68.61591
754.101	36.34123
754.284	53.48873
754.467	37.96678
754.651	37.71853
754.834	35.62288
755.017	57.18299
755.2	57.15844
755.384	32.00434
755.567	53.43338
755.75	57.64013
755.933	39.10594
756.116	45.92205
756.299	39.42649
756.482	33.75407
756.665	50.37904
756.848	44.46229
757.032	49.52791
757.215	26.7135
757.398	34.0742
757.581	35.29226
757.764	78.01115
757.947	42.45238
758.129	59.39869
758.312	12.39203
758.495	41.12138
758.678	39.8223
758.861	41.95172
759.044	71.87938
759.227	32.63728
759.41	32.78796
759.592	50.2973
759.775	41.67047
759.958	56.22214
760.141	28.66309
760.324	73.53175
760.506	63.91963
760.689	54.83995
760.872	75.38431
761.054	53.63758
761.237	42.56541
761.42	52.71506
761.602	57.05751
761.785	49.89103
761.968	57.47208
762.15	67.82874
762.333	40.77097
762.515	47.96333
762.698	36.67477
762.88	51.30942
763.063	47.19666
763.245	49.89275
763.428	29.73219
763.61	35.56387
763.793	27.50596
763.975	43.59514
764.158	37.00305
764.34	36.91661
764.522	30.75215
764.705	40.09369
764.887	59.66357
765.069	25.75789
765.252	54.73103
765.434	54.58266
765.616	46.40877
765.799	37.42973
765.981	56.44114
766.163	35.551
766.345	60.80802
766.528	38.38302
766.71	16.66465
766.892	48.10763
767.074	63.32714
767.256	43.02508
767.438	70.10635
767.62	53.1574
767.802	77.11707
767.985	55.52302
768.167	76.62429
768.349	35.45343
768.531	55.72675
768.713	52.47494
768.895	62.62294
769.077	54.4727
769.259	84.48653
769.441	119.52593
769.623	63.9028
769.804	73.68342
769.986	69.95047
770.168	88.40023
770.35	104.33544
770.532	75.16935
770.714	80.30756
770.896	87.37962
771.077	35.33278
771.259	85.79833
771.441	72.09292
771.623	96.1201
771.804	117.36883
771.986	38.12485
772.168	54.17808
772.35	93.41912
772.531	126.97903
772.713	67.80003
772.894	96.36751
773.076	69.50917
773.258	58.52487
773.439	97.8528
773.621	106.49653
773.802	45.75469
773.984	59.97367
774.166	76.04759
774.347	103.17448
774.529	93.20718
774.71	28.41217
774.891	64.05129
775.073	58.40526
775.254	103.59072
775.436	58.26875
775.617	110.21601
775.799	60.22465
775.98	109.26655
776.161	109.49872
776.343	111.2046
776.524	67.3962
776.705	61.03456
776.886	32.07822
777.068	77.06362
777.249	134.46068
777.43	119.9199
777.611	50.25293
777.793	64.34711
777.974	109.17468
778.155	62.34806
778.336	49.44932
778.517	118.41057
778.698	55.80502
778.879	30.35635
779.061	16.57566
779.242	80.59214
779.423	81.98458
779.604	57.67728
779.785	71.18479
779.966	72.78846
780.147	96.90992
780.328	95.94669
780.509	138.83683
780.69	87.36547
780.871	56.30834
781.051	42.01738
781.232	76.06463
781.413	76.91829
781.594	64.74369
781.775	59.4901
781.956	58.48549
782.137	30.39764
782.317	55.42144
782.498	79.47477
782.679	70.93435
782.86	72.46258
783.04	56.60972
783.221	82.59486
783.402	118.32253
783.583	76.92873
783.763	86.57579
783.944	59.12885
784.124	38.69118
784.305	112.785
784.486	80.39541
784.666	70.65074
784.847	34.67835
785.027	137.70915
785.208	56.15447
785.388	54.21216
785.569	57.38477
785.749	61.49959
785.93	57.99183
786.11	35.39523
786.291	82.78697
786.471	80.07207
786.652	89.52687
786.832	68.82227
787.012	79.50309
787.193	42.50422
787.373	71.25997
787.553	64.31037
787.734	74.56327
787.914	62.91948
788.094	82.9007
788.275	76.95601
788.455	65.37979
788.635	46.39183
788.815	76.26046
788.995	46.98076
789.176	38.43132
789.356	54.92509
789.536	66.68668
789.716	81.57165
789.896	54.24754
790.076	61.20475
790.256	73.8565
790.436	24.34454
790.616	52.5358
790.796	75.78115
790.976	60.83135
791.156	52.68536
791.336	82.20533
791.516	78.49793
791.696	67.29294
791.876	38.53182
792.056	71.91138
792.236	93.01531
792.416	91.30048
792.596	82.16998
792.776	81.52167
792.956	84.81844
793.135	104.93695
793.315	47.78024
793.495	101.90339
793.675	86.63622
793.854	87.53718
794.034	91.65091
794.214	44.85541
794.394	87.07212
794.573	98.10422
794.753	73.0969
794.933	50.73174
795.112	73.95571
795.292	91.47107
795.472	114.69331
795.651	40.86907
795.831	69.69029
796.01	58.87509
796.19	65.03929
796.369	68.9385
796.549	82.96599
796.728	66.96012
796.908	44.20423
797.087	47.3839
797.267	61.71016
797.446	47.03569
797.626	82.26461
797.805	79.79197
797.984	54.32463
798.164	86.01666
798.343	48.33854
798.522	74.62273
798.702	75.59987
798.881	43.83118
799.06	66.89109
799.239	27.17012
799.419	49.02992
799.598	108.33308
799.777	83.96999
799.956	101.64961
800.136	62.50538
800.315	58.51414
800.494	83.07387
800.673	98.06266
800.852	87.45916
801.031	98.08279
801.21	85.86686
801.389	63.21296
801.568	74.4015
801.747	117.11657
801.926	71.7956
802.105	110.41332
802.284	62.48796
802.463	109.70319
802.642	77.05962
802.821	76.87812
803	108.46891
803.179	90.59498
803.358	99.34217
803.537	61.54449
803.716	75.92719
803.895	58.22161
804.073	68.56379
804.252	59.55387
804.431	79.43184
804.61	68.49801
804.789	97.34872
804.967	60.19726
805.146	56.89383
805.325	118.4788
805.503	85.33581
805.682	35.77563
805.861	140.62266
806.039	103.29049
806.218	53.90541
806.397	79.55252
806.575	72.37813
806.754	75.21059
806.932	47.8285
807.111	112.67272
807.289	92.86381
807.468	75.54643
807.646	101.01599
807.825	91.31154
808.003	81.52983
808.182	100.31631
808.36	76.91528
808.539	56.76881
808.717	113.45815
808.895	56.62938
809.074	82.18752
809.252	69.63205
809.43	93.13613
809.609	101.82223
809.787	124.30409
809.965	69.39986
810.144	73.8109
810.322	64.24855
810.5	85.14961
810.678	70.72613
810.856	130.15163
811.035	101.4706
811.213	95.2531
811.391	105.27791
811.569	82.55366
811.747	151.4931
811.925	110.03421
812.103	59.16334
812.281	61.26848
812.459	127.70522
812.637	128.75575
812.816	101.04345
812.994	128.69244
813.171	107.11029
813.349	87.67973
813.527	114.70148
813.705	115.09919
813.883	145.98594
814.061	103.28871
814.239	131.53088
814.417	135.03753
814.595	90.57067
814.773	86.68051
814.95	89.23971
815.128	95.57413
815.306	80.88884
815.484	73.23383
815.662	55.99715
815.839	56.62892
816.017	55.7018
816.195	115.81101
816.372	74.92307
816.55	94.58839
816.728	121.5092
816.905	74.74425
817.083	127.58169
817.261	80.56336
817.438	138.04893
817.616	136.23766
817.793	64.06883
817.971	99.52779
818.148	98.31849
818.326	120.37905
818.503	88.90226
818.681	117.47077
818.858	62.72757
819.036	81.30389
819.213	84.52095
819.391	62.04802
819.568	57.99875
819.745	56.32786
819.923	97.36412
820.1	64.28532
820.277	56.57291
820.455	65.38617
820.632	68.65917
820.809	69.5469
820.986	45.77686
821.164	37.04517
821.341	32.44481
821.518	42.32514
821.695	30.94314
821.872	29.36563
822.05	24.75417
822.227	19.7346
822.404	20.93128
822.581	26.12276
822.758	21.37892
822.935	21.93274
823.112	25.44308
823.289	20.73247
823.466	26.89395
823.643	24.46372
823.82	30.83574
823.997	27.95103
824.174	34.81788
824.351	46.30249
824.528	44.56909
824.705	38.551
824.882	44.64565
825.059	57.23419
825.236	39.58318
825.412	40.89817
825.589	50.69399
825.766	70.11641
825.943	42.15223
826.12	52.24881
826.296	34.06517
826.473	43.141
826.65	41.37501
826.827	52.70269
827.003	33.9984
827.18	38.40951
827.357	44.17678
827.533	39.03344
827.71	22.34863
827.887	33.79036
828.063	40.86799
828.24	35.9565
828.416	51.01065
828.593	39.97366
828.769	62.06271
828.946	70.60575
829.122	70.5836
829.299	69.7238
829.475	36.82567
829.652	64.80518
829.828	111.95128
830.005	67.01799
830.181	90.99487
830.357	62.8332
830.534	101.5
830.71	69.44417
830.886	88.64443
831.063	89.81361
831.239	111.88536
831.415	49.91127
831.592	113.72077
831.768	71.93101
831.944	61.22758
832.12	111.13704
832.296	104.71852
832.473	90.59359
832.649	60.38421
832.825	85.62364
833.001	46.10527
833.177	73.16768
833.353	65.7199
833.529	36.96157
833.705	55.48503
833.881	39.95297
834.058	39.43807
834.234	44.39722
834.41	44.18247
834.586	34.07786
834.761	45.391
834.937	49.66948
835.113	52.10651
835.289	45.62179
835.465	60.16897
835.641	51.45493
835.817	57.95271
835.993	105.45708
836.169	50.29543
836.344	76.12212
836.52	87.74195
836.696	81.39016
836.872	61.58834
837.048	169.28763
837.223	72.01881
837.399	132.37332
837.575	109.99411
837.75	103.52752
837.926	137.0309
838.102	212.2256
838.277	169.07084
838.453	204.18125
838.628	192.71287
838.804	87.46253
838.98	209.05312
839.155	91.38287
839.331	123.93098
839.506	89.97693
839.682	96.53954
839.857	111.0663
840.033	132.26068
840.208	70.43551
840.384	32.52447
840.559	69.34993
840.734	108.73751
840.91	156.79901
841.085	93.75886
841.26	102.20243
841.436	87.77004
841.611	89.92111
841.786	141.67162
841.962	180.10475
842.137	105.58392
842.312	73.8749
842.487	95.86771
842.663	71.74879
842.838	87.79862
843.013	278.34205
843.188	144.65855
843.363	157.54621
843.538	258.75844
843.714	261.39151
843.889	264.51783
844.064	260.70324
844.239	232.23165
844.414	272.81581
844.589	174.94668
844.764	301.84363
844.939	285.65188
845.114	371.46399
845.289	318.75534
845.464	360.3728
845.639	289.62022
845.814	155.13607
845.989	193.45747
846.163	191.82533
846.338	234.29387
846.513	323.23167
846.688	217.95585
846.863	219.291
847.038	183.56376
847.212	217.93741
847.387	224.15451
847.562	233.77785
847.737	250.4358
847.911	106.64698
848.086	132.72838
848.261	432.54374
848.435	190.79671
848.61	315.33636
848.785	146.8509
848.959	276.9991
849.134	379.68779
849.308	505.76859
849.483	235.01211
849.658	330.26609
849.832	201.11433
850.007	164.75166
850.181	400.36999
850.356	187.99213
850.53	372.42562
850.705	150.66921
850.879	98.66154
851.053	235.38728
851.228	195.55067
851.402	266.23643
851.577	328.63938
851.751	324.85325
851.925	240.75539
852.099	114.73145
852.274	172.85496
852.448	208.92417
852.622	284.57958
852.797	222.2302
852.971	226.07768
853.145	263.47759
853.319	457.1904
853.493	353.75824
853.668	209.0624
853.842	388.32936
854.016	316.32221
854.19	421.8517
854.364	252.21186
854.538	265.08086
854.712	330.17812
854.886	237.33603
855.06	197.305
855.234	80.48047
855.408	362.71396
855.582	337.37655
855.756	310.7511
855.93	388.19021
856.104	275.24257
856.278	331.04805
856.452	244.80517
856.626	268.54711
856.8	450.82761
856.973	298.35721
857.147	273.4711
857.321	269.52238
857.495	354.85258
857.669	245.33455
857.842	217.11313
858.016	358.38877
858.19	156.88568
858.364	592.7458
858.537	217.33844
858.711	250.20207
858.885	204.83243
859.058	174.70109
859.232	113.43408
859.405	124.63315
859.579	326.90163
859.753	266.3667
859.926	172.23539
860.1	116.12026
860.273	230.43442
860.447	417.22971
860.62	217.87081
860.794	429.01968
860.967	238.88014
861.141	341.88788
861.314	478.09667
861.487	281.88667
861.661	370.94511
861.834	397.14832
862.008	321.76863
862.181	253.20795
862.354	260.73362
862.528	283.05018
862.701	175.46385
862.874	132.5879
863.047	201.20892
863.221	216.12206
863.394	95.39614
863.567	339.74276
863.74	74.23571
863.913	342.41218
864.087	277.75467
864.26	295.73924
864.433	219.6406
864.606	469.26427
864.779	236.76963
864.952	102.61896
865.125	201.75041
865.298	228.31022
865.471	244.78664
865.644	404.96801
865.817	331.5449
865.99	304.90359
866.163	373.42203
866.336	190.56632
866.509	221.14539
866.682	193.59594
866.855	341.87447
867.028	144.36183
867.2	290.30226
867.373	87.47898
867.546	253.98057
867.719	422.89724
867.892	249.79866
868.064	165.26877
868.237	249.53333
868.41	268.859
868.583	120.32312
868.755	136.46612
868.928	205.13558
869.101	441.87259
869.273	324.22486
869.446	275.02493
869.619	342.33502
869.791	218.74115
869.964	332.37678
870.136	304.75654
870.309	249.54284
870.481	238.59959
870.654	126.78236
870.826	241.61371
870.999	219.67425
871.171	291.71611
871.344	184.08012
871.516	227.07304
871.689	159.7258
871.861	262.63289
872.033	177.82605
872.206	230.15795
872.378	321.84712
872.55	207.70471
872.723	138.57213
872.895	200.13921
873.067	331.34626
873.24	305.95344
873.412	182.4013
873.584	218.66735
873.756	178.38466
873.928	253.80978
874.101	244.27913
874.273	264.21094
874.445	93.80603
874.617	149.85499
874.789	237.49081
874.961	203.97912
875.133	266.84577
875.305	228.65456
875.477	143.35154
875.649	117.57403
875.821	147.81564
875.993	339.07114
876.165	165.77526
876.337	241.55207
876.509	234.5361
876.681	239.99871
876.853	250.09909
877.025	245.36324
877.197	170.13786
877.369	147.36162
877.541	277.82065
877.712	73.24971
877.884	137.17846
878.056	232.62616
878.228	132.64156
878.4	260.41918
878.571	132.5867
878.743	94.45402
878.915	201.5606
879.086	132.87039
879.258	159.52523
879.43	135.48
879.601	118.22246
879.773	125.7762
879.945	33.87629
880.116	51.44416
880.288	32.34513
880.459	38.14039
880.631	27.89459
880.802	32.76641
880.974	31.06472
881.145	22.28917
881.317	30.5493
881.488	23.00217
881.66	25.55338
881.831	22.98345
882.002	33.47383
882.174	23.52627
882.345	32.67843
882.517	16.48732
882.688	42.29547
882.859	32.78837
883.03	56.46501
883.202	56.48682
883.373	49.21578
883.544	47.00814
883.715	81.97267
883.887	70.82761
884.058	59.33085
884.229	81.83177
884.4	80.44229
884.571	99.36492
884.742	75.6212
884.914	85.60414
885.085	123.12222
885.256	157.90559
885.427	130.49024
885.598	150.91247
885.769	151.85503
885.94	148.8611
886.111	104.47368
886.282	183.89199
886.453	136.51091
886.624	104.8378
886.795	193.46677
886.966	147.28444
887.136	190.61949
887.307	149.01231
887.478	254.68951
887.649	216.28245
887.82	217.52291
887.991	184.66594
888.161	255.03337
888.332	218.48975
888.503	116.03166
888.674	296.39835
888.844	340.70225
889.015	252.89326
889.186	121.97574
889.356	319.73417
889.527	110.82064
889.698	463.40073
889.868	155.04404
890.039	245.05708
890.209	196.97743
890.38	250.97949
890.551	225.76551
890.721	325.58064
890.892	277.4624
891.062	193.5088
891.233	238.79773
891.403	174.88652
891.574	136.21537
891.744	199.59245
891.914	207.75829
892.085	193.56553
892.255	74.9787
892.425	294.80175
892.596	220.32378
892.766	227.64586
892.936	284.35233
893.107	240.39905
893.277	135.30189
893.447	109.45793
893.618	76.87503
893.788	156.08662
893.958	85.67319
894.128	81.0716
894.298	96.60986
894.468	126.38915
894.639	60.95907
894.809	40.85436
894.979	66.96292
895.149	83.3683
895.319	67.87722
895.489	96.82047
895.659	125.65156
895.829	82.4877
895.999	92.46547
896.169	76.16698
896.339	101.30004
896.509	192.82887
896.679	200.99772
896.849	214.49486
897.019	274.63989
897.189	198.68102
897.358	169.70256
897.528	279.40075
897.698	100.8306
897.868	232.8998
898.038	395.32009
898.208	372.60712
898.377	111.56155
898.547	333.43761
898.717	484.3376
898.886	247.49388
899.056	396.44651
899.226	474.74921
899.395	311.78337
899.565	453.18754
899.735	300.78866
899.904	462.35128
900.074	395.80951
900.244	169.22599
900.413	603.33571
900.583	149.2482
900.752	292.57378
900.922	411.26859
901.091	42.21551
901.261	335.38353
901.43	326.00801
901.599	342.08606
901.769	716.90233
901.938	459.26839
902.108	351.67647
902.277	462.45893
902.446	120.035
902.616	161.12008
902.785	193.98372
902.954	363.56088
903.124	215.52528
903.293	167.16454
903.462	97.15255
903.631	145.62488
903.801	104.35812
903.97	56.91595
904.139	95.36226
904.308	72.41405
904.477	62.10408
904.646	39.56298
904.816	58.75373
904.985	92.80873
905.154	153.91574
