Data from WindowProjectSample_Transmission__59__00059__03592596370062001.txt Node

Date: Mon May 05 18:23:25 EDT 2025
User: jessi
Spectrometer: SR400872
Trigger mode: 0
Integration Time (sec): 5.000010E-1
Scans to average: 20
Electric dark correction enabled: true
Nonlinearity correction enabled: true
Boxcar width: 0
XAxis mode: Wavelengths
Number of Pixels in Spectrum: 3648
>>>>>Begin Spectral Data<<<<<
184.909	20870.37607
185.132	-4985.78768
185.355	-3094.89828
185.578	-17281.10833
185.801	1665.78921
186.024	10180.77959
186.247	-1722.09104
186.47	1195.03175
186.693	221.06335
186.916	232.41474
187.139	-3617.45967
187.362	3498.35125
187.585	4058.9608
187.808	3303.36126
188.031	29.09409
188.254	-51540.85049
188.476	-662.16393
188.699	6108.66366
188.922	626.2732
189.145	-15092.00395
189.368	-555.37321
189.591	-1350.20002
189.813	2913.92078
190.036	-49591.27541
190.259	-882.65234
190.482	-4397.0746
190.705	7078.88403
190.927	-2359.53308
191.15	13192.78451
191.373	3446.59641
191.595	-9146.12948
191.818	-4040.27702
192.041	-6667.49476
192.263	-3435.09768
192.486	-866.76898
192.709	-3856.9668
192.931	7802.74856
193.154	-28077.82182
193.377	-2735.37584
193.599	-2495.50997
193.822	-9538.16325
194.044	-1967.27181
194.267	1219.75824
194.489	296.55099
194.712	-43598.99045
194.934	-31520.64484
195.157	1285.57755
195.379	1560.17738
195.602	-6808.02544
195.824	-1293.32769
196.047	-8394.89833
196.269	2681.2168
196.492	-6381.60694
196.714	28992.65371
196.936	-8597.06453
197.159	-1182.48296
197.381	1088.1875
197.604	348.27426
197.826	11822.46785
198.048	-10714.19944
198.271	-2702.70671
198.493	7499.40848
198.715	2316.87977
198.938	-372.28484
199.16	6850.50357
199.382	-97604.90651
199.604	2653.345
199.827	-1061.25287
200.049	-2923.63954
200.271	14287.80321
200.493	1219.02395
200.715	-37197.55001
200.938	-5958.73576
201.16	-4269.83415
201.382	18882.42162
201.604	2325.62663
201.826	2367.13944
202.048	-1840.9451
202.27	-1812.26923
202.492	-35693.55733
202.715	2820.67665
202.937	-4506.89474
203.159	-6019.68019
203.381	1513.02958
203.603	6730.42991
203.825	6864.23767
204.047	2116.35339
204.269	-2648.01497
204.491	2142.02661
204.713	5821.53454
204.935	-495419.3073
205.156	1202.32969
205.378	-2958.39773
205.6	1672.14212
205.822	150190.52185
206.044	-1016.10569
206.266	1573.4536
206.488	4311.66137
206.71	-4969.17999
206.932	1095.89627
207.153	12451.04025
207.375	-6731.35051
207.597	-37268.97951
207.819	-2862.50964
208.041	2361.39056
208.262	452.73503
208.484	699.51977
208.706	-789.03445
208.927	-850.33395
209.149	558.32146
209.371	-2953.08098
209.593	-303.99684
209.814	-860.60066
210.036	523.73985
210.258	-590.80727
210.479	1727.94384
210.701	1771.04469
210.922	3157.68053
211.144	-4009.22362
211.366	2072.32364
211.587	8505.50069
211.809	-8277.09781
212.03	2313.58708
212.252	431.17446
212.473	2100.20881
212.695	-6087.17591
212.916	2838.59417
213.138	-708.22809
213.359	3706.6197
213.581	5003.25863
213.802	-823.52898
214.024	1094.78682
214.245	2172.22191
214.466	2224.76775
214.688	-3058.16863
214.909	-1245.79043
215.131	-1739.41413
215.352	-2982.08819
215.573	14437.61796
215.795	5090.24348
216.016	5290.50765
216.237	817.37453
216.459	3641.85973
216.68	1870.61119
216.901	5116.46002
217.122	-2752.58187
217.344	-11611.06624
217.565	3386.19841
217.786	8833.70948
218.007	15621.95443
218.228	-716.64442
218.45	5562.99295
218.671	728.30997
218.892	36202.56881
219.113	1511.63441
219.334	-287.28362
219.555	9444.26636
219.776	3028.57729
219.997	22183.10936
220.219	2730.58746
220.44	-11115.02627
220.661	466.0519
220.882	1467.84984
221.103	-968.37521
221.324	2261.83657
221.545	2230.8013
221.766	-8891.55699
221.987	975.47196
222.208	1629.93045
222.429	4208.16293
222.65	151.75583
222.87	17364.56751
223.091	721.69725
223.312	603.96232
223.533	1315.61024
223.754	1448.86679
223.975	1300.8616
224.196	1907.07786
224.417	1317.69576
224.637	548.49497
224.858	39.73171
225.079	1028.78674
225.3	667.06527
225.521	3760.08029
225.741	484.21957
225.962	483.5556
226.183	145.96139
226.404	651.7195
226.624	429.81167
226.845	621.20204
227.066	394.76943
227.286	243.57724
227.507	130.78964
227.728	114.46084
227.948	233.58771
228.169	76.1147
228.389	87.25471
228.61	46.8474
228.831	62.0368
229.051	2.34473
229.272	37.71705
229.492	55.92507
229.713	12.97163
229.933	35.12614
230.154	31.22837
230.374	52.89995
230.595	36.01821
230.815	21.10762
231.036	36.19239
231.256	-9.32967
231.477	68.46048
231.697	38.33357
231.917	42.43081
232.138	55.73788
232.358	112.10605
232.579	101.69542
232.799	15.57667
233.019	97.66549
233.24	113.47038
233.46	39.5384
233.68	62.03218
233.901	43.36005
234.121	24.11769
234.341	11.87935
234.561	-2.20461
234.782	19.89351
235.002	67.07767
235.222	-2.69793
235.442	61.28876
235.662	33.05155
235.883	62.47172
236.103	48.24483
236.323	37.69216
236.543	29.85283
236.763	39.45587
236.983	42.64526
237.203	41.1889
237.423	61.33108
237.643	86.43152
237.864	75.55047
238.084	19.07391
238.304	25.31631
238.524	43.23587
238.744	37.78337
238.964	72.95799
239.184	59.95047
239.404	62.77598
239.624	34.2932
239.843	60.08652
240.063	35.40701
240.283	21.27104
240.503	25.38987
240.723	24.00248
240.943	13.84289
241.163	19.54866
241.383	13.76285
241.603	6.91349
241.822	9.78823
242.042	6.02975
242.262	8.11704
242.482	9.41775
242.702	10.28266
242.921	2.50457
243.141	6.51538
243.361	6.35174
243.581	9.11766
243.8	6.84326
244.02	5.28638
244.24	9.25648
244.459	9.17832
244.679	17.00385
244.899	10.42033
245.118	12.26865
245.338	11.60132
245.558	13.62661
245.777	8.8473
245.997	10.4986
246.216	10.33954
246.436	6.10063
246.655	4.69773
246.875	3.1654
247.094	6.23569
247.314	2.00013
247.533	3.60141
247.753	4.29297
247.972	3.40844
248.192	1.1475
248.411	1.58549
248.631	3.42682
248.85	4.47103
249.07	3.65189
249.289	5.70042
249.508	4.56113
249.728	7.23327
249.947	6.73508
250.166	8.97873
250.386	3.95993
250.605	6.06238
250.824	10.7304
251.044	7.27466
251.263	27.89797
251.482	13.95377
251.701	11.4102
251.921	-0.29546
252.14	2.9374
252.359	3.83283
252.578	9.88226
252.798	3.21304
253.017	8.73875
253.236	4.53205
253.455	5.5733
253.674	10.10174
253.893	4.66698
254.112	7.70166
254.331	11.29769
254.551	8.95964
254.77	3.11834
254.989	13.03772
255.208	9.6155
255.427	15.14888
255.646	10.76404
255.865	22.14606
256.084	8.46412
256.303	10.25315
256.522	12.67054
256.741	2.66457
256.96	2.91902
257.179	8.51851
257.397	10.35313
257.616	6.07494
257.835	6.20784
258.054	14.68336
258.273	10.81599
258.492	10.90038
258.711	6.2471
258.93	3.06263
259.148	4.56025
259.367	4.54105
259.586	5.50957
259.805	2.33713
260.023	5.12478
260.242	3.75615
260.461	2.76077
260.68	1.21378
260.898	4.30697
261.117	1.31854
261.336	0.80436
261.554	3.25744
261.773	3.32191
261.992	0.84514
262.21	3.42025
262.429	3.39457
262.648	7.28996
262.866	7.86159
263.085	5.70538
263.303	4.79495
263.522	8.83805
263.74	8.76397
263.959	15.58509
264.178	6.90177
264.396	6.44634
264.615	4.7935
264.833	10.46152
265.051	8.57876
265.27	10.7725
265.488	10.74603
265.707	6.2007
265.925	10.61092
266.144	4.52017
266.362	5.52861
266.58	5.51348
266.799	4.66774
267.017	5.98474
267.235	5.16359
267.454	3.15161
267.672	1.84394
267.89	4.07102
268.109	4.55217
268.327	4.11362
268.545	0.9539
268.763	3.66895
268.982	1.3346
269.2	4.31082
269.418	3.03188
269.636	1.8563
269.854	4.52421
270.073	2.98979
270.291	2.00886
270.509	1.83442
270.727	4.1967
270.945	7.17187
271.163	7.0861
271.381	1.4425
271.599	3.13892
271.817	5.24547
272.036	1.7581
272.254	3.12367
272.472	2.33456
272.69	2.61614
272.908	2.43988
273.126	4.46176
273.344	5.38263
273.562	1.80097
273.779	2.59275
273.997	3.90706
274.215	3.94015
274.433	2.83221
274.651	4.41448
274.869	4.82229
275.087	2.80807
275.305	4.07008
275.523	2.49228
275.74	2.84928
275.958	5.48493
276.176	8.01477
276.394	2.48573
276.612	3.20541
276.829	3.24694
277.047	2.55265
277.265	2.87824
277.483	3.73447
277.7	4.27415
277.918	3.38345
278.136	6.05574
278.353	2.85084
278.571	1.81727
278.789	4.16614
279.006	1.10061
279.224	2.85378
279.442	5.0353
279.659	3.39634
279.877	2.27162
280.094	5.71849
280.312	1.13483
280.529	3.43676
280.747	1.04211
280.964	2.70031
281.182	6.01881
281.399	2.52381
281.617	3.73526
281.834	2.41347
282.052	1.99223
282.269	3.13528
282.487	2.50456
282.704	2.08994
282.921	2.1478
283.139	3.35659
283.356	4.01873
283.574	3.8676
283.791	1.79815
284.008	5.45143
284.226	2.865
284.443	3.14477
284.66	4.08474
284.877	3.30926
285.095	2.12874
285.312	1.69166
285.529	0.93461
285.746	0.94381
285.964	2.08349
286.181	1.35209
286.398	1.93863
286.615	2.62066
286.832	2.61804
287.05	0.65905
287.267	1.74854
287.484	1.79213
287.701	2.57068
287.918	2.52579
288.135	2.52241
288.352	1.11973
288.569	1.44601
288.786	2.28853
289.003	2.03633
289.22	3.04876
289.437	1.54708
289.654	2.92122
289.871	3.04423
290.088	2.8772
290.305	2.24363
290.522	1.77005
290.739	2.01213
290.956	3.11256
291.173	3.51614
291.39	3.29547
291.607	2.33104
291.824	1.75074
292.04	1.18039
292.257	2.73673
292.474	3.24012
292.691	1.95848
292.908	0.95217
293.125	1.6006
293.341	1.0655
293.558	4.94651
293.775	1.88431
293.992	2.02437
294.208	0.83686
294.425	1.33037
294.642	1.79813
294.858	2.33803
295.075	0.53711
295.292	2.01722
295.508	2.44703
295.725	4.03214
295.942	1.73819
296.158	1.3171
296.375	2.07109
296.591	1.63902
296.808	1.81863
297.024	2.09543
297.241	2.33794
297.458	2.53794
297.674	0.32236
297.891	1.96563
298.107	1.72879
298.323	1.24727
298.54	3.30749
298.756	1.48609
298.973	0.93505
299.189	3.31242
299.406	1.59554
299.622	3.0388
299.838	3.07493
300.055	2.98147
300.271	0.96549
300.487	1.40009
300.704	1.74316
300.92	1.05289
301.136	4.65466
301.353	3.03987
301.569	2.34125
301.785	2.53622
302.001	3.15008
302.218	2.67405
302.434	2.91296
302.65	1.2542
302.866	2.06764
303.083	4.57339
303.299	4.43035
303.515	2.66855
303.731	2.8211
303.947	1.41619
304.163	1.93302
304.379	2.803
304.595	3.03171
304.812	1.9621
305.028	2.04711
305.244	2.44601
305.46	3.22197
305.676	3.37213
305.892	3.79601
306.108	3.09362
306.324	2.36574
306.54	4.42792
306.756	3.17044
306.972	3.18107
307.187	2.53611
307.403	3.95676
307.619	2.19028
307.835	3.96621
308.051	4.18733
308.267	1.96048
308.483	3.91668
308.699	3.2424
308.914	2.76269
309.13	2.59549
309.346	1.62852
309.562	1.89863
309.778	1.78929
309.993	3.25776
310.209	2.95754
310.425	1.87043
310.641	2.75306
310.856	1.98871
311.072	1.94839
311.288	2.72752
311.503	3.0425
311.719	1.36803
311.935	1.39068
312.15	3.35657
312.366	2.9534
312.581	3.26212
312.797	2.79754
313.013	3.62243
313.228	2.35212
313.444	2.83595
313.659	2.36768
313.875	3.43765
314.09	2.81588
314.306	4.25121
314.521	3.69959
314.737	3.62843
314.952	3.05427
315.168	2.96486
315.383	3.3479
315.599	2.64186
315.814	2.66929
316.029	3.61869
316.245	2.07771
316.46	1.63399
316.675	4.14567
316.891	4.54457
317.106	5.71281
317.321	3.31799
317.537	3.67956
317.752	3.99793
317.967	3.95179
318.183	2.32223
318.398	2.68788
318.613	4.09015
318.828	4.46701
319.043	3.92601
319.259	3.01763
319.474	3.36937
319.689	4.27043
319.904	1.67246
320.119	4.0433
320.334	3.4634
320.549	3.13132
320.765	4.14359
320.98	3.66019
321.195	3.841
321.41	3.34277
321.625	3.89896
321.84	4.90672
322.055	4.91754
322.27	2.59637
322.485	2.44284
322.7	3.80301
322.915	4.177
323.13	2.76156
323.345	4.82531
323.56	4.08606
323.775	4.12332
323.989	3.83027
324.204	3.63524
324.419	4.53302
324.634	2.58664
324.849	3.36968
325.064	6.58832
325.279	4.43069
325.493	3.836
325.708	4.38583
325.923	2.99909
326.138	3.22443
326.352	5.01314
326.567	4.51129
326.782	3.26411
326.997	3.14879
327.211	4.23521
327.426	3.88534
327.641	3.45594
327.855	2.42209
328.07	4.09632
328.285	5.3734
328.499	3.27743
328.714	3.90364
328.928	4.22396
329.143	3.67139
329.358	4.69306
329.572	4.77547
329.787	5.00757
330.001	6.13751
330.216	2.77657
330.43	5.70651
330.645	5.27957
330.859	4.76201
331.074	3.22702
331.288	4.03916
331.503	5.38617
331.717	3.00972
331.931	4.2504
332.146	4.25237
332.36	5.76293
332.575	4.40762
332.789	4.48549
333.003	4.35345
333.218	4.68858
333.432	3.54946
333.646	4.99461
333.86	5.92398
334.075	5.63931
334.289	3.71215
334.503	3.15395
334.717	4.84222
334.932	4.43571
335.146	5.18669
335.36	3.75232
335.574	4.94686
335.788	4.45905
336.003	5.04771
336.217	4.98325
336.431	4.76208
336.645	3.98711
336.859	3.45547
337.073	4.30946
337.287	4.79634
337.501	3.495
337.715	4.95464
337.929	5.18376
338.143	3.60184
338.357	4.30505
338.571	3.95857
338.785	5.17483
338.999	4.23854
339.213	4.25923
339.427	3.53781
339.641	5.82733
339.855	4.35535
340.069	4.04215
340.283	5.47623
340.497	6.23279
340.711	5.23636
340.924	4.94009
341.138	4.02771
341.352	3.67083
341.566	4.97492
341.78	3.69417
341.993	4.40939
342.207	4.16852
342.421	5.00819
342.635	4.79831
342.848	4.60816
343.062	3.05915
343.276	4.27711
343.49	6.48582
343.703	4.42327
343.917	5.99082
344.131	6.10169
344.344	4.51547
344.558	4.81787
344.771	4.12603
344.985	6.44855
345.199	6.55286
345.412	5.55479
345.626	5.58617
345.839	3.96815
346.053	4.36257
346.266	4.49525
346.48	5.85072
346.693	5.66232
346.907	5.49231
347.12	4.47791
347.334	5.53885
347.547	5.50689
347.76	5.01988
347.974	6.23641
348.187	5.51914
348.401	4.95309
348.614	4.63243
348.827	5.00113
349.041	5.65017
349.254	4.06923
349.467	5.0298
349.681	4.73163
349.894	4.83027
350.107	6.54657
350.32	7.06088
350.534	4.46913
350.747	5.10378
350.96	4.86971
351.173	5.02029
351.386	5.3145
351.6	5.04921
351.813	5.07613
352.026	5.27004
352.239	4.70587
352.452	5.3102
352.665	6.38524
352.878	5.58118
353.092	7.2812
353.305	6.33578
353.518	5.93346
353.731	4.96899
353.944	6.65967
354.157	5.46775
354.37	5.51486
354.583	4.91073
354.796	4.72709
355.009	6.6377
355.222	6.3397
355.435	5.98509
355.647	6.8345
355.86	5.51891
356.073	6.15742
356.286	5.72659
356.499	6.87009
356.712	6.70742
356.925	6.76897
357.138	6.73696
357.35	5.7404
357.563	6.11136
357.776	6.50835
357.989	6.38519
358.201	6.80589
358.414	6.72214
358.627	7.45291
358.84	6.18834
359.052	5.46581
359.265	5.86352
359.478	7.22395
359.69	4.63126
359.903	7.1755
360.116	7.314
360.328	5.54737
360.541	7.19228
360.753	6.28319
360.966	6.55244
361.179	6.73104
361.391	6.62233
361.604	6.63575
361.816	6.69045
362.029	6.72587
362.241	6.42273
362.454	6.83592
362.666	6.28926
362.879	7.31366
363.091	6.62018
363.304	6.60543
363.516	6.62325
363.728	6.12823
363.941	7.12606
364.153	7.07725
364.366	5.49957
364.578	6.10851
364.79	6.94384
365.003	6.81636
365.215	6.38756
365.427	7.32031
365.639	7.53458
365.852	6.96367
366.064	8.35521
366.276	6.82882
366.488	7.09253
366.701	6.65714
366.913	6.7309
367.125	6.71526
367.337	6.21435
367.549	6.68602
367.762	6.87276
367.974	6.98331
368.186	6.67985
368.398	7.59259
368.61	7.28574
368.822	7.45662
369.034	6.76964
369.246	7.5771
369.458	9.26837
369.67	6.40784
369.882	8.17677
370.094	5.77712
370.306	8.05807
370.518	6.83505
370.73	6.71628
370.942	6.80783
371.154	7.21113
371.366	7.07638
371.578	7.51272
371.79	7.03404
372.002	7.99903
372.214	8.87843
372.425	7.14833
372.637	8.44452
372.849	7.59464
373.061	5.9216
373.273	7.55328
373.484	7.56201
373.696	7.95343
373.908	5.87237
374.12	8.04275
374.331	7.75466
374.543	6.83277
374.755	6.79864
374.967	7.51399
375.178	8.12714
375.39	7.1839
375.602	7.68916
375.813	6.51289
376.025	7.00237
376.236	7.61937
376.448	7.93917
376.66	7.53303
376.871	7.57848
377.083	8.55476
377.294	9.07737
377.506	7.56407
377.717	8.8291
377.929	8.13188
378.14	7.63831
378.352	8.05261
378.563	8.15256
378.775	8.71149
378.986	7.22544
379.197	7.80317
379.409	7.21374
379.62	8.30743
379.832	8.18407
380.043	7.67932
380.254	8.06163
380.466	7.12172
380.677	9.78002
380.888	9.18555
381.1	9.74781
381.311	9.87934
381.522	8.25964
381.733	9.99394
381.945	8.03816
382.156	7.97163
382.367	7.88333
382.578	9.95253
382.789	10.09451
383.001	7.75187
383.212	9.36066
383.423	9.46115
383.634	8.98852
383.845	8.8271
384.056	8.08988
384.267	8.46444
384.478	8.46777
384.69	7.63071
384.901	8.72847
385.112	8.68443
385.323	9.76007
385.534	8.90686
385.745	8.75473
385.956	8.70228
386.167	8.01355
386.378	8.93516
386.588	8.11421
386.799	8.04547
387.01	7.68915
387.221	9.08682
387.432	8.69561
387.643	9.78296
387.854	8.59941
388.065	8.4245
388.275	8.58773
388.486	8.28104
388.697	8.68011
388.908	8.32294
389.119	9.46908
389.329	9.59214
389.54	8.80233
389.751	8.9268
389.962	9.68007
390.172	8.90922
390.383	8.7163
390.594	8.4765
390.804	8.56692
391.015	8.6846
391.226	9.1347
391.436	9.42167
391.647	9.41482
391.858	9.46785
392.068	8.17441
392.279	8.52292
392.489	9.38825
392.7	9.71331
392.91	8.74534
393.121	8.60044
393.331	9.5963
393.542	9.95887
393.752	9.73531
393.963	9.55095
394.173	9.5
394.384	9.68052
394.594	9.44608
394.804	8.57182
395.015	9.39543
395.225	9.57339
395.436	8.77578
395.646	9.4487
395.856	9.08793
396.067	8.1658
396.277	9.84382
396.487	9.46266
396.697	9.53884
396.908	9.58651
397.118	9.61707
397.328	9.40948
397.538	9.86641
397.749	8.88105
397.959	9.90871
398.169	9.63816
398.379	8.50917
398.589	9.67011
398.8	9.6635
399.01	9.53572
399.22	9.29714
399.43	10.75643
399.64	9.49755
399.85	9.73293
400.06	9.67441
400.27	8.94482
400.48	9.38861
400.69	10.24516
400.9	9.3242
401.11	8.76606
401.32	9.8866
401.53	9.1007
401.74	10.56604
401.95	9.97176
402.16	9.18016
402.37	9.76569
402.58	9.3418
402.79	9.93207
403	10.37182
403.209	9.18941
403.419	10.51312
403.629	9.2553
403.839	10.50919
404.049	10.31124
404.258	9.70502
404.468	9.47491
404.678	10.22647
404.888	10.75225
405.097	9.74192
405.307	9.77597
405.517	10.36927
405.727	10.32845
405.936	9.76618
406.146	10.15449
406.356	10.7482
406.565	9.94191
406.775	9.72257
406.984	9.65011
407.194	11.08626
407.404	9.88927
407.613	10.37391
407.823	10.47147
408.032	10.52304
408.242	10.50635
408.451	9.66533
408.661	9.80921
408.87	11.14841
409.08	9.51402
409.289	10.30656
409.499	10.21347
409.708	10.23603
409.918	8.88761
410.127	10.38696
410.336	11.07363
410.546	10.69078
410.755	9.94727
410.964	10.06153
411.174	9.62211
411.383	10.50609
411.592	10.45244
411.802	9.66598
412.011	10.59823
412.22	10.04875
412.429	11.23305
412.639	11.28495
412.848	10.70893
413.057	11.13978
413.266	11.00283
413.475	10.42923
413.685	10.63128
413.894	11.05304
414.103	11.14619
414.312	10.9523
414.521	10.37867
414.73	10.50863
414.939	11.93736
415.148	10.94287
415.357	10.92774
415.566	10.6829
415.776	10.55813
415.985	10.74506
416.194	11.34743
416.403	12.22332
416.611	10.34268
416.82	10.75178
417.029	11.17103
417.238	10.91119
417.447	10.71846
417.656	11.08537
417.865	10.86541
418.074	11.14069
418.283	11.34543
418.492	11.93185
418.7	11.74939
418.909	12.7444
419.118	12.04664
419.327	12.36565
419.536	12.2593
419.744	12.48371
419.953	13.7636
420.162	14.05235
420.371	13.60154
420.579	14.3626
420.788	15.14915
420.997	15.17396
421.205	15.68889
421.414	15.44695
421.623	15.55286
421.831	15.26973
422.04	15.65608
422.249	14.74373
422.457	15.04552
422.666	14.20801
422.874	14.94712
423.083	15.12333
423.291	15.15338
423.5	15.04983
423.708	15.55124
423.917	16.0519
424.125	15.58451
424.334	15.57409
424.542	17.14242
424.751	16.67841
424.959	16.24891
425.167	16.12582
425.376	16.04474
425.584	14.5729
425.793	14.44039
426.001	13.461
426.209	13.31195
426.418	12.18244
426.626	11.90704
426.834	11.73484
427.042	12.03752
427.251	11.74515
427.459	12.45414
427.667	12.09102
427.875	11.33264
428.084	11.70869
428.292	12.6836
428.5	12.29904
428.708	11.50149
428.916	11.47968
429.124	12.07313
429.333	11.92218
429.541	11.95528
429.749	12.09658
429.957	12.03387
430.165	13.67752
430.373	11.38583
430.581	12.21625
430.789	12.94792
430.997	12.0824
431.205	11.72833
431.413	12.27748
431.621	12.05917
431.829	12.61832
432.037	12.17441
432.245	12.3866
432.453	12.56312
432.661	12.36977
432.869	13.47186
433.076	12.03085
433.284	12.47359
433.492	12.84352
433.7	13.0667
433.908	12.34537
434.116	12.59718
434.323	12.65996
434.531	12.44836
434.739	12.8397
434.947	12.9829
435.154	12.97058
435.362	12.52744
435.57	12.39111
435.778	12.14233
435.985	12.7133
436.193	12.20528
436.401	13.22072
436.608	12.55501
436.816	12.31592
437.023	13.36932
437.231	13.5296
437.439	12.71312
437.646	13.04738
437.854	12.84761
438.061	13.12176
438.269	12.72394
438.476	13.15895
438.684	12.82153
438.891	12.70205
439.099	12.4814
439.306	12.41195
439.514	12.42751
439.721	13.51662
439.929	13.36909
440.136	14.32624
440.343	14.42999
440.551	14.3557
440.758	15.85335
440.965	14.65982
441.173	14.46571
441.38	14.21876
441.587	13.79497
441.795	13.65914
442.002	13.22998
442.209	13.15163
442.416	13.24506
442.624	13.23803
442.831	13.14569
443.038	12.71465
443.245	12.46969
443.452	12.8409
443.66	13.31887
443.867	12.81285
444.074	12.76844
444.281	12.79387
444.488	13.0336
444.695	13.14695
444.902	12.94599
445.109	14.21823
445.316	14.27549
445.523	14.79207
445.73	15.0736
445.937	16.05565
446.144	16.66049
446.351	17.17576
446.558	16.17463
446.765	18.11475
446.972	17.24831
447.179	16.94293
447.386	17.32883
447.593	15.60555
447.8	16.34636
448.007	14.85642
448.214	14.12548
448.42	13.54384
448.627	13.76846
448.834	13.16248
449.041	13.07736
449.248	12.9614
449.454	13.52825
449.661	14.06796
449.868	12.9783
450.075	12.94636
450.281	12.17281
450.488	12.66546
450.695	12.735
450.901	12.87455
451.108	12.79073
451.315	13.66233
451.521	13.18661
451.728	13.79486
451.935	12.83091
452.141	13.2245
452.348	13.28154
452.554	13.20683
452.761	12.98493
452.967	14.14788
453.174	13.37436
453.38	13.49213
453.587	12.59584
453.793	13.45511
454	13.86541
454.206	14.39327
454.413	13.82864
454.619	13.57242
454.825	12.90191
455.032	13.68472
455.238	13.73066
455.445	12.69095
455.651	13.34757
455.857	12.51251
456.064	13.09445
456.27	13.06754
456.476	13.15977
456.682	12.7273
456.889	13.4865
457.095	13.58154
457.301	14.67715
457.507	13.49953
457.714	13.51409
457.92	13.56022
458.126	13.21601
458.332	13.53544
458.538	13.39471
458.744	13.64003
458.951	13.58499
459.157	15.85386
459.363	15.45163
459.569	15.88404
459.775	16.55005
459.981	16.51296
460.187	17.01002
460.393	17.02379
460.599	17.10664
460.805	16.04985
461.011	14.86116
461.217	14.54904
461.423	14.25661
461.629	13.57648
461.835	13.98587
462.041	13.54684
462.247	14.46736
462.453	13.50636
462.658	13.51399
462.864	14.05559
463.07	13.73547
463.276	13.76837
463.482	13.60473
463.688	14.34677
463.893	13.37635
464.099	13.71459
464.305	14.53722
464.511	13.49353
464.716	13.63502
464.922	14.22246
465.128	13.26146
465.333	14.59744
465.539	14.1624
465.745	13.68952
465.95	13.74517
466.156	15.28177
466.362	14.38599
466.567	13.73919
466.773	13.51345
466.978	14.56819
467.184	13.34891
467.389	12.88121
467.595	13.93801
467.8	13.45479
468.006	14.49341
468.211	14.51982
468.417	13.22582
468.622	14.11741
468.828	14.26971
469.033	14.14773
469.239	15.31037
469.444	13.69676
469.649	14.2811
469.855	13.86963
470.06	13.93465
470.266	13.61627
470.471	14.21884
470.676	14.23442
470.881	13.07371
471.087	14.76768
471.292	15.33466
471.497	13.38321
471.703	14.02215
471.908	13.69425
472.113	14.13057
472.318	14.46687
472.523	13.56198
472.729	14.33354
472.934	14.33694
473.139	13.82064
473.344	14.23599
473.549	14.69067
473.754	13.71955
473.959	15.57662
474.164	13.64188
474.369	14.02476
474.575	14.59442
474.78	14.1321
474.985	13.8331
475.19	13.26214
475.395	13.76673
475.6	14.14104
475.804	14.9755
476.009	14.22353
476.214	14.18147
476.419	14.10356
476.624	13.50525
476.829	13.90773
477.034	14.60605
477.239	13.991
477.444	14.64545
477.648	14.55353
477.853	14.65032
478.058	14.22464
478.263	13.93498
478.468	13.93076
478.672	13.87718
478.877	15.07963
479.082	15.08078
479.287	14.62422
479.491	14.38986
479.696	13.9015
479.901	14.68976
480.105	14.84195
480.31	14.10625
480.515	14.5413
480.719	15.54653
480.924	14.3518
481.128	14.04687
481.333	14.7064
481.538	14.7521
481.742	15.28357
481.947	16.68137
482.151	18.08933
482.356	19.60155
482.56	22.60704
482.765	25.23708
482.969	29.84556
483.174	33.67391
483.378	38.56971
483.582	40.52916
483.787	43.52564
483.991	44.52328
484.196	45.14256
484.4	44.74173
484.604	44.80739
484.809	41.31356
485.013	38.83907
485.217	35.41852
485.422	31.78147
485.626	28.91561
485.83	27.11112
486.034	25.99861
486.239	26.36973
486.443	26.9568
486.647	27.67933
486.851	29.18292
487.055	31.24181
487.26	31.65101
487.464	33.01997
487.668	32.96666
487.872	34.01236
488.076	33.9512
488.28	32.80312
488.484	30.86547
488.688	29.86964
488.892	28.3694
489.096	26.34711
489.3	24.3828
489.504	22.74385
489.708	21.47164
489.912	20.87026
490.116	20.42261
490.32	20.18852
490.524	21.58304
490.728	22.85092
490.932	24.21891
491.136	25.80996
491.34	27.41494
491.544	28.08864
491.748	28.34877
491.951	28.29565
492.155	27.81631
492.359	26.84229
492.563	24.99233
492.767	23.56112
492.97	21.23277
493.174	19.13803
493.378	17.46028
493.582	15.61982
493.785	14.83448
493.989	14.88712
494.193	14.80105
494.396	14.64556
494.6	15.19223
494.804	14.88066
495.007	14.52044
495.211	14.78119
495.414	14.73328
495.618	15.17918
495.822	15.55605
496.025	15.01115
496.229	15.39183
496.432	14.72275
496.636	15.13945
496.839	15.05822
497.043	15.73392
497.246	15.34141
497.45	14.93055
497.653	15.24954
497.856	15.15287
498.06	14.74072
498.263	14.95201
498.467	14.90706
498.67	15.44235
498.873	15.23157
499.077	14.97515
499.28	15.02035
499.483	15.12723
499.686	15.41522
499.89	15.1791
500.093	15.49056
500.296	14.77845
500.499	15.86002
500.703	15.08698
500.906	15.2607
501.109	15.85505
501.312	15.10251
501.515	14.99626
501.719	15.28792
501.922	15.56317
502.125	15.14242
502.328	15.1093
502.531	14.66318
502.734	15.0791
502.937	14.35797
503.14	15.22849
503.343	14.8432
503.546	15.02481
503.749	14.88462
503.952	15.44769
504.155	14.90667
504.358	15.32336
504.561	15.28746
504.764	14.60296
504.967	15.42074
505.17	15.09424
505.373	15.9234
505.576	15.30095
505.778	15.57631
505.981	14.83565
506.184	15.8231
506.387	14.42681
506.59	16.20955
506.793	15.7703
506.995	15.56897
507.198	14.40888
507.401	15.61482
507.604	15.61765
507.806	14.92451
508.009	14.96777
508.212	15.77924
508.414	15.07438
508.617	15.17727
508.82	15.4606
509.022	16.22102
509.225	15.49423
509.427	14.75422
509.63	16.08872
509.833	15.42749
510.035	15.20639
510.238	14.75904
510.44	15.98978
510.643	14.65138
510.845	16.33395
511.048	15.62069
511.25	15.11861
511.453	15.33883
511.655	15.61498
511.858	15.29887
512.06	15.90816
512.262	15.56881
512.465	15.83135
512.667	15.28915
512.869	14.84035
513.072	15.69266
513.274	15.85256
513.476	15.6547
513.679	15.77457
513.881	14.99903
514.083	16.19121
514.286	15.10957
514.488	15.0619
514.69	14.89764
514.892	14.71527
515.094	15.72801
515.297	15.03292
515.499	15.48487
515.701	14.99602
515.903	16.38819
516.105	16.40397
516.307	15.82499
516.509	14.7404
516.711	15.1107
516.913	15.70886
517.116	15.63623
517.318	15.44522
517.52	16.13297
517.722	16.02973
517.924	15.19018
518.126	15.92146
518.328	15.67795
518.529	16.51535
518.731	17.29747
518.933	15.88454
519.135	16.03726
519.337	16.66034
519.539	15.88314
519.741	14.92671
519.943	15.45583
520.145	15.31659
520.346	15.94506
520.548	15.47845
520.75	15.62451
520.952	15.43077
521.153	15.78349
521.355	15.62139
521.557	15.11437
521.759	15.64433
521.96	15.51315
522.162	15.08734
522.364	16.09393
522.565	15.32263
522.767	15.92827
522.969	16.13171
523.17	16.0277
523.372	15.8341
523.573	15.41062
523.775	15.68924
523.977	15.46198
524.178	16.74067
524.38	15.54897
524.581	16.16424
524.783	15.83858
524.984	16.2357
525.186	16.115
525.387	16.89246
525.589	17.09524
525.79	17.35151
525.991	17.48848
526.193	18.19453
526.394	17.78716
526.596	18.69719
526.797	19.2723
526.998	19.03287
527.2	20.09302
527.401	22.66586
527.602	24.64889
527.803	28.15609
528.005	30.42053
528.206	32.76726
528.407	34.68762
528.608	35.47867
528.81	36.04435
529.011	35.63393
529.212	36.33805
529.413	34.5185
529.614	32.35666
529.815	30.25626
530.017	27.92868
530.218	24.78506
530.419	22.34093
530.62	21.10324
530.821	19.89903
531.022	18.24893
531.223	18.58269
531.424	18.30279
531.625	18.40638
531.826	18.10725
532.027	18.96274
532.228	20.63121
532.429	21.27741
532.63	22.18613
532.831	23.67739
533.032	24.31031
533.233	25.15254
533.433	24.90373
533.634	25.22641
533.835	24.26887
534.036	23.41413
534.237	22.36678
534.438	21.06002
534.638	19.11831
534.839	18.03584
535.04	17.38935
535.241	16.41867
535.441	17.15842
535.642	16.8192
535.843	16.51065
536.043	16.99219
536.244	17.3183
536.445	17.74175
536.645	18.58433
536.846	18.192
537.047	18.56567
537.247	17.32545
537.448	16.92525
537.648	16.28869
537.849	15.92248
538.049	15.8301
538.25	16.26218
538.451	16.16457
538.651	15.60618
538.851	16.26576
539.052	16.67573
539.252	16.51807
539.453	16.20038
539.653	16.3617
539.854	16.29185
540.054	16.5099
540.254	18.77761
540.455	20.72355
540.655	21.65987
540.855	24.1795
541.056	25.77767
541.256	26.23205
541.456	27.42133
541.657	27.38306
541.857	27.78446
542.057	26.57326
542.257	25.6084
542.458	25.27593
542.658	24.05504
542.858	21.67597
543.058	20.96581
543.258	19.87781
543.458	18.14633
543.659	17.39319
543.859	17.48987
544.059	16.89795
544.259	16.10133
544.459	16.61487
544.659	15.89365
544.859	16.28467
545.059	15.83552
545.259	16.49553
545.459	16.27523
545.659	16.7215
545.859	16.22851
546.059	16.48084
546.259	15.85014
546.459	15.68622
546.659	15.842
546.859	16.65762
547.059	16.25377
547.258	16.44359
547.458	16.43348
547.658	15.72879
547.858	15.70935
548.058	16.19949
548.258	15.92106
548.457	15.70627
548.657	17.22424
548.857	15.93854
549.057	16.53285
549.256	16.24325
549.456	15.56773
549.656	15.02186
549.855	17.13188
550.055	15.59775
550.255	16.95965
550.454	16.17145
550.654	16.5731
550.853	16.99233
551.053	16.41368
551.253	16.27382
551.452	16.4111
551.652	15.44392
551.851	15.42082
552.051	15.9567
552.25	15.97101
552.45	15.74702
552.649	15.94076
552.849	15.69735
553.048	16.21835
553.248	16.56266
553.447	15.51542
553.646	16.51036
553.846	17.58493
554.045	16.87937
554.244	15.38547
554.444	16.87146
554.643	15.59831
554.842	17.06146
555.042	17.17963
555.241	15.74058
555.44	15.44007
555.64	16.26203
555.839	16.85568
556.038	16.34747
556.237	15.70285
556.436	16.23383
556.636	16.33726
556.835	15.61435
557.034	16.97797
557.233	16.01275
557.432	14.96406
557.631	16.79773
557.83	15.75175
558.029	15.71521
558.228	15.62178
558.427	15.45442
558.626	16.22693
558.825	15.3104
559.024	15.7708
559.223	17.21466
559.422	15.8037
559.621	16.38946
559.82	14.54411
560.019	16.07323
560.218	15.72063
560.417	14.66904
560.616	15.80415
560.815	18.17296
561.014	15.15857
561.212	17.1702
561.411	16.31801
561.61	15.29497
561.809	15.96901
562.008	17.23494
562.206	15.80042
562.405	16.41729
562.604	15.97203
562.803	16.15709
563.001	15.8376
563.2	15.23625
563.399	16.31574
563.597	15.52218
563.796	16.00482
563.995	15.2649
564.193	16.61298
564.392	15.96363
564.59	17.61361
564.789	15.11947
564.988	15.97479
565.186	16.4743
565.385	16.42872
565.583	16.10136
565.782	16.37173
565.98	16.16213
566.179	16.27166
566.377	15.76982
566.575	15.75119
566.774	17.19752
566.972	16.78727
567.171	17.65429
567.369	17.0275
567.567	16.33964
567.766	16.41139
567.964	15.15477
568.162	16.64034
568.361	16.99836
568.559	15.96395
568.757	16.48598
568.956	16.1842
569.154	16.29494
569.352	16.58737
569.55	16.09381
569.748	16.25814
569.947	15.87268
570.145	15.62843
570.343	15.74056
570.541	17.35853
570.739	15.61943
570.937	16.34002
571.135	16.70773
571.333	17.78011
571.532	17.82907
571.73	16.73506
571.928	17.14657
572.126	16.81172
572.324	16.31418
572.522	17.2253
572.72	18.11586
572.918	16.57044
573.116	16.86446
573.313	16.32607
573.511	16.4781
573.709	16.16828
573.907	17.04152
574.105	16.14213
574.303	15.47768
574.501	15.41494
574.699	16.80699
574.896	16.60363
575.094	17.02585
575.292	15.53569
575.49	17.06691
575.688	16.28082
575.885	17.3566
576.083	17.89591
576.281	16.6858
576.478	15.84935
576.676	16.88228
576.874	15.36224
577.071	16.17183
577.269	17.83732
577.467	16.12521
577.664	16.16043
577.862	16.77743
578.059	15.57616
578.257	16.94637
578.455	16.10168
578.652	16.30542
578.85	14.64851
579.047	16.25809
579.245	15.88146
579.442	16.15596
579.64	16.1349
579.837	14.85594
580.034	18.25248
580.232	15.88412
580.429	15.21762
580.627	16.66473
580.824	17.11432
581.021	16.69572
581.219	15.74134
581.416	15.85418
581.613	17.17626
581.811	17.11401
582.008	15.40601
582.205	16.84286
582.402	16.47916
582.6	17.17867
582.797	16.31895
582.994	16.57857
583.191	16.77126
583.388	16.22481
583.586	16.88473
583.783	17.03213
583.98	15.34646
584.177	16.37029
584.374	14.24302
584.571	15.80144
584.768	15.91553
584.965	15.84319
585.162	16.76372
585.359	17.53736
585.556	16.1591
585.753	16.39654
585.95	15.0637
586.147	15.41755
586.344	16.6566
586.541	16.18571
586.738	15.16831
586.935	16.1607
587.132	15.70389
587.329	16.98113
587.526	16.20555
587.722	20.41396
587.919	15.07192
588.116	16.58662
588.313	17.3751
588.51	17.85451
588.706	16.21069
588.903	16.80181
589.1	17.43242
589.297	18.80792
589.493	16.43567
589.69	16.81384
589.887	16.02911
590.083	15.69059
590.28	15.77955
590.477	17.11865
590.673	16.85406
590.87	17.18489
591.067	15.8056
591.263	16.6175
591.46	16.62008
591.656	16.15247
591.853	17.61086
592.049	15.75278
592.246	15.83912
592.442	17.14106
592.639	17.30498
592.835	15.58243
593.032	16.57604
593.228	15.13254
593.425	15.31012
593.621	15.30453
593.817	16.76574
594.014	15.79244
594.21	16.80278
594.406	17.37138
594.603	16.7772
594.799	16.00065
594.995	14.83311
595.192	17.49943
595.388	16.22042
595.584	16.18465
595.78	15.64374
595.977	18.92423
596.173	18.1774
596.369	16.59581
596.565	16.08107
596.761	15.89774
596.957	17.69169
597.154	16.31407
597.35	16.40535
597.546	16.18382
597.742	17.15561
597.938	16.75827
598.134	15.93589
598.33	16.52196
598.526	17.55233
598.722	16.71912
598.918	18.14924
599.114	16.8794
599.31	15.37769
599.506	16.45035
599.702	15.70935
599.898	16.58335
600.094	17.28678
600.29	17.01755
600.485	17.19247
600.681	15.67914
600.877	18.0197
601.073	16.57279
601.269	18.17652
601.465	17.84473
601.66	15.68938
601.856	15.03023
602.052	18.55179
602.248	16.50253
602.443	15.21762
602.639	15.85234
602.835	16.14614
603.03	16.05181
603.226	17.73513
603.422	16.14339
603.617	16.76803
603.813	16.72856
604.009	16.54699
604.204	17.84775
604.4	15.86513
604.595	17.80482
604.791	16.17031
604.986	17.07981
605.182	16.32629
605.377	16.55915
605.573	16.55679
605.768	16.70608
605.964	17.30845
606.159	17.22157
606.355	17.38207
606.55	16.23834
606.746	17.48832
606.941	16.53541
607.136	18.19514
607.332	19.23354
607.527	15.52034
607.722	16.8075
607.918	16.68125
608.113	16.1168
608.308	17.53058
608.503	17.341
608.699	17.28605
608.894	17.48301
609.089	16.28847
609.284	17.31764
609.479	16.60795
609.675	17.51741
609.87	16.88463
610.065	17.44333
610.26	17.55336
610.455	17.32069
610.65	16.84016
610.845	16.95867
611.04	17.58196
611.235	16.71098
611.43	16.33637
611.625	15.72684
611.82	17.97697
612.015	16.01376
612.21	18.2975
612.405	15.13535
612.6	18.17789
612.795	17.97324
612.99	17.40415
613.185	15.33138
613.38	15.90754
613.575	16.72659
613.77	19.71468
613.965	15.06782
614.159	16.05962
614.354	17.99321
614.549	17.64227
614.744	17.32999
614.938	15.65258
615.133	15.27532
615.328	18.05623
615.523	17.15906
615.717	19.58123
615.912	15.81098
616.107	16.67327
616.301	16.22847
616.496	15.85963
616.691	18.38537
616.885	17.53936
617.08	19.8334
617.274	17.87835
617.469	18.86368
617.664	17.35999
617.858	16.2346
618.053	17.0869
618.247	16.52397
618.442	14.42244
618.636	18.19945
618.831	15.82484
619.025	15.93738
619.219	19.84915
619.414	13.41993
619.608	16.20558
619.803	16.06604
619.997	19.06326
620.191	17.68078
620.386	17.01872
620.58	16.21339
620.774	14.51888
620.969	15.04613
621.163	16.90163
621.357	15.68384
621.551	16.56065
621.746	16.75385
621.94	16.22592
622.134	20.46921
622.328	19.14529
622.522	15.13045
622.716	17.78202
622.911	17.88497
623.105	17.98432
623.299	17.34451
623.493	20.43729
623.687	16.12432
623.881	15.95832
624.075	17.45556
624.269	18.11187
624.463	14.68705
624.657	15.00473
624.851	17.64939
625.045	18.01405
625.239	17.9746
625.433	16.69389
625.627	19.14865
625.821	16.71203
626.015	16.29011
626.209	17.32808
626.403	15.5615
626.596	17.58795
626.79	18.15321
626.984	15.95324
627.178	17.79871
627.372	17.59968
627.565	17.8897
627.759	15.78613
627.953	16.11065
628.147	17.56795
628.34	17.97826
628.534	19.57574
628.728	16.66592
628.921	17.95955
629.115	17.70228
629.309	18.25865
629.502	18.21375
629.696	16.99223
629.89	16.81257
630.083	17.36048
630.277	17.17309
630.47	18.87008
630.664	16.51043
630.857	15.23953
631.051	17.9521
631.244	18.18294
631.438	17.99229
631.631	16.01318
631.825	18.74296
632.018	17.74255
632.212	19.05954
632.405	18.23768
632.598	16.11333
632.792	17.43694
632.985	14.31208
633.178	16.90086
633.372	17.00043
633.565	16.9225
633.758	18.80744
633.952	16.21591
634.145	16.1245
634.338	16.52915
634.531	16.78057
634.724	16.23451
634.918	17.36205
635.111	16.84196
635.304	16.53032
635.497	20.16357
635.69	17.47082
635.883	18.6949
636.077	15.96865
636.27	17.72282
636.463	17.34826
636.656	17.22944
636.849	16.72594
637.042	18.11381
637.235	19.69431
637.428	18.09299
637.621	17.84619
637.814	19.22103
638.007	19.05298
638.2	19.03484
638.393	19.7081
638.586	15.28994
638.778	16.60479
638.971	16.91764
639.164	19.09033
639.357	17.47379
639.55	19.52769
639.743	18.10681
639.935	17.84975
640.128	20.72783
640.321	18.55156
640.514	17.43627
640.707	20.76824
640.899	18.33602
641.092	15.09926
641.285	32.54298
641.477	14.08904
641.67	21.03164
641.863	19.10127
642.055	17.6909
642.248	17.29951
642.441	16.76887
642.633	18.35974
642.826	18.82062
643.018	19.29254
643.211	20.26273
643.403	20.59808
643.596	20.88586
643.788	20.00342
643.981	16.93346
644.173	18.69741
644.366	16.90189
644.558	15.02669
644.751	19.02534
644.943	15.66038
645.135	20.20561
645.328	19.97511
645.52	18.20581
645.712	19.44405
645.905	22.21252
646.097	16.05884
646.289	18.12869
646.482	21.27267
646.674	16.36452
646.866	19.62289
647.058	18.49089
647.251	16.17551
647.443	16.86834
647.635	17.40079
647.827	16.05826
648.019	15.90741
648.211	17.41139
648.404	18.01916
648.596	20.52859
648.788	18.38184
648.98	18.31375
649.172	18.69499
649.364	18.30643
649.556	15.48615
649.748	22.4845
649.94	16.35382
650.132	18.7941
650.324	16.5619
650.516	16.9309
650.708	19.88545
650.9	15.79944
651.092	15.23819
651.284	16.26904
651.476	16.5099
651.667	19.2396
651.859	20.42419
652.051	17.57134
652.243	18.32173
652.435	17.46878
652.627	18.95383
652.818	18.69456
653.01	15.76884
653.202	16.82737
653.394	17.14346
653.585	18.85074
653.777	25.49593
653.969	20.64073
654.16	20.08809
654.352	16.51054
654.544	17.94311
654.735	20.02736
654.927	18.38041
655.118	20.60157
655.31	19.21208
655.502	20.56196
655.693	18.10345
655.885	19.11297
656.076	20.55851
656.268	18.6873
656.459	21.11391
656.651	20.6679
656.842	17.82958
657.034	17.15327
657.225	20.49762
657.416	21.05951
657.608	21.24993
657.799	18.95308
657.99	20.86774
658.182	17.80727
658.373	17.83715
658.564	21.05444
658.756	19.91134
658.947	18.86229
659.138	17.59956
659.33	18.40346
659.521	18.13427
659.712	18.98957
659.903	18.65957
660.094	18.27453
660.286	16.62585
660.477	21.80548
660.668	20.10545
660.859	18.53907
661.05	16.6315
661.241	19.6049
661.432	19.49946
661.623	18.16068
661.814	17.71255
662.006	16.32877
662.197	19.04838
662.388	20.74151
662.579	19.19063
662.77	20.86625
662.96	23.37203
663.151	20.40426
663.342	15.74212
663.533	19.96794
663.724	19.03236
663.915	22.52669
664.106	18.7709
664.297	22.44524
664.488	20.23158
664.678	17.52368
664.869	20.53091
665.06	20.70988
665.251	18.92427
665.442	20.21659
665.632	16.8519
665.823	22.44842
666.014	13.95389
666.204	20.32945
666.395	21.44754
666.586	23.50706
666.776	20.40289
666.967	22.6835
667.158	19.34376
667.348	22.08057
667.539	17.53127
667.729	20.76499
667.92	18.10684
668.111	21.2297
668.301	20.87331
668.492	19.10568
668.682	20.06136
668.873	19.23935
669.063	17.53745
669.253	20.4529
669.444	22.40749
669.634	19.44488
669.825	23.17458
670.015	21.91186
670.206	17.92593
670.396	23.20349
670.586	19.02324
670.777	20.4877
670.967	15.96284
671.157	18.80734
671.347	18.18256
671.538	22.53781
671.728	20.69264
671.918	23.54316
672.108	21.73991
672.299	19.22582
672.489	20.06476
672.679	18.22416
672.869	21.17141
673.059	24.81942
673.249	20.49848
673.44	17.49372
673.63	19.35092
673.82	21.81205
674.01	17.77304
674.2	20.35193
674.39	25.82083
674.58	21.24289
674.77	20.12708
674.96	19.36402
675.15	29.10612
675.34	22.33946
675.53	20.06651
675.72	19.24431
675.91	16.78246
676.099	24.4809
676.289	25.60157
676.479	22.74912
676.669	19.38269
676.859	21.32404
677.049	18.26797
677.238	20.38335
677.428	24.32223
677.618	21.28935
677.808	24.7313
677.997	21.43148
678.187	19.15737
678.377	20.54945
678.567	19.22364
678.756	19.76381
678.946	20.65713
679.136	18.10182
679.325	20.04333
679.515	18.66643
679.704	18.46428
679.894	22.83096
680.084	21.65781
680.273	23.62176
680.463	19.43207
680.652	19.21433
680.842	20.88144
681.031	22.68494
681.221	19.45968
681.41	22.12468
681.6	20.56703
681.789	22.04636
681.978	23.23464
682.168	21.53143
682.357	21.23564
682.547	21.81637
682.736	21.37289
682.925	23.67119
683.115	23.66379
683.304	22.62028
683.493	21.36851
683.682	22.2193
683.872	22.17573
684.061	23.66554
684.25	22.05287
684.439	26.46074
684.629	23.1637
684.818	29.58074
685.007	21.0832
685.196	20.697
685.385	25.7938
685.574	22.10296
685.763	22.68865
685.952	21.74146
686.142	18.97793
686.331	24.78661
686.52	18.43469
686.709	26.67945
686.898	25.96243
687.087	23.26563
687.276	25.99162
687.465	24.94746
687.654	21.24253
687.842	25.0773
688.031	19.44494
688.22	25.72977
688.409	22.61046
688.598	22.71174
688.787	28.50837
688.976	22.50156
689.165	27.34989
689.353	21.3113
689.542	23.46107
689.731	25.21096
689.92	28.50528
690.108	24.33004
690.297	21.59974
690.486	22.80538
690.675	24.24285
690.863	26.59616
691.052	26.82406
691.241	23.16375
691.429	23.72337
691.618	26.34432
691.806	19.68864
691.995	21.60866
692.184	23.06254
692.372	22.17063
692.561	22.98112
692.749	23.59336
692.938	32.06863
693.126	24.59432
693.315	22.74386
693.503	25.05019
693.692	25.53228
693.88	25.61883
694.068	28.43898
694.257	23.74742
694.445	25.18761
694.634	18.44781
694.822	25.34231
695.01	26.45923
695.199	29.32865
695.387	27.51606
695.575	26.88189
695.763	22.5913
695.952	22.67397
696.14	19.59776
696.328	22.40856
696.516	23.72275
696.705	24.86066
696.893	24.41756
697.081	19.52449
697.269	25.95654
697.457	21.21535
697.645	20.35647
697.833	26.21364
698.021	21.86662
698.21	22.79871
698.398	23.25397
698.586	21.27566
698.774	20.91307
698.962	23.44558
699.15	21.11703
699.338	20.24382
699.526	25.27181
699.714	21.68519
699.901	21.96257
700.089	25.62698
700.277	21.11726
700.465	23.29386
700.653	25.24449
700.841	24.72623
701.029	21.17248
701.217	27.4191
701.404	23.41934
701.592	27.72083
701.78	30.85006
701.968	23.15673
702.155	23.08244
702.343	20.57842
702.531	27.4108
702.718	25.30382
702.906	22.54173
703.094	22.11004
703.281	28.0999
703.469	23.6004
703.657	27.66412
703.844	33.94325
704.032	30.55282
704.219	23.44712
704.407	25.81261
704.595	28.96544
704.782	25.96746
704.97	25.05356
705.157	24.37913
705.345	30.97939
705.532	36.55193
705.719	28.75228
705.907	31.39797
706.094	28.37475
706.282	34.93567
706.469	27.83082
706.656	29.23034
706.844	27.51598
707.031	32.61528
707.218	30.73042
707.406	35.10927
707.593	32.19751
707.78	31.90023
707.968	30.08261
708.155	28.05672
708.342	32.62369
708.529	32.16428
708.716	31.90342
708.904	35.74365
709.091	32.77985
709.278	27.31426
709.465	37.80465
709.652	35.17768
709.839	34.65592
710.026	30.65326
710.213	24.75784
710.4	30.31763
710.587	32.33944
710.774	33.52486
710.961	33.99943
711.148	30.10969
711.335	32.78384
711.522	29.57526
711.709	31.77927
711.896	36.98255
712.083	33.73306
712.27	27.60046
712.457	31.16961
712.644	25.82597
712.831	37.80927
713.017	30.91061
713.204	32.63329
713.391	28.05582
713.578	33.56855
713.765	35.37573
713.951	31.19361
714.138	40.87348
714.325	30.09912
714.512	29.11315
714.698	25.94928
714.885	33.66985
715.072	28.87517
715.258	28.6354
715.445	25.68961
715.631	32.80907
715.818	19.45535
716.005	25.99061
716.191	30.0513
716.378	26.56256
716.564	31.22677
716.751	24.10836
716.937	26.78237
717.124	30.90226
717.31	24.39553
717.497	35.31764
717.683	25.38489
717.869	36.02639
718.056	26.11896
718.242	30.16683
718.429	27.25638
718.615	23.64526
718.801	27.83048
718.988	32.04567
719.174	29.35486
719.36	26.80076
719.547	32.54988
719.733	29.06663
719.919	29.27304
720.105	30.36103
720.291	27.98296
720.478	29.47499
720.664	27.78898
720.85	26.19115
721.036	39.79916
721.222	34.77938
721.408	28.5605
721.595	35.04398
721.781	35.01669
721.967	32.8261
722.153	35.64029
722.339	31.06295
722.525	30.69626
722.711	24.17904
722.897	23.70638
723.083	27.45845
723.269	33.49034
723.455	41.18189
723.641	46.50317
723.827	29.77622
724.012	31.22914
724.198	29.20783
724.384	35.33085
724.57	30.86867
724.756	22.99123
724.942	21.27791
725.127	34.34615
725.313	35.11626
725.499	34.23414
725.685	37.92903
725.87	30.76013
726.056	24.96757
726.242	36.23575
726.428	22.73835
726.613	33.50992
726.799	28.27068
726.985	25.11027
727.17	22.08484
727.356	38.35133
727.541	25.57612
727.727	28.73367
727.913	32.83839
728.098	27.50796
728.284	32.29932
728.469	24.44093
728.655	25.65289
728.84	34.64447
729.026	33.22305
729.211	32.97754
729.397	31.37314
729.582	33.73857
729.767	29.70152
729.953	31.79889
730.138	35.70794
730.323	20.66653
730.509	25.56359
730.694	38.66938
730.879	32.7135
731.065	30.44854
731.25	40.96558
731.435	33.2941
731.621	23.78106
731.806	26.93758
731.991	30.38714
732.176	25.43799
732.361	37.68318
732.547	31.70275
732.732	23.87713
732.917	40.69125
733.102	25.46765
733.287	27.36122
733.472	29.9598
733.657	30.08451
733.842	23.8401
734.027	27.4826
734.212	29.75461
734.397	26.76556
734.582	30.5728
734.767	34.7352
734.952	37.80099
735.137	19.73698
735.322	37.35566
735.507	31.93835
735.692	31.00324
735.877	40.87772
736.062	39.97622
736.247	32.71522
736.431	29.77029
736.616	35.6113
736.801	32.15324
736.986	30.97512
737.171	26.01215
737.355	25.26869
737.54	37.908
737.725	31.38769
737.909	44.71491
738.094	28.38124
738.279	35.58807
738.463	30.45782
738.648	33.69031
738.833	33.79662
739.017	42.25986
739.202	28.80436
739.386	29.48963
739.571	26.25555
739.756	35.40482
739.94	30.05069
740.125	33.601
740.309	27.56136
740.494	35.32195
740.678	32.22806
740.863	33.21929
741.047	31.55088
741.231	39.45755
741.416	27.55509
741.6	40.22315
741.785	27.4085
741.969	36.17812
742.153	38.46343
742.338	22.13914
742.522	30.84308
742.706	36.30535
742.89	26.01069
743.075	31.35292
743.259	39.06574
743.443	37.32091
743.627	39.07674
743.812	43.6183
743.996	23.70267
744.18	29.74884
744.364	30.09666
744.548	45.35107
744.732	30.03323
744.916	37.2777
745.1	35.7537
745.285	30.02101
745.469	35.69133
745.653	40.69243
745.837	26.01391
746.021	46.10762
746.205	38.2258
746.389	33.36334
746.573	31.84307
746.757	41.72509
746.94	29.36576
747.124	38.84721
747.308	25.55409
747.492	38.00515
747.676	27.29468
747.86	47.29692
748.044	29.55855
748.227	23.74487
748.411	53.97884
748.595	33.42941
748.779	27.73657
748.963	35.30627
749.146	33.02881
749.33	27.78686
749.514	27.97778
749.697	39.17912
749.881	28.77813
750.065	27.12676
750.248	32.78523
750.432	47.31573
750.616	33.08838
750.799	26.3025
750.983	48.75642
751.166	47.1689
751.35	24.58025
751.533	38.57239
751.717	43.31054
751.9	42.1257
752.084	30.36142
752.267	28.22406
752.451	29.77407
752.634	33.09931
752.818	37.10393
753.001	38.03097
753.184	39.32174
753.368	35.82101
753.551	15.70134
753.734	28.03588
753.918	48.49268
754.101	28.9983
754.284	37.32161
754.467	30.2306
754.651	28.34309
754.834	28.0637
755.017	40.61697
755.2	40.75581
755.384	27.45121
755.567	37.99932
755.75	38.45068
755.933	32.32228
756.116	38.03738
756.299	29.15888
756.482	27.91946
756.665	37.23032
756.848	32.90971
757.032	36.03449
757.215	24.91239
757.398	28.13004
757.581	28.36264
757.764	51.94533
757.947	33.02962
758.129	39.73228
758.312	18.23639
758.495	31.52333
758.678	32.85664
758.861	30.86485
759.044	46.29267
759.227	27.88976
759.41	28.27139
759.592	37.88964
759.775	30.63509
759.958	39.98577
760.141	27.07639
760.324	49.45602
760.506	43.45227
760.689	38.98224
760.872	47.94373
761.054	36.92413
761.237	33.12136
761.42	35.30608
761.602	40.59024
761.785	35.27847
761.968	41.38123
762.15	44.86264
762.333	33.47794
762.515	36.82633
762.698	31.35742
762.88	39.93458
763.063	36.15914
763.245	40.95339
763.428	29.33079
763.61	31.43171
763.793	26.16304
763.975	36.25956
764.158	32.01758
764.34	30.26794
764.522	28.92719
764.705	33.09696
764.887	42.72534
765.069	24.34841
765.252	37.05836
765.434	38.07891
765.616	35.00396
765.799	29.58814
765.981	37.84997
766.163	29.91181
766.345	42.81957
766.528	30.50683
766.71	19.97252
766.892	35.57595
767.074	42.7461
767.256	32.38121
767.438	46.18528
767.62	36.29055
767.802	50.48526
767.985	39.11249
768.167	48.10288
768.349	31.18968
768.531	38.73399
768.713	37.09248
768.895	40.81564
769.077	38.63017
769.259	53.80026
769.441	71.60287
769.623	39.86034
769.804	47.55338
769.986	43.23805
770.168	52.44592
770.35	61.4391
770.532	48.90867
770.714	51.09403
770.896	51.82455
771.077	26.54974
771.259	55.55465
771.441	49.11466
771.623	57.27839
771.804	67.46547
771.986	29.01697
772.168	40.96953
772.35	53.50845
772.531	69.2135
772.713	45.03928
772.894	60.7455
773.076	47.51005
773.258	41.10497
773.439	61.41331
773.621	67.64164
773.802	36.88866
773.984	39.33631
774.166	49.67745
774.347	62.84846
774.529	57.99406
774.71	27.34058
774.891	44.66222
775.073	41.8807
775.254	59.27066
775.436	40.34675
775.617	73.11974
775.799	41.98478
775.98	60.04547
776.161	67.06517
776.343	69.14036
776.524	46.37273
776.705	43.03024
776.886	29.35113
777.068	50.94096
777.249	97.89371
777.43	69.26147
777.611	33.05754
777.793	42.63141
777.974	67.75352
778.155	39.60489
778.336	37.69684
778.517	77.2995
778.698	39.34546
778.879	27.815
779.061	19.02052
779.242	52.18145
779.423	51.73568
779.604	42.39654
779.785	43.86165
779.966	48.16306
780.147	58.85684
780.328	58.93054
780.509	79.10537
780.69	61.50776
780.871	40.10081
781.051	32.41666
781.232	49.23365
781.413	46.67218
781.594	43.4042
781.775	42.86243
781.956	38.39502
782.137	24.35872
782.317	43.08065
782.498	47.8443
782.679	50.27101
782.86	50.68954
783.04	41.59384
783.221	48.6209
783.402	71.61263
783.583	49.0502
783.763	57.65742
783.944	41.88637
784.124	33.77451
784.305	70.02305
784.486	55.21595
784.666	46.38037
784.847	29.88893
785.027	90.58932
785.208	40.71782
785.388	41.41657
785.569	39.73317
785.749	44.84637
785.93	42.46015
786.11	32.58226
786.291	53.74372
786.471	50.3259
786.652	60.25795
786.832	44.81734
787.012	49.80849
787.193	36.01941
787.373	48.17746
787.553	41.44737
787.734	50.53299
787.914	43.34537
788.094	60.34901
788.275	50.59418
788.455	43.94744
788.635	35.28675
788.815	50.27272
788.995	35.83839
789.176	31.0374
789.356	38.28398
789.536	44.6784
789.716	52.59481
789.896	39.03144
790.076	42.28651
790.256	49.80451
790.436	24.99531
790.616	37.92875
790.796	51.66047
790.976	42.93309
791.156	37.42862
791.336	54.80289
791.516	51.32432
791.696	44.52844
791.876	32.22808
792.056	49.23565
792.236	59.18131
792.416	56.49201
792.596	52.85681
792.776	51.6973
792.956	55.36924
793.135	69.53756
793.315	36.33626
793.495	60.38466
793.675	54.84503
793.854	57.42246
794.034	60.75314
794.214	35.91827
794.394	57.0388
794.573	63.58879
794.753	51.04021
794.933	38.75976
795.112	49.95587
795.292	61.46749
795.472	70.3401
795.651	32.3855
795.831	46.7664
796.01	44.97572
796.19	44.28954
796.369	48.82357
796.549	52.69885
796.728	45.8101
796.908	31.95698
797.087	35.02569
797.267	44.21383
797.446	33.63095
797.626	53.34135
797.805	52.27434
797.984	39.3035
798.164	57.24677
798.343	39.26588
798.522	50.44893
798.702	48.68394
798.881	34.62523
799.06	46.543
799.239	27.29204
799.419	36.33252
799.598	68.9383
799.777	52.37702
799.956	61.85916
800.136	43.39576
800.315	37.26741
800.494	51.61417
800.673	60.39367
800.852	55.80842
801.031	61.17159
801.21	55.31102
801.389	42.07134
801.568	49.36424
801.747	72.56123
801.926	47.32751
802.105	64.8086
802.284	41.59
802.463	68.21467
802.642	51.90626
802.821	50.12232
803	66.61823
803.179	58.47662
803.358	62.32866
803.537	42.13776
803.716	48.399
803.895	40.45011
804.073	46.53997
804.252	37.65159
804.431	54.6049
804.61	46.38813
804.789	58.24524
804.967	42.1355
805.146	41.88989
805.325	76.69042
805.503	53.24391
805.682	33.76914
805.861	92.0606
806.039	65.7765
806.218	44.46536
806.397	50.76207
806.575	49.19319
806.754	54.29725
806.932	37.79984
807.111	61.93383
807.289	61.84496
807.468	48.60147
807.646	59.91518
807.825	56.6753
808.003	50.7259
808.182	63.16579
808.36	49.81554
808.539	39.25071
808.717	70.5756
808.895	41.36641
809.074	51.1631
809.252	48.96805
809.43	55.83641
809.609	65.36297
809.787	68.03103
809.965	47.09813
810.144	49.78347
810.322	49.11259
810.5	55.18869
810.678	46.39942
810.856	79.3407
811.035	65.36089
811.213	57.15182
811.391	69.34422
811.569	53.41534
811.747	102.10826
811.925	64.98292
812.103	41.82451
812.281	48.84631
812.459	75.72692
812.637	75.27349
812.816	63.54037
812.994	82.32147
813.171	70.24042
813.349	58.53713
813.527	63.44246
813.705	70.77053
813.883	89.16795
814.061	63.36262
814.239	76.52072
814.417	82.34471
814.595	60.44614
814.773	58.62944
814.95	51.71283
815.128	58.30318
815.306	55.07917
815.484	51.65995
815.662	39.67211
815.839	39.91735
816.017	44.1138
816.195	67.18717
816.372	45.7614
816.55	62.85677
816.728	72.49836
816.905	50.49146
817.083	75.48959
817.261	47.56661
817.438	97.11759
817.616	78.32261
817.793	46.15701
817.971	63.67956
818.148	61.80773
818.326	70.57019
818.503	55.86859
818.681	77.68816
818.858	49.80882
819.036	52.78937
819.213	54.5487
819.391	44.06977
819.568	44.43475
819.745	39.20375
819.923	63.2333
820.1	48.66287
820.277	41.55992
820.455	46.07154
820.632	50.00862
820.809	53.9005
820.986	38.59617
821.164	34.40568
821.341	31.90473
821.518	42.61187
821.695	33.92788
821.872	32.68436
822.05	30.26375
822.227	27.14972
822.404	28.27729
822.581	30.59304
822.758	27.985
822.935	28.07725
823.112	30.24247
823.289	27.37557
823.466	30.34924
823.643	29.39963
823.82	32.52678
823.997	30.6939
824.174	33.52221
824.351	39.87937
824.528	38.41112
824.705	36.62709
824.882	38.73777
825.059	46.51665
825.236	37.59149
825.412	38.85965
825.589	43.77488
825.766	55.85068
825.943	40.29072
826.12	44.63529
826.296	36.76266
826.473	41.93161
826.65	41.59978
826.827	46.15467
827.003	35.60918
827.18	38.15306
827.357	40.98487
827.533	37.04191
827.71	26.63021
827.887	33.73612
828.063	37.24257
828.24	32.91271
828.416	39.06813
828.593	34.56296
828.769	44.20461
828.946	44.78079
829.122	47.48292
829.299	45.37809
829.475	33.85179
829.652	45.50715
829.828	65.01915
830.005	46.41912
830.181	60.4912
830.357	47.80517
830.534	61.48549
830.71	52.50091
830.886	59.69859
831.063	59.03336
831.239	70.7468
831.415	41.23968
831.592	70.16617
831.768	49.30997
831.944	45.84957
832.12	77.87094
832.296	72.6526
832.473	62.71965
832.649	44.6624
832.825	62.0193
833.001	42.20855
833.177	56.7202
833.353	51.22512
833.529	34.6732
833.705	48.33507
833.881	35.62765
834.058	36.16905
834.234	37.86905
834.41	38.15179
834.586	31.82478
834.761	35.56836
834.937	38.68728
835.113	39.6765
835.289	36.06403
835.465	39.86861
835.641	36.95616
835.817	39.36564
835.993	59.59917
836.169	37.5339
836.344	51.55451
836.52	55.7398
836.696	52.69388
836.872	46.53396
837.048	100.67221
837.223	50.57753
837.399	81.03879
837.575	66.63864
837.75	63.24322
837.926	83.11456
838.102	114.49637
838.277	96.5759
838.453	126.73662
838.628	123.79526
838.804	60.66252
838.98	108.79266
839.155	64.69304
839.331	83.92078
839.506	63.1755
839.682	63.45895
839.857	85.9464
840.033	93.8216
840.208	51.47052
840.384	33.59503
840.559	51.78842
840.734	73.51947
840.91	89.42973
841.085	57.34828
841.26	59.17108
841.436	54.11631
841.611	53.55106
841.786	75.84407
841.962	93.48342
842.137	65.58886
842.312	45.378
842.487	63.79283
842.663	52.05622
842.838	59.59828
843.013	162.41779
843.188	90.65595
843.363	95.58572
843.538	139.40758
843.714	140.93726
843.889	142.25892
844.064	155.53224
844.239	127.23074
844.414	140.95712
844.589	98.19854
844.764	173.49701
844.939	168.54894
845.114	186.09082
845.289	177.67062
845.464	235.91997
845.639	166.21822
845.814	91.01781
845.989	105.10196
846.163	122.37539
846.338	123.48012
846.513	179.15854
846.688	116.85073
846.863	120.85588
847.038	109.66958
847.212	119.37813
847.387	126.29976
847.562	131.45946
847.737	157.59336
847.911	74.26541
848.086	82.68858
848.261	264.36374
848.435	118.09139
848.61	163.38596
848.785	91.97507
848.959	174.56991
849.134	223.52642
849.308	235.08915
849.483	128.28388
849.658	193.58984
849.832	112.95767
850.007	103.24696
850.181	259.91188
850.356	100.692
850.53	245.10879
850.705	89.07046
850.879	56.66616
851.053	127.88004
851.228	116.1214
851.402	136.91444
851.577	178.49141
851.751	196.96108
851.925	137.4968
852.099	71.06773
852.274	102.59533
852.448	125.40932
852.622	156.61751
852.797	128.61176
852.971	120.70832
853.145	137.67698
853.319	358.36288
853.493	190.11653
853.668	110.63439
853.842	234.32717
854.016	187.84903
854.19	216.59769
854.364	140.02504
854.538	144.61814
854.712	195.62547
854.886	128.05696
855.06	125.67776
855.234	60.75675
855.408	205.01634
855.582	177.8829
855.756	173.03649
855.93	229.13082
856.104	156.26615
856.278	183.26114
856.452	133.38586
856.626	172.0941
856.8	270.24698
856.973	169.59367
857.147	151.14453
857.321	161.44068
857.495	199.29709
857.669	128.63097
857.842	117.09358
858.016	193.25614
858.19	104.23069
858.364	294.40432
858.537	120.33315
858.711	142.74717
858.885	124.08863
859.058	117.68018
859.232	64.48666
859.405	87.81463
859.579	180.98204
859.753	145.75574
859.926	111.32573
860.1	78.38277
860.273	138.11713
860.447	220.45778
860.62	120.18407
860.794	261.3815
860.967	147.07818
861.141	190.00419
861.314	271.07341
861.487	171.78922
861.661	217.10526
861.834	205.63049
862.008	196.63303
862.181	143.55113
862.354	142.76634
862.528	163.08267
862.701	117.24724
862.874	83.83578
863.047	124.86112
863.221	121.76602
863.394	70.06049
863.567	217.84791
863.74	62.86619
863.913	182.78398
864.087	157.42824
864.26	184.19146
864.433	138.73973
864.606	230.97192
864.779	140.16864
864.952	75.47354
865.125	114.44807
865.298	138.57867
865.471	143.01277
865.644	269.10017
865.817	218.09696
865.99	189.95963
866.163	209.71326
866.336	127.36846
866.509	141.12865
866.682	117.57743
866.855	201.74784
867.028	99.68097
867.2	172.43335
867.373	67.1546
867.546	155.81327
867.719	273.7803
867.892	179.73871
868.064	107.06066
868.237	163.39015
868.41	142.02909
868.583	91.56065
868.755	91.97767
868.928	147.87825
869.101	279.02057
869.273	197.83286
869.446	173.22263
869.619	198.99014
869.791	133.49931
869.964	200.20395
870.136	187.16403
870.309	150.54959
870.481	161.35198
870.654	82.46138
870.826	157.95819
870.999	122.20132
871.171	180.37631
871.344	121.73033
871.516	147.19515
871.689	103.26362
871.861	145.32896
872.033	109.91196
872.206	129.54981
872.378	195.94331
872.55	129.81153
872.723	91.67361
872.895	129.29684
873.067	195.62667
873.24	224.16997
873.412	118.8006
873.584	131.02597
873.756	121.80616
873.928	164.17212
874.101	162.59368
874.273	179.45761
874.445	71.13007
874.617	89.06746
874.789	155.59628
874.961	130.0557
875.133	177.22461
875.305	149.1475
875.477	99.43302
875.649	84.37689
875.821	110.0628
875.993	234.95904
876.165	103.00294
876.337	155.73402
876.509	128.1676
876.681	158.73215
876.853	155.5178
877.025	158.45984
877.197	111.14211
877.369	103.81796
877.541	190.05362
877.712	63.68782
877.884	102.32664
878.056	177.05928
878.228	103.33654
878.4	164.54856
878.571	101.61662
878.743	72.22891
878.915	157.70441
879.086	95.91578
879.258	117.02139
879.43	107.15429
879.601	96.09314
879.773	99.70168
879.945	35.86745
880.116	50.55173
880.288	35.93905
880.459	39.81275
880.631	33.41593
880.802	37.78397
880.974	36.15979
881.145	29.58431
881.317	35.41396
881.488	30.41967
881.66	32.8365
881.831	30.79359
882.002	36.85444
882.174	31.4546
882.345	36.41871
882.517	27.30188
882.688	40.4853
882.859	36.82122
883.03	50.41137
883.202	48.72268
883.373	45.52602
883.544	45.67116
883.715	68.80825
883.887	59.37707
884.058	54.45904
884.229	70.07787
884.4	71.79655
884.571	80.58981
884.742	72.02424
884.914	79.47766
885.085	102.8974
885.256	121.67782
885.427	102.60611
885.598	120.98361
885.769	123.63986
885.94	119.57601
886.111	90.5821
886.282	138.82507
886.453	115.65935
886.624	92.78852
886.795	135.38845
886.966	114.0279
887.136	147.97597
887.307	103.38357
887.478	175.51951
887.649	153.44386
887.82	164.04652
887.991	127.62372
888.161	172.26147
888.332	164.57172
888.503	94.26303
888.674	218.26884
888.844	227.76582
889.015	189.46333
889.186	92.10327
889.356	215.44403
889.527	92.14373
889.698	362.18344
889.868	131.58491
890.039	153.51928
890.209	138.90533
890.38	182.36773
890.551	162.2025
890.721	220.66251
890.892	192.34501
891.062	128.26082
891.233	165.81269
891.403	129.23713
891.574	107.24241
891.744	136.78439
891.914	182.74061
892.085	147.16658
892.255	62.2972
892.425	221.96552
892.596	179.68686
892.766	165.34709
892.936	220.25357
893.107	190.99571
893.277	115.76634
893.447	87.62408
893.618	69.74835
893.788	128.1681
893.958	70.08357
894.128	77.91108
894.298	81.08635
894.468	106.89853
894.639	56.15797
894.809	45.89347
894.979	61.91013
895.149	72.52116
895.319	61.71719
895.489	80.65186
895.659	93.87978
895.829	67.76358
895.999	72.79056
896.169	58.06056
896.339	68.0899
896.509	127.19147
896.679	140.94206
896.849	135.7163
897.019	183.94601
897.189	151.43821
897.358	134.80078
897.528	193.24737
897.698	81.4347
897.868	174.68369
898.038	288.77944
898.208	275.19873
898.377	112.49645
898.547	279.81702
898.717	428.64743
898.886	182.57691
899.056	266.8726
899.226	384.11877
899.395	252.51873
899.565	311.23939
899.735	213.31656
899.904	344.32011
900.074	293.86878
900.244	152.17142
900.413	510.11707
900.583	129.62424
900.752	199.83802
900.922	310.86212
901.091	51.9144
901.261	275.48008
901.43	253.12247
901.599	259.57424
901.769	554.62429
901.938	312.92589
902.108	290.62083
902.277	374.61384
902.446	110.71856
902.616	133.6207
902.785	184.84086
902.954	291.22381
903.124	199.1578
903.293	163.90617
903.462	97.94178
903.631	124.85858
903.801	94.94867
903.97	57.38176
904.139	90.63906
904.308	69.70829
904.477	59.89611
904.646	42.38782
904.816	56.59609
904.985	77.10462
905.154	110.62149
