Data from WindowProjectSample_Transmission__10__00010.txt Node

Date: Sat May 03 15:04:16 EDT 2025
User: jessi
Spectrometer: SR400872
Trigger mode: 0
Integration Time (sec): 5.000010E-1
Scans to average: 6
Electric dark correction enabled: true
Nonlinearity correction enabled: true
Boxcar width: 0
XAxis mode: Wavelengths
Number of Pixels in Spectrum: 3648
>>>>>Begin Spectral Data<<<<<
184.909	18368.50253
185.132	2612.01287
185.355	23891.70016
185.578	-8088.97115
185.801	465.16022
186.024	-1412.283
186.247	878.35874
186.47	1680.71034
186.693	-126.97276
186.916	-2226.22236
187.139	-2552.54069
187.362	1597.49521
187.585	2702.09096
187.808	-4174.70726
188.031	1045.44627
188.254	-1425.73601
188.476	-723.51092
188.699	2590.43896
188.922	-1230.46592
189.145	-9849.85323
189.368	-385.94053
189.591	-1258.68437
189.813	-1667.79769
190.036	1287.24357
190.259	1668.26519
190.482	588.13734
190.705	10720.47437
190.927	-952.96908
191.15	3497.45317
191.373	2357.998
191.595	-2313.21225
191.818	2503.86738
192.041	-437.86118
192.263	2836.76275
192.486	2259.56925
192.709	-5364.80968
192.931	2819.3886
193.154	-6364.77385
193.377	187042.33929
193.599	1414.90306
193.822	1843.75879
194.044	-2025.53642
194.267	515.7958
194.489	82.20417
194.712	1372.72778
194.934	3340.21646
195.157	-16003.22305
195.379	929.87209
195.602	2371.11853
195.824	2009.3858
196.047	2213.06278
196.269	3047.30828
196.492	3375.68293
196.714	2727.92655
196.936	1193.25325
197.159	1344.69751
197.381	-2146.66707
197.604	-1314.48222
197.826	6933.99939
198.048	3226.6616
198.271	4032.83218
198.493	2212.0527
198.715	-6386.06721
198.938	-588.88343
199.16	1803.25357
199.382	1456.34358
199.604	-611.81779
199.827	9599.16217
200.049	897.99579
200.271	-3071.68356
200.493	-55265.35042
200.715	2288.04948
200.938	6852.45918
201.16	-7132.07913
201.382	-2903.19458
201.604	-2091.0617
201.826	6818.4936
202.048	995.34481
202.27	-16853.48728
202.492	4999.3364
202.715	-1236.67649
202.937	4467.03038
203.159	-2155.61923
203.381	925.9291
203.603	-3777.61621
203.825	-3068.90332
204.047	3438.35378
204.269	-2052.57801
204.491	2359.93427
204.713	1905.10764
204.935	15605.77233
205.156	1596.20076
205.378	-7941.61426
205.6	-4479.15415
205.822	9339.2681
206.044	-614.02449
206.266	4117.41446
206.488	1093.91305
206.71	28083.37174
206.932	2473.36471
207.153	-4843.5384
207.375	-1860.83848
207.597	8493.57903
207.819	4248.25109
208.041	2237.59437
208.262	-2822.67777
208.484	-1262.21472
208.706	-2691.91738
208.927	29320.31657
209.149	867.72193
209.371	-6532.82558
209.593	1463.03418
209.814	4906.96426
210.036	-2207.82813
210.258	-5025.45961
210.479	-1319.82742
210.701	975.6358
210.922	6427.70836
211.144	-1132.93295
211.366	-6227.68433
211.587	-604.73954
211.809	9345.21913
212.03	-1325.07963
212.252	-1790.55184
212.473	749.95493
212.695	-2163.67359
212.916	2688.7651
213.138	3171.83461
213.359	-1724.17658
213.581	6448.18174
213.802	-1623.31302
214.024	17099.4714
214.245	-3191.33434
214.466	-818.22952
214.688	1621.77313
214.909	923.66797
215.131	-102967.56872
215.352	1688.27673
215.573	2560.69694
215.795	2962.38069
216.016	4300.14272
216.237	-680.10638
216.459	6926.71082
216.68	108722.84923
216.901	-85698.10538
217.122	2016.28644
217.344	5815.31822
217.565	-58171.68347
217.786	1611.6011
218.007	1794.46586
218.228	-1105.14516
218.45	-1153.38853
218.671	-1260.23453
218.892	1221.87402
219.113	-18270.18876
219.334	-422.13033
219.555	-5720.75182
219.776	1683.0871
219.997	3553.10153
220.219	1118.9698
220.44	2361.12403
220.661	-3496.01655
220.882	3605.86294
221.103	-1227.24097
221.324	900.12712
221.545	2299.82409
221.766	-6079.24152
221.987	3756.67688
222.208	-1845.95288
222.429	3511.56033
222.65	-159.52394
222.87	-525.32455
223.091	9096.96996
223.312	2704.07384
223.533	7063.06616
223.754	1937.06456
223.975	1421.27789
224.196	-11467.45703
224.417	1039.52059
224.637	809.83702
224.858	-481.33699
225.079	6764.76119
225.3	602.87903
225.521	2092.85325
225.741	1371.77962
225.962	723.24819
226.183	328.98519
226.404	659.06004
226.624	598.08714
226.845	366.47063
227.066	394.54079
227.286	204.89355
227.507	89.33149
227.728	79.0199
227.948	129.42957
228.169	35.66306
228.389	45.70509
228.61	26.84422
228.831	35.50272
229.051	2.68031
229.272	22.21681
229.492	32.15419
229.713	9.23974
229.933	21.50322
230.154	19.36264
230.374	32.76501
230.595	24.28527
230.815	16.75681
231.036	22.93045
231.256	-5.39747
231.477	44.0097
231.697	25.8047
231.917	26.22274
232.138	40.12283
232.358	79.28571
232.579	64.86465
232.799	11.98193
233.019	67.54619
233.24	78.48384
233.46	22.31066
233.68	43.09797
233.901	33.3528
234.121	20.58528
234.341	8.56977
234.561	-2.6885
234.782	13.96207
235.002	45.13028
235.222	-0.56222
235.442	41.481
235.662	22.02689
235.883	42.23488
236.103	35.09368
236.323	25.96825
236.543	18.86415
236.763	30.64023
236.983	29.73027
237.203	31.25946
237.423	44.70166
237.643	64.6932
237.864	53.77519
238.084	14.17631
238.304	20.399
238.524	33.26191
238.744	27.66972
238.964	49.43877
239.184	43.70334
239.404	45.97785
239.624	23.60839
239.843	40.56521
240.063	24.46586
240.283	15.46846
240.503	17.3018
240.723	16.5194
240.943	9.12383
241.163	13.42393
241.383	10.34632
241.603	4.70532
241.822	6.30691
242.042	4.7563
242.262	5.91703
242.482	6.57344
242.702	8.07389
242.921	2.69254
243.141	6.07181
243.361	4.75532
243.581	7.6427
243.8	6.00706
244.02	4.14643
244.24	7.83692
244.459	7.46061
244.679	14.32555
244.899	9.23596
245.118	10.65975
245.338	8.11504
245.558	11.56914
245.777	6.05974
245.997	7.38842
246.216	7.49899
246.436	4.23365
246.655	3.31218
246.875	2.6187
247.094	4.85417
247.314	1.71043
247.533	2.94797
247.753	3.49695
247.972	2.64477
248.192	0.92747
248.411	1.73232
248.631	3.28217
248.85	4.08655
249.07	2.76681
249.289	5.1383
249.508	3.9554
249.728	6.13478
249.947	6.44685
250.166	7.38435
250.386	3.84402
250.605	5.89185
250.824	8.50775
251.044	6.60254
251.263	21.56075
251.482	10.19112
251.701	10.12656
251.921	0.09125
252.14	3.19495
252.359	3.46051
252.578	8.03129
252.798	3.0473
253.017	7.61756
253.236	4.15806
253.455	5.39491
253.674	9.94961
253.893	5.48837
254.112	6.69045
254.331	9.18134
254.551	8.12739
254.77	3.47535
254.989	11.10139
255.208	10.15863
255.427	12.44498
255.646	10.74911
255.865	17.91201
256.084	7.02232
256.303	7.7536
256.522	11.8691
256.741	3.23128
256.96	3.11048
257.179	7.59719
257.397	8.11599
257.616	4.68066
257.835	5.00884
258.054	11.71755
258.273	7.1058
258.492	8.68764
258.711	5.20828
258.93	2.35811
259.148	3.30104
259.367	3.34821
259.586	4.45484
259.805	2.10273
260.023	4.32365
260.242	3.11826
260.461	2.2272
260.68	1.24723
260.898	3.85783
261.117	1.46181
261.336	0.92423
261.554	3.20745
261.773	3.3266
261.992	0.65146
262.21	3.1917
262.429	3.39998
262.648	6.14476
262.866	7.40578
263.085	4.36434
263.303	4.34192
263.522	7.53319
263.74	7.54568
263.959	12.17524
264.178	6.56655
264.396	5.47439
264.615	4.20381
264.833	10.10901
265.051	8.25762
265.27	8.18795
265.488	9.11215
265.707	5.72251
265.925	9.59671
266.144	4.3293
266.362	5.3342
266.58	5.19375
266.799	4.24311
267.017	5.0574
267.235	4.65188
267.454	2.58929
267.672	1.70904
267.89	3.86856
268.109	4.1233
268.327	3.84497
268.545	0.82795
268.763	3.72439
268.982	1.41678
269.2	4.43096
269.418	2.79765
269.636	1.97972
269.854	3.77731
270.073	3.28142
270.291	1.57592
270.509	1.80576
270.727	3.80519
270.945	6.244
271.163	5.98883
271.381	1.48228
271.599	2.75617
271.817	4.60154
272.036	1.369
272.254	2.7454
272.472	2.188
272.69	2.17403
272.908	2.17747
273.126	3.95773
273.344	4.87389
273.562	1.60938
273.779	2.1845
273.997	3.48616
274.215	4.0267
274.433	2.80522
274.651	4.00812
274.869	4.04588
275.087	2.60915
275.305	3.59104
275.523	2.02374
275.74	2.57382
275.958	5.01869
276.176	7.01212
276.394	2.16027
276.612	2.91486
276.829	2.77199
277.047	2.16253
277.265	2.74919
277.483	3.07451
277.7	4.0189
277.918	3.00476
278.136	5.4304
278.353	2.7966
278.571	1.33179
278.789	4.804
279.006	0.81776
279.224	2.74747
279.442	4.29094
279.659	3.23001
279.877	2.37728
280.094	4.88855
280.312	1.2287
280.529	3.02604
280.747	0.88491
280.964	2.38035
281.182	5.31089
281.399	2.51748
281.617	3.5467
281.834	2.32246
282.052	2.05699
282.269	2.72135
282.487	2.29098
282.704	1.7276
282.921	2.22818
283.139	2.87983
283.356	3.56736
283.574	3.18452
283.791	1.83267
284.008	4.65281
284.226	2.5317
284.443	2.91523
284.66	3.60489
284.877	2.92459
285.095	1.95135
285.312	1.49959
285.529	0.91748
285.746	0.67244
285.964	1.73686
286.181	1.22274
286.398	1.8372
286.615	2.37378
286.832	2.31122
287.05	0.83078
287.267	1.64366
287.484	1.808
287.701	2.57727
287.918	2.37935
288.135	2.5898
288.352	1.0884
288.569	1.47854
288.786	2.17852
289.003	1.8075
289.22	2.5458
289.437	1.62891
289.654	2.65792
289.871	2.61534
290.088	2.66118
290.305	2.03899
290.522	1.51903
290.739	2.03652
290.956	2.92148
291.173	3.30218
291.39	3.23595
291.607	2.26349
291.824	1.56743
292.04	1.40431
292.257	2.76031
292.474	3.01153
292.691	2.08117
292.908	1.15004
293.125	1.67856
293.341	1.03804
293.558	4.76715
293.775	1.78795
293.992	2.08447
294.208	0.99681
294.425	1.16354
294.642	1.68424
294.858	2.45294
295.075	0.85635
295.292	1.8598
295.508	2.14658
295.725	3.50746
295.942	1.74254
296.158	1.13901
296.375	1.90114
296.591	1.33063
296.808	1.6993
297.024	1.77791
297.241	2.02991
297.458	2.26072
297.674	0.18118
297.891	1.6807
298.107	1.29156
298.323	0.97536
298.54	2.65883
298.756	1.16831
298.973	0.5761
299.189	2.67778
299.406	1.23912
299.622	2.81463
299.838	2.7011
300.055	2.53551
300.271	0.74037
300.487	0.85187
300.704	1.19618
300.92	0.74918
301.136	3.68882
301.353	2.57781
301.569	1.80682
301.785	2.14001
302.001	2.50697
302.218	2.17981
302.434	2.10369
302.65	0.84291
302.866	1.46951
303.083	3.64305
303.299	3.29655
303.515	1.71588
303.731	1.97576
303.947	0.73727
304.163	1.12079
304.379	2.19736
304.595	2.31669
304.812	1.36846
305.028	1.01242
305.244	1.53943
305.46	2.45193
305.676	2.61605
305.892	2.97121
306.108	1.76707
306.324	1.39856
306.54	3.48796
306.756	2.44845
306.972	2.4086
307.187	1.70079
307.403	3.10405
307.619	1.32835
307.835	2.7537
308.051	3.15378
308.267	0.60737
308.483	2.67858
308.699	2.1887
308.914	1.97787
309.13	1.82397
309.346	0.57061
309.562	1.02113
309.778	0.6593
309.993	2.27653
310.209	1.71685
310.425	0.68829
310.641	1.56974
310.856	0.93665
311.072	0.86783
311.288	1.6477
311.503	1.90785
311.719	0.28743
311.935	0.19442
312.15	2.0201
312.366	1.79739
312.581	2.15447
312.797	1.8888
313.013	2.4081
313.228	1.33516
313.444	1.8404
313.659	1.35975
313.875	2.15246
314.09	1.67803
314.306	3.02968
314.521	2.44593
314.737	2.42039
314.952	2.15356
315.168	1.63252
315.383	2.39382
315.599	1.53196
315.814	1.57229
316.029	2.62373
316.245	0.52208
316.46	0.81176
316.675	2.98932
316.891	3.55665
317.106	4.31238
317.321	2.51528
317.537	2.40721
317.752	2.47167
317.967	2.674
318.183	1.27413
318.398	1.69805
318.613	2.7675
318.828	3.04264
319.043	2.64331
319.259	1.56873
319.474	2.24352
319.689	2.95411
319.904	0.55057
320.119	2.27424
320.334	2.20121
320.549	1.59487
320.765	2.85649
320.98	2.15485
321.195	2.74641
321.41	1.93644
321.625	2.51783
321.84	3.67678
322.055	3.50526
322.27	1.30894
322.485	1.0409
322.7	2.04251
322.915	3.02456
323.13	1.32365
323.345	3.15393
323.56	2.08336
323.775	2.67332
323.989	2.42969
324.204	2.1826
324.419	2.70668
324.634	0.86184
324.849	1.833
325.064	4.15615
325.279	2.95593
325.493	2.48009
325.708	2.78999
325.923	1.26604
326.138	1.27256
326.352	3.198
326.567	2.75606
326.782	1.72375
326.997	1.36075
327.211	2.26406
327.426	2.42315
327.641	1.41606
327.855	0.67062
328.07	2.4164
328.285	3.60404
328.499	1.69205
328.714	2.55147
328.928	2.68044
329.143	2.15612
329.358	2.84403
329.572	2.97596
329.787	3.20834
330.001	4.20371
330.216	0.75788
330.43	3.52146
330.645	3.46291
330.859	2.72952
331.074	1.53724
331.288	2.20281
331.503	3.15374
331.717	1.07983
331.931	2.01245
332.146	2.0109
332.36	3.7102
332.575	2.51564
332.789	2.28143
333.003	1.8901
333.218	2.48997
333.432	1.7651
333.646	2.51487
333.86	3.40623
334.075	3.52543
334.289	1.83678
334.503	1.31782
334.717	2.34768
334.932	2.39824
335.146	3.08143
335.36	1.84615
335.574	2.46876
335.788	2.42049
336.003	3.0216
336.217	2.71533
336.431	2.59805
336.645	1.47435
336.859	1.09953
337.073	1.80499
337.287	2.28946
337.501	1.16372
337.715	2.28152
337.929	2.59605
338.143	1.23693
338.357	2.01664
338.571	1.20194
338.785	2.41099
338.999	1.59689
339.213	1.74808
339.427	0.81571
339.641	2.85054
339.855	1.9462
340.069	1.56869
340.283	3.02856
340.497	3.5513
340.711	2.34065
340.924	1.58818
341.138	1.02476
341.352	0.85207
341.566	2.21498
341.78	0.67778
341.993	1.4515
342.207	1.00984
342.421	2.34113
342.635	2.01667
342.848	1.44626
343.062	0.15622
343.276	1.54834
343.49	3.80601
343.703	1.42453
343.917	2.61307
344.131	2.70337
344.344	1.50824
344.558	1.45939
344.771	1.24813
344.985	3.21854
345.199	3.29015
345.412	2.12184
345.626	2.19865
345.839	0.692
346.053	1.04199
346.266	0.9942
346.48	2.58577
346.693	2.15586
346.907	2.41664
347.12	1.2572
347.334	2.11482
347.547	2.30546
347.76	1.68201
347.974	2.88871
348.187	2.26372
348.401	1.55404
348.614	1.49739
348.827	1.71042
349.041	2.39074
349.254	0.68418
349.467	1.80702
349.681	0.67679
349.894	1.52795
350.107	3.00027
350.32	3.31402
350.534	0.5588
350.747	1.56937
350.96	1.28469
351.173	1.31355
351.386	1.82493
351.6	1.54681
351.813	1.28852
352.026	2.03154
352.239	0.86982
352.452	1.43756
352.665	2.46917
352.878	1.65294
353.092	3.73261
353.305	2.19122
353.518	2.17296
353.731	1.21513
353.944	2.9166
354.157	1.19776
354.37	1.22094
354.583	0.77364
354.796	0.63514
355.009	2.69619
355.222	1.85932
355.435	1.77195
355.647	2.6607
355.86	0.99979
356.073	1.74525
356.286	1.38857
356.499	2.27499
356.712	2.00465
356.925	2.1007
357.138	2.53159
357.35	0.98319
357.563	1.40922
357.776	1.82183
357.989	1.35863
358.201	2.13124
358.414	1.67098
358.627	2.69922
358.84	1.38365
359.052	0.92249
359.265	0.93051
359.478	2.61406
359.69	-0.3126
359.903	2.03598
360.116	2.19947
360.328	0.43925
360.541	2.27963
360.753	0.96332
360.966	1.0997
361.179	1.2877
361.391	1.21678
361.604	0.67147
361.816	1.17711
362.029	0.905
362.241	0.90544
362.454	1.1502
362.666	0.87229
362.879	1.39893
363.091	1.26573
363.304	0.89693
363.516	1.45069
363.728	0.68799
363.941	1.94747
364.153	0.9889
364.366	-0.06187
364.578	0.75006
364.79	1.91903
365.003	1.53933
365.215	1.35669
365.427	1.84089
365.639	2.48794
365.852	1.7345
366.064	3.06791
366.276	1.03894
366.488	1.91763
366.701	1.25184
366.913	1.38282
367.125	1.48287
367.337	1.10058
367.549	1.16884
367.762	1.64732
367.974	1.54747
368.186	0.88303
368.398	2.50068
368.61	1.96093
368.822	2.09907
369.034	1.75397
369.246	2.22043
369.458	3.43491
369.67	1.03159
369.882	2.89541
370.094	0.09097
370.306	2.95989
370.518	1.35751
370.73	0.96397
370.942	0.90501
371.154	1.27986
371.366	1.06606
371.578	1.87104
371.79	1.01117
372.002	2.5516
372.214	2.87018
372.425	1.73758
372.637	2.55753
372.849	1.59993
373.061	0.12354
373.273	1.91104
373.484	1.93562
373.696	2.27638
373.908	0.01949
374.12	2.34873
374.331	2.15882
374.543	1.04049
374.755	0.95403
374.967	1.81148
375.178	2.26998
375.39	1.63928
375.602	1.92748
375.813	0.93583
376.025	0.68126
376.236	1.57402
376.448	1.77546
376.66	1.37354
376.871	1.43299
377.083	2.5727
377.294	2.613
377.506	1.43526
377.717	2.61776
377.929	1.82543
378.14	1.23088
378.352	1.97958
378.563	2.17529
378.775	2.80759
378.986	1.19223
379.197	1.92187
379.409	1.39067
379.62	2.3385
379.832	2.07376
380.043	1.68459
380.254	2.01544
380.466	1.12141
380.677	4.0071
380.888	3.51961
381.1	4.00753
381.311	3.69673
381.522	2.02914
381.733	4.0436
381.945	1.91265
382.156	2.03152
382.367	1.86201
382.578	4.26291
382.789	4.34342
383.001	1.80002
383.212	3.18862
383.423	3.45146
383.634	3.06755
383.845	2.66823
384.056	1.90691
384.267	2.18935
384.478	2.22815
384.69	1.39531
384.901	2.72989
385.112	2.63466
385.323	3.48517
385.534	2.81825
385.745	2.7369
385.956	2.68823
386.167	1.81128
386.378	2.77567
386.588	1.92504
386.799	1.94099
387.01	1.54155
387.221	3.34302
387.432	2.65937
387.643	4.07595
387.854	2.65091
388.065	2.64389
388.275	2.8777
388.486	2.67379
388.697	2.8645
388.908	2.6183
389.119	3.929
389.329	4.20183
389.54	3.07302
389.751	3.54468
389.962	4.02021
390.172	3.33466
390.383	3.09116
390.594	2.81643
390.804	2.86771
391.015	3.02388
391.226	3.60925
391.436	3.8071
391.647	3.80898
391.858	3.91965
392.068	2.5555
392.279	3.00014
392.489	3.70174
392.7	4.42923
392.91	3.32884
393.121	3.41988
393.331	4.23627
393.542	4.76713
393.752	4.49482
393.963	4.27589
394.173	4.30558
394.384	4.60216
394.594	4.1125
394.804	3.63743
395.015	4.29531
395.225	4.65031
395.436	3.48802
395.646	4.74273
395.856	4.04367
396.067	3.51469
396.277	5.06979
396.487	4.72603
396.697	4.86992
396.908	5.22488
397.118	5.14746
397.328	4.77554
397.538	5.4107
397.749	4.47751
397.959	5.47391
398.169	5.60482
398.379	4.23197
398.589	5.29628
398.8	5.35762
399.01	5.23092
399.22	5.03989
399.43	6.7521
399.64	5.28882
399.85	5.64365
400.06	5.57719
400.27	4.8946
400.48	5.43875
400.69	6.38798
400.9	5.31127
401.11	4.88403
401.32	6.26074
401.53	5.26794
401.74	6.71262
401.95	6.22866
402.16	5.64369
402.37	6.20111
402.58	5.67056
402.79	6.5526
403	6.87066
403.209	5.78517
403.419	7.00478
403.629	6.09293
403.839	7.02785
404.049	7.20007
404.258	6.45235
404.468	6.24603
404.678	7.2303
404.888	7.51924
405.097	6.63027
405.307	6.76426
405.517	7.20871
405.727	7.19363
405.936	6.7352
406.146	6.9638
406.356	7.89179
406.565	6.91889
406.775	6.6169
406.984	6.67342
407.194	8.39169
407.404	7.06395
407.613	7.56041
407.823	7.80228
408.032	7.92241
408.242	7.83654
408.451	7.06357
408.661	7.33122
408.87	8.50354
409.08	6.98767
409.289	7.86058
409.499	7.91252
409.708	7.6602
409.918	6.40919
410.127	7.97911
410.336	8.84219
410.546	8.4314
410.755	7.58217
410.964	7.58132
411.174	7.29643
411.383	8.25852
411.592	8.11727
411.802	7.25046
412.011	8.69075
412.22	8.16361
412.429	9.16836
412.639	9.00112
412.848	8.91048
413.057	9.48647
413.266	8.93221
413.475	8.18223
413.685	8.85247
413.894	8.81214
414.103	9.1391
414.312	9.14813
414.521	8.49618
414.73	8.88081
414.939	10.02741
415.148	8.98926
415.357	9.13142
415.566	8.84278
415.776	8.66288
415.985	8.87044
416.194	9.38637
416.403	10.25202
416.611	8.39073
416.82	9.14551
417.029	9.40713
417.238	9.21527
417.447	8.9616
417.656	9.30392
417.865	9.37708
418.074	9.90581
418.283	10.50252
418.492	11.68752
418.7	11.30176
418.909	13.14686
419.118	11.83816
419.327	12.7148
419.536	12.25703
419.744	12.68192
419.953	14.06061
420.162	14.54576
420.371	13.67027
420.579	14.56831
420.788	15.5307
420.997	15.74066
421.205	15.91342
421.414	15.65212
421.623	15.45693
421.831	15.09834
422.04	15.60296
422.249	14.73535
422.457	14.99421
422.666	14.00386
422.874	15.10533
423.083	15.53965
423.291	15.17844
423.5	15.47485
423.708	15.96972
423.917	16.58498
424.125	15.86759
424.334	15.61014
424.542	17.4628
424.751	16.67679
424.959	16.25182
425.167	16.18085
425.376	15.85083
425.584	14.28557
425.793	14.10597
426.001	12.87121
426.209	12.97168
426.418	11.90661
426.626	10.98965
426.834	10.68839
427.042	10.39908
427.251	10.15241
427.459	11.02663
427.667	10.41417
427.875	9.78084
428.084	10.17701
428.292	11.07069
428.5	10.77566
428.708	10.01965
428.916	10.03967
429.124	10.55567
429.333	10.34055
429.541	10.39328
429.749	10.65483
429.957	10.42451
430.165	12.17971
430.373	9.85068
430.581	10.73204
430.789	11.5846
430.997	10.54936
431.205	10.09477
431.413	10.86094
431.621	10.50257
431.829	11.2993
432.037	10.64818
432.245	11.34795
432.453	11.22871
432.661	11.0834
432.869	12.64446
433.076	11.13697
433.284	11.83178
433.492	12.26814
433.7	12.4933
433.908	11.70736
434.116	12.24134
434.323	11.8117
434.531	11.45693
434.739	11.54633
434.947	11.41451
435.154	11.496
435.362	10.99831
435.57	10.95467
435.778	10.50151
435.985	11.33076
436.193	10.7411
436.401	11.83354
436.608	11.1165
436.816	10.89333
437.023	11.9049
437.231	12.21441
437.439	11.30255
437.646	11.76996
437.854	11.528
438.061	11.79049
438.269	11.56473
438.476	12.09937
438.684	11.72269
438.891	12.2829
439.099	12.01856
439.306	12.00131
439.514	12.20082
439.721	13.94426
439.929	13.60443
440.136	14.81067
440.343	14.85011
440.551	14.64868
440.758	16.08771
440.965	14.67339
441.173	14.24214
441.38	13.93981
441.587	13.48465
441.795	13.13886
442.002	12.79964
442.209	12.66503
442.416	12.21674
442.624	11.9935
442.831	11.64762
443.038	11.21947
443.245	11.03645
443.452	11.17699
443.66	11.88909
443.867	11.54399
444.074	11.57643
444.281	11.92809
444.488	12.30859
444.695	12.93118
444.902	13.16027
445.109	14.64028
445.316	14.60515
445.523	15.36414
445.73	15.57035
445.937	16.43644
446.144	17.12417
446.351	17.47312
446.558	16.04942
446.765	18.19076
446.972	17.30454
447.179	16.78127
447.386	17.16107
447.593	14.96309
447.8	16.20421
448.007	14.4627
448.214	13.3072
448.42	12.76312
448.627	13.32707
448.834	12.23554
449.041	11.76533
449.248	11.55226
449.454	11.96677
449.661	12.4697
449.868	11.30073
450.075	11.1208
450.281	10.4636
450.488	10.78996
450.695	11.06263
450.901	11.02916
451.108	11.25734
451.315	12.13918
451.521	11.40795
451.728	12.26817
451.935	11.17125
452.141	11.67548
452.348	11.79419
452.554	11.76077
452.761	11.24142
452.967	12.45986
453.174	11.56739
453.38	11.72514
453.587	10.93145
453.793	11.56199
454	12.23478
454.206	12.80796
454.413	12.05871
454.619	11.95397
454.825	11.09751
455.032	11.85741
455.238	12.02759
455.445	10.8668
455.651	11.53738
455.857	10.59997
456.064	11.34961
456.27	11.50024
456.476	11.3384
456.682	10.78091
456.889	11.61155
457.095	11.94651
457.301	12.95402
457.507	11.81244
457.714	11.64913
457.92	11.84073
458.126	11.42528
458.332	11.88648
458.538	11.9703
458.744	12.85326
458.951	13.61279
459.157	16.06352
459.363	15.54273
459.569	15.76614
459.775	16.09699
459.981	16.20415
460.187	16.30727
460.393	16.18621
460.599	16.28953
460.805	15.05743
461.011	13.75878
461.217	13.3749
461.423	12.34753
461.629	11.7011
461.835	11.95247
462.041	11.48669
462.247	12.62799
462.453	11.74283
462.658	11.55145
462.864	11.98476
463.07	11.83547
463.276	11.87629
463.482	11.54506
463.688	12.52752
463.893	11.35258
464.099	11.673
464.305	12.62286
464.511	11.62708
464.716	11.68643
464.922	12.02541
465.128	11.16493
465.333	12.6572
465.539	12.16492
465.745	11.8988
465.95	11.76645
466.156	13.63833
466.362	12.48876
466.567	11.81175
466.773	11.67502
466.978	12.95972
467.184	11.35707
467.389	10.79308
467.595	12.05939
467.8	11.37691
468.006	12.60979
468.211	12.5063
468.417	11.16111
468.622	12.12782
468.828	12.22252
469.033	12.20391
469.239	13.49794
469.444	11.61418
469.649	12.41722
469.855	11.75109
470.06	11.90772
470.266	11.37676
470.471	12.29975
470.676	12.16822
470.881	10.7641
471.087	12.72694
471.292	13.17398
471.497	11.24783
471.703	11.61568
471.908	11.5114
472.113	11.82477
472.318	12.55657
472.523	11.21233
472.729	12.12649
472.934	12.28454
473.139	11.64087
473.344	12.26141
473.549	12.6425
473.754	11.41917
473.959	13.49153
474.164	11.55418
474.369	11.93158
474.575	12.2249
474.78	11.91718
474.985	11.44665
475.19	10.97323
475.395	11.50373
475.6	11.88486
475.804	12.9287
476.009	12.19049
476.214	12.1474
476.419	11.78539
476.624	11.09591
476.829	11.69326
477.034	12.41949
477.239	11.72648
477.444	12.44071
477.648	12.53477
477.853	12.59159
478.058	11.98897
478.263	11.76804
478.468	11.56949
478.672	11.60017
478.877	13.00902
479.082	13.16548
479.287	12.34587
479.491	12.14378
479.696	11.48829
479.901	12.6876
480.105	12.55012
480.31	11.68161
480.515	12.24079
480.719	13.66965
480.924	12.0735
481.128	12.03224
481.333	13.56755
481.538	13.49013
481.742	14.53324
481.947	16.11328
482.151	17.837
482.356	19.15855
482.56	23.04059
482.765	26.01087
482.969	31.0825
483.174	34.34458
483.378	39.33221
483.582	40.26177
483.787	42.14287
483.991	42.18642
484.196	42.06922
484.4	40.43392
484.604	39.75027
484.809	35.49841
485.013	32.98054
485.217	29.0845
485.422	25.93476
485.626	23.85397
485.83	23.22128
486.034	22.90559
486.239	23.86584
486.443	24.90939
486.647	26.00564
486.851	27.93099
487.055	29.90588
487.26	29.72973
487.464	31.30123
487.668	30.38162
487.872	30.70671
488.076	30.45898
488.28	28.83983
488.484	26.4878
488.688	25.48584
488.892	23.81865
489.096	21.98016
489.3	20.15537
489.504	19.01236
489.708	18.2095
489.912	17.92789
490.116	17.86599
490.32	17.99645
490.524	20.17283
490.728	21.57094
490.932	23.12169
491.136	24.30858
491.34	25.85799
491.544	25.90327
491.748	25.44527
491.951	25.1362
492.155	23.96825
492.359	23.09123
492.563	20.60477
492.767	19.02598
492.97	16.80214
493.174	14.87022
493.378	13.58232
493.582	12.18778
493.785	11.78947
493.989	11.72181
494.193	11.16257
494.396	10.9313
494.6	11.21703
494.804	11.13818
495.007	11.45907
495.211	11.6619
495.414	12.05605
495.618	12.24599
495.822	12.87246
496.025	12.19191
496.229	12.74204
496.432	12.44378
496.636	12.75395
496.839	12.82406
497.043	13.91126
497.246	13.27731
497.45	12.62147
497.653	12.88651
497.856	12.50877
498.06	12.02627
498.263	11.93273
498.467	11.86045
498.67	12.61282
498.873	12.25825
499.077	11.93899
499.28	11.86342
499.483	12.34947
499.686	12.43709
499.89	12.16439
500.093	12.55483
500.296	11.32772
500.499	12.67095
500.703	12.00282
500.906	12.02542
501.109	12.96643
501.312	11.9591
501.515	11.89432
501.719	12.01813
501.922	12.51631
502.125	12.15513
502.328	11.83729
502.531	11.31129
502.734	11.64916
502.937	10.9428
503.14	11.89732
503.343	11.5877
503.546	11.90064
503.749	11.67197
503.952	12.25582
504.155	11.62283
504.358	12.31466
504.561	12.2521
504.764	11.06782
504.967	11.91318
505.17	11.93368
505.373	12.86112
505.576	11.80711
505.778	12.13324
505.981	11.52279
506.184	12.5945
506.387	11.13538
506.59	13.02525
506.793	12.62255
506.995	12.24338
507.198	10.89616
507.401	12.32643
507.604	12.36371
507.806	11.5576
508.009	11.57617
508.212	12.57241
508.414	11.6966
508.617	11.81582
508.82	11.95664
509.022	12.89808
509.225	12.23328
509.427	11.35624
509.63	12.55523
509.833	11.85459
510.035	11.5406
510.238	11.14936
510.44	12.56597
510.643	10.8933
510.845	13.00027
511.048	12.0859
511.25	11.75981
511.453	11.99198
511.655	12.13753
511.858	11.80016
512.06	12.42674
512.262	12.09384
512.465	12.49091
512.667	11.67161
512.869	11.35789
513.072	12.14687
513.274	12.27662
513.476	12.10996
513.679	12.29359
513.881	11.11288
514.083	12.66621
514.286	11.56905
514.488	11.30868
514.69	11.36866
514.892	10.92365
515.094	12.08019
515.297	11.27993
515.499	11.88114
515.701	11.2103
515.903	12.79992
516.105	12.79195
516.307	12.27926
516.509	10.78285
516.711	11.48855
516.913	11.84336
517.116	11.99821
517.318	11.87918
517.52	12.78234
517.722	12.44021
517.924	12.10369
518.126	13.18007
518.328	12.8429
518.529	13.62447
518.731	14.55336
518.933	12.57292
519.135	12.88204
519.337	13.3934
519.539	12.45589
519.741	11.05095
519.943	11.77419
520.145	11.43051
520.346	12.15857
520.548	11.4353
520.75	11.79781
520.952	11.56313
521.153	12.01445
521.355	11.82965
521.557	11.19107
521.759	11.80254
521.96	11.58652
522.162	11.09373
522.364	12.26098
522.565	11.33492
522.767	12.14465
522.969	12.39678
523.17	11.89955
523.372	11.86172
523.573	11.63271
523.775	11.63361
523.977	11.35958
524.178	13.1461
524.38	11.6876
524.581	12.39374
524.783	11.9511
524.984	13.10868
525.186	13.22392
525.387	14.02579
525.589	14.13537
525.79	13.95628
525.991	13.96316
526.193	14.89963
526.394	14.15403
526.596	15.09512
526.797	15.5897
526.998	15.47653
527.2	16.68659
527.401	19.44412
527.602	21.64059
527.803	25.10456
528.005	27.02502
528.206	28.72569
528.407	29.95589
528.608	29.66691
528.81	29.63428
529.011	28.27374
529.212	28.77291
529.413	26.26599
529.614	24.1957
529.815	22.18663
530.017	20.07945
530.218	17.55912
530.419	16.19524
530.62	15.42141
530.821	14.85644
531.022	13.45826
531.223	14.39342
531.424	14.20853
531.625	14.5014
531.826	14.56843
532.027	15.63017
532.228	17.55815
532.429	18.13605
532.63	18.78108
532.831	19.89974
533.032	20.02175
533.233	20.78824
533.433	19.93191
533.634	20.02717
533.835	18.84271
534.036	17.78111
534.237	16.40233
534.438	15.44717
534.638	13.65651
534.839	13.0159
535.04	12.87971
535.241	12.39098
535.441	13.66665
535.642	13.32996
535.843	13.00258
536.043	13.58525
536.244	13.92521
536.445	14.25313
536.645	14.92947
536.846	14.35277
537.047	14.62232
537.247	13.18221
537.448	12.67511
537.648	12.47052
537.849	11.7695
538.049	11.66305
538.25	11.84849
538.451	12.22825
538.651	11.32157
538.851	12.26763
539.052	12.71604
539.252	12.36035
539.453	12.11121
539.653	12.22163
539.854	12.67151
540.054	14.06722
540.254	16.38435
540.455	18.21245
540.655	18.80438
540.855	20.87869
541.056	21.98131
541.256	21.88857
541.456	22.53555
541.657	21.88301
541.857	22.10744
542.057	20.291
542.257	19.19582
542.458	19.05803
542.658	17.9092
542.858	15.65909
543.058	15.74743
543.258	14.82671
543.458	13.12229
543.659	12.55622
543.859	13.12305
544.059	12.89131
544.259	12.00422
544.459	12.4888
544.659	11.66218
544.859	12.18599
545.059	11.69785
545.259	12.30366
545.459	12.433
545.659	12.7309
545.859	12.4132
546.059	12.45137
546.259	11.93585
546.459	11.65425
546.659	11.71214
546.859	12.8116
547.059	12.13999
547.258	12.36463
547.458	12.46022
547.658	11.34365
547.858	11.34397
548.058	11.85891
548.258	11.59545
548.457	11.01006
548.657	13.43082
548.857	11.50547
549.057	12.377
549.256	12.14377
549.456	11.31611
549.656	10.4539
549.855	13.27838
550.055	11.74919
550.255	13.35568
550.454	12.36271
550.654	12.50922
550.853	13.21455
551.053	12.31238
551.253	12.54113
551.452	12.50319
551.652	11.41465
551.851	11.01303
552.051	12.05607
552.25	11.8656
552.45	11.79662
552.649	11.90818
552.849	11.5878
553.048	12.14451
553.248	12.47009
553.447	11.36966
553.646	12.68817
553.846	13.4494
554.045	13.0642
554.244	11.22328
554.444	13.40555
554.643	11.55489
554.842	13.12259
555.042	13.65656
555.241	11.74021
555.44	11.34657
555.64	12.70754
555.839	13.30581
556.038	12.47865
556.237	11.62194
556.436	12.02898
556.636	12.5721
556.835	11.41624
557.034	13.36808
557.233	12.07756
557.432	11.20458
557.631	13.018
557.83	11.93585
558.029	11.90762
558.228	11.63483
558.427	11.60437
558.626	12.43011
558.825	11.60671
559.024	12.24205
559.223	13.55561
559.422	11.9902
559.621	12.85747
559.82	10.28344
560.019	12.27166
560.218	12.01219
560.417	10.23783
560.616	11.86726
560.815	14.71368
561.014	10.97515
561.212	13.53708
561.411	12.38034
561.61	11.19014
561.809	11.97204
562.008	13.39658
562.206	12.0374
562.405	12.47064
562.604	12.03736
562.803	12.32733
563.001	12.01777
563.2	10.91431
563.399	12.70235
563.597	11.57634
563.796	12.15665
563.995	11.43019
564.193	12.84572
564.392	12.34495
564.59	14.5152
564.789	11.19287
564.988	12.1759
565.186	13.06108
565.385	12.41912
565.583	12.54726
565.782	12.65977
565.98	12.6775
566.179	12.42369
566.377	11.73144
566.575	11.93033
566.774	13.63075
566.972	13.00669
567.171	14.00269
567.369	13.59573
567.567	12.39575
567.766	12.51282
567.964	10.93763
568.162	12.80559
568.361	13.44511
568.559	12.53322
568.757	12.74784
568.956	12.59715
569.154	12.50508
569.352	12.95061
569.55	12.38156
569.748	12.6775
569.947	12.15825
570.145	11.915
570.343	11.99246
570.541	13.86622
570.739	11.76452
570.937	12.68422
571.135	13.24459
571.333	14.53784
571.532	14.40914
571.73	13.00774
571.928	14.04185
572.126	13.30169
572.324	12.54106
572.522	13.99846
572.72	14.98602
572.918	12.86282
573.116	13.15249
573.313	12.81102
573.511	12.56575
573.709	12.43867
573.907	13.50805
574.105	12.52836
574.303	11.63409
574.501	11.87463
574.699	13.42266
574.896	12.98663
575.094	13.65514
575.292	11.69512
575.49	13.48218
575.688	12.59479
575.885	14.00669
576.083	14.38825
576.281	13.5018
576.478	12.1535
576.676	13.17376
576.874	11.61451
577.071	12.64383
577.269	14.76442
577.467	12.74944
577.664	12.79035
577.862	13.74194
578.059	12.19153
578.257	13.68556
578.455	12.40473
578.652	12.90113
578.85	11.01683
579.047	13.09787
579.245	12.59511
579.442	12.67983
579.64	12.72635
579.837	11.2531
580.034	15.45417
580.232	12.95477
580.429	11.24247
580.627	13.6921
580.824	14.01587
581.021	13.09591
581.219	12.56172
581.416	11.98976
581.613	13.79083
581.811	14.3466
582.008	12.1454
582.205	13.15645
582.402	13.29438
582.6	14.84365
582.797	12.43148
582.994	13.23365
583.191	13.19231
583.388	12.85929
583.586	13.74564
583.783	13.62089
583.98	12.47688
584.177	13.52947
584.374	10.0013
584.571	12.7942
584.768	13.03702
584.965	12.5159
585.162	13.44282
585.359	14.78615
585.556	12.97297
585.753	13.23278
585.95	11.65277
586.147	12.57807
586.344	13.50881
586.541	12.8173
586.738	11.84951
586.935	13.03062
587.132	12.5965
587.329	14.30775
587.526	12.69351
587.722	18.18187
587.919	11.77761
588.116	13.61718
588.313	14.67891
588.51	15.3986
588.706	12.81821
588.903	13.83677
589.1	14.12297
589.297	16.08529
589.493	13.37629
589.69	14.15559
589.887	12.8346
590.083	12.13449
590.28	12.40033
590.477	14.04308
590.673	13.9953
590.87	14.66691
591.067	12.998
591.263	13.91282
591.46	13.78656
591.656	12.79105
591.853	14.78539
592.049	12.6242
592.246	12.35732
592.442	14.28467
592.639	14.20446
592.835	12.13838
593.032	13.69258
593.228	11.72679
593.425	11.56029
593.621	11.52376
593.817	13.62086
594.014	12.43812
594.21	13.30152
594.406	14.3448
594.603	13.68336
594.799	12.71205
594.995	10.96119
595.192	14.56113
595.388	12.82739
595.584	13.12891
595.78	12.36896
595.977	16.09538
596.173	15.63749
596.369	13.39672
596.565	13.22925
596.761	12.4652
596.957	14.98757
597.154	12.75803
597.35	12.98011
597.546	12.91056
597.742	14.17942
597.938	13.8437
598.134	12.51632
598.33	13.66264
598.526	14.67852
598.722	13.7596
598.918	15.2138
599.114	13.75817
599.31	12.47351
599.506	13.64947
599.702	12.72197
599.898	13.55924
600.094	14.56835
600.29	14.18924
600.485	14.36774
600.681	12.82031
600.877	15.73328
601.073	13.48867
601.269	15.98009
601.465	14.95378
601.66	12.22797
601.856	11.72106
602.052	15.63139
602.248	13.17132
602.443	11.68759
602.639	12.64879
602.835	12.97549
603.03	13.049
603.226	14.78847
603.422	13.3088
603.617	13.56513
603.813	13.71085
604.009	13.6637
604.204	15.38474
604.4	12.59508
604.595	14.99389
604.791	12.88149
604.986	14.00634
605.182	12.9318
605.377	13.18116
605.573	13.07604
605.768	13.60762
605.964	13.8271
606.159	14.1281
606.355	14.44405
606.55	13.13016
606.746	14.59062
606.941	13.27161
607.136	16.1606
607.332	17.03383
607.527	11.91
607.722	14.0172
607.918	13.51686
608.113	13.00155
608.308	14.87823
608.503	14.65692
608.699	14.63999
608.894	14.70733
609.089	13.39118
609.284	14.20536
609.479	13.5246
609.675	14.73773
609.87	13.6746
610.065	14.38236
610.26	15.04739
610.455	14.30985
610.65	13.48003
610.845	13.75581
611.04	14.71212
611.235	13.47016
611.43	12.64023
611.625	12.0139
611.82	14.9663
612.015	12.4848
612.21	15.57703
612.405	11.69278
612.6	15.74973
612.795	15.4498
612.99	14.7397
613.185	12.0546
613.38	12.40523
613.575	13.9209
613.77	17.4694
613.965	11.88071
614.159	12.43012
614.354	15.26706
614.549	15.25388
614.744	14.45358
614.938	12.38399
615.133	12.16918
615.328	15.59039
615.523	15.25142
615.717	17.22049
615.912	12.89758
616.107	13.42798
616.301	13.46041
616.496	12.67246
616.691	16.27648
616.885	15.17996
617.08	17.71179
617.274	15.156
617.469	16.66992
617.664	14.78614
617.858	13.31442
618.053	13.96721
618.247	13.13038
618.442	10.60616
618.636	16.04397
618.831	13.23003
619.025	13.05616
619.219	17.80855
619.414	9.79062
619.608	14.0204
619.803	13.05552
619.997	17.08745
620.191	15.61276
620.386	14.57655
620.58	13.95925
620.774	11.55933
620.969	11.85687
621.163	13.97994
621.357	12.20308
621.551	13.30021
621.746	14.36386
621.94	13.72246
622.134	18.89946
622.328	17.22318
622.522	11.86291
622.716	15.03939
622.911	15.13622
623.105	15.27297
623.299	14.46107
623.493	18.69066
623.687	12.71519
623.881	13.32762
624.075	14.64911
624.269	16.20402
624.463	11.81159
624.657	11.61204
624.851	14.42808
625.045	15.74914
625.239	15.89363
625.433	13.68422
625.627	16.72489
625.821	13.51538
626.015	13.25546
626.209	14.49401
626.403	12.41801
626.596	14.7304
626.79	15.30102
626.984	12.60699
627.178	14.906
627.372	14.58716
627.565	15.40923
627.759	12.34688
627.953	12.22795
628.147	15.08384
628.34	15.20239
628.534	16.98464
628.728	13.80902
628.921	15.36936
629.115	15.25874
629.309	15.55281
629.502	15.84826
629.696	14.35945
629.89	13.35287
630.083	14.04536
630.277	14.93387
630.47	17.06309
630.664	13.59526
630.857	11.93357
631.051	16.00622
631.244	15.96996
631.438	15.84455
631.631	13.01274
631.825	16.28886
632.018	15.29655
632.212	17.02259
632.405	15.95257
632.598	13.41019
632.792	14.14065
632.985	11.05193
633.178	13.7679
633.372	14.2938
633.565	14.66268
633.758	16.78894
633.952	13.21298
634.145	13.1576
634.338	14.71107
634.531	13.59916
634.724	13.37194
634.918	14.26862
635.111	13.49663
635.304	13.44472
635.497	18.19119
635.69	14.74986
635.883	16.51839
636.077	12.54552
636.27	15.17524
636.463	14.53011
636.656	15.01367
636.849	13.45635
637.042	15.49581
637.235	17.82647
637.428	16.00372
637.621	15.89806
637.814	16.70538
638.007	17.25876
638.2	17.6188
638.393	18.13862
638.586	12.45327
638.778	13.76126
638.971	14.70087
639.164	17.51835
639.357	14.91452
639.55	17.16724
639.743	15.50351
639.935	16.02044
640.128	18.72213
640.321	16.06665
640.514	15.07276
640.707	19.76248
640.899	15.78489
641.092	11.65792
641.285	30.82379
641.477	10.99804
641.67	19.68854
641.863	17.17698
642.055	14.97142
642.248	14.91451
642.441	13.8342
642.633	16.30291
642.826	15.99846
643.018	17.78641
643.211	18.97565
643.403	18.1542
643.596	20.17848
643.788	18.58782
643.981	14.13555
644.173	17.62688
644.366	14.49263
644.558	11.40866
644.751	17.10729
644.943	12.30349
645.135	18.94614
645.328	18.9221
645.52	16.63362
645.712	18.17344
645.905	22.20122
646.097	13.1919
646.289	16.97811
646.482	20.0571
646.674	14.3316
646.866	17.96455
647.058	16.75833
647.251	13.16007
647.443	14.02699
647.635	15.29878
647.827	13.76183
648.019	14.07962
648.211	15.87153
648.404	15.44815
648.596	19.45047
648.788	16.81312
648.98	15.66116
649.172	16.77612
649.364	16.82408
649.556	11.95309
649.748	21.30669
649.94	14.19709
650.132	16.95594
650.324	13.73838
650.516	14.42203
650.708	18.34951
650.9	12.72013
651.092	14.98397
651.284	12.66039
651.476	13.50169
651.667	17.74352
651.859	18.59865
652.051	15.4342
652.243	15.67205
652.435	14.54279
652.627	17.44535
652.818	16.48351
653.01	12.96526
653.202	13.34252
653.394	15.01216
653.585	17.12596
653.777	26.84183
653.969	18.95298
654.16	18.85638
654.352	14.1398
654.544	15.29735
654.735	18.62645
654.927	16.39555
655.118	19.51062
655.31	17.57043
655.502	18.19032
655.693	14.40328
655.885	17.65437
656.076	18.92754
656.268	16.02229
656.459	19.69955
656.651	19.0521
656.842	14.99458
657.034	14.5904
657.225	17.89663
657.416	19.29641
657.608	19.73792
657.799	16.52422
657.99	19.12171
658.182	15.22842
658.373	15.13062
658.564	18.68559
658.756	16.62528
658.947	16.1154
659.138	14.10003
659.33	14.99274
659.521	14.42367
659.712	15.20178
659.903	15.70897
660.094	14.85855
660.286	13.14361
660.477	19.56411
660.668	17.10214
660.859	16.29343
661.05	12.7604
661.241	17.62652
661.432	17.51951
661.623	15.97766
661.814	15.6575
662.006	12.6032
662.197	17.52952
662.388	19.32231
662.579	16.98984
662.77	21.06125
662.96	24.40326
663.151	19.10868
663.342	12.46819
663.533	17.98423
663.724	16.81796
663.915	21.88216
664.106	16.21638
664.297	21.32229
664.488	18.58344
664.678	15.29298
664.869	18.66679
665.06	19.61984
665.251	19.04522
665.442	18.84491
665.632	14.18867
665.823	21.97803
666.014	9.47573
666.204	19.0841
666.395	20.76989
666.586	25.75495
666.776	19.35149
666.967	22.07638
667.158	16.97457
667.348	21.27177
667.539	15.19625
667.729	19.62878
667.92	15.4361
668.111	20.23478
668.301	18.84054
668.492	16.86314
668.682	16.87125
668.873	16.48028
669.063	14.30141
669.253	18.09685
669.444	20.24649
669.634	16.48731
669.825	23.26463
670.015	19.16916
670.206	15.2684
670.396	22.71119
670.586	16.55928
670.777	18.66076
670.967	11.54105
671.157	16.85549
671.347	15.86527
671.538	21.4443
671.728	19.85663
671.918	23.17208
672.108	19.81181
672.299	17.18055
672.489	17.82548
672.679	16.87415
672.869	18.94751
673.059	22.43314
673.249	19.64663
673.44	15.06854
673.63	17.69061
673.82	20.36308
674.01	16.00522
674.2	20.53611
674.39	26.37192
674.58	20.10677
674.77	18.38778
674.96	17.41499
675.15	31.46794
675.34	21.52337
675.53	18.58068
675.72	17.82937
675.91	14.34911
676.099	24.15243
676.289	25.97445
676.479	21.8329
676.669	17.00438
676.859	20.36887
677.049	15.6433
677.238	18.94785
677.428	24.11197
677.618	20.09476
677.808	22.75963
677.997	19.8229
678.187	14.95417
678.377	18.88947
678.567	16.75409
678.756	17.20328
678.946	17.37894
679.136	14.734
679.325	16.85521
679.515	15.9592
679.704	14.52234
679.894	20.46133
680.084	18.58188
680.273	21.48233
680.463	16.45444
680.652	16.08889
680.842	18.0106
681.031	20.55196
681.221	15.73887
681.41	19.69299
681.6	17.48322
681.789	20.26891
681.978	22.15902
682.168	19.23344
682.357	19.21362
682.547	19.50329
682.736	19.0924
682.925	22.94116
683.115	21.87328
683.304	20.67755
683.493	20.40107
683.682	20.94613
683.872	20.46881
684.061	23.04327
684.25	22.33436
684.439	26.5472
684.629	21.93514
684.818	31.03298
685.007	19.20138
685.196	18.45163
685.385	26.64643
685.574	21.61413
685.763	20.68247
685.952	20.32606
686.142	16.76104
686.331	23.92267
686.52	13.25033
686.709	25.29722
686.898	25.6774
687.087	21.70176
687.276	25.90512
687.465	23.86417
687.654	19.11179
687.842	25.8794
688.031	15.64007
688.22	25.70771
688.409	20.78956
688.598	20.61046
688.787	29.37654
688.976	20.79171
689.165	26.84396
689.353	19.46047
689.542	22.03251
689.731	24.2451
689.92	28.06383
690.108	23.41573
690.297	19.88296
690.486	21.76748
690.675	24.31649
690.863	27.31614
691.052	26.28069
691.241	22.06575
691.429	22.71981
691.618	26.73087
691.806	16.74626
691.995	18.35218
692.184	21.50327
692.372	18.79386
692.561	22.12844
692.749	22.3638
692.938	33.38025
693.126	24.17761
693.315	22.04611
693.503	24.66202
693.692	25.25503
693.88	24.72773
694.068	30.67488
694.257	21.70117
694.445	22.89949
694.634	14.19254
694.822	26.66206
695.01	27.31313
695.199	29.12817
695.387	27.99587
695.575	25.31602
695.763	21.90057
695.952	20.18802
696.14	16.50904
696.328	20.33902
696.516	22.58743
696.705	23.02936
696.893	23.33677
697.081	15.90825
697.269	24.82288
697.457	19.4074
697.645	18.14889
697.833	24.55012
698.021	19.27685
698.21	20.63475
698.398	21.39987
698.586	17.58921
698.774	17.09887
698.962	20.6485
699.15	17.53076
699.338	15.8688
699.526	22.32511
699.714	18.68235
699.901	18.71647
700.089	24.20963
700.277	17.44795
700.465	21.04559
700.653	23.54527
700.841	22.50129
701.029	17.72915
701.217	25.37714
701.404	22.97523
701.592	27.56614
701.78	31.39159
701.968	20.82946
702.155	21.81725
702.343	15.15599
702.531	28.91616
702.718	23.78981
702.906	21.6908
703.094	20.01918
703.281	29.04389
703.469	22.6204
703.657	28.55411
703.844	36.91222
704.032	31.00792
704.219	21.28671
704.407	25.33277
704.595	29.18747
704.782	24.42578
704.97	21.25455
705.157	20.48698
705.345	30.07168
705.532	37.56147
705.719	25.66951
705.907	30.01459
706.094	25.277
706.282	31.46222
706.469	22.47076
706.656	24.34782
706.844	22.13396
707.031	29.11414
707.218	25.32845
707.406	31.83807
707.593	29.45763
707.78	27.9554
707.968	23.27407
708.155	21.05536
708.342	26.79811
708.529	27.96785
708.716	25.73409
708.904	32.48269
709.091	27.42733
709.278	19.29291
709.465	34.71112
709.652	32.56969
709.839	30.64229
710.026	26.83099
710.213	19.06397
710.4	26.17769
710.587	31.18793
710.774	33.19123
710.961	30.64761
711.148	26.36558
711.335	31.14516
711.522	25.71723
711.709	27.97
711.896	37.12015
712.083	30.07154
712.27	21.2878
712.457	25.72322
712.644	18.59421
712.831	36.95839
713.017	26.75019
713.204	29.38793
713.391	23.08989
713.578	32.46198
713.765	35.45065
713.951	28.64167
714.138	44.26067
714.325	29.79001
714.512	26.46054
714.698	22.95179
714.885	35.29298
715.072	28.36018
715.258	28.41675
715.445	23.83333
715.631	33.31294
715.818	15.45034
716.005	24.54575
716.191	30.04987
716.378	25.0156
716.564	31.09368
716.751	23.99448
716.937	25.1678
717.124	33.43215
717.31	23.61759
717.497	37.72119
717.683	24.84651
717.869	40.90301
718.056	25.20732
718.242	30.94954
718.429	28.30797
718.615	21.32193
718.801	28.80329
718.988	33.26381
719.174	32.49276
719.36	27.77792
719.547	35.57374
719.733	31.80973
719.919	31.3095
720.105	35.37448
720.291	27.93842
720.478	30.66229
720.664	27.70716
720.85	26.26371
721.036	46.83181
721.222	39.0574
721.408	28.40715
721.595	41.91639
721.781	40.15602
721.967	36.94959
722.153	40.67888
722.339	33.46712
722.525	32.49084
722.711	24.2467
722.897	20.10337
723.083	27.61949
723.269	35.73987
723.455	46.83831
723.641	51.35255
723.827	32.88939
724.012	34.93668
724.198	28.62532
724.384	38.52827
724.57	33.57239
724.756	20.70765
724.942	18.48251
725.127	37.78061
725.313	40.09646
725.499	40.33133
725.685	45.32029
725.87	32.98435
726.056	25.15953
726.242	39.37587
726.428	20.80793
726.613	37.77965
726.799	28.10544
726.985	22.49223
727.17	23.02756
727.356	43.95838
727.541	24.37976
727.727	29.99881
727.913	34.85845
728.098	28.37397
728.284	35.65632
728.469	22.23038
728.655	25.5779
728.84	37.21315
729.026	35.20641
729.211	38.85248
729.397	34.96131
729.582	35.72662
729.767	30.0433
729.953	33.27213
730.138	39.10091
730.323	16.26485
730.509	23.80645
730.694	42.12189
730.879	35.13723
731.065	32.61752
731.25	47.34942
731.435	35.1945
731.621	21.93357
731.806	28.62923
731.991	33.43954
732.176	23.68808
732.361	42.24192
732.547	35.38528
732.732	21.13971
732.917	48.2309
733.102	24.2366
733.287	26.95971
733.472	32.99318
733.657	31.03005
733.842	21.82632
734.027	28.31879
734.212	30.07767
734.397	26.24435
734.582	31.49813
734.767	37.33456
734.952	41.95466
735.137	15.86793
735.322	43.00971
735.507	33.09394
735.692	34.62766
735.877	48.06252
736.062	47.88748
736.247	36.78368
736.431	33.40418
736.616	41.50349
736.801	35.86858
736.986	32.40973
737.171	27.90994
737.355	25.54869
737.54	41.69593
737.725	32.976
737.909	54.63631
738.094	30.57997
738.279	38.20743
738.463	31.73449
738.648	39.56042
738.833	35.75494
739.017	52.05161
739.202	33.32747
739.386	32.14446
739.571	28.86733
739.756	42.16884
739.94	34.14714
740.125	40.44207
740.309	28.81227
740.494	40.35888
740.678	35.4951
740.863	36.30966
741.047	34.72179
741.231	47.17321
741.416	29.89833
741.6	45.21718
741.785	28.52229
741.969	41.82134
742.153	44.70005
742.338	18.81096
742.522	33.17287
742.706	40.88138
742.89	24.64316
743.075	37.48631
743.259	44.52684
743.443	43.54069
743.627	45.46561
743.812	56.21247
743.996	22.89031
744.18	32.27697
744.364	29.37638
744.548	57.79434
744.732	35.38646
744.916	42.96095
745.1	42.1345
745.285	33.04251
745.469	40.50542
745.653	53.69787
745.837	25.62544
746.021	56.68285
746.205	43.70649
746.389	37.89369
746.573	30.69015
746.757	51.88576
746.94	33.26736
747.124	46.8201
747.308	24.21326
747.492	45.06978
747.676	30.42943
747.86	58.77336
748.044	32.65418
748.227	21.8485
748.411	73.62101
748.595	42.93263
748.779	28.4232
748.963	39.25047
749.146	36.94611
749.33	30.81705
749.514	28.50668
749.697	45.46159
749.881	33.36395
750.065	27.61798
750.248	35.42873
750.432	59.17423
750.616	37.67881
750.799	24.0612
750.983	56.99104
751.166	63.19036
751.35	21.32215
751.533	46.7015
751.717	50.75119
751.9	50.08789
752.084	31.19793
752.267	24.88736
752.451	30.56285
752.634	36.63772
752.818	41.69113
753.001	44.99526
753.184	48.34465
753.368	39.78737
753.551	9.36821
753.734	30.47998
753.918	62.52875
754.101	29.86474
754.284	42.51994
754.467	34.40644
754.651	33.59033
754.834	31.27746
755.017	50.32262
755.2	49.19616
755.384	25.74894
755.567	45.47723
755.75	47.71858
755.933	37.14591
756.116	40.30684
756.299	34.37837
756.482	28.27954
756.665	45.23898
756.848	40.44897
757.032	44.64713
757.215	23.13781
757.398	31.55891
757.581	31.43851
757.764	63.69231
757.947	38.49633
758.129	51.98922
758.312	12.01081
758.495	37.37517
758.678	36.97413
758.861	36.95742
759.044	61.72174
759.227	32.44572
759.41	30.98289
759.592	46.40962
759.775	36.85267
759.958	48.51773
760.141	25.99189
760.324	60.28114
760.506	54.12127
760.689	45.32282
760.872	65.42842
761.054	44.03367
761.237	35.37824
761.42	43.31536
761.602	46.93508
761.785	43.69868
761.968	48.3332
762.15	56.48617
762.333	37.71664
762.515	43.20566
762.698	33.18946
762.88	43.35246
763.063	39.71254
763.245	46.27598
763.428	27.58676
763.61	32.24725
763.793	24.68698
763.975	39.05367
764.158	31.87366
764.34	32.32248
764.522	26.21574
764.705	32.57051
764.887	49.82073
765.069	24.42949
765.252	44.75293
765.434	45.20421
765.616	38.89292
765.799	33.10253
765.981	45.26881
766.163	28.40495
766.345	47.10981
766.528	32.59836
766.71	14.73178
766.892	41.11501
767.074	53.72937
767.256	34.86144
767.438	56.5815
767.62	43.73125
767.802	63.26401
767.985	50.9548
768.167	61.78936
768.349	38.44212
768.531	47.71112
768.713	47.0953
768.895	52.0931
769.077	45.49738
769.259	71.7521
769.441	100.90549
769.623	53.36003
769.804	64.71493
769.986	60.04572
770.168	74.37778
770.35	86.91746
770.532	69.25077
770.714	69.01533
770.896	76.25054
771.077	32.97059
771.259	81.78765
771.441	67.46405
771.623	79.43039
771.804	103.9512
771.986	34.53438
772.168	54.47735
772.35	76.82957
772.531	97.25523
772.713	63.36907
772.894	86.98105
773.076	59.05234
773.258	47.70652
773.439	85.9988
773.621	91.84546
773.802	42.58105
773.984	62.62969
774.166	68.06602
774.347	97.9073
774.529	77.30468
774.71	25.80439
774.891	57.74824
775.073	58.228
775.254	96.63847
775.436	52.91636
775.617	101.70779
775.799	52.26207
775.98	93.21065
776.161	97.33316
776.343	95.22872
776.524	64.45785
776.705	58.66679
776.886	31.69516
777.068	65.02098
777.249	122.05814
777.43	102.96529
777.611	44.23032
777.793	61.98826
777.974	94.15437
778.155	57.19627
778.336	49.15936
778.517	104.21936
778.698	53.09428
778.879	29.4035
779.061	13.79533
779.242	76.33513
779.423	69.93642
779.604	50.64464
779.785	59.33845
779.966	69.43054
780.147	82.14681
780.328	85.6822
780.509	116.99921
780.69	80.86421
780.871	52.86161
781.051	33.40015
781.232	66.05672
781.413	68.00308
781.594	47.90998
781.775	48.74214
781.956	49.98754
782.137	27.41211
782.317	49.25615
782.498	71.41926
782.679	73.4406
782.86	66.94992
783.04	47.04419
783.221	66.55856
783.402	106.77819
783.583	68.88725
783.763	78.62964
783.944	58.46117
784.124	37.08906
784.305	98.65279
784.486	75.51433
784.666	60.02214
784.847	33.77325
785.027	123.36607
785.208	45.31218
785.388	43.67352
785.569	52.49732
785.749	54.94217
785.93	51.63084
786.11	37.95128
786.291	66.86178
786.471	70.64354
786.652	76.50417
786.832	61.2947
787.012	68.78124
787.193	40.98881
787.373	62.67452
787.553	56.82813
787.734	64.62914
787.914	53.90327
788.094	74.55236
788.275	68.63732
788.455	53.29597
788.635	38.62299
788.815	68.13178
788.995	38.42362
789.176	35.58501
789.356	46.91507
789.536	54.61699
789.716	71.43947
789.896	46.45615
790.076	50.98322
790.256	67.05727
790.436	20.92324
790.616	45.49247
790.796	69.00926
790.976	56.56448
791.156	48.56774
791.336	70.05765
791.516	68.07807
791.696	56.85336
791.876	29.96314
792.056	63.99175
792.236	83.61302
792.416	77.69535
792.596	72.62794
792.776	72.67078
792.956	72.65076
793.135	96.52189
793.315	40.17047
793.495	89.15178
793.675	79.23256
793.854	78.80859
794.034	80.79896
794.214	36.1249
794.394	79.10812
794.573	85.14939
794.753	64.78453
794.933	47.66021
795.112	71.34919
795.292	76.91008
795.472	94.97657
795.651	40.9073
795.831	63.68773
796.01	52.01194
796.19	54.27983
796.369	57.55168
796.549	73.58046
796.728	57.05322
796.908	40.86014
797.087	41.11076
797.267	56.49076
797.446	42.87676
797.626	68.24238
797.805	68.91746
797.984	46.66793
798.164	70.34402
798.343	46.64567
798.522	63.74088
798.702	62.79956
798.881	39.08485
799.06	54.38044
799.239	24.07367
799.419	44.30536
799.598	94.23381
799.777	72.80476
799.956	82.87033
800.136	55.45358
800.315	46.12433
800.494	68.40574
800.673	79.03518
800.852	75.44802
801.031	85.55036
801.21	72.39927
801.389	50.92151
801.568	66.69396
801.747	101.28833
801.926	56.04888
802.105	98.74686
802.284	53.55375
802.463	93.3464
802.642	67.52111
802.821	68.47968
803	86.11637
803.179	84.05827
803.358	86.15156
803.537	53.64972
803.716	74.44403
803.895	48.38769
804.073	60.61537
804.252	54.25534
804.431	74.9142
804.61	60.13575
804.789	89.99108
804.967	55.07465
805.146	51.99636
805.325	109.45191
805.503	73.23588
805.682	36.73316
805.861	127.83529
806.039	93.59813
806.218	47.44252
806.397	71.6868
806.575	69.48264
806.754	67.00152
806.932	44.26163
807.111	99.68774
807.289	87.75876
807.468	70.61878
807.646	88.23192
807.825	69.65772
808.003	77.48631
808.182	87.2204
808.36	69.18755
808.539	47.01496
808.717	94.72839
808.895	44.07336
809.074	70.08402
809.252	59.76905
809.43	95.97996
809.609	95.47397
809.787	115.55116
809.965	59.86087
810.144	66.67171
810.322	58.5234
810.5	78.90384
810.678	67.45735
810.856	115.00729
811.035	93.50493
811.213	96.45688
811.391	89.40882
811.569	73.36297
811.747	140.7141
811.925	104.74026
812.103	55.07388
812.281	62.1706
812.459	117.03454
812.637	114.59187
812.816	94.92286
812.994	123.04554
813.171	97.99562
813.349	86.38153
813.527	104.25259
813.705	97.77727
813.883	122.70846
814.061	103.17788
814.239	124.63247
814.417	134.39139
814.595	97.18722
814.773	78.15349
814.95	82.69177
815.128	81.48912
815.306	75.90508
815.484	70.8266
815.662	58.00439
815.839	52.47224
816.017	62.29295
816.195	98.11943
816.372	73.49643
816.55	97.88248
816.728	113.95945
816.905	65.09133
817.083	107.53643
817.261	73.648
817.438	144.81612
817.616	129.3459
817.793	56.23607
817.971	90.98213
818.148	86.65851
818.326	117.58207
818.503	79.94302
818.681	104.96146
818.858	64.30245
819.036	77.51516
819.213	77.19437
819.391	58.63474
819.568	53.66305
819.745	52.30545
819.923	84.78183
820.1	60.13786
820.277	51.09721
820.455	64.34499
820.632	61.21476
820.809	66.62832
820.986	39.2335
821.164	33.89957
821.341	29.97303
821.518	43.26765
821.695	33.65179
821.872	31.03205
822.05	26.42301
822.227	21.99149
822.404	23.95158
822.581	25.86472
822.758	23.159
822.935	23.31326
823.112	25.70883
823.289	21.55851
823.466	25.17415
823.643	23.39263
823.82	27.59184
823.997	24.59027
824.174	28.37228
824.351	36.40676
824.528	35.52092
824.705	31.88872
824.882	34.50994
825.059	45.50305
825.236	33.51027
825.412	36.2586
825.589	42.27719
825.766	62.25921
825.943	37.8209
826.12	44.92713
826.296	31.25383
826.473	39.96151
826.65	39.2409
826.827	50.52957
827.003	32.8528
827.18	37.41799
827.357	42.1195
827.533	34.78283
827.71	21.59746
827.887	31.57372
828.063	37.91745
828.24	31.66801
828.416	41.39623
828.593	35.56869
828.769	49.90486
828.946	52.92961
829.122	53.93558
829.299	55.62266
829.475	29.86284
829.652	49.41594
829.828	83.79129
830.005	56.12281
830.181	73.85526
830.357	50.44082
830.534	76.68755
830.71	62.08237
830.886	77.1375
831.063	73.49062
831.239	99.50706
831.415	44.6925
831.592	112.25632
831.768	61.3068
831.944	52.581
832.12	108.82498
832.296	102.74884
832.473	85.27851
832.649	55.27734
832.825	78.07503
833.001	46.86742
833.177	67.07726
833.353	61.08992
833.529	37.75854
833.705	51.78682
833.881	37.12427
834.058	35.95558
834.234	38.6316
834.41	39.21472
834.586	31.19254
834.761	37.53619
834.937	41.47813
835.113	40.4462
835.289	35.31663
835.465	44.52579
835.641	38.613
835.817	44.29678
835.993	79.16651
836.169	40.52129
836.344	59.54
836.52	73.0745
836.696	78.54984
836.872	52.03074
837.048	151.78067
837.223	59.68702
837.399	123.26977
837.575	102.71804
837.75	96.04292
837.926	127.76627
838.102	201.34948
838.277	163.9764
838.453	225.41475
838.628	219.08663
838.804	69.29677
838.98	201.19148
839.155	105.02004
839.331	138.43445
839.506	94.16145
839.682	88.98717
839.857	120.05508
840.033	142.15755
840.208	65.174
840.384	35.73125
840.559	70.34942
840.734	103.43566
840.91	145.63322
841.085	90.06013
841.26	95.22552
841.436	93.92113
841.611	77.6547
841.786	115.31432
841.962	173.37297
842.137	127.77225
842.312	53.59398
842.487	100.83942
842.663	93.73568
842.838	107.52773
843.013	309.69413
843.188	206.33806
843.363	144.44382
843.538	296.58819
843.714	358.51896
843.889	305.28775
844.064	313.7941
844.239	232.80005
844.414	472.59365
844.589	217.52445
844.764	398.95202
844.939	384.05111
845.114	408.18012
845.289	431.14036
845.464	515.52431
845.639	370.54633
845.814	190.83894
845.989	313.72579
846.163	247.69549
846.338	315.38138
846.513	405.94269
846.688	249.69846
846.863	327.1703
847.038	252.95582
847.212	311.34698
847.387	354.7941
847.562	292.85383
847.737	483.37808
847.911	180.92724
848.086	174.15601
848.261	453.8494
848.435	274.72973
848.61	362.38924
848.785	222.90901
848.959	422.43758
849.134	456.23869
849.308	653.92413
849.483	301.54827
849.658	558.60018
849.832	258.58106
850.007	227.53334
850.181	660.72309
850.356	296.75164
850.53	790.70058
850.705	361.96162
850.879	140.05605
851.053	306.27912
851.228	302.42629
851.402	484.80815
851.577	492.69537
851.751	591.61056
851.925	349.17597
852.099	157.76281
852.274	248.49468
852.448	314.39081
852.622	470.7146
852.797	326.6398
852.971	344.60374
853.145	431.57644
853.319	745.41468
853.493	670.58545
853.668	491.79024
853.842	770.53752
854.016	511.97276
854.19	663.71467
854.364	359.32188
854.538	365.07441
854.712	732.18489
854.886	415.0639
855.06	314.02831
855.234	132.60261
855.408	636.51178
855.582	393.93059
855.756	625.3954
855.93	579.23668
856.104	651.19254
856.278	572.35944
856.452	370.4935
856.626	416.81792
856.8	940.50707
856.973	400.00883
857.147	449.35857
857.321	463.1633
857.495	498.70832
857.669	325.44214
857.842	413.97629
858.016	590.87583
858.19	230.92842
858.364	758.70709
858.537	438.64441
858.711	519.1482
858.885	411.40464
859.058	244.23439
859.232	170.7821
859.405	152.94281
859.579	501.31442
859.753	541.971
859.926	251.77524
860.1	239.46807
860.273	388.15219
860.447	462.44468
860.62	347.02709
860.794	611.16144
860.967	353.65342
861.141	508.92987
861.314	770.61586
861.487	471.02662
861.661	473.03282
861.834	543.03632
862.008	681.69113
862.181	459.65698
862.354	542.75662
862.528	454.96563
862.701	342.40056
862.874	211.46783
863.047	301.20415
863.221	297.23411
863.394	210.83603
863.567	409.99111
863.74	115.16512
863.913	537.50551
864.087	472.62909
864.26	490.33159
864.433	375.30394
864.606	609.70821
864.779	341.22879
864.952	167.86691
865.125	407.97639
865.298	289.72789
865.471	365.53602
865.644	733.91377
865.817	493.16178
865.99	483.98779
866.163	467.18034
866.336	242.87565
866.509	321.02719
866.682	573.48858
866.855	739.20308
867.028	243.41607
867.2	406.49206
867.373	141.24902
867.546	385.56766
867.719	706.70708
867.892	463.09563
868.064	263.73873
868.237	337.23145
868.41	373.6551
868.583	149.93193
868.755	211.9433
868.928	419.46995
869.101	809.85014
869.273	532.83143
869.446	483.91179
869.619	550.90315
869.791	398.1482
869.964	502.02654
870.136	880.61096
870.309	363.18738
870.481	398.31422
870.654	226.68684
870.826	321.86389
870.999	224.08343
871.171	424.97896
871.344	254.1319
871.516	302.38766
871.689	242.03342
871.861	357.96561
872.033	280.25139
872.206	279.30845
872.378	335.7789
872.55	359.53525
872.723	184.22927
872.895	321.74306
873.067	458.42307
873.24	368.88937
873.412	318.45404
873.584	357.3472
873.756	348.33154
873.928	469.40545
874.101	335.00494
874.273	389.96122
874.445	140.44423
874.617	242.53843
874.789	321.94247
874.961	313.24815
875.133	378.03928
875.305	368.6068
875.477	306.32399
875.649	152.20885
875.821	211.02501
875.993	623.99528
876.165	325.86773
876.337	366.0325
876.509	319.15378
876.681	413.08727
876.853	354.13712
877.025	343.47759
877.197	260.76316
877.369	167.08061
877.541	338.69028
877.712	98.88257
877.884	196.48954
878.056	354.5898
878.228	187.65192
878.4	397.81703
878.571	169.47534
878.743	121.81462
878.915	281.29044
879.086	137.22273
879.258	182.62563
879.43	171.31383
879.601	138.39312
879.773	139.07279
879.945	32.25767
880.116	59.84861
880.288	34.04855
880.459	40.03297
880.631	31.83011
880.802	36.51719
880.974	33.95889
881.145	24.24477
881.317	32.24163
881.488	25.76731
881.66	28.92152
881.831	26.47233
882.002	33.66377
882.174	24.91594
882.345	30.70831
882.517	18.57912
882.688	37.16487
882.859	28.94879
883.03	46.25967
883.202	43.79969
883.373	36.13448
883.544	37.7928
883.715	61.65257
883.887	54.68841
884.058	47.31247
884.229	65.65252
884.4	64.97278
884.571	78.25058
884.742	66.83693
884.914	72.92804
885.085	111.9334
885.256	152.83328
885.427	125.43142
885.598	159.76345
885.769	158.07518
885.94	149.22627
886.111	94.77451
886.282	181.21241
886.453	162.04586
886.624	121.84842
886.795	223.75316
886.966	178.0974
887.136	221.81005
887.307	191.32756
887.478	326.91631
887.649	280.69074
887.82	259.49317
887.991	224.0012
888.161	369.67705
888.332	366.16383
888.503	139.06149
888.674	376.31723
888.844	547.33965
889.015	341.60949
889.186	217.34847
889.356	505.95692
889.527	210.96762
889.698	676.07464
889.868	259.29931
890.039	413.1875
890.209	291.43788
890.38	371.36166
890.551	341.6148
890.721	406.75403
890.892	454.62983
891.062	451.08544
891.233	518.43401
891.403	479.89023
891.574	290.72739
891.744	253.6963
891.914	331.78627
892.085	393.77521
892.255	107.53965
892.425	451.06011
892.596	317.22951
892.766	404.68055
892.936	462.45806
893.107	399.53439
893.277	167.35991
893.447	195.06728
893.618	126.42847
893.788	206.37671
893.958	125.57608
894.128	99.36444
894.298	126.20003
894.468	162.55674
894.639	71.99226
894.809	47.59168
894.979	77.98315
895.149	92.6713
895.319	74.03657
895.489	96.38864
895.659	145.51895
895.829	89.39451
895.999	93.07464
896.169	77.66902
896.339	100.87267
896.509	203.90461
896.679	202.52598
896.849	226.32132
897.019	281.13116
897.189	252.45963
897.358	228.09631
897.528	351.87017
897.698	236.86381
897.868	303.41088
898.038	641.55393
898.208	626.44039
898.377	231.2267
898.547	987.39711
898.717	1466.74716
898.886	414.16855
899.056	651.21459
899.226	1449.12318
899.395	750.53646
899.565	1255.98351
899.735	796.09751
899.904	929.41275
900.074	1058.17753
900.244	312.05379
900.413	1237.58368
900.583	439.71425
900.752	1320.49474
900.922	1017.53143
901.091	113.97239
901.261	1757.09176
901.43	540.88356
901.599	2279.89314
901.769	1441.76653
901.938	1116.12205
902.108	1586.52192
902.277	807.34908
902.446	412.6129
902.616	427.22843
902.785	545.56568
902.954	703.56435
903.124	504.91566
903.293	295.19535
903.462	143.01788
903.631	214.14831
903.801	154.58206
903.97	65.54417
904.139	121.7644
904.308	91.73623
904.477	76.87429
904.646	46.66112
904.816	64.33334
904.985	107.06468
905.154	152.60072
