Data from WindowProjectSample_Transmission__42__00042.txt Node

Date: Mon May 05 17:56:12 EDT 2025
User: jessi
Spectrometer: SR400872
Trigger mode: 0
Integration Time (sec): 5.000010E-1
Scans to average: 20
Electric dark correction enabled: true
Nonlinearity correction enabled: true
Boxcar width: 0
XAxis mode: Wavelengths
Number of Pixels in Spectrum: 3648
>>>>>Begin Spectral Data<<<<<
184.909	22123.10333
185.132	-5374.97762
185.355	-3170.07477
185.578	-19085.41036
185.801	893.9413
186.024	10668.66896
186.247	-1874.02271
186.47	1249.07225
186.693	185.52143
186.916	304.77048
187.139	-3863.87906
187.362	3775.10884
187.585	4383.22141
187.808	3954.81749
188.031	15.09805
188.254	-62505.21776
188.476	-813.58582
188.699	6521.93969
188.922	706.06403
189.145	-15972.85023
189.368	-773.30384
189.591	-1472.08359
189.813	3159.74245
190.036	-56006.55114
190.259	-1003.18031
190.482	-5087.08376
190.705	7509.77352
190.927	-2695.21216
191.15	13676.26241
191.373	3590.76324
191.595	-9224.0956
191.818	-4427.2987
192.041	-7157.47609
192.263	-3613.75318
192.486	-846.75569
192.709	-4119.36748
192.931	8665.67169
193.154	-30057.3713
193.377	-3102.75513
193.599	-2909.57744
193.822	-10113.07594
194.044	-1998.11683
194.267	1341.94987
194.489	219.53788
194.712	-45299.50738
194.934	-32920.23314
195.157	1189.53222
195.379	1457.50201
195.602	-7571.08706
195.824	-1440.90387
196.047	-8469.67697
196.269	2865.35114
196.492	-7139.36804
196.714	29845.74824
196.936	-8926.26982
197.159	-1275.18345
197.381	1159.22265
197.604	561.88065
197.826	12437.58367
198.048	-11767.65572
198.271	-2886.18163
198.493	7918.37213
198.715	2437.59399
198.938	-553.69654
199.16	7281.27741
199.382	-108311.98609
199.604	2859.68225
199.827	-1126.79872
200.049	-3218.03494
200.271	15147.98662
200.493	1276.34114
200.715	-39623.36016
200.938	-6124.27657
201.16	-4284.22972
201.382	22694.78821
201.604	2412.60048
201.826	2331.31547
202.048	-2005.22787
202.27	-1986.79948
202.492	-38862.13722
202.715	3065.78619
202.937	-4673.86311
203.159	-6806.12119
203.381	1551.4494
203.603	7057.76866
203.825	6823.76092
204.047	2425.37722
204.269	-3059.42422
204.491	2218.46392
204.713	6083.3445
204.935	-506096.41169
205.156	1212.25912
205.378	-3354.39471
205.6	1765.92073
205.822	158712.31658
206.044	-1083.90439
206.266	1618.48362
206.488	4526.46875
206.71	-5501.70463
206.932	1166.55799
207.153	12673.78501
207.375	-7254.79649
207.597	-40023.05457
207.819	-2978.09073
208.041	2548.75379
208.262	528.98242
208.484	715.4229
208.706	-836.51846
208.927	-864.25439
209.149	554.91147
209.371	-3004.00212
209.593	-333.63215
209.814	-880.44992
210.036	686.06228
210.258	-644.31953
210.479	1920.43047
210.701	1722.653
210.922	3283.36627
211.144	-4151.39851
211.366	2281.5428
211.587	8487.58566
211.809	-8609.27274
212.03	2488.09733
212.252	492.56902
212.473	2126.68806
212.695	-6100.71107
212.916	2976.18846
213.138	-746.42021
213.359	3679.42009
213.581	5382.83089
213.802	-873.52257
214.024	1144.89442
214.245	2202.96571
214.466	3935.42042
214.688	-3243.15223
214.909	-1291.32902
215.131	-1888.82734
215.352	-3475.52008
215.573	15632.84047
215.795	5413.51477
216.016	5639.30107
216.237	824.97217
216.459	3743.0815
216.68	1896.02365
216.901	5294.52634
217.122	-3327.61533
217.344	-12260.02062
217.565	3613.50641
217.786	9225.31728
218.007	14912.97177
218.228	-852.34987
218.45	6120.20225
218.671	867.0734
218.892	39550.50682
219.113	1641.57218
219.334	-273.08122
219.555	11123.045
219.776	3254.17618
219.997	23617.38068
220.219	2996.21777
220.44	-11291.13834
220.661	528.93342
220.882	1604.58056
221.103	-1072.25202
221.324	2432.37261
221.545	2440.88071
221.766	-9395.50847
221.987	1053.19179
222.208	1694.08256
222.429	4427.81626
222.65	323.41799
222.87	21546.5817
223.091	713.4735
223.312	619.53539
223.533	1443.88817
223.754	1556.15037
223.975	1421.65514
224.196	2120.84571
224.417	1327.18798
224.637	676.97898
224.858	150.92631
225.079	1127.33525
225.3	700.23701
225.521	3802.26096
225.741	509.57104
225.962	521.24989
226.183	172.38833
226.404	689.02779
226.624	456.21739
226.845	694.51275
227.066	432.18179
227.286	267.44176
227.507	137.89032
227.728	126.70764
227.948	247.73239
228.169	74.59167
228.389	92.15833
228.61	49.63397
228.831	68.54688
229.051	3.4722
229.272	41.52224
229.492	58.25886
229.713	15.25061
229.933	39.71895
230.154	32.35503
230.374	56.27694
230.595	38.40774
230.815	23.65499
231.036	40.19569
231.256	-9.51333
231.477	71.50306
231.697	40.8102
231.917	42.74354
232.138	58.92259
232.358	109.28598
232.579	106.75059
232.799	17.72848
233.019	105.81325
233.24	119.7032
233.46	40.48055
233.68	64.24356
233.901	44.18927
234.121	25.0528
234.341	13.91818
234.561	-1.31029
234.782	23.43433
235.002	69.78112
235.222	-3.40424
235.442	66.58295
235.662	34.14272
235.883	62.85318
236.103	54.63324
236.323	36.08109
236.543	31.45954
236.763	40.28713
236.983	47.21218
237.203	42.51819
237.423	64.88053
237.643	90.20287
237.864	77.14389
238.084	18.29222
238.304	29.23391
238.524	48.36819
238.744	40.91902
238.964	76.7425
239.184	62.01576
239.404	68.09197
239.624	35.26493
239.843	62.19942
240.063	37.36075
240.283	21.85985
240.503	26.35003
240.723	25.73396
240.943	14.58127
241.163	20.66639
241.383	14.91116
241.603	7.54943
241.822	9.56291
242.042	6.32198
242.262	9.00132
242.482	9.70574
242.702	11.66625
242.921	2.88061
243.141	6.92332
243.361	6.90896
243.581	9.88561
243.8	7.6484
244.02	5.13606
244.24	9.92201
244.459	9.7065
244.679	18.70557
244.899	11.66911
245.118	14.11486
245.338	12.92827
245.558	14.65149
245.777	9.04591
245.997	11.11657
246.216	11.20465
246.436	6.19366
246.655	4.92275
246.875	3.18094
247.094	6.69317
247.314	2.08982
247.533	3.71547
247.753	4.61709
247.972	3.47621
248.192	1.26696
248.411	1.76101
248.631	3.76891
248.85	4.90705
249.07	4.12121
249.289	6.19029
249.508	4.94211
249.728	7.86223
249.947	7.7355
250.166	9.67868
250.386	4.83085
250.605	7.01901
250.824	12.02053
251.044	7.98411
251.263	29.85637
251.482	14.96622
251.701	11.73612
251.921	0.03752
252.14	3.59919
252.359	4.12836
252.578	10.63961
252.798	3.48382
253.017	9.54888
253.236	4.15705
253.455	5.97605
253.674	10.5133
253.893	5.13464
254.112	8.39613
254.331	12.06586
254.551	8.77711
254.77	3.43191
254.989	14.72106
255.208	10.34222
255.427	15.70353
255.646	12.42347
255.865	22.54203
256.084	9.20724
256.303	11.06076
256.522	14.50333
256.741	3.29604
256.96	3.11161
257.179	7.74613
257.397	11.30715
257.616	5.93724
257.835	6.34512
258.054	16.34973
258.273	11.4112
258.492	11.44968
258.711	6.89554
258.93	3.19249
259.148	4.90472
259.367	4.82244
259.586	5.70145
259.805	2.47512
260.023	5.53885
260.242	4.08032
260.461	2.87943
260.68	1.42867
260.898	4.6937
261.117	1.4429
261.336	0.97351
261.554	3.6719
261.773	3.3867
261.992	0.76298
262.21	3.47791
262.429	3.41995
262.648	7.87313
262.866	8.70955
263.085	6.10352
263.303	5.36319
263.522	9.27883
263.74	9.35724
263.959	15.96174
264.178	7.48774
264.396	6.74268
264.615	4.89999
264.833	11.02861
265.051	9.37463
265.27	11.35109
265.488	11.76918
265.707	6.88292
265.925	11.31779
266.144	4.79143
266.362	5.9963
266.58	5.88713
266.799	5.46255
267.017	6.52482
267.235	5.31869
267.454	3.60878
267.672	2.10191
267.89	4.24709
268.109	4.72414
268.327	4.55188
268.545	0.98984
268.763	4.30548
268.982	1.70732
269.2	4.28897
269.418	3.11385
269.636	2.17699
269.854	5.02617
270.073	3.13881
270.291	1.95153
270.509	1.92192
270.727	4.75255
270.945	7.3384
271.163	7.34367
271.381	1.5592
271.599	3.44977
271.817	5.71403
272.036	1.91444
272.254	3.43354
272.472	2.41295
272.69	2.77075
272.908	2.51904
273.126	4.74357
273.344	5.51856
273.562	1.82664
273.779	2.86463
273.997	4.06071
274.215	4.40648
274.433	3.13627
274.651	4.58601
274.869	4.98161
275.087	3.13421
275.305	4.21097
275.523	2.5452
275.74	3.19402
275.958	5.71637
276.176	8.60762
276.394	2.80717
276.612	3.33283
276.829	3.42084
277.047	2.70538
277.265	3.22747
277.483	3.82619
277.7	4.57811
277.918	3.83942
278.136	6.44767
278.353	3.19909
278.571	1.88758
278.789	4.29465
279.006	1.02052
279.224	3.16975
279.442	5.32324
279.659	3.74967
279.877	2.65037
280.094	6.10189
280.312	1.07814
280.529	3.59539
280.747	0.8776
280.964	2.9798
281.182	6.29779
281.399	2.86949
281.617	4.0084
281.834	2.74594
282.052	2.11007
282.269	3.27507
282.487	2.60953
282.704	2.21191
282.921	2.45897
283.139	3.51052
283.356	4.36997
283.574	4.06735
283.791	1.89213
284.008	5.89143
284.226	3.0956
284.443	3.39722
284.66	4.7294
284.877	3.61838
285.095	2.12824
285.312	1.67407
285.529	1.01094
285.746	0.72416
285.964	2.10521
286.181	1.438
286.398	2.03709
286.615	2.81813
286.832	2.67602
287.05	0.64393
287.267	1.96688
287.484	1.84832
287.701	2.78113
287.918	2.75229
288.135	2.84681
288.352	1.29143
288.569	1.49511
288.786	2.50662
289.003	2.12375
289.22	3.11411
289.437	1.77038
289.654	2.98776
289.871	3.21287
290.088	3.07954
290.305	2.35122
290.522	1.80093
290.739	2.24998
290.956	3.33183
291.173	3.70111
291.39	3.5179
291.607	2.50177
291.824	1.74888
292.04	1.37297
292.257	3.00465
292.474	3.29004
292.691	2.10801
292.908	0.99927
293.125	1.74141
293.341	1.23982
293.558	5.13043
293.775	1.99821
293.992	2.00255
294.208	0.86565
294.425	1.36981
294.642	2.07314
294.858	2.80793
295.075	0.74841
295.292	2.12926
295.508	2.45403
295.725	4.1842
295.942	1.70469
296.158	1.28515
296.375	2.09945
296.591	1.67941
296.808	1.75674
297.024	1.96926
297.241	2.2958
297.458	2.51352
297.674	0.17338
297.891	1.92763
298.107	1.47462
298.323	1.13438
298.54	3.17512
298.756	1.44406
298.973	0.60652
299.189	3.13708
299.406	1.21538
299.622	2.94307
299.838	2.83007
300.055	2.78152
300.271	0.59961
300.487	1.10751
300.704	1.26184
300.92	0.66752
301.136	4.33585
301.353	2.68998
301.569	1.95053
301.785	2.30189
302.001	2.77297
302.218	2.32822
302.434	2.38004
302.65	0.76415
302.866	1.6124
303.083	4.01268
303.299	3.76769
303.515	2.08004
303.731	2.18465
303.947	0.6627
304.163	1.22233
304.379	2.19887
304.595	2.48731
304.812	1.29683
305.028	1.38985
305.244	1.76165
305.46	2.83319
305.676	2.69139
305.892	3.33142
306.108	2.29677
306.324	1.54497
306.54	3.74205
306.756	2.629
306.972	2.4857
307.187	1.86926
307.403	3.56594
307.619	1.748
307.835	3.25784
308.051	3.59017
308.267	1.08456
308.483	2.91378
308.699	2.44802
308.914	2.12946
309.13	1.92717
309.346	0.65801
309.562	0.95222
309.778	0.65538
309.993	2.54946
310.209	1.95984
310.425	1.00423
310.641	1.68888
310.856	0.94813
311.072	0.95307
311.288	1.85159
311.503	2.01242
311.719	0.37473
311.935	0.25252
312.15	2.25801
312.366	1.85116
312.581	2.24269
312.797	1.82313
313.013	2.58457
313.228	1.33665
313.444	1.90947
313.659	1.37864
313.875	2.38683
314.09	1.74521
314.306	3.23626
314.521	2.72771
314.737	2.51975
314.952	1.97321
315.168	1.91142
315.383	2.37154
315.599	1.70126
315.814	1.61008
316.029	2.6164
316.245	0.67674
316.46	0.57081
316.675	3.21597
316.891	3.58946
317.106	4.75312
317.321	2.33794
317.537	2.5274
317.752	2.77792
317.967	2.81433
318.183	1.21503
318.398	1.65853
318.613	2.69408
318.828	3.45726
319.043	2.83125
319.259	1.84571
319.474	2.34046
319.689	3.16449
319.904	0.53947
320.119	2.70433
320.334	2.45404
320.549	1.81106
320.765	2.84227
320.98	2.2071
321.195	2.72422
321.41	1.95383
321.625	2.74874
321.84	3.75547
322.055	3.92543
322.27	1.51499
322.485	1.07456
322.7	2.20426
322.915	2.96646
323.13	1.24477
323.345	3.42371
323.56	2.78553
323.775	2.4673
323.989	2.40243
324.204	2.33694
324.419	3.03908
324.634	1.0133
324.849	1.8424
325.064	5.11915
325.279	2.9621
325.493	2.46761
325.708	3.05034
325.923	1.2676
326.138	1.32658
326.352	3.61741
326.567	3.05825
326.782	1.6738
326.997	1.42412
327.211	2.58183
327.426	2.4155
327.641	1.66907
327.855	0.60017
328.07	2.31363
328.285	3.5763
328.499	1.61052
328.714	2.25679
328.928	2.86169
329.143	1.93596
329.358	2.93609
329.572	3.08984
329.787	3.14918
330.001	4.38461
330.216	0.92113
330.43	3.68275
330.645	3.63668
330.859	2.80108
331.074	1.407
331.288	2.26702
331.503	3.25672
331.717	1.15581
331.931	2.39698
332.146	2.05953
332.36	3.68717
332.575	2.44831
332.789	2.33081
333.003	2.06722
333.218	2.51531
333.432	1.40338
333.646	2.89309
333.86	3.51521
334.075	3.58834
334.289	1.58822
334.503	1.22438
334.717	2.32852
334.932	2.45742
335.146	3.21361
335.36	1.68964
335.574	2.72271
335.788	2.54459
336.003	3.11234
336.217	2.50945
336.431	2.60402
336.645	1.44248
336.859	1.00812
337.073	1.873
337.287	2.25584
337.501	1.09864
337.715	2.19831
337.929	2.93609
338.143	1.07936
338.357	1.91088
338.571	1.34282
338.785	2.50322
338.999	1.67032
339.213	1.60541
339.427	0.86006
339.641	3.17614
339.855	1.92802
340.069	1.48232
340.283	2.92295
340.497	3.87716
340.711	2.40464
340.924	1.84247
341.138	1.02882
341.352	0.96825
341.566	2.23768
341.78	0.55317
341.993	1.65417
342.207	1.18664
342.421	2.1774
342.635	1.93189
342.848	1.48794
343.062	0.26973
343.276	1.43649
343.49	3.7557
343.703	1.36373
343.917	2.80841
344.131	2.77432
344.344	1.36111
344.558	1.68046
344.771	1.0089
344.985	3.41069
345.199	3.26842
345.412	2.13765
345.626	2.24109
345.839	0.5757
346.053	1.0187
346.266	1.03451
346.48	2.55171
346.693	2.24854
346.907	2.18781
347.12	1.09896
347.334	2.32233
347.547	2.20819
347.76	1.76273
347.974	2.95701
348.187	2.26327
348.401	1.48342
348.614	1.38301
348.827	1.60871
349.041	2.44041
349.254	0.59991
349.467	1.7144
349.681	0.80667
349.894	1.44313
350.107	2.94587
350.32	3.351
350.534	0.62873
350.747	1.49173
350.96	1.01827
351.173	1.39264
351.386	1.63312
351.6	1.48072
351.813	1.2754
352.026	1.71181
352.239	0.73068
352.452	1.52563
352.665	2.60405
352.878	1.81331
353.092	3.44292
353.305	2.55681
353.518	2.00965
353.731	1.18242
353.944	2.79738
354.157	1.30278
354.37	1.0869
354.583	1.11566
354.796	0.43577
355.009	2.65592
355.222	1.97157
355.435	1.86192
355.647	2.53123
355.86	0.98313
356.073	1.73546
356.286	1.30305
356.499	2.30987
356.712	1.89667
356.925	2.159
357.138	2.48104
357.35	1.01444
357.563	1.49711
357.776	1.73074
357.989	1.39467
358.201	2.00947
358.414	1.78746
358.627	2.65112
358.84	1.43688
359.052	0.76567
359.265	0.95791
359.478	2.57691
359.69	-0.22852
359.903	2.17664
360.116	2.36619
360.328	0.36367
360.541	2.21717
360.753	0.78316
360.966	1.08537
361.179	1.22592
361.391	1.12091
361.604	0.85121
361.816	1.17002
362.029	0.99277
362.241	0.7885
362.454	1.01265
362.666	0.78337
362.879	1.5507
363.091	1.22351
363.304	0.84942
363.516	1.41788
363.728	0.69758
363.941	1.95283
364.153	1.15678
364.366	-0.09336
364.578	0.75043
364.79	1.71399
365.003	1.43295
365.215	1.01898
365.427	1.88144
365.639	2.36783
365.852	1.59148
366.064	3.28507
366.276	1.12729
366.488	1.87526
366.701	1.25123
366.913	1.41146
367.125	1.29126
367.337	0.92243
367.549	1.13209
367.762	1.68505
367.974	1.53264
368.186	0.8916
368.398	2.20211
368.61	2.00012
368.822	2.04702
369.034	1.56617
369.246	1.98419
369.458	3.62264
369.67	0.84291
369.882	2.99978
370.094	0.13232
370.306	2.82506
370.518	1.20224
370.73	0.92417
370.942	0.97092
371.154	1.32289
371.366	1.05684
371.578	1.70244
371.79	0.9071
372.002	2.33792
372.214	2.88854
372.425	1.55191
372.637	2.39717
372.849	1.77496
373.061	0.05618
373.273	1.78317
373.484	1.77667
373.696	2.17189
373.908	0.05295
374.12	2.41309
374.331	1.76303
374.543	1.03809
374.755	0.79425
374.967	1.62143
375.178	1.97885
375.39	1.27808
375.602	1.52926
375.813	0.56648
376.025	0.68681
376.236	1.68072
376.448	1.70531
376.66	1.11204
376.871	1.14389
377.083	2.40751
377.294	2.39737
377.506	1.09268
377.717	2.40845
377.929	1.70016
378.14	0.99259
378.352	1.86624
378.563	1.69073
378.775	2.4342
378.986	0.80789
379.197	1.64512
379.409	1.12454
379.62	2.02476
379.832	1.99017
380.043	1.39314
380.254	1.62418
380.466	0.86574
380.677	3.66644
380.888	3.0082
381.1	3.38167
381.311	3.26549
381.522	1.6185
381.733	3.57975
381.945	1.49979
382.156	1.77568
382.367	1.23933
382.578	3.64649
382.789	3.53868
383.001	1.30607
383.212	2.59016
383.423	2.69475
383.634	2.54487
383.845	2.10773
384.056	1.33183
384.267	1.71467
384.478	1.62449
384.69	0.90407
384.901	1.91304
385.112	1.78845
385.323	2.69213
385.534	1.98762
385.745	1.85708
385.956	1.94163
386.167	1.0586
386.378	2.08082
386.588	0.97017
386.799	1.17337
387.01	0.62877
387.221	2.28833
387.432	1.60106
387.643	3.03036
387.854	1.54761
388.065	1.47885
388.275	1.63541
388.486	1.48773
388.697	1.58711
388.908	1.46189
389.119	2.58204
389.329	2.83019
389.54	1.85655
389.751	2.11095
389.962	2.57784
390.172	2.07866
390.383	1.53126
390.594	1.42985
390.804	1.39578
391.015	1.50419
391.226	1.91371
391.436	2.10517
391.647	2.00709
391.858	2.29739
392.068	0.78729
392.279	1.05619
392.489	1.84825
392.7	2.65223
392.91	1.26701
393.121	1.39083
393.331	2.15689
393.542	2.70876
393.752	2.08945
393.963	2.20988
394.173	2.01933
394.384	2.33259
394.594	1.92612
394.804	1.27881
395.015	2.0998
395.225	2.25885
395.436	1.31692
395.646	2.38765
395.856	1.54824
396.067	1.14087
396.277	2.71558
396.487	2.33269
396.697	2.21741
396.908	2.42638
397.118	2.48513
397.328	2.28588
397.538	2.80689
397.749	1.57053
397.959	2.6437
398.169	2.61351
398.379	1.31454
398.589	2.67712
398.8	2.26278
399.01	2.1962
399.22	1.98149
399.43	3.71847
399.64	2.15844
399.85	2.71374
400.06	2.2611
400.27	1.85236
400.48	2.32301
400.69	3.40014
400.9	1.98978
401.11	1.73226
401.32	2.95807
401.53	2.11616
401.74	3.464
401.95	2.87254
402.16	1.77446
402.37	2.6088
402.58	2.01805
402.79	2.88242
403	3.21201
403.209	2.06095
403.419	3.152
403.629	1.9984
403.839	2.98912
404.049	2.91773
404.258	2.07385
404.468	2.0184
404.678	2.65683
404.888	3.20661
405.097	2.02615
405.307	2.53709
405.517	2.95876
405.727	2.78539
405.936	2.33474
406.146	2.74229
406.356	3.43677
406.565	2.64131
406.775	2.3048
406.984	2.32216
407.194	3.73098
407.404	2.69271
407.613	3.00661
407.823	3.21358
408.032	3.37309
408.242	3.37768
408.451	2.42297
408.661	2.8139
408.87	3.92829
409.08	2.34615
409.289	3.00054
409.499	2.8542
409.708	2.89244
409.918	1.61974
410.127	2.91868
410.336	3.78406
410.546	3.26888
410.755	2.64757
410.964	2.68586
411.174	2.39577
411.383	3.21755
411.592	3.07049
411.802	2.39975
412.011	3.54605
412.22	2.815
412.429	4.09706
412.639	3.97634
412.848	3.70634
413.057	3.88494
413.266	3.88064
413.475	3.158
413.685	3.53624
413.894	3.79152
414.103	3.97479
414.312	3.73451
414.521	3.10774
414.73	3.22476
414.939	4.57572
415.148	3.61798
415.357	3.38901
415.566	2.98013
415.776	3.08222
415.985	3.07067
416.194	3.7763
416.403	4.44513
416.611	2.57737
416.82	3.05708
417.029	3.42665
417.238	2.98183
417.447	2.93293
417.656	3.1459
417.865	2.96786
418.074	3.22819
418.283	3.39779
418.492	3.91597
418.7	3.86711
418.909	4.54435
419.118	3.80374
419.327	3.9943
419.536	3.88821
419.744	3.63427
419.953	4.6906
420.162	4.80182
420.371	4.0558
420.579	4.17655
420.788	5.07407
420.997	5.03525
421.205	5.23832
421.414	5.02272
421.623	5.03614
421.831	4.75937
422.04	5.28852
422.249	4.59784
422.457	5.05523
422.666	4.4282
422.874	5.24716
423.083	5.31007
423.291	5.25811
423.5	5.05829
423.708	5.27303
423.917	5.62991
424.125	5.19574
424.334	5.05582
424.542	6.59686
424.751	6.08261
424.959	5.75294
425.167	6.00692
425.376	5.87771
425.584	5.07107
425.793	5.2231
426.001	4.39835
426.209	4.94135
426.418	4.07885
426.626	4.00033
426.834	3.85132
427.042	4.25748
427.251	3.84951
427.459	4.68808
427.667	4.17333
427.875	3.53032
428.084	3.89234
428.292	4.90381
428.5	4.51264
428.708	3.65934
428.916	3.6694
429.124	4.15508
429.333	3.87214
429.541	4.03759
429.749	4.21423
429.957	4.15802
430.165	5.78908
430.373	3.3575
430.581	4.29958
430.789	5.04416
430.997	3.9558
431.205	3.75729
431.413	4.36689
431.621	3.99122
431.829	4.52327
432.037	4.06153
432.245	4.34319
432.453	4.42853
432.661	4.15773
432.869	5.29141
433.076	3.77533
433.284	4.24361
433.492	4.70535
433.7	4.97724
433.908	4.14951
434.116	4.40149
434.323	4.48982
434.531	4.36628
434.739	4.72163
434.947	4.96649
435.154	4.85631
435.362	4.41342
435.57	4.32225
435.778	4.00274
435.985	4.57856
436.193	4.09926
436.401	5.10074
436.608	4.45487
436.816	4.18961
437.023	5.21695
437.231	5.30385
437.439	4.58353
437.646	4.83328
437.854	4.59973
438.061	4.86695
438.269	4.37283
438.476	4.81063
438.684	4.49016
438.891	4.36879
439.099	4.15904
439.306	3.91253
439.514	3.98095
439.721	4.9065
439.929	4.44914
440.136	5.23072
440.343	5.17152
440.551	4.97745
440.758	6.53525
440.965	5.40473
441.173	5.17195
441.38	4.92696
441.587	5.09872
441.795	4.78624
442.002	4.82707
442.209	4.78664
442.416	4.93736
442.624	4.95303
442.831	4.7922
443.038	4.42412
443.245	4.12419
443.452	4.44596
443.66	4.962
443.867	4.34252
444.074	4.30646
444.281	4.2366
444.488	4.42676
444.695	4.60172
444.902	4.36729
445.109	5.1799
445.316	4.85325
445.523	5.01679
445.73	4.98761
445.937	5.6309
446.144	6.01813
446.351	6.20087
446.558	5.44911
446.765	6.7611
446.972	6.58756
447.179	6.02029
447.386	6.76372
447.593	5.52723
447.8	6.31793
448.007	5.28357
448.214	5.05317
448.42	4.7059
448.627	5.25949
448.834	4.73467
449.041	4.65394
449.248	4.59672
449.454	5.06964
449.661	5.75038
449.868	4.52494
450.075	4.39391
450.281	3.63697
450.488	4.12825
450.695	4.1722
450.901	4.33934
451.108	4.33569
451.315	5.16963
451.521	4.53016
451.728	5.16497
451.935	4.24628
452.141	4.57185
452.348	4.61689
452.554	4.54037
452.761	4.4279
452.967	5.51799
453.174	4.74953
453.38	4.92709
453.587	4.06112
453.793	4.68633
454	5.28405
454.206	5.90815
454.413	5.25355
454.619	4.94666
454.825	4.38684
455.032	5.08436
455.238	5.16734
455.445	4.06365
455.651	4.79997
455.857	3.71659
456.064	4.52715
456.27	4.41401
456.476	4.51022
456.682	3.99609
456.889	4.962
457.095	4.95179
457.301	6.07901
457.507	4.72198
457.714	4.71166
457.92	4.70355
458.126	4.2766
458.332	4.51149
458.538	4.36552
458.744	4.56844
458.951	4.488
459.157	6.16611
459.363	5.30255
459.569	5.43183
459.775	6.11266
459.981	5.50448
460.187	5.92232
460.393	6.27831
460.599	6.70368
460.805	5.83513
461.011	5.47229
461.217	5.67947
461.423	5.54546
461.629	4.91239
461.835	5.29691
462.041	4.79337
462.247	5.8071
462.453	4.82159
462.658	4.81692
462.864	5.24647
463.07	4.98452
463.276	5.00789
463.482	4.90024
463.688	5.54017
463.893	4.56154
464.099	4.63835
464.305	5.67516
464.511	4.54314
464.716	4.78143
464.922	5.21339
465.128	4.405
465.333	5.78282
465.539	5.18382
465.745	4.83913
465.95	4.88407
466.156	6.373
466.362	5.54597
466.567	4.89731
466.773	4.5611
466.978	5.7959
467.184	4.32581
467.389	3.82588
467.595	5.13069
467.8	4.4787
468.006	5.71246
468.211	5.53226
468.417	4.26331
468.622	5.1586
468.828	5.30927
469.033	5.19694
469.239	6.40126
469.444	4.66906
469.649	5.39503
469.855	4.77713
470.06	4.89716
470.266	4.3874
470.471	5.22003
470.676	5.18172
470.881	4.06031
471.087	5.61035
471.292	6.45867
471.497	4.20318
471.703	4.80244
471.908	4.61955
472.113	4.93687
472.318	5.41106
472.523	4.39692
472.729	5.06837
472.934	5.2771
473.139	4.75429
473.344	5.14319
473.549	5.52549
473.754	4.5784
473.959	6.39651
474.164	4.43351
474.369	4.8024
474.575	5.38592
474.78	4.97379
474.985	4.66135
475.19	3.91387
475.395	4.38927
475.6	4.95265
475.804	5.63403
476.009	4.80665
476.214	4.96805
476.419	4.75265
476.624	4.07192
476.829	4.47061
477.034	5.30737
477.239	4.48166
477.444	5.26644
477.648	5.19703
477.853	5.23399
478.058	4.76273
478.263	4.50198
478.468	4.36631
478.672	4.49085
478.877	5.62785
479.082	5.80453
479.287	5.09887
479.491	4.93008
479.696	4.39238
479.901	5.26121
480.105	5.27489
480.31	4.5734
480.515	4.85374
480.719	6.02599
480.924	4.59531
481.128	4.33706
481.333	4.97349
481.538	4.90925
481.742	4.88791
481.947	5.60868
482.151	6.09594
482.356	6.31367
482.56	7.56058
482.765	8.12964
482.969	9.81161
483.174	11.1533
483.378	13.15305
483.582	13.44546
483.787	14.90059
483.991	15.17496
484.196	15.68926
484.4	15.51749
484.604	16.26473
484.809	14.70538
485.013	14.06287
485.217	13.00028
485.422	11.5888
485.626	10.54709
485.83	9.78032
486.034	9.18776
486.239	9.24367
486.443	9.28204
486.647	9.24579
486.851	10.01508
487.055	10.81935
487.26	10.41493
487.464	11.09587
487.668	10.72121
487.872	11.02239
488.076	11.49692
488.28	11.08649
488.484	10.42126
488.688	10.41172
488.892	10.00587
489.096	9.431
489.3	8.52493
489.504	8.03832
489.708	7.70426
489.912	7.49759
490.116	7.23092
490.32	6.58407
490.524	7.23939
490.728	7.69037
490.932	7.83255
491.136	8.13729
491.34	9.08998
491.544	9.35355
491.748	9.26215
491.951	9.43857
492.155	9.2269
492.359	9.1967
492.563	8.25919
492.767	7.91652
492.97	7.21352
493.174	6.49612
493.378	6.05152
493.582	5.18656
493.785	5.06633
493.989	5.05478
494.193	5.04603
494.396	4.83336
494.6	5.39806
494.804	4.95796
495.007	4.48687
495.211	4.5841
495.414	4.70434
495.618	4.99705
495.822	5.43423
496.025	4.87949
496.229	5.20131
496.432	4.48007
496.636	4.83598
496.839	4.68052
497.043	5.57589
497.246	5.01475
497.45	4.60974
497.653	4.87292
497.856	4.91007
498.06	4.44797
498.263	4.81326
498.467	4.66568
498.67	5.21669
498.873	5.01624
499.077	4.74903
499.28	4.69596
499.483	4.99498
499.686	5.19003
499.89	4.97318
500.093	5.21382
500.296	4.44062
500.499	5.54251
500.703	4.80054
500.906	4.96684
501.109	5.6308
501.312	4.70326
501.515	4.74462
501.719	4.90696
501.922	5.46394
502.125	4.91836
502.328	4.64625
502.531	4.2089
502.734	4.75669
502.937	3.88437
503.14	4.90182
503.343	4.19419
503.546	4.48952
503.749	4.25593
503.952	5.09532
504.155	4.26216
504.358	4.88188
504.561	4.65827
504.764	4.11319
504.967	4.76161
505.17	4.60982
505.373	5.40953
505.576	4.77021
505.778	5.06147
505.981	4.27926
506.184	5.31215
506.387	3.93832
506.59	5.73412
506.793	5.22324
506.995	4.93482
507.198	3.78496
507.401	4.9513
507.604	4.89574
507.806	4.21373
508.009	4.30922
508.212	5.01568
508.414	4.27282
508.617	4.348
508.82	4.65257
509.022	5.29922
509.225	4.70544
509.427	3.97362
509.63	5.33917
509.833	4.63338
510.035	4.41671
510.238	3.91218
510.44	5.24807
510.643	3.75708
510.845	5.66129
511.048	4.83963
511.25	4.39633
511.453	4.49688
511.655	4.79799
511.858	4.40913
512.06	4.99652
512.262	4.64149
512.465	5.007
512.667	4.30294
512.869	4.03276
513.072	4.7393
513.274	4.90029
513.476	4.8737
513.679	5.02533
513.881	4.08079
514.083	5.49068
514.286	4.28839
514.488	4.27569
514.69	4.08771
514.892	3.8932
515.094	4.77414
515.297	4.23708
515.499	4.64204
515.701	4.11641
515.903	5.386
516.105	5.41907
516.307	4.92731
516.509	3.59744
516.711	3.82914
516.913	4.56212
517.116	4.46765
517.318	4.24704
517.52	5.0252
517.722	4.80052
517.924	3.91071
518.126	4.63265
518.328	4.26529
518.529	4.88904
518.731	5.66568
518.933	4.32824
519.135	4.55617
519.337	5.30129
519.539	4.76901
519.741	3.75728
519.943	4.39693
520.145	4.37013
520.346	4.80049
520.548	4.38856
520.75	4.64901
520.952	4.33933
521.153	4.62611
521.355	4.71205
521.557	4.03845
521.759	4.63024
521.96	4.48265
522.162	3.96893
522.364	5.04377
522.565	4.162
522.767	4.78672
522.969	4.93841
523.17	4.70991
523.372	4.67906
523.573	4.20907
523.775	4.28749
523.977	4.03797
524.178	5.45456
524.38	4.08251
524.581	4.72699
524.783	4.19721
524.984	4.69528
525.186	4.44437
525.387	4.87566
525.589	4.73329
525.79	4.66728
525.991	4.57396
526.193	5.18318
526.394	4.49161
526.596	5.35684
526.797	5.41007
526.998	5.05283
527.2	5.01961
527.401	6.39263
527.602	6.72871
527.803	8.08392
528.005	8.41842
528.206	9.18178
528.407	9.85333
528.608	9.81381
528.81	10.10055
529.011	9.71635
529.212	10.73116
529.413	10.00768
529.614	9.39868
529.815	9.1092
530.017	8.50654
530.218	7.5214
530.419	6.52863
530.62	6.48633
530.821	6.04257
531.022	5.02024
531.223	5.65935
531.424	5.58163
531.625	5.48541
531.826	5.17927
532.027	5.33218
532.228	6.26717
532.429	5.99318
532.63	6.00221
532.831	6.58894
533.032	6.72655
533.233	7.22405
533.433	7.07118
533.634	7.35411
533.835	6.79375
534.036	6.46532
534.237	6.37153
534.438	5.97777
534.638	5.22045
534.839	5.06645
535.04	5.21366
535.241	4.55198
535.441	5.4574
535.642	5.03457
535.843	4.25743
536.043	4.47047
536.244	4.6357
536.445	4.82436
536.645	5.45725
536.846	5.14298
537.047	5.72347
537.247	4.68499
537.448	4.69132
537.648	4.59884
537.849	4.55039
538.049	4.56166
538.25	4.87964
538.451	4.69625
538.651	4.16609
538.851	4.90669
539.052	5.23857
539.252	4.90772
539.453	4.54905
539.653	4.57698
539.854	4.48666
540.054	4.42962
540.254	5.52321
540.455	5.99277
540.655	5.68332
540.855	6.70532
541.056	7.29188
541.256	7.19152
541.456	8.04892
541.657	7.5279
541.857	8.41999
542.057	7.18873
542.257	7.01656
542.458	7.54813
542.658	7.57648
542.858	6.08237
543.058	6.55501
543.258	6.04736
543.458	4.94831
543.659	4.75698
543.859	5.34472
544.059	5.11621
544.259	4.66495
544.459	5.25681
544.659	4.44756
544.859	4.90819
545.059	4.42246
545.259	5.00966
545.459	4.77997
545.659	5.04765
545.859	4.62266
546.059	4.77862
546.259	4.22062
546.459	3.9413
546.659	4.18536
546.859	4.98248
547.059	4.72548
547.258	4.90277
547.458	4.89699
547.658	4.23973
547.858	4.1951
548.058	4.77882
548.258	4.4316
548.457	4.25976
548.657	6.08542
548.857	4.60022
549.057	5.25823
549.256	5.07289
549.456	4.55557
549.656	3.69702
549.855	5.98789
550.055	4.45162
550.255	5.78223
550.454	5.04384
550.654	5.38476
550.853	5.70462
551.053	5.33352
551.253	4.94926
551.452	5.29072
551.652	3.9782
551.851	3.82833
552.051	4.44189
552.25	4.42683
552.45	4.25462
552.649	4.39984
552.849	4.18913
553.048	4.79171
553.248	5.12545
553.447	4.24424
553.646	5.29614
553.846	6.30702
554.045	5.65173
554.244	4.14283
554.444	5.7824
554.643	4.26206
554.842	5.83269
555.042	6.10466
555.241	4.49286
555.44	4.29833
555.64	5.20376
555.839	5.819
556.038	5.18809
556.237	4.59493
556.436	5.01278
556.636	5.2184
556.835	4.37069
557.034	5.90717
557.233	4.88832
557.432	4.08026
557.631	5.63628
557.83	4.91722
558.029	4.66012
558.228	4.65704
558.427	4.34249
558.626	5.36678
558.825	4.42129
559.024	4.94661
559.223	6.28005
559.422	4.98777
559.621	5.41539
559.82	3.557
560.019	5.04021
560.218	4.67519
560.417	3.29175
560.616	4.64636
560.815	7.20374
561.014	3.95759
561.212	5.95868
561.411	5.15094
561.61	4.20484
561.809	4.86648
562.008	6.40187
562.206	4.91862
562.405	5.29609
562.604	5.08004
562.803	5.23245
563.001	5.08596
563.2	4.18927
563.399	5.48082
563.597	4.38884
563.796	5.16163
563.995	4.21942
564.193	5.64017
564.392	4.86937
564.59	6.624
564.789	3.67823
564.988	4.86337
565.186	5.26509
565.385	4.89865
565.583	4.85774
565.782	5.13792
565.98	4.87949
566.179	4.94416
566.377	4.50444
566.575	4.52953
566.774	5.92438
566.972	5.6937
567.171	6.43852
567.369	6.10044
567.567	5.35992
567.766	5.27693
567.964	3.86373
568.162	5.75416
568.361	6.21378
568.559	5.13571
568.757	5.36986
568.956	5.32614
569.154	5.25198
569.352	5.73921
569.55	5.12891
569.748	5.22588
569.947	4.62933
570.145	4.53724
570.343	4.54391
570.541	6.36822
570.739	4.23032
570.937	5.2664
571.135	5.5221
571.333	6.85247
571.532	6.62986
571.73	5.46937
571.928	6.0476
572.126	5.83432
572.324	5.0657
572.522	6.15323
572.72	7.16844
572.918	5.46565
573.116	5.66829
573.313	5.2469
573.511	5.29356
573.709	5.1815
573.907	6.01557
574.105	5.17576
574.303	4.37848
574.501	4.36195
574.699	5.77059
574.896	5.65324
575.094	5.89199
575.292	4.53668
575.49	6.06859
575.688	5.39835
575.885	6.41405
576.083	7.1148
576.281	5.9501
576.478	5.01669
576.676	5.93548
576.874	4.72192
577.071	5.51529
577.269	7.18598
577.467	5.26024
577.664	5.65633
577.862	6.16795
578.059	5.13224
578.257	6.14484
578.455	5.51364
578.652	5.70166
578.85	4.20335
579.047	5.9824
579.245	5.49932
579.442	5.74623
579.64	5.6527
579.837	4.32392
580.034	7.80853
580.232	5.35189
580.429	4.9894
580.627	6.2114
580.824	6.82771
581.021	6.18501
581.219	5.53062
581.416	5.23105
581.613	6.87902
581.811	6.8595
582.008	5.15853
582.205	6.58727
582.402	6.15406
582.6	7.11303
582.797	6.06171
582.994	6.29951
583.191	6.6539
583.388	5.91649
583.586	6.62416
583.783	7.05987
583.98	5.1282
584.177	6.15756
584.374	3.8037
584.571	5.77283
584.768	6.03848
584.965	5.66668
585.162	6.72328
585.359	7.44574
585.556	6.10365
585.753	6.40033
585.95	4.97818
586.147	5.32783
586.344	6.55973
586.541	5.93947
586.738	5.24831
586.935	6.20769
587.132	5.55804
587.329	7.12556
587.526	5.9857
587.722	10.58631
587.919	4.98859
588.116	6.42825
588.313	7.22187
588.51	7.94341
588.706	6.05877
588.903	6.73789
589.1	6.92265
589.297	8.74279
589.493	6.093
589.69	6.7278
589.887	5.7546
590.083	5.21875
590.28	5.73145
590.477	7.08741
590.673	6.75526
590.87	7.5397
591.067	5.68519
591.263	6.65033
591.46	6.65401
591.656	5.97819
591.853	7.75795
592.049	5.74142
592.246	5.79213
592.442	7.34319
592.639	7.26199
592.835	5.46713
593.032	6.82098
593.228	5.21589
593.425	5.29712
593.621	5.10939
593.817	6.55936
594.014	5.61138
594.21	6.57063
594.406	7.3559
594.603	6.51982
594.799	5.91327
594.995	4.50497
595.192	7.25131
595.388	6.11733
595.584	5.98021
595.78	5.33917
595.977	8.70682
596.173	7.85643
596.369	6.14105
596.565	5.49642
596.761	5.21756
596.957	7.36711
597.154	5.78489
597.35	6.05041
597.546	5.96065
597.742	6.80299
597.938	6.71153
598.134	5.85595
598.33	6.58943
598.526	7.51133
598.722	6.94962
598.918	8.2792
599.114	7.25953
599.31	5.63596
599.506	6.66124
599.702	6.07577
599.898	7.0083
600.094	7.59949
600.29	7.56005
600.485	7.36531
600.681	6.13273
600.877	8.26126
601.073	6.80573
601.269	8.82588
601.465	8.14126
601.66	5.96008
601.856	4.967
602.052	8.67971
602.248	6.29865
602.443	4.98887
602.639	5.57022
602.835	5.94204
603.03	5.93958
603.226	7.44109
603.422	5.8204
603.617	6.50137
603.813	6.39067
604.009	6.20077
604.204	7.70697
604.4	5.50442
604.595	7.66921
604.791	6.00805
604.986	7.0185
605.182	6.09716
605.377	6.57104
605.573	6.57767
605.768	6.85811
605.964	7.30588
606.159	7.43297
606.355	7.81624
606.55	6.62867
606.746	7.8445
606.941	6.93618
607.136	8.77571
607.332	9.70047
607.527	5.87453
607.722	7.11909
607.918	6.79654
608.113	6.13895
608.308	7.64857
608.503	7.48308
608.699	7.2121
608.894	7.45457
609.089	6.21634
609.284	7.37072
609.479	6.62645
609.675	7.39648
609.87	6.79509
610.065	7.59995
610.26	7.81408
610.455	7.82639
610.65	7.02416
610.845	7.42566
611.04	7.8697
611.235	7.11773
611.43	7.00739
611.625	6.22478
611.82	8.61191
612.015	6.59732
612.21	9.12414
612.405	5.9244
612.6	9.03674
612.795	8.79673
612.99	8.30907
613.185	6.2438
613.38	6.58968
613.575	7.47847
613.77	10.58261
613.965	5.98865
614.159	6.67273
614.354	8.65293
614.549	8.63008
614.744	8.00441
614.938	6.2798
615.133	6.08972
615.328	8.97047
615.523	8.68144
615.717	10.69804
615.912	7.20013
616.107	7.70764
616.301	7.32971
616.496	6.75836
616.691	9.58777
616.885	8.50712
617.08	10.83336
617.274	8.74362
617.469	10.02312
617.664	8.56692
617.858	7.18413
618.053	7.91705
618.247	7.26056
618.442	5.25548
618.636	9.29425
618.831	6.99217
619.025	7.01207
619.219	11.09168
619.414	4.27386
619.608	7.48421
619.803	6.82673
619.997	10.15163
620.191	8.90981
620.386	8.3241
620.58	7.8041
620.774	5.90644
620.969	6.0263
621.163	7.89513
621.357	6.36894
621.551	7.4797
621.746	7.97669
621.94	7.35974
622.134	12.01919
622.328	10.31142
622.522	6.13311
622.716	8.92681
622.911	8.74608
623.105	8.88333
623.299	8.30287
623.493	11.58533
623.687	6.88849
623.881	7.22142
624.075	8.88494
624.269	9.34177
624.463	5.69772
624.657	6.15318
624.851	8.63079
625.045	9.02122
625.239	8.93326
625.433	7.29593
625.627	9.95178
625.821	7.24927
626.015	6.94105
626.209	7.89039
626.403	6.01349
626.596	8.41006
626.79	8.7751
626.984	6.527
627.178	8.69711
627.372	8.42184
627.565	8.82305
627.759	6.53285
627.953	6.77111
628.147	8.35518
628.34	8.89487
628.534	10.61316
628.728	7.65172
628.921	9.20908
629.115	9.12608
629.309	9.39585
629.502	9.6604
629.696	8.49822
629.89	7.97581
630.083	8.53528
630.277	8.66432
630.47	10.50811
630.664	7.9609
630.857	6.56533
631.051	9.91144
631.244	9.78906
631.438	9.52955
631.631	7.71065
631.825	10.11739
632.018	8.97173
632.212	10.82098
632.405	9.86414
632.598	7.34112
632.792	8.44999
632.985	5.4781
633.178	7.83784
633.372	8.23155
633.565	8.1394
633.758	9.89025
633.952	7.35919
634.145	7.1865
634.338	8.2495
634.531	7.90973
634.724	7.35109
634.918	8.7036
635.111	8.01389
635.304	7.72223
635.497	11.63432
635.69	9.06407
635.883	10.15452
636.077	7.28005
636.27	9.13791
636.463	8.83967
636.656	8.98295
636.849	8.28489
637.042	9.14928
637.235	11.9059
637.428	9.72129
637.621	9.54364
637.814	10.81909
638.007	11.00427
638.2	10.89314
638.393	11.40613
638.586	7.196
638.778	8.2175
638.971	8.82053
639.164	11.13049
639.357	9.59663
639.55	11.25589
639.743	10.09409
639.935	9.63894
640.128	12.60636
640.321	10.48489
640.514	9.63766
640.707	12.83921
640.899	10.5294
641.092	6.75302
641.285	25.06192
641.477	6.23651
641.67	13.11677
641.863	11.39656
642.055	9.67378
642.248	9.55187
642.441	8.86968
642.633	10.28495
642.826	11.58348
643.018	11.40047
643.211	12.52916
643.403	12.86925
643.596	13.11742
643.788	12.35006
643.981	8.83368
644.173	10.98196
644.366	8.928
644.558	6.65343
644.751	11.17998
644.943	7.70618
645.135	12.39605
645.328	12.66929
645.52	10.74726
645.712	11.64841
645.905	15.31384
646.097	8.15719
646.289	10.28913
646.482	13.72391
646.674	8.8234
646.866	11.73605
647.058	10.72133
647.251	8.20594
647.443	8.9165
647.635	9.67288
647.827	8.51977
648.019	8.18643
648.211	9.5997
648.404	10.21321
648.596	12.81014
648.788	10.49337
648.98	10.37518
649.172	10.92905
649.364	10.72503
649.556	7.30602
649.748	14.50436
649.94	9.0505
650.132	11.41816
650.324	8.70956
650.516	9.00011
650.708	11.98353
650.9	7.99714
651.092	7.44008
651.284	7.84543
651.476	8.22355
651.667	11.22796
651.859	12.91936
652.051	9.82312
652.243	10.51371
652.435	9.67622
652.627	11.05997
652.818	11.32443
653.01	7.74239
653.202	9.3376
653.394	9.62099
653.585	11.07523
653.777	18.05851
653.969	13.17594
654.16	12.87924
654.352	8.76064
654.544	10.35086
654.735	12.63399
654.927	10.75332
655.118	13.45886
655.31	11.82307
655.502	12.75781
655.693	9.94298
655.885	11.81165
656.076	13.39426
656.268	11.31024
656.459	13.32366
656.651	13.46174
656.842	9.86629
657.034	9.50984
657.225	12.10675
657.416	13.26935
657.608	13.19833
657.799	10.72981
657.99	12.8294
658.182	9.20659
658.373	9.55411
658.564	12.82926
658.756	11.01691
658.947	10.54089
659.138	9.22589
659.33	9.84959
659.521	9.48544
659.712	10.57614
659.903	10.15935
660.094	9.69805
660.286	8.27642
660.477	14.11614
660.668	12.13225
660.859	10.8581
661.05	8.58078
661.241	12.05464
661.432	11.46043
661.623	10.69866
661.814	10.23521
662.006	8.45446
662.197	11.93263
662.388	13.16809
662.579	12.07236
662.77	13.97065
662.96	16.16117
663.151	13.14597
663.342	7.80559
663.533	12.70389
663.724	11.06189
663.915	15.25886
664.106	11.58439
664.297	15.30925
664.488	12.83331
664.678	10.17778
664.869	13.18673
665.06	13.19236
665.251	12.19858
665.442	13.08629
665.632	9.9144
665.823	16.09994
666.014	6.57284
666.204	12.84469
666.395	14.63359
666.586	16.66553
666.776	13.30385
666.967	15.84796
667.158	12.15626
667.348	15.32652
667.539	10.16279
667.729	13.8976
667.92	10.80542
668.111	13.87457
668.301	13.44757
668.492	11.45407
668.682	12.35972
668.873	11.81045
669.063	9.56482
669.253	12.58
669.444	15.17678
669.634	11.99981
669.825	15.73279
670.015	14.59496
670.206	11.0794
670.396	16.73192
670.586	11.86207
670.777	13.19271
670.967	8.32284
671.157	11.91649
671.347	11.06902
671.538	15.76162
671.728	13.80903
671.918	16.69003
672.108	14.59932
672.299	11.86042
672.489	13.02322
672.679	11.36573
672.869	13.72148
673.059	17.73693
673.249	13.92111
673.44	10.50417
673.63	12.26932
673.82	14.74519
674.01	10.67816
674.2	13.83242
674.39	18.88772
674.58	14.17521
674.77	13.3334
674.96	12.8771
675.15	22.28865
675.34	15.81087
675.53	13.0375
675.72	11.27939
675.91	9.75554
676.099	17.42367
676.289	18.73346
676.479	15.66958
676.669	11.72606
676.859	14.47743
677.049	11.47614
677.238	13.21077
677.428	16.75723
677.618	14.23107
677.808	17.9908
677.997	14.48061
678.187	11.03934
678.377	12.97936
678.567	11.5527
678.756	12.22398
678.946	13.05316
679.136	10.27131
679.325	11.92045
679.515	11.09464
679.704	10.35843
679.894	15.24805
680.084	14.13351
680.273	16.03245
680.463	11.4226
680.652	11.31544
680.842	12.86768
681.031	15.4627
681.221	11.38905
681.41	14.60275
681.6	12.93907
681.789	14.8605
681.978	16.14136
682.168	14.25599
682.357	14.30627
682.547	14.63463
682.736	14.14575
682.925	16.98366
683.115	16.72989
683.304	15.48044
683.493	14.19477
683.682	15.07951
683.872	15.11884
684.061	16.92123
684.25	15.69357
684.439	19.94657
684.629	15.90888
684.818	22.6309
685.007	14.4498
685.196	13.33559
685.385	19.16103
685.574	15.24482
685.763	15.42039
685.952	15.52142
686.142	11.63012
686.331	18.15228
686.52	11.09599
686.709	19.8202
686.898	19.64599
687.087	16.51764
687.276	19.24925
687.465	17.86474
687.654	14.13455
687.842	18.76935
688.031	11.98273
688.22	18.92328
688.409	15.66503
688.598	15.26844
688.787	21.49906
688.976	15.58348
689.165	20.83665
689.353	14.24289
689.542	16.46415
689.731	18.52839
689.92	21.57081
690.108	17.62584
690.297	14.8001
690.486	16.04688
690.675	17.45438
690.863	20.86819
691.052	20.60397
691.241	16.77662
691.429	16.82118
691.618	19.8975
691.806	13.05834
691.995	15.42662
692.184	15.97863
692.372	15.3657
692.561	16.50016
692.749	17.25686
692.938	25.6607
693.126	18.03644
693.315	15.93127
693.503	18.28784
693.692	19.16807
693.88	19.38905
694.068	22.33595
694.257	16.63817
694.445	18.93784
694.634	11.29595
694.822	19.34332
695.01	20.13873
695.199	23.27747
695.387	21.40903
695.575	20.70937
695.763	16.74161
695.952	15.87686
696.14	12.10383
696.328	15.36512
696.516	16.97741
696.705	17.87713
696.893	17.27682
697.081	12.12354
697.269	18.96506
697.457	13.60267
697.645	12.87786
697.833	18.80388
698.021	14.23466
698.21	14.94049
698.398	15.39358
698.586	13.33046
698.774	12.84107
698.962	16.18522
699.15	13.31979
699.338	12.08749
699.526	17.20896
699.714	14.45324
699.901	14.39915
700.089	17.85806
700.277	14.72421
700.465	15.9771
700.653	18.57173
700.841	17.61402
701.029	14.91132
701.217	21.50724
701.404	17.26781
701.592	21.65133
701.78	24.19141
701.968	16.88029
702.155	16.33001
702.343	14.07148
702.531	21.34461
702.718	18.75928
702.906	16.18428
703.094	15.87468
703.281	21.79989
703.469	17.15602
703.657	21.55285
703.844	28.99071
704.032	24.28938
704.219	16.75699
704.407	19.70622
704.595	23.21282
704.782	20.08673
704.97	18.10366
705.157	17.50362
705.345	25.40083
705.532	30.75293
705.719	22.38018
705.907	25.4623
706.094	21.24568
706.282	28.11579
706.469	21.80125
706.656	22.75771
706.844	21.34998
707.031	26.55816
707.218	23.92896
707.406	28.7455
707.593	25.86625
707.78	25.93117
707.968	24.00431
708.155	20.72653
708.342	26.20085
708.529	26.13156
708.716	25.11657
708.904	29.66393
709.091	26.31981
709.278	20.90726
709.465	30.44549
709.652	29.83364
709.839	28.50415
710.026	23.9247
710.213	18.28644
710.4	24.17669
710.587	25.68305
710.774	26.12639
710.961	27.44939
711.148	24.36946
711.335	26.67837
711.522	23.337
711.709	25.18666
711.896	30.63194
712.083	27.08513
712.27	21.05496
712.457	24.76861
712.644	19.0487
712.831	31.47229
713.017	24.84123
713.204	26.41249
713.391	21.82094
713.578	26.8957
713.765	28.99527
713.951	24.90851
714.138	34.96869
714.325	24.78659
714.512	22.40664
714.698	19.45877
714.885	27.65178
715.072	22.64695
715.258	21.70419
715.445	19.5283
715.631	26.33961
715.818	12.65718
716.005	19.49142
716.191	23.95853
716.378	20.49223
716.564	24.57638
716.751	18.42811
716.937	20.07883
717.124	25.40733
717.31	18.69444
717.497	29.61349
717.683	19.43525
717.869	30.42829
718.056	19.58798
718.242	24.17584
718.429	21.30052
718.615	17.44347
718.801	21.82441
718.988	27.00341
719.174	24.35098
719.36	20.78269
719.547	27.82886
719.733	23.39449
719.919	23.07444
720.105	24.48703
720.291	21.79523
720.478	23.30171
720.664	21.81181
720.85	19.84679
721.036	34.46804
721.222	30.08856
721.408	22.62186
721.595	30.1398
721.781	30.20805
721.967	27.1418
722.153	30.14223
722.339	25.08859
722.525	25.90082
722.711	18.76964
722.897	17.83612
723.083	21.67695
723.269	28.54939
723.455	36.11115
723.641	41.10992
723.827	23.86746
724.012	25.55145
724.198	23.55792
724.384	30.09864
724.57	25.69667
724.756	17.4635
724.942	15.23929
725.127	29.07021
725.313	29.67625
725.499	29.26862
725.685	32.95528
725.87	26.14628
726.056	20.00528
726.242	29.11892
726.428	17.25154
726.613	28.0274
726.799	21.74225
726.985	19.0521
727.17	16.46383
727.356	33.59839
727.541	20.00132
727.727	24.13197
727.913	27.29572
728.098	21.88115
728.284	27.63442
728.469	19.03797
728.655	20.9312
728.84	29.19561
729.026	27.77323
729.211	27.87577
729.397	25.83177
729.582	27.77373
729.767	24.02832
729.953	25.67701
730.138	30.41525
730.323	14.11035
730.509	19.75544
730.694	32.4178
730.879	26.67582
731.065	25.15969
731.25	36.51782
731.435	26.77934
731.621	18.14668
731.806	22.13903
731.991	25.27587
732.176	17.58291
732.361	32.67829
732.547	26.0981
732.732	17.91741
732.917	35.63887
733.102	20.28661
733.287	22.03323
733.472	24.4691
733.657	24.87722
733.842	18.30588
734.027	22.20428
734.212	24.24886
734.397	21.14743
734.582	24.94268
734.767	30.27683
734.952	32.48507
735.137	14.06181
735.322	32.02652
735.507	27.90829
735.692	26.37606
735.877	36.18281
736.062	34.91234
736.247	27.02298
736.431	24.73432
736.616	31.6738
736.801	27.35932
736.986	25.45475
737.171	20.66067
737.355	20.0579
737.54	32.15306
737.725	26.251
737.909	41.01979
738.094	23.75649
738.279	29.77613
738.463	24.64809
738.648	29.35071
738.833	27.61061
739.017	37.93455
739.202	24.06753
739.386	24.92855
739.571	21.64809
739.756	30.64017
739.94	25.7058
740.125	29.13913
740.309	22.3447
740.494	29.91496
740.678	27.22983
740.863	28.14479
741.047	27.11169
741.231	34.57184
741.416	22.56938
741.6	35.31768
741.785	23.03324
741.969	31.54841
742.153	34.92253
742.338	16.39348
742.522	25.0679
742.706	32.20318
742.89	21.18408
743.075	27.04979
743.259	33.64922
743.443	32.87611
743.627	33.35669
743.812	40.11941
743.996	17.98501
744.18	25.57743
744.364	24.60378
744.548	41.69078
744.732	26.09625
744.916	32.19682
745.1	31.0504
745.285	25.14851
745.469	30.41437
745.653	37.03837
745.837	20.65112
746.021	41.19827
746.205	35.30671
746.389	27.81547
746.573	26.45531
746.757	37.83578
746.94	25.02634
747.124	34.5327
747.308	21.40932
747.492	35.29476
747.676	23.48097
747.86	43.34826
748.044	25.34939
748.227	18.40289
748.411	52.7271
748.595	29.38667
748.779	23.43452
748.963	29.84127
749.146	28.74038
749.33	23.76841
749.514	22.88793
749.697	35.38528
749.881	23.73284
750.065	22.04386
750.248	29.17143
750.432	43.4701
750.616	28.61245
750.799	21.32892
750.983	44.80617
751.166	44.78773
751.35	19.28805
751.533	33.37531
751.717	38.77382
751.9	38.41195
752.084	27.49306
752.267	23.67108
752.451	24.33554
752.634	28.64459
752.818	32.93049
753.001	33.92254
753.184	36.6841
753.368	31.30404
753.551	10.31158
753.734	24.38192
753.918	44.65964
754.101	24.4466
754.284	33.57143
754.467	25.52893
754.651	24.99424
754.834	23.06877
755.017	36.60732
755.2	36.75027
755.384	22.31148
755.567	33.10778
755.75	34.88188
755.933	26.75329
756.116	33.42484
756.299	25.4505
756.482	24.37321
756.665	33.18556
756.848	28.74926
757.032	30.76126
757.215	19.90495
757.398	24.54794
757.581	24.21453
757.764	48.956
757.947	28.39024
758.129	34.73961
758.312	13.05803
758.495	28.03395
758.678	28.96666
758.861	25.86939
759.044	41.70764
759.227	22.44763
759.41	24.50684
759.592	34.73438
759.775	27.87566
759.958	36.49142
760.141	21.11229
760.324	46.70846
760.506	40.05334
760.689	34.87873
760.872	45.48062
761.054	32.50949
761.237	28.07559
761.42	30.41755
761.602	35.58301
761.785	32.57941
761.968	37.84051
762.15	42.7765
762.333	28.61633
762.515	32.55223
762.698	27.13059
762.88	35.22267
763.063	32.26429
763.245	36.71454
763.428	24.34154
763.61	25.86076
763.793	21.80641
763.975	31.06119
764.158	27.77879
764.34	25.65513
764.522	23.25392
764.705	27.88383
764.887	39.10404
765.069	19.10101
765.252	32.78768
765.434	33.76514
765.616	31.10189
765.799	24.28867
765.981	35.11179
766.163	24.81486
766.345	38.41391
766.528	25.74489
766.71	16.03361
766.892	31.35745
767.074	39.00772
767.256	27.22638
767.438	41.266
767.62	31.74979
767.802	47.69704
767.985	35.18011
768.167	44.78891
768.349	26.43952
768.531	35.71778
768.713	33.70843
768.895	37.25678
769.077	33.90049
769.259	51.38794
769.441	69.80438
769.623	37.0139
769.804	44.83952
769.986	42.10525
770.168	47.92209
770.35	59.14286
770.532	46.02371
770.714	49.73063
770.896	49.13961
771.077	23.83563
771.259	52.59091
771.441	45.46882
771.623	55.1731
771.804	66.08061
771.986	25.26185
772.168	35.41273
772.35	51.18811
772.531	68.48864
772.713	44.03444
772.894	56.40404
773.076	42.9169
773.258	37.21801
773.439	57.9104
773.621	65.68306
773.802	33.65719
773.984	37.42643
774.166	47.90266
774.347	60.24722
774.529	55.69785
774.71	23.01801
774.891	41.24392
775.073	38.54192
775.254	56.53504
775.436	35.43723
775.617	70.34968
775.799	38.30255
775.98	57.53085
776.161	64.39724
776.343	67.03028
776.524	41.93064
776.705	40.36645
776.886	23.13531
777.068	48.63666
777.249	94.10229
777.43	67.80066
777.611	31.41265
777.793	40.27697
777.974	66.8609
778.155	38.04852
778.336	35.22193
778.517	76.01463
778.698	33.58394
778.879	24.18058
779.061	13.96152
779.242	49.73293
779.423	49.71995
779.604	36.6916
779.785	40.66487
779.966	47.184
780.147	57.09367
780.328	57.79315
780.509	77.22938
780.69	56.98543
780.871	36.66947
781.051	26.69051
781.232	46.90567
781.413	46.66916
781.594	40.5757
781.775	40.01548
781.956	35.78691
782.137	22.02493
782.317	38.24441
782.498	46.18403
782.679	44.76503
782.86	47.54069
783.04	36.41457
783.221	47.6905
783.402	70.52209
783.583	47.51085
783.763	55.62912
783.944	39.88436
784.124	29.20773
784.305	67.22573
784.486	53.25352
784.666	43.89367
784.847	26.72292
785.027	88.68385
785.208	38.22076
785.388	36.51776
785.569	36.2928
785.749	42.97114
785.93	40.37269
786.11	28.77122
786.291	51.3922
786.471	48.62481
786.652	55.60766
786.832	43.49188
787.012	46.88195
787.193	32.13142
787.373	45.40297
787.553	39.76712
787.734	48.09138
787.914	39.84852
788.094	55.98444
788.275	48.98558
788.455	40.7507
788.635	29.7547
788.815	47.31615
788.995	32.8083
789.176	27.38438
789.356	35.06766
789.536	41.96062
789.716	51.54888
789.896	35.34811
790.076	38.62438
790.256	48.18451
790.436	20.51949
790.616	32.56167
790.796	48.75598
790.976	39.83799
791.156	36.65985
791.336	52.05965
791.516	48.92766
791.696	41.08865
791.876	28.98247
792.056	44.63119
792.236	57.42287
792.416	54.60072
792.596	50.2012
792.776	50.03319
792.956	52.52471
793.135	68.58815
793.315	32.71755
793.495	57.9333
793.675	55.31572
793.854	53.2195
794.034	57.37291
794.214	32.48553
794.394	55.2346
794.573	60.72219
794.753	47.81585
794.933	36.86902
795.112	47.76671
795.292	57.81404
795.472	68.25523
795.651	30.68276
795.831	44.70025
796.01	40.72498
796.19	39.0422
796.369	44.71339
796.549	50.95691
796.728	42.26596
796.908	29.43268
797.087	31.88535
797.267	40.97708
797.446	32.12143
797.626	50.18749
797.805	50.24139
797.984	35.43091
798.164	54.8101
798.343	35.11935
798.522	46.58648
798.702	47.55407
798.881	31.02985
799.06	40.94838
799.239	24.69338
799.419	33.91793
799.598	69.25743
799.777	50.56953
799.956	59.88455
800.136	40.7835
800.315	34.90384
800.494	49.5031
800.673	59.32011
800.852	53.86374
801.031	60.53214
801.21	51.92084
801.389	40.11837
801.568	46.95539
801.747	71.92269
801.926	45.65896
802.105	64.81467
802.284	40.32147
802.463	67.94983
802.642	50.41726
802.821	48.55196
803	65.72646
803.179	57.93464
803.358	59.68601
803.537	38.67965
803.716	45.52481
803.895	39.27097
804.073	43.0384
804.252	38.59992
804.431	51.23313
804.61	45.47391
804.789	56.56014
804.967	40.0558
805.146	40.76915
805.325	77.07249
805.503	51.72429
805.682	29.33365
805.861	93.30355
806.039	63.00551
806.218	41.93367
806.397	48.67265
806.575	44.43101
806.754	49.88571
806.932	33.90457
807.111	59.02299
807.289	57.64797
807.468	47.32611
807.646	61.01006
807.825	54.26547
808.003	47.15693
808.182	59.9286
808.36	47.09179
808.539	38.02581
808.717	67.2711
808.895	39.08753
809.074	51.75528
809.252	48.53024
809.43	55.45388
809.609	63.97891
809.787	67.19432
809.965	44.82052
810.144	45.64215
810.322	47.66297
810.5	51.59661
810.678	42.12441
810.856	78.40765
811.035	61.88791
811.213	55.41008
811.391	67.91233
811.569	52.75982
811.747	101.75668
811.925	63.30223
812.103	38.4045
812.281	47.6981
812.459	75.28031
812.637	71.7696
812.816	59.4523
812.994	79.77267
813.171	69.60929
813.349	57.26828
813.527	64.4198
813.705	68.41699
813.883	89.36117
814.061	62.3182
814.239	74.8412
814.417	84.43332
814.595	58.25394
814.773	56.79889
814.95	51.86511
815.128	54.94214
815.306	51.88129
815.484	47.84217
815.662	39.50983
815.839	35.06531
816.017	44.23006
816.195	66.39404
816.372	45.28262
816.55	60.25338
816.728	73.44776
816.905	46.40141
817.083	76.32265
817.261	50.12065
817.438	95.3055
817.616	75.82153
817.793	43.87441
817.971	63.14527
818.148	62.03481
818.326	69.33493
818.503	54.6489
818.681	76.93232
818.858	45.71425
819.036	50.26109
819.213	53.07553
819.391	43.12801
819.568	41.52643
819.745	36.97375
819.923	60.76221
820.1	46.51867
820.277	39.21078
820.455	45.3004
820.632	48.15711
820.809	50.64852
820.986	35.33843
821.164	30.23725
821.341	28.13635
821.518	38.71889
821.695	29.75733
821.872	27.52248
822.05	24.74645
822.227	21.44512
822.404	22.34838
822.581	25.19424
822.758	22.76463
822.935	23.02428
823.112	25.02032
823.289	22.24579
823.466	25.40464
823.643	24.66261
823.82	27.85716
823.997	26.07098
824.174	29.11293
824.351	36.20236
824.528	34.18866
824.705	32.52591
824.882	35.07569
825.059	41.88674
825.236	31.9368
825.412	34.47378
825.589	38.52573
825.766	51.51517
825.943	35.30743
826.12	39.3852
826.296	30.29279
826.473	35.4939
826.65	36.82716
826.827	41.4973
827.003	30.64356
827.18	33.13906
827.357	36.03013
827.533	31.99415
827.71	21.98834
827.887	29.27559
828.063	32.85598
828.24	28.81776
828.416	35.69644
828.593	30.89822
828.769	41.30942
828.946	42.59123
829.122	43.57363
829.299	42.11622
829.475	30.12341
829.652	41.52074
829.828	63.85244
830.005	44.04838
830.181	56.07025
830.357	44.8135
830.534	58.5875
830.71	46.60345
830.886	57.2136
831.063	54.17681
831.239	69.35916
831.415	36.73152
831.592	70.30855
831.768	47.16913
831.944	42.90626
832.12	73.41543
832.296	70.5013
832.473	61.68541
832.649	43.09389
832.825	60.71467
833.001	38.88708
833.177	52.05574
833.353	50.30881
833.529	32.23828
833.705	45.08854
833.881	32.25213
834.058	31.53664
834.234	34.1648
834.41	33.91473
834.586	28.6492
834.761	32.61722
834.937	35.58963
835.113	36.46511
835.289	32.23918
835.465	37.81505
835.641	34.10607
835.817	38.09632
835.993	58.01305
836.169	34.85789
836.344	48.88671
836.52	53.80639
836.696	50.10149
836.872	42.42538
837.048	101.20961
837.223	47.20534
837.399	76.53618
837.575	64.48531
837.75	61.50724
837.926	79.13283
838.102	116.23539
838.277	95.65704
838.453	125.08734
838.628	125.28132
838.804	54.05949
838.98	110.75721
839.155	63.66923
839.331	83.02865
839.506	59.2876
839.682	60.62562
839.857	81.0812
840.033	92.86115
840.208	48.51267
840.384	29.80946
840.559	49.49251
840.734	71.32595
840.91	88.65425
841.085	58.33904
841.26	58.2809
841.436	54.15408
841.611	51.96623
841.786	75.43474
841.962	95.23292
842.137	62.71688
842.312	44.6792
842.487	58.70467
842.663	48.04849
842.838	60.58848
843.013	170.47599
843.188	86.46323
843.363	91.18848
843.538	143.71927
843.714	143.102
843.889	148.27445
844.064	159.96567
844.239	127.30941
844.414	142.07888
844.589	101.89019
844.764	176.7689
844.939	172.81634
845.114	191.60671
845.289	180.891
845.464	242.00763
845.639	168.51412
845.814	86.51124
845.989	100.84164
846.163	124.22882
846.338	136.5606
846.513	182.09972
846.688	117.49173
846.863	124.24238
847.038	112.19341
847.212	133.34177
847.387	130.89927
847.562	133.8688
847.737	162.7894
847.911	72.87084
848.086	87.32996
848.261	272.74822
848.435	121.15477
848.61	173.12621
848.785	94.98604
848.959	183.28809
849.134	234.51918
849.308	247.81107
849.483	136.67372
849.658	207.1026
849.832	116.73478
850.007	106.40889
850.181	269.83343
850.356	110.43302
850.53	252.35051
850.705	85.2995
850.879	59.08773
851.053	131.6006
851.228	113.68091
851.402	147.47419
851.577	182.87843
851.751	208.11932
851.925	139.38571
852.099	74.13761
852.274	99.62354
852.448	130.53227
852.622	145.52746
852.797	138.60413
852.971	126.60815
853.145	132.65867
853.319	358.21424
853.493	200.75733
853.668	115.46582
853.842	240.41658
854.016	196.15593
854.19	223.67599
854.364	144.19633
854.538	154.17402
854.712	194.41543
854.886	127.83547
855.06	114.78679
855.234	54.21586
855.408	217.60438
855.582	183.54094
855.756	181.71512
855.93	237.01564
856.104	177.07124
856.278	183.84449
856.452	139.1582
856.626	186.24477
856.8	285.76994
856.973	165.15536
857.147	164.00595
857.321	163.82124
857.495	190.15053
857.669	137.24063
857.842	116.24389
858.016	198.37063
858.19	106.3992
858.364	314.64172
858.537	120.7477
858.711	145.29215
858.885	129.65312
859.058	116.21103
859.232	69.51216
859.405	82.46995
859.579	184.03065
859.753	156.69143
859.926	113.74806
860.1	82.85439
860.273	141.8157
860.447	223.30284
860.62	122.7739
860.794	270.31942
860.967	162.97378
861.141	205.69922
861.314	286.36184
861.487	174.38516
861.661	220.15006
861.834	229.11488
862.008	194.78006
862.181	140.83223
862.354	154.21854
862.528	159.70896
862.701	115.70761
862.874	93.61024
863.047	130.18417
863.221	125.29004
863.394	68.36317
863.567	229.4571
863.74	58.19474
863.913	188.00506
864.087	156.22338
864.26	193.64781
864.433	139.66291
864.606	252.70129
864.779	144.85128
864.952	68.56701
865.125	118.44235
865.298	134.92357
865.471	145.39864
865.644	273.42605
865.817	228.13511
865.99	188.12864
866.163	216.64554
866.336	123.80806
866.509	141.6638
866.682	117.92411
866.855	212.23845
867.028	96.08837
867.2	180.07818
867.373	67.9337
867.546	152.56796
867.719	283.26511
867.892	179.26604
868.064	106.38163
868.237	165.81331
868.41	147.8954
868.583	85.80868
868.755	92.97846
868.928	149.94614
869.101	289.07801
869.273	207.40814
869.446	185.04018
869.619	204.72255
869.791	141.51167
869.964	205.39657
870.136	190.36237
870.309	155.52611
870.481	159.97399
870.654	74.65835
870.826	156.33669
870.999	126.5716
871.171	188.90079
871.344	127.0617
871.516	146.89415
871.689	111.14749
871.861	146.20114
872.033	113.85258
872.206	125.956
872.378	205.19766
872.55	132.47642
872.723	91.43913
872.895	134.63427
873.067	209.06177
873.24	223.78057
873.412	120.15947
873.584	132.17105
873.756	129.05032
873.928	166.31801
874.101	167.73335
874.273	182.00058
874.445	68.62514
874.617	91.65442
874.789	159.48533
874.961	127.14884
875.133	182.02815
875.305	154.02824
875.477	98.13451
875.649	84.99643
875.821	106.96227
875.993	244.03037
876.165	102.08105
876.337	168.26523
876.509	133.81976
876.681	163.71635
876.853	158.21179
877.025	156.77053
877.197	108.37754
877.369	98.84149
877.541	194.4586
877.712	66.2252
877.884	94.23693
878.056	177.82933
878.228	104.54776
878.4	173.74964
878.571	105.82064
878.743	75.56537
878.915	160.91225
879.086	96.44546
879.258	118.66025
879.43	108.7742
879.601	94.12329
879.773	99.59867
879.945	32.89998
880.116	50.07715
880.288	33.6153
880.459	36.13679
880.631	30.03377
880.802	33.41045
880.974	32.94286
881.145	25.56218
881.317	31.80349
881.488	26.02396
881.66	28.73767
881.831	26.26465
882.002	34.04253
882.174	27.3721
882.345	33.02991
882.517	22.6595
882.688	37.07787
882.859	32.969
883.03	47.40594
883.202	45.38471
883.373	41.43761
883.544	42.23961
883.715	63.81035
883.887	54.80429
884.058	48.55332
884.229	65.23255
884.4	66.11068
884.571	73.73243
884.742	64.71829
884.914	68.71479
885.085	96.73733
885.256	113.12986
885.427	95.31199
885.598	110.48742
885.769	117.58764
885.94	109.05883
886.111	79.2014
886.282	134.79716
886.453	112.02215
886.624	82.10357
886.795	129.2039
886.966	113.11106
887.136	138.16687
887.307	108.45359
887.478	177.16101
887.649	154.08
887.82	158.80927
887.991	134.03563
888.161	171.0909
888.332	168.82233
888.503	94.96279
888.674	216.19372
888.844	230.03154
889.015	189.77912
889.186	91.14265
889.356	219.76891
889.527	95.17253
889.698	365.46508
889.868	130.12445
890.039	159.52351
890.209	140.76747
890.38	193.18589
890.551	164.69866
890.721	237.81899
890.892	192.17714
891.062	141.34857
891.233	164.93514
891.403	132.82218
891.574	109.22661
891.744	137.28906
891.914	173.6966
892.085	154.94892
892.255	58.99038
892.425	232.79374
892.596	181.5762
892.766	171.83839
892.936	229.6629
893.107	198.28878
893.277	115.43025
893.447	86.84412
893.618	71.49132
893.788	130.12474
893.958	75.53899
894.128	76.61781
894.298	83.08183
894.468	112.34338
894.639	54.9119
894.809	42.67667
894.979	62.13999
895.149	69.22351
895.319	58.54514
895.489	78.61207
895.659	93.91598
895.829	69.31088
895.999	71.95857
896.169	53.16788
896.339	67.54158
896.509	125.64693
896.679	146.94295
896.849	136.44901
897.019	189.62413
897.189	153.69768
897.358	136.28525
897.528	191.03953
897.698	78.4824
897.868	179.19732
898.038	293.62794
898.208	280.28996
898.377	96.75194
898.547	282.23891
898.717	442.24117
898.886	184.20528
899.056	271.46167
899.226	411.02334
899.395	249.70347
899.565	312.14037
899.735	210.30906
899.904	348.24768
900.074	304.38082
900.244	133.88401
900.413	525.57654
900.583	125.20992
900.752	207.5524
900.922	326.2195
901.091	46.26983
901.261	284.62806
901.43	266.60371
901.599	270.40365
901.769	594.60399
901.938	323.07321
902.108	306.76061
902.277	380.26388
902.446	114.63741
902.616	134.72499
902.785	187.66334
902.954	305.40067
903.124	203.56444
903.293	174.18459
903.462	102.30126
903.631	129.11519
903.801	97.08126
903.97	59.64677
904.139	90.39646
904.308	68.61187
904.477	60.25599
904.646	40.03778
904.816	56.9484
904.985	76.26455
905.154	113.82062
