Data from WindowProjectSample_Transmission__77__00077.txt Node

Date: Sat May 03 18:00:22 EDT 2025
User: jessi
Spectrometer: SR400872
Trigger mode: 0
Integration Time (sec): 5.000010E-1
Scans to average: 6
Electric dark correction enabled: true
Nonlinearity correction enabled: true
Boxcar width: 0
XAxis mode: Wavelengths
Number of Pixels in Spectrum: 3648
>>>>>Begin Spectral Data<<<<<
184.909	3320.88917
185.132	4063.41364
185.355	-4001.94931
185.578	4158.05844
185.801	-336.28267
186.024	-4632.50561
186.247	1645.79697
186.47	531.24685
186.693	-54.71751
186.916	5112.71438
187.139	3177.91289
187.362	-1942.54789
187.585	5417.92006
187.808	26990.69263
188.031	-88.09075
188.254	-4404.53628
188.476	808.79644
188.699	3572.96855
188.922	-207.75375
189.145	-6919.91616
189.368	-295.42423
189.591	-643.98996
189.813	-2808.63479
190.036	896.55686
190.259	-9437.34753
190.482	1275.97859
190.705	3924.4026
190.927	-2008.65936
191.15	-6981.00863
191.373	6070.54801
191.595	-1097.52482
191.818	2053.14242
192.041	-634.50668
192.263	1872.62514
192.486	-2672.39864
192.709	-23735.00656
192.931	1766.33215
193.154	-3789.38254
193.377	-2314.8359
193.599	4729.36995
193.822	1644.54249
194.044	6139.38705
194.267	959.10227
194.489	287.04051
194.712	2631.7917
194.934	8973.18456
195.157	-23351.36028
195.379	2231.13785
195.602	1570.39351
195.824	1499.37188
196.047	44018.94981
196.269	3016.72137
196.492	-1923.76106
196.714	-1267.37664
196.936	1861.89874
197.159	-13086.45667
197.381	-381.12378
197.604	-4697.95697
197.826	-17006.02422
198.048	10401.26129
198.271	-8653.49719
198.493	4518.34153
198.715	3732.03537
198.938	-838.16839
199.16	-20721.21282
199.382	1182.18366
199.604	-1652.33009
199.827	-3617.41313
200.049	2390.08017
200.271	-7011.82786
200.493	-45299.88022
200.715	3632.27341
200.938	-3027.8393
201.16	-2690.16787
201.382	-1563.03653
201.604	-3419.83039
201.826	3569.76309
202.048	3311.28034
202.27	-1028.87592
202.492	-3314.05218
202.715	-1321.15221
202.937	-17039.2665
203.159	2582.40198
203.381	2485.09254
203.603	-2928.19358
203.825	-983.85066
204.047	56184.42808
204.269	-1399.04379
204.491	-1147.46067
204.713	67255.32648
204.935	-3126.17229
205.156	-887.14833
205.378	-4447.22453
205.6	-1245.74289
205.822	2345.81711
206.044	-388.59037
206.266	6001.35959
206.488	852.47752
206.71	3462.83945
206.932	1532.37544
207.153	-1630.00681
207.375	-2738.00985
207.597	3861.63713
207.819	28568.28556
208.041	4081.71788
208.262	-1459.32912
208.484	-1182.62628
208.706	-1613.39375
208.927	2855.94805
209.149	4821.98731
209.371	-5131.29408
209.593	357.00309
209.814	-33004.33127
210.036	3190.15635
210.258	-908.73944
210.479	3941.46239
210.701	-3128.52006
210.922	-11752.98161
211.144	-972.50137
211.366	5012.27699
211.587	-2057.83309
211.809	-5008.01041
212.03	-888.39244
212.252	-616.846
212.473	3612.61356
212.695	-779.0256
212.916	-873.10161
213.138	700.69158
213.359	-1508.57369
213.581	12677.41695
213.802	-2082.422
214.024	-2429.04024
214.245	-6866.37651
214.466	-291.35022
214.688	-3098.0551
214.909	-20447.9881
215.131	-4410.70663
215.352	-2127.20007
215.573	11399.15399
215.795	1704.10174
216.016	6888.58809
216.237	-584.36763
216.459	6485.27361
216.68	-3459.59486
216.901	-2719.74866
217.122	-1832.8544
217.344	-7560.7504
217.565	-2998.39537
217.786	2243.74318
218.007	1803.64555
218.228	-588.56724
218.45	-4736.81098
218.671	1461.78597
218.892	3713.68043
219.113	1651.78269
219.334	279.69935
219.555	-6807.06961
219.776	11849.34956
219.997	3920.08288
220.219	1860.80933
220.44	1095.86197
220.661	956.24548
220.882	-2655.92611
221.103	-1057.08587
221.324	2710.85486
221.545	3082.3616
221.766	-3423.23263
221.987	-581.14715
222.208	-10666.45749
222.429	172945.83447
222.65	-412.74875
222.87	-9564.66602
223.091	2591.16144
223.312	-1189.25247
223.533	2352.09773
223.754	2107.01156
223.975	2862.76105
224.196	-6022.45731
224.417	-2767.17638
224.637	8070.86479
224.858	1150.07005
225.079	1365.63319
225.3	1219.4632
225.521	4880.36877
225.741	922.03859
225.962	1217.03711
226.183	-543.47085
226.404	1438.03921
226.624	1144.01136
226.845	1648.81075
227.066	883.79171
227.286	554.44787
227.507	215.67046
227.728	181.98871
227.948	282.09169
228.169	91.57014
228.389	94.06855
228.61	51.48585
228.831	64.88344
229.051	8.09351
229.272	37.68858
229.492	51.6271
229.713	14.28385
229.933	38.06433
230.154	32.73366
230.374	53.45848
230.595	37.16341
230.815	26.76047
231.036	41.35551
231.256	-6.17289
231.477	74.16528
231.697	41.2818
231.917	44.24067
232.138	66.01795
232.358	127.91624
232.579	129.4448
232.799	21.82913
233.019	107.29966
233.24	134.24494
233.46	44.70931
233.68	79.32379
233.901	56.82941
234.121	32.6361
234.341	14.74763
234.561	-5.44376
234.782	27.40788
235.002	82.61019
235.222	-1.25651
235.442	68.84067
235.662	36.58235
235.883	75.95211
236.103	64.5546
236.323	44.25455
236.543	33.14584
236.763	48.05384
236.983	48.64441
237.203	52.00398
237.423	73.57775
237.643	107.56125
237.864	92.65513
238.084	25.17765
238.304	37.10094
238.524	60.27502
238.744	41.95604
238.964	74.12994
239.184	69.5284
239.404	72.38805
239.624	40.99172
239.843	68.79011
240.063	36.49872
240.283	26.40483
240.503	28.21715
240.723	27.22787
240.943	14.59104
241.163	20.47338
241.383	13.87594
241.603	6.59407
241.822	9.82394
242.042	7.70385
242.262	8.70971
242.482	10.25207
242.702	11.75893
242.921	3.99313
243.141	8.15093
243.361	6.87885
243.581	9.96947
243.8	9.766
244.02	5.39903
244.24	11.22687
244.459	10.25972
244.679	20.43511
244.899	12.94581
245.118	17.05505
245.338	12.95755
245.558	16.38154
245.777	9.37507
245.997	10.66093
246.216	11.21058
246.436	6.34326
246.655	4.58475
246.875	3.2027
247.094	6.47646
247.314	2.36272
247.533	3.58181
247.753	4.71055
247.972	3.66094
248.192	1.53988
248.411	2.31695
248.631	4.37458
248.85	5.10941
249.07	3.53921
249.289	7.28192
249.508	5.13391
249.728	8.39829
249.947	9.08893
250.166	9.58586
250.386	5.8164
250.605	8.03749
250.824	11.55307
251.044	8.40944
251.263	27.86066
251.482	15.29964
251.701	13.14493
251.921	0.4834
252.14	4.90678
252.359	4.44051
252.578	10.77143
252.798	4.46541
253.017	10.4181
253.236	5.34457
253.455	6.32439
253.674	12.90933
253.893	6.20645
254.112	9.24935
254.331	13.46922
254.551	11.18802
254.77	6.22264
254.989	17.09043
255.208	13.13895
255.427	16.21259
255.646	13.54951
255.865	22.65429
256.084	10.64587
256.303	12.70405
256.522	16.08441
256.741	4.22172
256.96	4.14718
257.179	11.27345
257.397	12.14975
257.616	5.49448
257.835	7.49056
258.054	16.86446
258.273	10.05691
258.492	12.08475
258.711	7.17214
258.93	2.8117
259.148	4.97096
259.367	4.56473
259.586	6.14241
259.805	2.92523
260.023	5.3666
260.242	4.01646
260.461	3.06385
260.68	1.78015
260.898	4.64147
261.117	1.82036
261.336	1.2599
261.554	4.21658
261.773	3.83194
261.992	1.1257
262.21	3.77786
262.429	4.96797
262.648	7.9471
262.866	9.0771
263.085	6.25036
263.303	5.81893
263.522	10.14897
263.74	10.30828
263.959	16.12055
264.178	8.9993
264.396	8.21181
264.615	5.44197
264.833	13.20442
265.051	11.33197
265.27	12.14327
265.488	12.7945
265.707	8.23771
265.925	12.16277
266.144	5.40709
266.362	7.13218
266.58	6.80296
266.799	5.8106
267.017	6.59334
267.235	5.84153
267.454	3.6811
267.672	2.45773
267.89	4.79868
268.109	5.10039
268.327	5.11619
268.545	1.40895
268.763	4.93478
268.982	1.65092
269.2	5.47749
269.418	3.67253
269.636	3.04636
269.854	5.03796
270.073	4.07736
270.291	1.88225
270.509	2.45744
270.727	4.89439
270.945	7.89264
271.163	7.86789
271.381	2.33213
271.599	3.34327
271.817	5.73882
272.036	2.16338
272.254	3.52043
272.472	3.02946
272.69	2.96751
272.908	2.64202
273.126	4.6704
273.344	5.87115
273.562	2.33881
273.779	2.96545
273.997	4.48627
274.215	4.79009
274.433	3.88787
274.651	5.05188
274.869	5.47651
275.087	3.21168
275.305	5.22053
275.523	2.86011
275.74	3.68926
275.958	6.33036
276.176	9.13186
276.394	2.70485
276.612	3.54813
276.829	3.51514
277.047	3.26541
277.265	3.54184
277.483	4.04688
277.7	4.82561
277.918	4.02067
278.136	7.40991
278.353	3.48526
278.571	2.00116
278.789	5.79178
279.006	1.27918
279.224	3.32298
279.442	5.89736
279.659	3.53253
279.877	2.89707
280.094	6.2233
280.312	1.67605
280.529	3.94129
280.747	1.15232
280.964	3.12541
281.182	6.76585
281.399	3.10249
281.617	4.27734
281.834	2.96985
282.052	2.50273
282.269	3.30935
282.487	2.98516
282.704	2.25709
282.921	2.77285
283.139	3.79533
283.356	4.88863
283.574	3.95901
283.791	2.28734
284.008	6.06315
284.226	3.38589
284.443	3.61237
284.66	4.54944
284.877	3.93247
285.095	2.57904
285.312	1.75578
285.529	1.34181
285.746	1.1355
285.964	2.22773
286.181	1.44773
286.398	2.23315
286.615	3.09647
286.832	2.88938
287.05	1.13085
287.267	2.00469
287.484	2.35536
287.701	3.23587
287.918	3.00593
288.135	3.06057
288.352	1.70709
288.569	1.77893
288.786	2.73408
289.003	2.11695
289.22	3.22066
289.437	2.05327
289.654	3.32852
289.871	3.54348
290.088	3.35332
290.305	2.65523
290.522	2.04024
290.739	2.53037
290.956	3.42731
291.173	4.30922
291.39	4.03933
291.607	2.89793
291.824	1.97078
292.04	1.29113
292.257	3.29904
292.474	3.89665
292.691	2.37882
292.908	1.2844
293.125	2.07223
293.341	1.38925
293.558	5.70096
293.775	2.4332
293.992	2.43133
294.208	1.10531
294.425	1.51575
294.642	2.34186
294.858	2.68633
295.075	0.89932
295.292	2.18427
295.508	2.73509
295.725	4.06985
295.942	2.01253
296.158	1.60911
296.375	2.45458
296.591	1.8912
296.808	2.00069
297.024	2.21089
297.241	2.49874
297.458	2.74325
297.674	0.34007
297.891	2.17792
298.107	1.93409
298.323	1.36289
298.54	3.24549
298.756	1.80021
298.973	0.93452
299.189	3.43105
299.406	1.77869
299.622	3.41083
299.838	3.53067
300.055	3.2281
300.271	1.38222
300.487	1.36996
300.704	1.92304
300.92	1.36463
301.136	4.9849
301.353	3.50487
301.569	2.48878
301.785	2.96269
302.001	3.52297
302.218	3.22533
302.434	3.40216
302.65	1.52531
302.866	2.55796
303.083	5.1565
303.299	5.00686
303.515	2.79063
303.731	3.41292
303.947	1.70043
304.163	2.42593
304.379	3.41165
304.595	3.56323
304.812	2.53835
305.028	2.45494
305.244	2.81154
305.46	3.74715
305.676	4.28552
305.892	4.74074
306.108	3.51843
306.324	2.85514
306.54	5.14996
306.756	4.01997
306.972	3.61405
307.187	3.35758
307.403	4.777
307.619	2.75329
307.835	4.28616
308.051	4.4965
308.267	2.27892
308.483	4.98137
308.699	3.83347
308.914	3.67436
309.13	3.40722
309.346	2.39173
309.562	2.9298
309.778	2.39584
309.993	4.0597
310.209	4.05801
310.425	2.48009
310.641	3.75607
310.856	3.14969
311.072	2.79939
311.288	3.69083
311.503	4.30545
311.719	2.2713
311.935	2.37686
312.15	4.55103
312.366	4.37993
312.581	4.62683
312.797	4.31735
313.013	4.87981
313.228	3.59339
313.444	3.77295
313.659	3.26083
313.875	4.35415
314.09	3.63739
314.306	5.03179
314.521	4.76033
314.737	4.75173
314.952	4.17418
315.168	3.99027
315.383	4.53519
315.599	3.34311
315.814	3.65997
316.029	4.55461
316.245	2.94935
316.46	2.01996
316.675	5.1056
316.891	5.84675
317.106	6.66561
317.321	4.29511
317.537	4.77576
317.752	4.7914
317.967	4.94653
318.183	3.30922
318.398	3.47531
318.613	5.21913
318.828	5.58893
319.043	4.40111
319.259	3.6363
319.474	4.47682
319.689	5.24911
319.904	2.36423
320.119	5.26169
320.334	4.18122
320.549	3.97427
320.765	4.97321
320.98	4.57592
321.195	4.31305
321.41	4.20071
321.625	4.69729
321.84	5.76657
322.055	5.66016
322.27	3.39987
322.485	2.85617
322.7	4.26608
322.915	4.85347
323.13	3.57502
323.345	6.14805
323.56	5.32983
323.775	5.396
323.989	4.75315
324.204	4.27331
324.419	5.21226
324.634	3.08027
324.849	4.18323
325.064	7.04333
325.279	5.66112
325.493	5.04362
325.708	5.24898
325.923	3.37242
326.138	4.24114
326.352	6.0702
326.567	5.06131
326.782	3.75964
326.997	3.90892
327.211	4.86818
327.426	4.62274
327.641	4.61721
327.855	3.02516
328.07	5.20666
328.285	6.34122
328.499	4.20824
328.714	4.89515
328.928	4.95362
329.143	4.76901
329.358	5.57056
329.572	5.62416
329.787	6.21683
330.001	7.21935
330.216	2.8998
330.43	6.85953
330.645	5.74853
330.859	5.21465
331.074	3.51016
331.288	4.43868
331.503	6.57819
331.717	3.16798
331.931	4.51394
332.146	4.8424
332.36	6.70815
332.575	4.97581
332.789	4.56405
333.003	4.76049
333.218	5.466
333.432	4.58825
333.646	5.5667
333.86	6.65657
334.075	6.6849
334.289	4.37712
334.503	3.65196
334.717	5.8234
334.932	5.09796
335.146	5.72044
335.36	3.67101
335.574	5.53751
335.788	4.80286
336.003	5.72853
336.217	5.85157
336.431	5.12395
336.645	4.43451
336.859	3.72207
337.073	4.62319
337.287	5.22899
337.501	3.65131
337.715	5.50792
337.929	5.42177
338.143	4.06725
338.357	4.9092
338.571	4.66379
338.785	5.86185
338.999	4.54777
339.213	4.74157
339.427	3.76977
339.641	6.04519
339.855	4.56118
340.069	3.91737
340.283	5.63212
340.497	6.43977
340.711	5.62704
340.924	5.16184
341.138	4.212
341.352	3.7429
341.566	5.25012
341.78	3.87522
341.993	4.37743
342.207	4.26311
342.421	5.57258
342.635	5.16229
342.848	4.91303
343.062	2.52129
343.276	4.59735
343.49	6.96469
343.703	4.65785
343.917	6.14921
344.131	6.16503
344.344	4.23919
344.558	4.62229
344.771	4.14159
344.985	6.36466
345.199	7.06585
345.412	5.55161
345.626	5.79866
345.839	3.70831
346.053	4.04108
346.266	4.35572
346.48	5.72248
346.693	5.5256
346.907	5.80161
347.12	4.25117
347.334	5.15447
347.547	5.64264
347.76	5.04369
347.974	6.09857
348.187	5.34253
348.401	4.96201
348.614	4.25424
348.827	4.93585
349.041	5.66718
349.254	3.52914
349.467	5.1208
349.681	4.44521
349.894	4.33592
350.107	6.37394
350.32	7.0657
350.534	4.00778
350.747	5.14966
350.96	4.57126
351.173	4.55479
351.386	5.11525
351.6	4.63561
351.813	5.06392
352.026	5.18908
352.239	4.72558
352.452	4.77576
352.665	6.50831
352.878	4.80298
353.092	7.40995
353.305	5.98206
353.518	5.50077
353.731	4.3207
353.944	6.29106
354.157	4.88937
354.37	5.01012
354.583	4.03235
354.796	4.50387
355.009	6.22363
355.222	5.71372
355.435	5.60232
355.647	6.72998
355.86	4.94996
356.073	5.55851
356.286	5.09319
356.499	6.57572
356.712	6.38909
356.925	6.18321
357.138	6.62645
357.35	4.94692
357.563	5.32685
357.776	6.17704
357.989	5.85779
358.201	6.37121
358.414	5.96399
358.627	6.9216
358.84	5.76245
359.052	4.67121
359.265	5.05939
359.478	6.59221
359.69	3.68029
359.903	6.5178
360.116	6.90244
360.328	4.70649
360.541	6.60431
360.753	5.70265
360.966	5.79178
361.179	6.06872
361.391	5.9991
361.604	5.50905
361.816	5.90311
362.029	5.82656
362.241	5.50834
362.454	6.14367
362.666	5.42284
362.879	6.65672
363.091	5.84136
363.304	5.69353
363.516	5.91029
363.728	5.21419
363.941	6.51784
364.153	6.34107
364.366	4.59197
364.578	5.25477
364.79	6.15562
365.003	6.62829
365.215	5.55027
365.427	6.62097
365.639	6.97683
365.852	6.31282
366.064	7.55725
366.276	6.02209
366.488	6.39523
366.701	5.92536
366.913	5.90744
367.125	6.02781
367.337	5.32828
367.549	5.87375
367.762	6.13808
367.974	6.00864
368.186	6.0076
368.398	6.98747
368.61	6.29619
368.822	6.79795
369.034	5.82808
369.246	7.14768
369.458	8.39155
369.67	5.39614
369.882	7.48859
370.094	4.46464
370.306	7.28409
370.518	5.88785
370.73	5.83363
370.942	5.899
371.154	6.21751
371.366	6.29743
371.578	6.90004
371.79	6.23357
372.002	7.21749
372.214	8.24332
372.425	6.22714
372.637	7.87962
372.849	6.74477
373.061	4.66646
373.273	6.76377
373.484	6.88854
373.696	7.08072
373.908	4.80568
374.12	7.12015
374.331	7.13685
374.543	5.63463
374.755	5.4303
374.967	6.39005
375.178	7.49657
375.39	6.28688
375.602	6.64781
375.813	5.46085
376.025	5.78432
376.236	6.75748
376.448	6.77322
376.66	6.62298
376.871	6.70473
377.083	7.36348
377.294	8.26384
377.506	6.47583
377.717	8.00682
377.929	7.00942
378.14	6.68214
378.352	7.19857
378.563	7.46563
378.775	7.82648
378.986	6.02244
379.197	6.95263
379.409	6.24291
379.62	7.44886
379.832	7.06226
380.043	6.69121
380.254	6.93886
380.466	5.82788
380.677	8.96615
380.888	8.55712
381.1	9.06897
381.311	9.33025
381.522	7.30492
381.733	9.09135
381.945	6.96938
382.156	6.74182
382.367	6.81342
382.578	9.3301
382.789	9.42635
383.001	6.30513
383.212	8.56284
383.423	8.5111
383.634	7.82459
383.845	7.72087
384.056	6.77102
384.267	7.11054
384.478	7.37743
384.69	6.28625
384.901	7.72012
385.112	7.39498
385.323	8.68107
385.534	7.68671
385.745	7.77392
385.956	7.60028
386.167	6.64671
386.378	7.67666
386.588	6.94289
386.799	6.70561
387.01	6.12607
387.221	8.11012
387.432	7.51026
387.643	8.5144
387.854	7.16488
388.065	7.13885
388.275	7.26351
388.486	6.79524
388.697	7.46728
388.908	6.77188
389.119	8.23288
389.329	8.50744
389.54	7.38165
389.751	7.7674
389.962	8.30631
390.172	7.33041
390.383	7.39571
390.594	7.05141
390.804	7.02719
391.015	7.25439
391.226	7.74903
391.436	7.96896
391.647	7.93744
391.858	7.97197
392.068	6.48066
392.279	6.98694
392.489	7.99525
392.7	8.34155
392.91	7.23364
393.121	7.08856
393.331	7.99694
393.542	8.6331
393.752	8.43523
393.963	8.07878
394.173	8.25995
394.384	8.32736
394.594	7.78496
394.804	6.95906
395.015	7.73067
395.225	8.28222
395.436	7.09614
395.646	8.20174
395.856	7.55852
396.067	6.7249
396.277	8.46474
396.487	8.07925
396.697	8.10532
396.908	8.47043
397.118	8.18585
397.328	7.75758
397.538	8.54399
397.749	7.32924
397.959	8.62936
398.169	8.07432
398.379	6.92065
398.589	8.06955
398.8	8.10086
399.01	8.13754
399.22	7.86499
399.43	9.47608
399.64	7.94331
399.85	8.15234
400.06	7.97521
400.27	7.38721
400.48	7.68122
400.69	8.64738
400.9	7.45564
401.11	7.20058
401.32	8.39877
401.53	7.45817
401.74	8.98569
401.95	8.09524
402.16	8.01261
402.37	8.00922
402.58	7.5465
402.79	8.34649
403	8.51209
403.209	7.44889
403.419	8.81358
403.629	7.33768
403.839	8.73619
404.049	8.74417
404.258	7.88444
404.468	7.78203
404.678	8.68234
404.888	8.81921
405.097	8.17295
405.307	8.08352
405.517	8.47653
405.727	8.52828
405.936	7.79669
406.146	8.61293
406.356	9.18852
406.565	8.15701
406.775	7.8799
406.984	7.87582
407.194	9.79225
407.404	8.34678
407.613	8.5267
407.823	8.71803
408.032	9.11515
408.242	8.72508
408.451	7.8271
408.661	8.21148
408.87	9.42735
409.08	7.59534
409.289	8.58822
409.499	8.40266
409.708	8.40443
409.918	6.89977
410.127	8.57598
410.336	9.4236
410.546	9.17931
410.755	8.13634
410.964	8.12602
411.174	7.64202
411.383	8.88085
411.592	8.53669
411.802	7.87218
412.011	8.81989
412.22	8.25004
412.429	9.13988
412.639	9.55346
412.848	8.97038
413.057	9.63403
413.266	9.10102
413.475	8.49593
413.685	8.59809
413.894	9.23937
414.103	9.22011
414.312	8.95184
414.521	8.40832
414.73	8.97235
414.939	9.78871
415.148	9.12041
415.357	8.79412
415.566	8.66802
415.776	8.66935
415.985	8.66928
416.194	9.39796
416.403	10.03359
416.611	7.86856
416.82	8.66373
417.029	9.16305
417.238	8.61576
417.447	8.40145
417.656	8.93993
417.865	8.77104
418.074	9.33828
418.283	10.14127
418.492	11.31097
418.7	10.92519
418.909	12.80899
419.118	11.24255
419.327	11.92338
419.536	11.70993
419.744	11.97888
419.953	13.56898
420.162	13.69412
420.371	12.85949
420.579	13.80208
420.788	14.63259
420.997	14.94868
421.205	15.12299
421.414	14.6433
421.623	15.01901
421.831	14.39594
422.04	14.99759
422.249	13.90917
422.457	14.25803
422.666	13.40563
422.874	14.36139
423.083	14.45968
423.291	14.51961
423.5	14.60241
423.708	14.90746
423.917	15.67636
424.125	14.78685
424.334	14.7752
424.542	16.86687
424.751	15.85724
424.959	15.25741
425.167	15.69834
425.376	15.30268
425.584	13.85113
425.793	13.79094
426.001	12.45516
426.209	12.77407
426.418	11.26647
426.626	10.62697
426.834	10.14111
427.042	10.1283
427.251	9.52352
427.459	10.38704
427.667	9.76483
427.875	8.86207
428.084	9.27258
428.292	10.45359
428.5	10.32508
428.708	9.06587
428.916	9.14235
429.124	9.67839
429.333	9.60484
429.541	9.67845
429.749	9.83184
429.957	9.69452
430.165	11.3001
430.373	8.97649
430.581	9.63019
430.789	10.70783
430.997	9.64304
431.205	9.321
431.413	10.15115
431.621	9.71501
431.829	10.13148
432.037	9.78305
432.245	10.08597
432.453	10.25886
432.661	10.08778
432.869	11.55097
433.076	10.20167
433.284	10.90401
433.492	11.79068
433.7	11.98111
433.908	11.07318
434.116	11.33985
434.323	10.95125
434.531	10.82486
434.739	10.89734
434.947	10.5763
435.154	10.75287
435.362	10.16479
435.57	10.0104
435.778	9.77117
435.985	10.29266
436.193	9.68398
436.401	10.91443
436.608	10.15061
436.816	9.95277
437.023	11.08696
437.231	11.28296
437.439	10.43175
437.646	10.55967
437.854	10.59487
438.061	10.80466
438.269	10.43964
438.476	10.92799
438.684	10.94262
438.891	11.31617
439.099	11.28918
439.306	11.26767
439.514	11.29045
439.721	12.92898
439.929	12.40535
440.136	13.7314
440.343	13.89691
440.551	13.43345
440.758	15.42583
440.965	13.96539
441.173	13.63904
441.38	13.16522
441.587	12.91951
441.795	12.70667
442.002	12.15278
442.209	12.03116
442.416	11.76537
442.624	11.36825
442.831	11.02663
443.038	10.38992
443.245	10.07369
443.452	10.29424
443.66	11.09134
443.867	10.47355
444.074	10.3324
444.281	10.88145
444.488	11.34166
444.695	11.89848
444.902	12.06954
445.109	13.61891
445.316	13.35714
445.523	14.06918
445.73	14.17823
445.937	15.17034
446.144	15.8094
446.351	16.37693
446.558	15.00144
446.765	17.33995
446.972	16.3491
447.179	15.74322
447.386	16.39068
447.593	14.56945
447.8	15.47241
448.007	13.80193
448.214	12.93213
448.42	12.26377
448.627	12.8963
448.834	11.85584
449.041	11.21406
449.248	10.95082
449.454	11.12075
449.661	11.81925
449.868	10.45736
450.075	10.1492
450.281	9.62057
450.488	10.01452
450.695	10.0019
450.901	10.12317
451.108	9.99679
451.315	11.17635
451.521	10.54104
451.728	11.2085
451.935	10.08206
452.141	10.49153
452.348	10.59951
452.554	10.70328
452.761	10.44037
452.967	11.73389
453.174	10.8455
453.38	10.76404
453.587	9.9561
453.793	10.82485
454	10.8833
454.206	11.8532
454.413	11.17055
454.619	10.95139
454.825	10.1468
455.032	11.21544
455.238	10.94243
455.445	9.83392
455.651	10.73538
455.857	9.55834
456.064	10.56568
456.27	10.50715
456.476	10.29356
456.682	9.81991
456.889	10.83829
457.095	10.97074
457.301	11.87258
457.507	10.79949
457.714	10.75942
457.92	10.83613
458.126	10.31299
458.332	10.82569
458.538	11.02972
458.744	12.05368
458.951	12.71653
459.157	15.11249
459.363	14.5284
459.569	14.91844
459.775	15.80777
459.981	15.59289
460.187	16.04493
460.393	16.18899
460.599	16.00697
460.805	14.77921
461.011	13.61849
461.217	13.54061
461.423	12.31045
461.629	11.38113
461.835	11.40308
462.041	11.08381
462.247	11.93829
462.453	10.88505
462.658	10.86226
462.864	11.42579
463.07	11.11364
463.276	11.05478
463.482	11.13539
463.688	12.09006
463.893	10.48872
464.099	10.87324
464.305	12.05911
464.511	10.62788
464.716	10.92916
464.922	11.78125
465.128	10.39306
465.333	11.92328
465.539	11.50067
465.745	11.29207
465.95	11.17238
466.156	13.00773
466.362	11.73571
466.567	11.049
466.773	10.8832
466.978	12.13888
467.184	10.52889
467.389	10.1584
467.595	11.47516
467.8	10.74011
468.006	12.14508
468.211	11.93192
468.417	10.58978
468.622	11.47179
468.828	11.53407
469.033	11.54874
469.239	12.98637
469.444	10.72201
469.649	11.65407
469.855	11.29512
470.06	11.46232
470.266	10.54439
470.471	11.82863
470.676	11.49263
470.881	10.20015
471.087	12.29878
471.292	12.35907
471.497	10.43403
471.703	11.30888
471.908	11.17775
472.113	11.53061
472.318	12.01833
472.523	10.69038
472.729	11.66505
472.934	11.65423
473.139	11.2797
473.344	11.79213
473.549	12.37482
473.754	11.00431
473.959	12.83208
474.164	11.06307
474.369	11.26861
474.575	11.81666
474.78	11.47914
474.985	11.21631
475.19	10.28689
475.395	10.98539
475.6	11.3976
475.804	12.33986
476.009	11.55507
476.214	11.23001
476.419	11.18799
476.624	10.52033
476.829	10.98773
477.034	11.88727
477.239	11.27414
477.444	11.56705
477.648	12.09103
477.853	11.79877
478.058	11.50526
478.263	11.06873
478.468	11.08887
478.672	11.21309
478.877	12.65764
479.082	12.66176
479.287	11.78669
479.491	11.60433
479.696	11.09597
479.901	12.15701
480.105	12.00553
480.31	11.18176
480.515	11.82498
480.719	13.19524
480.924	11.91117
481.128	11.78156
481.333	13.3046
481.538	13.78817
481.742	14.25549
481.947	15.96964
482.151	17.21578
482.356	18.59244
482.56	21.92631
482.765	24.67184
482.969	29.6525
483.174	33.32197
483.378	38.00684
483.582	39.4898
483.787	41.89663
483.991	42.64424
484.196	42.871
484.4	41.78839
484.604	41.36471
484.809	37.85218
485.013	35.31612
485.217	31.59825
485.422	28.18493
485.626	25.41412
485.83	24.2911
486.034	23.59173
486.239	24.30163
486.443	25.08406
486.647	25.70396
486.851	27.87055
487.055	29.69396
487.26	30.13833
487.464	31.29662
487.668	30.8505
487.872	31.60955
488.076	31.55666
488.28	30.07845
488.484	28.24811
488.688	27.13062
488.892	25.78921
489.096	23.61233
489.3	21.65568
489.504	20.34375
489.708	19.39102
489.912	18.99307
490.116	18.54651
490.32	18.49675
490.524	20.33387
490.728	21.59407
490.932	22.93957
491.136	24.59642
491.34	26.15568
491.544	26.86467
491.748	26.88651
491.951	26.62063
492.155	25.83934
492.359	24.88593
492.563	22.49285
492.767	21.03019
492.97	18.6816
493.174	16.83894
493.378	15.15165
493.582	13.4602
493.785	12.883
493.989	12.54107
494.193	12.00686
494.396	11.28103
494.6	11.69466
494.804	11.01343
495.007	10.81818
495.211	11.26148
495.414	11.33333
495.618	12.03551
495.822	12.89525
496.025	12.39312
496.229	13.22541
496.432	12.97629
496.636	13.33312
496.839	13.55376
497.043	14.47035
497.246	13.86389
497.45	13.46115
497.653	13.79041
497.856	13.29573
498.06	12.78887
498.263	12.58667
498.467	12.54635
498.67	12.91209
498.873	12.39755
499.077	11.97454
499.28	11.87652
499.483	12.12956
499.686	12.36992
499.89	11.94406
500.093	12.54156
500.296	11.52599
500.499	12.99293
500.703	11.9672
500.906	12.36426
501.109	13.08726
501.312	11.96972
501.515	11.93619
501.719	12.34594
501.922	12.80685
502.125	12.26885
502.328	12.08662
502.531	11.53393
502.734	12.1426
502.937	11.20813
503.14	12.22663
503.343	11.81294
503.546	12.07179
503.749	11.72248
503.952	12.3614
504.155	11.5615
504.358	12.57661
504.561	12.38817
504.764	11.42046
504.967	12.21084
505.17	12.11815
505.373	12.9099
505.576	12.04338
505.778	12.49418
505.981	11.50945
506.184	12.74034
506.387	10.96208
506.59	13.26426
506.793	12.82335
506.995	12.46742
507.198	10.939
507.401	12.27842
507.604	12.32941
507.806	11.57639
508.009	11.86664
508.212	12.66901
508.414	11.58976
508.617	11.89842
508.82	12.27024
509.022	13.1136
509.225	12.3755
509.427	11.383
509.63	12.8066
509.833	12.19716
510.035	11.83727
510.238	11.39814
510.44	12.93175
510.643	11.15349
510.845	13.31766
511.048	12.45315
511.25	11.98372
511.453	12.08012
511.655	12.39976
511.858	12.10139
512.06	12.71228
512.262	12.34421
512.465	12.96471
512.667	12.23686
512.869	11.41334
513.072	12.55221
513.274	12.61663
513.476	12.66192
513.679	12.8014
513.881	11.60068
514.083	13.20024
514.286	11.78035
514.488	11.81214
514.69	11.65249
514.892	11.35677
515.094	12.64708
515.297	11.84862
515.499	12.42202
515.701	11.64091
515.903	13.27102
516.105	13.38994
516.307	12.5711
516.509	11.2916
516.711	11.76182
516.913	12.21304
517.116	12.33212
517.318	12.10721
517.52	13.25819
517.722	13.68846
517.924	13.31894
518.126	14.70685
518.328	14.27114
518.529	15.12419
518.731	15.86451
518.933	14.25791
519.135	14.27505
519.337	15.14646
519.539	14.04352
519.741	12.37374
519.943	12.46135
520.145	12.08309
520.346	12.85897
520.548	11.99324
520.75	12.50753
520.952	12.2373
521.153	12.82916
521.355	12.68471
521.557	11.70912
521.759	12.32187
521.96	12.16851
522.162	11.60107
522.364	12.88274
522.565	11.91744
522.767	12.76001
522.969	13.08198
523.17	12.81636
523.372	12.2743
523.573	12.24919
523.775	12.31047
523.977	11.71118
524.178	13.2284
524.38	12.00213
524.581	13.1943
524.783	12.97828
524.984	14.4083
525.186	14.73329
525.387	15.63714
525.589	15.61304
525.79	15.93258
525.991	15.94074
526.193	16.71356
526.394	15.82705
526.596	16.92306
526.797	17.56824
526.998	17.19669
527.2	18.31348
527.401	21.3627
527.602	23.16052
527.803	26.99835
528.005	28.99631
528.206	31.26895
528.407	32.97598
528.608	33.17014
528.81	33.3727
529.011	32.52316
529.212	33.17096
529.413	30.75116
529.614	28.62076
529.815	26.41551
530.017	24.03671
530.218	21.31987
530.419	18.952
530.62	18.0653
530.821	17.33934
531.022	15.52944
531.223	16.56653
531.424	16.19375
531.625	16.47918
531.826	16.51039
532.027	17.42659
532.228	19.35581
532.429	19.77858
532.63	20.81748
532.831	22.20154
533.032	22.21363
533.233	23.24312
533.433	22.78284
533.634	23.01937
533.835	21.92792
534.036	20.81293
534.237	19.61054
534.438	18.29406
534.638	16.12378
534.839	15.56378
535.04	14.98063
535.241	14.24687
535.441	15.74602
535.642	15.08192
535.843	14.7101
536.043	15.31782
536.244	15.55146
536.445	15.83246
536.645	17.19836
536.846	16.66444
537.047	16.75988
537.247	15.05181
537.448	14.79125
537.648	14.44489
537.849	13.33879
538.049	12.83755
538.25	12.77584
538.451	13.08651
538.651	12.12079
538.851	12.66552
539.052	13.3679
539.252	13.30875
539.453	12.51007
539.653	13.24725
539.854	13.83235
540.054	15.54008
540.254	17.90384
540.455	20.02042
540.655	20.46473
540.855	22.81968
541.056	24.62198
541.256	24.31483
541.456	25.47346
541.657	24.8198
541.857	25.47194
542.057	23.55777
542.257	22.36619
542.458	22.33404
542.658	20.99104
542.858	18.56838
543.058	18.57487
543.258	17.31234
543.458	15.29253
543.659	14.54485
543.859	15.47309
544.059	15.10047
544.259	13.79683
544.459	13.81434
544.659	12.65726
544.859	13.05328
545.059	12.43267
545.259	13.05854
545.459	12.59874
545.659	13.42385
545.859	12.98553
546.059	13.29197
546.259	12.83713
546.459	12.84093
546.659	12.66699
546.859	13.67447
547.059	13.03907
547.258	12.98113
547.458	13.05516
547.658	12.25034
547.858	12.02354
548.058	12.80856
548.258	12.50896
548.457	11.93424
548.657	13.71819
548.857	12.45228
549.057	12.90828
549.256	13.22458
549.456	12.27928
549.656	11.2062
549.855	13.78521
550.055	12.27896
550.255	13.70713
550.454	12.87515
550.654	12.74364
550.853	13.73065
551.053	12.99095
551.253	12.82287
551.452	12.78704
551.652	11.90239
551.851	11.49514
552.051	12.41292
552.25	12.07835
552.45	12.05478
552.649	12.39584
552.849	12.10221
553.048	12.40964
553.248	12.9918
553.447	11.88167
553.646	13.20033
553.846	13.77608
554.045	13.03391
554.244	11.54999
554.444	13.89435
554.643	11.77877
554.842	13.70507
555.042	13.91288
555.241	12.11996
555.44	11.70283
555.64	13.00803
555.839	14.13433
556.038	12.84425
556.237	12.06627
556.436	12.56489
556.636	13.14987
556.835	12.0594
557.034	13.92835
557.233	12.43526
557.432	11.49584
557.631	13.5958
557.83	12.48225
558.029	12.18232
558.228	11.66536
558.427	12.15932
558.626	12.691
558.825	11.5787
559.024	12.59999
559.223	14.18683
559.422	12.12897
559.621	12.871
559.82	10.47229
560.019	12.40056
560.218	12.54058
560.417	10.44089
560.616	12.13515
560.815	15.13283
561.014	11.34671
561.212	13.75875
561.411	12.58924
561.61	11.50706
561.809	12.27533
562.008	13.4016
562.206	12.22147
562.405	12.91839
562.604	12.31614
562.803	12.78511
563.001	11.99902
563.2	11.56255
563.399	12.99259
563.597	11.67846
563.796	12.40344
563.995	11.48608
564.193	12.75034
564.392	12.13002
564.59	14.21951
564.789	11.09865
564.988	11.89414
565.186	12.65443
565.385	12.38982
565.583	12.30833
565.782	12.35471
565.98	12.33615
566.179	12.40869
566.377	11.82783
566.575	11.88628
566.774	13.58574
566.972	13.11542
567.171	14.14316
567.369	13.28852
567.567	12.7797
567.766	12.71881
567.964	11.00081
568.162	12.80307
568.361	13.29263
568.559	12.31619
568.757	12.80632
568.956	12.41908
569.154	12.64292
569.352	13.01882
569.55	12.21146
569.748	12.62127
569.947	11.91347
570.145	11.66437
570.343	11.93632
570.541	13.26723
570.739	11.40165
570.937	12.52375
571.135	12.87869
571.333	13.79454
571.532	13.62382
571.73	12.74054
571.928	13.37714
572.126	12.81197
572.324	12.05196
572.522	13.77976
572.72	14.86185
572.918	12.71802
573.116	12.93849
573.313	12.39427
573.511	12.42749
573.709	11.89687
573.907	13.31563
574.105	12.40612
574.303	11.28734
574.501	11.29078
574.699	12.99618
574.896	12.8506
575.094	12.73303
575.292	11.36222
575.49	13.34819
575.688	12.32775
575.885	13.46971
576.083	14.25403
576.281	13.04476
576.478	11.85366
576.676	12.95587
576.874	11.22288
577.071	12.41249
577.269	14.53907
577.467	12.60995
577.664	12.39636
577.862	13.56218
578.059	11.6637
578.257	13.23903
578.455	12.23047
578.652	12.87712
578.85	10.71669
579.047	12.48857
579.245	12.30514
579.442	12.36905
579.64	12.35682
579.837	11.15718
580.034	14.92173
580.232	12.17889
580.429	11.09739
580.627	12.66357
580.824	13.7024
581.021	12.70397
581.219	11.7891
581.416	11.6045
581.613	13.43278
581.811	13.58624
582.008	11.62636
582.205	13.25107
582.402	12.32062
582.6	14.5074
582.797	12.56304
582.994	12.31644
583.191	13.02525
583.388	12.16937
583.586	13.31213
583.783	13.525
583.98	11.79785
584.177	12.9796
584.374	9.59785
584.571	12.20537
584.768	12.1903
584.965	11.44684
585.162	12.90397
585.359	13.73899
585.556	12.73262
585.753	12.54525
585.95	10.97157
586.147	11.818
586.344	13.13421
586.541	12.09491
586.738	11.06938
586.935	12.01094
587.132	11.41651
587.329	13.43588
587.526	12.42721
587.722	17.16547
587.919	11.23173
588.116	12.96583
588.313	13.5204
588.51	14.61239
588.706	12.07529
588.903	12.78036
589.1	13.48359
589.297	14.83071
589.493	12.5445
589.69	12.77717
589.887	11.68721
590.083	11.59726
590.28	11.7031
590.477	13.27273
590.673	13.34223
590.87	14.06373
591.067	12.13842
591.263	13.10057
591.46	12.77348
591.656	11.75947
591.853	13.59668
592.049	11.50711
592.246	11.79679
592.442	13.81718
592.639	13.65446
592.835	11.39986
593.032	12.80717
593.228	10.98853
593.425	10.95932
593.621	10.6671
593.817	12.66205
594.014	11.74267
594.21	12.47486
594.406	13.46674
594.603	13.35436
594.799	11.82677
594.995	10.2033
595.192	13.71034
595.388	11.7875
595.584	12.35085
595.78	11.2057
595.977	14.75596
596.173	14.51633
596.369	12.32531
596.565	11.64462
596.761	11.24157
596.957	13.72133
597.154	11.96007
597.35	12.01111
597.546	11.83676
597.742	13.38721
597.938	12.80537
598.134	11.71791
598.33	12.62353
598.526	13.97116
598.722	12.60902
598.918	14.50013
599.114	12.94174
599.31	11.0508
599.506	12.3152
599.702	11.69258
599.898	12.51024
600.094	12.64023
600.29	12.8671
600.485	13.16096
600.681	11.53897
600.877	14.3337
601.073	12.5912
601.269	14.67087
601.465	13.70811
601.66	11.40397
601.856	10.53633
602.052	14.26035
602.248	12.01096
602.443	10.84897
602.639	11.18012
602.835	11.80413
603.03	11.52946
603.226	13.46582
603.422	11.41433
603.617	12.19127
603.813	12.17085
604.009	12.29169
604.204	13.62517
604.4	11.16031
604.595	13.62233
604.791	11.62782
604.986	12.67839
605.182	11.68174
605.377	12.207
605.573	11.92158
605.768	12.43191
605.964	13.3162
606.159	12.8238
606.355	13.74154
606.55	11.8685
606.746	13.80738
606.941	12.30241
607.136	14.88502
607.332	15.57236
607.527	10.85682
607.722	12.92614
607.918	12.14465
608.113	11.79835
608.308	13.40963
608.503	13.00824
608.699	12.97278
608.894	13.07183
609.089	11.84042
609.284	12.83083
609.479	12.16107
609.675	13.26289
609.87	12.34443
610.065	13.60778
610.26	13.46698
610.455	13.08363
610.65	12.35938
610.845	12.42285
611.04	13.23826
611.235	12.48572
611.43	11.72319
611.625	11.25671
611.82	14.48409
612.015	11.72324
612.21	14.05864
612.405	10.88625
612.6	14.50678
612.795	13.80066
612.99	13.15557
613.185	11.11802
613.38	11.53072
613.575	12.45522
613.77	15.84484
613.965	10.42102
614.159	11.45749
614.354	14.61884
614.549	13.36944
614.744	13.32605
614.938	11.13503
615.133	10.48552
615.328	13.68822
615.523	13.89673
615.717	16.45175
615.912	11.20685
616.107	12.77885
616.301	11.7946
616.496	11.44619
616.691	14.23093
616.885	13.57207
617.08	16.63711
617.274	14.02458
617.469	15.32888
617.664	12.99225
617.858	12.0627
618.053	13.29428
618.247	12.36756
618.442	9.54135
618.636	14.93837
618.831	11.61851
619.025	11.78783
619.219	16.06735
619.414	8.79174
619.608	12.45807
619.803	11.76656
619.997	15.63966
620.191	14.02417
620.386	12.98873
620.58	12.43517
620.774	10.2319
620.969	10.45518
621.163	12.65835
621.357	11.1057
621.551	12.20105
621.746	12.93885
621.94	11.76667
622.134	17.11886
622.328	15.45846
622.522	10.67978
622.716	13.79965
622.911	14.36574
623.105	13.84182
623.299	13.59749
623.493	17.07177
623.687	11.54755
623.881	11.939
624.075	13.13995
624.269	14.70424
624.463	9.73649
624.657	10.42866
624.851	13.18107
625.045	14.1202
625.239	14.46563
625.433	12.35766
625.627	14.6963
625.821	12.0823
626.015	11.68844
626.209	12.87148
626.403	10.70024
626.596	13.59325
626.79	13.79097
626.984	10.98978
627.178	13.39662
627.372	13.70588
627.565	14.14228
627.759	10.93566
627.953	11.40231
628.147	13.49012
628.34	13.53811
628.534	15.76831
628.728	12.66719
628.921	13.80784
629.115	12.84269
629.309	13.9469
629.502	14.17974
629.696	12.87826
629.89	12.49696
630.083	12.88831
630.277	13.17857
630.47	15.46191
630.664	12.39096
630.857	10.75343
631.051	13.83485
631.244	14.52269
631.438	14.05876
631.631	11.27716
631.825	15.17857
632.018	13.99041
632.212	15.73061
632.405	14.67639
632.598	11.89755
632.792	12.92394
632.985	8.86263
633.178	12.60086
633.372	12.38181
633.565	12.33671
633.758	15.05766
633.952	11.38224
634.145	11.19851
634.338	12.04231
634.531	11.8354
634.724	11.79867
634.918	12.44648
635.111	12.33894
635.304	11.9161
635.497	16.76427
635.69	13.17165
635.883	15.31631
636.077	11.17774
636.27	13.54154
636.463	13.15876
636.656	12.66978
636.849	12.25293
637.042	14.10899
637.235	15.40754
637.428	14.60196
637.621	14.65405
637.814	15.37566
638.007	15.66432
638.2	14.985
638.393	15.97004
638.586	10.81568
638.778	12.06514
638.971	13.06548
639.164	16.02696
639.357	13.18277
639.55	15.63892
639.743	14.78239
639.935	13.98866
640.128	16.84974
640.321	14.55907
640.514	13.23553
640.707	17.43286
640.899	13.91218
641.092	9.80747
641.285	26.44733
641.477	9.51626
641.67	17.55823
641.863	16.0103
642.055	14.06661
642.248	13.15183
642.441	12.86073
642.633	14.97163
642.826	16.16507
643.018	15.82423
643.211	17.17732
643.403	16.33634
643.596	18.05759
643.788	16.86153
643.981	13.22597
644.173	15.22788
644.366	13.27939
644.558	10.18006
644.751	15.32494
644.943	10.52533
645.135	16.36846
645.328	17.42756
645.52	14.67816
645.712	16.03125
645.905	19.88126
646.097	11.66392
646.289	13.62707
646.482	18.14408
646.674	12.35357
646.866	16.36922
647.058	14.78356
647.251	11.32686
647.443	12.96921
647.635	13.83315
647.827	11.38977
648.019	12.47963
648.211	13.47015
648.404	13.78828
648.596	17.09235
648.788	14.31913
648.98	14.01267
649.172	14.69489
649.364	14.19729
649.556	10.18667
649.748	19.10231
649.94	12.99052
650.132	15.07757
650.324	11.72008
650.516	12.98151
650.708	16.13984
650.9	11.0268
651.092	10.4565
651.284	11.43605
651.476	11.51203
651.667	15.18423
651.859	16.40541
652.051	13.5363
652.243	13.78513
652.435	12.77058
652.627	15.60246
652.818	14.9095
653.01	10.72907
653.202	11.51118
653.394	12.71943
653.585	14.6825
653.777	23.50201
653.969	16.45569
654.16	16.19138
654.352	11.77303
654.544	12.43606
654.735	16.20091
654.927	14.4921
655.118	17.10648
655.31	14.78449
655.502	17.39773
655.693	13.1463
655.885	16.28651
656.076	17.04494
656.268	14.35309
656.459	17.84327
656.651	16.93331
656.842	13.23041
657.034	12.84873
657.225	15.87696
657.416	17.09792
657.608	17.38842
657.799	14.77943
657.99	17.12833
658.182	13.37084
658.373	13.41471
658.564	15.96722
658.756	14.66865
658.947	14.12775
659.138	12.45863
659.33	13.52297
659.521	12.90986
659.712	13.95712
659.903	13.69179
660.094	13.31746
660.286	11.4366
660.477	17.83133
660.668	15.55994
660.859	14.2824
661.05	11.19697
661.241	15.83569
661.432	15.44055
661.623	13.65802
661.814	12.96739
662.006	11.33858
662.197	14.5958
662.388	17.32864
662.579	15.20143
662.77	17.07661
662.96	20.91867
663.151	16.30405
663.342	10.78022
663.533	15.87395
663.724	15.44304
663.915	18.83448
664.106	14.33857
664.297	19.1754
664.488	16.39214
664.678	12.558
664.869	17.09263
665.06	16.31886
665.251	14.92231
665.442	16.19181
665.632	12.06497
665.823	19.67188
666.014	7.42415
666.204	16.91667
666.395	18.22853
666.586	21.28929
666.776	17.07249
666.967	19.07577
667.158	15.74945
667.348	17.94018
667.539	12.08775
667.729	17.43686
667.92	13.04804
668.111	17.72514
668.301	16.78058
668.492	14.94189
668.682	15.63522
668.873	14.85821
669.063	12.27882
669.253	15.40221
669.444	17.02965
669.634	14.83301
669.825	20.22841
670.015	17.92304
670.206	12.53411
670.396	20.12774
670.586	14.28213
670.777	16.46071
670.967	9.53855
671.157	13.90583
671.347	13.61696
671.538	18.32768
671.728	16.71447
671.918	19.97895
672.108	16.98393
672.299	14.46816
672.489	17.04053
672.679	13.9886
672.869	16.87483
673.059	20.37263
673.249	16.30096
673.44	12.00916
673.63	15.08159
673.82	17.93218
674.01	12.76894
674.2	17.35057
674.39	23.25199
674.58	17.70087
674.77	15.60072
674.96	14.77151
675.15	27.45199
675.34	19.14987
675.53	16.19099
675.72	15.24634
675.91	11.36154
676.099	20.79756
676.289	22.04809
676.479	18.89199
676.669	14.44652
676.859	17.11665
677.049	13.11401
677.238	15.42048
677.428	21.31478
677.618	17.17396
677.808	19.02042
677.997	18.63423
678.187	12.84975
678.377	15.4646
678.567	14.345
678.756	14.35778
678.946	15.35844
679.136	11.76527
679.325	14.1416
679.515	13.42175
679.704	12.8525
679.894	17.17849
680.084	16.32195
680.273	18.53023
680.463	14.15821
680.652	13.92831
680.842	15.97785
681.031	18.60774
681.221	13.94314
681.41	17.22373
681.6	15.30219
681.789	18.31887
681.978	19.49327
682.168	16.49698
682.357	16.86615
682.547	17.95254
682.736	16.58316
682.925	20.02359
683.115	19.53343
683.304	19.26813
683.493	17.42782
683.682	17.05557
683.872	17.4241
684.061	20.36593
684.25	17.80776
684.439	21.31141
684.629	18.38449
684.818	27.36722
685.007	16.12079
685.196	15.38852
685.385	21.47234
685.574	17.74276
685.763	18.21795
685.952	19.11535
686.142	12.99423
686.331	21.16208
686.52	11.04387
686.709	21.79517
686.898	21.36048
687.087	19.06121
687.276	22.45941
687.465	19.78146
687.654	16.74618
687.842	21.79054
688.031	14.08025
688.22	21.52135
688.409	17.91174
688.598	17.9931
688.787	25.57393
688.976	18.35694
689.165	23.66896
689.353	15.9729
689.542	18.95175
689.731	20.03222
689.92	24.15185
690.108	19.9576
690.297	16.39169
690.486	18.14856
690.675	21.86071
690.863	23.59678
691.052	22.25618
691.241	19.28621
691.429	18.60081
691.618	23.69281
691.806	14.24316
691.995	16.85907
692.184	17.54413
692.372	16.7265
692.561	19.59906
692.749	18.68701
692.938	27.4249
693.126	20.82131
693.315	18.47225
693.503	20.07166
693.692	20.96136
693.88	21.89577
694.068	26.87226
694.257	19.27886
694.445	20.70995
694.634	11.89669
694.822	22.1463
695.01	23.02697
695.199	23.29621
695.387	23.64921
695.575	22.55085
695.763	18.5482
695.952	17.23411
696.14	14.19513
696.328	17.37575
696.516	19.28198
696.705	19.01475
696.893	19.95392
697.081	12.71206
697.269	21.40466
697.457	14.88705
697.645	14.79897
697.833	21.15886
698.021	15.4119
698.21	17.06558
698.398	18.0152
698.586	14.79721
698.774	14.94288
698.962	17.37903
699.15	15.51269
699.338	14.25434
699.526	19.64236
699.714	16.51563
699.901	16.34746
700.089	21.00492
700.277	15.89029
700.465	17.93138
700.653	20.74765
700.841	19.81146
701.029	15.7079
701.217	22.97421
701.404	19.24786
701.592	25.41359
701.78	26.548
701.968	18.06779
702.155	18.25443
702.343	13.27493
702.531	24.28978
702.718	20.51252
702.906	18.26197
703.094	17.83396
703.281	24.54841
703.469	20.06413
703.657	23.25832
703.844	32.04162
704.032	25.93944
704.219	17.24129
704.407	20.99708
704.595	24.72526
704.782	20.96807
704.97	18.31907
705.157	19.01134
705.345	25.86634
705.532	30.79951
705.719	21.4763
705.907	25.3847
706.094	20.8202
706.282	27.2089
706.469	19.33281
706.656	20.89367
706.844	20.33623
707.031	24.89106
707.218	21.01564
707.406	27.49621
707.593	24.43573
707.78	23.39696
707.968	20.62278
708.155	17.62273
708.342	23.80643
708.529	22.31408
708.716	22.25872
708.904	28.57556
709.091	23.69757
709.278	15.8792
709.465	29.57874
709.652	29.63967
709.839	27.2638
710.026	22.84388
710.213	15.72402
710.4	24.08665
710.587	25.31773
710.774	25.83298
710.961	26.12882
711.148	21.38003
711.335	27.35264
711.522	20.79869
711.709	23.55768
711.896	31.37115
712.083	25.07808
712.27	18.46927
712.457	22.54296
712.644	16.13037
712.831	31.09905
713.017	22.24713
713.204	25.25992
713.391	19.7814
713.578	28.32986
713.765	27.85169
713.951	24.51867
714.138	36.6478
714.325	25.7453
714.512	23.26242
714.698	18.85959
714.885	30.41235
715.072	23.86866
715.258	23.83368
715.445	20.31422
715.631	30.13599
715.818	12.44569
716.005	19.95951
716.191	25.61917
716.378	22.16591
716.564	27.39953
716.751	20.00473
716.937	21.40634
717.124	28.23747
717.31	19.6714
717.497	31.16715
717.683	21.00809
717.869	34.04478
718.056	21.12768
718.242	25.97524
718.429	23.19405
718.615	18.72443
718.801	22.85465
718.988	27.71924
719.174	26.78536
719.36	24.43588
719.547	28.63902
719.733	27.06325
719.919	25.60519
720.105	27.85784
720.291	23.42119
720.478	24.48146
720.664	24.77915
720.85	22.41041
721.036	39.53592
721.222	32.72286
721.408	23.7467
721.595	34.53644
721.781	34.51535
721.967	30.43063
722.153	34.52997
722.339	28.59808
722.525	28.32029
722.711	19.64773
722.897	18.05526
723.083	23.80892
723.269	31.67956
723.455	40.6033
723.641	41.8662
723.827	26.81169
724.012	29.30386
724.198	24.12949
724.384	32.46185
724.57	27.91581
724.756	17.73218
724.942	15.13449
725.127	31.66134
725.313	33.01827
725.499	33.14331
725.685	37.49141
725.87	27.06939
726.056	22.68236
726.242	34.97817
726.428	18.50678
726.613	31.55031
726.799	23.7795
726.985	20.58227
727.17	16.91223
727.356	35.31978
727.541	19.3147
727.727	25.91296
727.913	30.74919
728.098	22.91215
728.284	31.28018
728.469	19.8367
728.655	21.78908
728.84	31.75669
729.026	30.55651
729.211	31.75669
729.397	29.39021
729.582	29.77011
729.767	25.34253
729.953	29.2677
730.138	32.09738
730.323	14.80772
730.509	20.11689
730.694	35.3565
730.879	29.15837
731.065	27.00415
731.25	39.62412
731.435	29.45401
731.621	18.80666
731.806	23.54196
731.991	27.86511
732.176	18.89485
732.361	34.58521
732.547	29.34207
732.732	17.50795
732.917	40.53655
733.102	19.36026
733.287	22.18479
733.472	26.03084
733.657	27.88207
733.842	18.78268
734.027	22.99086
734.212	26.13924
734.397	21.26814
734.582	27.55822
734.767	32.09008
734.952	34.82165
735.137	11.61137
735.322	35.86481
735.507	28.39185
735.692	27.83941
735.877	41.78935
736.062	38.92909
736.247	29.17599
736.431	26.2317
736.616	33.93468
736.801	28.60939
736.986	26.35118
737.171	22.64556
737.355	18.42199
737.54	35.21609
737.725	28.33307
737.909	45.06192
738.094	24.54252
738.279	33.38435
738.463	26.3207
738.648	30.77724
738.833	31.22133
739.017	38.60434
739.202	25.95292
739.386	27.72169
739.571	21.17905
739.756	31.19659
739.94	28.28708
740.125	33.44263
740.309	23.1655
740.494	33.52187
740.678	27.1787
740.863	30.91715
741.047	28.81433
741.231	36.52951
741.416	23.44457
741.6	37.90435
741.785	22.2104
741.969	33.99838
742.153	36.25342
742.338	14.4312
742.522	28.12542
742.706	33.14894
742.89	17.17032
743.075	31.36695
743.259	37.96283
743.443	34.51046
743.627	36.84402
743.812	43.88255
743.996	12.12143
744.18	26.79364
744.364	24.26701
744.548	48.95609
744.732	27.52386
744.916	34.75851
745.1	33.47263
745.285	27.1928
745.469	32.5099
745.653	42.70323
745.837	20.02614
746.021	47.14213
746.205	40.41081
746.389	29.62245
746.573	28.51159
746.757	41.84052
746.94	28.56423
747.124	38.34628
747.308	20.37982
747.492	39.51156
747.676	23.40395
747.86	49.29093
748.044	25.80705
748.227	14.1166
748.411	56.00564
748.595	32.94736
748.779	22.09576
748.963	32.92328
749.146	31.28784
749.33	23.66631
749.514	22.22952
749.697	38.05085
749.881	25.38019
750.065	20.45209
750.248	31.17509
750.432	49.26552
750.616	32.17238
750.799	18.31921
750.983	46.80341
751.166	53.48579
751.35	16.85651
751.533	37.79711
751.717	37.7978
751.9	41.48408
752.084	24.63158
752.267	21.34373
752.451	24.50698
752.634	29.6228
752.818	35.1431
753.001	36.34769
753.184	38.23528
753.368	31.62663
753.551	5.11718
753.734	25.11844
753.918	48.53068
754.101	23.98098
754.284	35.61629
754.467	25.67674
754.651	24.55285
754.834	24.0189
755.017	40.06206
755.2	37.71756
755.384	22.02537
755.567	37.69008
755.75	42.27548
755.933	27.93085
756.116	33.54686
756.299	23.90019
756.482	23.36415
756.665	33.5362
756.848	31.75012
757.032	33.30385
757.215	20.37894
757.398	24.19167
757.581	24.13955
757.764	52.3122
757.947	27.95875
758.129	38.81168
758.312	9.14658
758.495	29.5972
758.678	31.58955
758.861	28.91922
759.044	48.52126
759.227	25.01628
759.41	25.80088
759.592	36.58523
759.775	27.95435
759.958	38.77052
760.141	18.48897
760.324	50.24974
760.506	43.39083
760.689	37.33788
760.872	51.79508
761.054	34.43997
761.237	25.86764
761.42	34.85984
761.602	39.94428
761.785	33.45624
761.968	40.75547
762.15	45.93726
762.333	29.13508
762.515	33.83113
762.698	26.61102
762.88	36.92932
763.063	32.63666
763.245	36.07187
763.428	23.41759
763.61	24.60278
763.793	20.54659
763.975	30.7158
764.158	27.0486
764.34	25.98239
764.522	22.51901
764.705	29.58648
764.887	40.92787
765.069	20.60549
765.252	34.33367
765.434	34.96429
765.616	29.67066
765.799	25.65241
765.981	35.19831
766.163	23.01211
766.345	38.94966
766.528	24.84963
766.71	12.42748
766.892	30.65633
767.074	40.97951
767.256	29.09923
767.438	46.46175
767.62	32.91031
767.802	51.38605
767.985	36.65737
768.167	48.82896
768.349	25.79386
768.531	38.70751
768.713	32.2354
768.895	38.72513
769.077	32.64802
769.259	56.65846
769.441	79.46634
769.623	41.87444
769.804	49.18838
769.986	50.34681
770.168	57.47291
770.35	70.77789
770.532	51.4646
770.714	53.41324
770.896	57.33851
771.077	25.3835
771.259	58.21762
771.441	48.84942
771.623	63.19858
771.804	78.43882
771.986	19.56469
772.168	39.19404
772.35	62.47807
772.531	81.99882
772.713	52.60033
772.894	63.37958
773.076	48.67066
773.258	39.95243
773.439	65.23639
773.621	74.47886
773.802	34.52022
773.984	42.13646
774.166	53.4422
774.347	75.67527
774.529	62.16362
774.71	19.45998
774.891	45.51278
775.073	41.21322
775.254	69.40241
775.436	40.61586
775.617	75.07176
775.799	39.43858
775.98	76.2143
776.161	78.12228
776.343	73.96544
776.524	49.08359
776.705	43.5069
776.886	23.2803
777.068	53.61454
777.249	88.63385
777.43	81.39557
777.611	32.15405
777.793	43.28701
777.974	77.16574
778.155	40.42654
778.336	33.73908
778.517	81.25882
778.698	34.92082
778.879	21.06836
779.061	6.081
779.242	56.34222
779.423	57.0058
779.604	39.71638
779.785	46.66419
779.966	54.79411
780.147	61.06156
780.328	67.07691
780.509	89.65519
780.69	61.54253
780.871	38.86482
781.051	27.18282
781.232	54.71998
781.413	53.4513
781.594	41.73535
781.775	42.65972
781.956	38.6241
782.137	19.60598
782.317	36.01165
782.498	53.39647
782.679	52.70789
782.86	49.01793
783.04	38.34124
783.221	55.46666
783.402	82.72659
783.583	48.49474
783.763	62.25509
783.944	43.02523
784.124	25.87696
784.305	75.77272
784.486	58.21242
784.666	47.9268
784.847	25.91633
785.027	92.82606
785.208	35.9114
785.388	41.47308
785.569	39.65169
785.749	44.86027
785.93	42.0628
786.11	25.27286
786.291	56.69693
786.471	48.7044
786.652	59.27569
786.832	46.2465
787.012	56.25406
787.193	30.34591
787.373	49.09229
787.553	41.8763
787.734	52.95035
787.914	43.35278
788.094	57.40565
788.275	53.23384
788.455	40.36478
788.635	31.9995
788.815	52.07159
788.995	31.2759
789.176	24.00288
789.356	34.96606
789.536	43.5809
789.716	57.03744
789.896	34.25697
790.076	39.01111
790.256	48.44503
790.436	15.27052
790.616	30.20677
790.796	53.28349
790.976	41.14786
791.156	34.22281
791.336	60.13361
791.516	52.86963
791.696	45.22648
791.876	26.52215
792.056	50.28729
792.236	62.20163
792.416	58.91963
792.596	58.06213
792.776	55.49955
792.956	58.1216
793.135	68.98653
793.315	30.38851
793.495	70.72566
793.675	56.78806
793.854	60.07902
794.034	63.75668
794.214	30.05265
794.394	59.96985
794.573	68.35926
794.753	46.77609
794.933	31.31609
795.112	47.77033
795.292	62.13416
795.472	79.97805
795.651	30.79118
795.831	48.0261
796.01	46.47089
796.19	44.74024
796.369	47.29111
796.549	56.00141
796.728	44.068
796.908	30.43782
797.087	32.75645
797.267	44.39139
797.446	29.0091
797.626	52.20976
797.805	55.11619
797.984	36.93646
798.164	57.40113
798.343	34.06047
798.522	51.90275
798.702	52.03223
798.881	27.56839
799.06	43.79542
799.239	19.02778
799.419	33.50692
799.598	74.47397
799.777	57.62077
799.956	66.94423
800.136	40.59491
800.315	34.4944
800.494	54.87848
800.673	63.49757
800.852	57.23499
801.031	65.91146
801.21	59.28145
801.389	39.75072
801.568	50.65581
801.747	79.69473
801.926	48.01372
802.105	74.44351
802.284	41.25314
802.463	73.48357
802.642	51.80963
802.821	51.76771
803	68.56801
803.179	61.90892
803.358	71.55081
803.537	39.87962
803.716	54.05266
803.895	38.52128
804.073	48.31149
804.252	38.98036
804.431	56.41199
804.61	50.59294
804.789	69.82498
804.967	39.73868
805.146	41.88465
805.325	89.73378
805.503	58.84439
805.682	28.77461
805.861	91.83245
806.039	68.8029
806.218	38.58512
806.397	52.1688
806.575	48.81087
806.754	56.1496
806.932	37.00089
807.111	75.44972
807.289	63.01496
807.468	49.78131
807.646	65.07914
807.825	58.95026
808.003	53.7049
808.182	64.56037
808.36	51.24816
808.539	37.22559
808.717	75.67153
808.895	36.48343
809.074	58.96378
809.252	50.88987
809.43	65.09216
809.609	74.16817
809.787	87.98211
809.965	47.33928
810.144	54.33621
810.322	49.02081
810.5	60.69115
810.678	50.75838
810.856	92.95185
811.035	71.04472
811.213	70.15696
811.391	71.95404
811.569	53.70079
811.747	113.6208
811.925	73.63029
812.103	42.37415
812.281	48.92537
812.459	92.90092
812.637	97.78904
812.816	73.96279
812.994	92.48586
813.171	77.6497
813.349	65.5855
813.527	77.31032
813.705	80.50784
813.883	95.26743
814.061	72.63565
814.239	92.53883
814.417	99.66983
814.595	65.49449
814.773	62.56468
814.95	62.1202
815.128	66.19249
815.306	56.64404
815.484	55.33312
815.662	41.27837
815.839	35.1968
816.017	41.32597
816.195	75.45938
816.372	52.79624
816.55	74.76
816.728	83.93873
816.905	58.29642
817.083	81.72199
817.261	56.777
817.438	101.44055
817.616	93.01359
817.793	44.09897
817.971	77.7527
818.148	66.19355
818.326	82.79285
818.503	63.40846
818.681	83.43695
818.858	48.81694
819.036	56.10846
819.213	59.54393
819.391	44.4077
819.568	40.61446
819.745	37.93933
819.923	66.36349
820.1	44.20582
820.277	39.17696
820.455	46.00056
820.632	49.08251
820.809	50.5973
820.986	32.17752
821.164	26.58978
821.341	24.53597
821.518	34.10636
821.695	27.25542
821.872	26.15414
822.05	23.46026
822.227	19.57464
822.404	21.07534
822.581	22.77101
822.758	21.03671
822.935	20.98252
823.112	23.7476
823.289	20.50227
823.466	23.54716
823.643	21.88874
823.82	25.20702
823.997	23.12575
824.174	27.11989
824.351	32.70235
824.528	31.88972
824.705	30.02078
824.882	32.92774
825.059	40.3438
825.236	29.60215
825.412	29.85305
825.589	36.61377
825.766	50.74009
825.943	31.17159
826.12	36.94727
826.296	27.12877
826.473	32.99727
826.65	34.85426
826.827	41.0042
827.003	28.55357
827.18	31.28007
827.357	34.89055
827.533	30.77744
827.71	18.58539
827.887	27.76891
828.063	31.7698
828.24	28.11234
828.416	34.90693
828.593	29.43965
828.769	41.50187
828.946	44.31818
829.122	47.26321
829.299	46.03389
829.475	24.06245
829.652	41.21874
829.828	68.17103
830.005	43.52884
830.181	59.03711
830.357	41.58572
830.534	67.26171
830.71	50.49446
830.886	62.30709
831.063	58.54827
831.239	73.04224
831.415	32.98398
831.592	80.85534
831.768	49.5542
831.944	39.02817
832.12	79.97633
832.296	73.2933
832.473	59.96815
832.649	43.92591
832.825	59.73855
833.001	35.00022
833.177	53.39221
833.353	47.50643
833.529	27.09551
833.705	40.80502
833.881	30.48085
834.058	28.39705
834.234	31.83718
834.41	32.32872
834.586	25.33923
834.761	30.75842
834.937	33.45916
835.113	34.72807
835.289	30.40992
835.465	38.69818
835.641	32.21738
835.817	35.72931
835.993	66.12121
836.169	35.69159
836.344	42.70633
836.52	59.25706
836.696	54.63591
836.872	40.73759
837.048	117.88441
837.223	40.4211
837.399	91.84553
837.575	77.46289
837.75	70.27905
837.926	99.58179
838.102	155.55885
838.277	115.63034
838.453	164.83789
838.628	163.91089
838.804	58.03167
838.98	152.2386
839.155	72.92748
839.331	104.65086
839.506	70.27183
839.682	63.53111
839.857	82.29898
840.033	102.99061
840.208	49.15614
840.384	25.55627
840.559	49.11227
840.734	76.97031
840.91	101.9276
841.085	69.96781
841.26	61.6148
841.436	60.74896
841.611	55.7986
841.786	95.61432
841.962	133.8817
842.137	84.37089
842.312	43.12688
842.487	66.75123
842.663	59.58149
842.838	80.12369
843.013	254.85318
843.188	122.21357
843.363	107.88021
843.538	232.25147
843.714	230.70119
843.889	227.89562
844.064	196.10002
844.239	155.57916
844.414	238.16149
844.589	149.54708
844.764	260.14934
844.939	277.28236
845.114	274.70239
845.289	314.3827
845.464	350.22552
845.639	260.41579
845.814	168.61145
845.989	188.25785
846.163	198.30021
846.338	256.49035
846.513	309.78664
846.688	212.89417
846.863	230.74426
847.038	155.86943
847.212	201.47366
847.387	224.80194
847.562	214.93606
847.737	304.23833
847.911	106.75198
848.086	144.76889
848.261	360.44802
848.435	178.28941
848.61	285.7819
848.785	163.58927
848.959	319.74146
849.134	303.79734
849.308	615.91118
849.483	243.84219
849.658	358.85239
849.832	190.6677
850.007	127.63739
850.181	503.28164
850.356	211.38667
850.53	417.59931
850.705	145.58373
850.879	104.9884
851.053	183.67412
851.228	227.76809
851.402	318.99422
851.577	293.30599
851.751	399.10722
851.925	198.85534
852.099	77.45298
852.274	178.17167
852.448	196.90965
852.622	299.23337
852.797	219.5101
852.971	230.64448
853.145	258.54234
853.319	472.3319
853.493	431.47115
853.668	247.23971
853.842	511.6886
854.016	364.35038
854.19	458.22467
854.364	237.91054
854.538	332.12018
854.712	330.14489
854.886	215.08028
855.06	222.35059
855.234	80.07319
855.408	381.30897
855.582	326.36779
855.756	515.63766
855.93	376.32732
856.104	329.56571
856.278	337.98358
856.452	232.08645
856.626	251.48742
856.8	480.75278
856.973	355.17329
857.147	350.85677
857.321	328.36733
857.495	342.68888
857.669	278.79918
857.842	274.53385
858.016	400.7219
858.19	160.38403
858.364	495.38042
858.537	241.64449
858.711	333.32009
858.885	225.01164
859.058	178.41733
859.232	136.38983
859.405	114.43331
859.579	341.03401
859.753	412.3489
859.926	193.43798
860.1	142.84337
860.273	285.94421
860.447	399.12648
860.62	219.62327
860.794	505.97601
860.967	250.81452
861.141	297.73735
861.314	497.9678
861.487	292.11153
861.661	357.92399
861.834	557.65061
862.008	350.45447
862.181	327.1093
862.354	263.9585
862.528	415.30779
862.701	239.89954
862.874	153.8026
863.047	231.23537
863.221	197.51375
863.394	98.35174
863.567	297.99321
863.74	110.40383
863.913	351.43318
864.087	309.7997
864.26	362.19912
864.433	256.9837
864.606	490.65435
864.779	316.64871
864.952	103.88734
865.125	272.90426
865.298	286.17872
865.471	299.69497
865.644	462.33831
865.817	361.27881
865.99	377.4322
866.163	399.01593
866.336	184.85011
866.509	289.43376
866.682	269.80272
866.855	452.10276
867.028	130.2391
867.2	252.36098
867.373	73.84641
867.546	250.01454
867.719	493.16479
867.892	370.44663
868.064	178.57131
868.237	260.96834
868.41	264.16979
868.583	149.09341
868.755	158.29902
868.928	234.33512
869.101	549.3246
869.273	401.55704
869.446	273.94352
869.619	408.6476
869.791	360.17242
869.964	394.56189
870.136	456.10713
870.309	214.67083
870.481	290.54464
870.654	126.8314
870.826	238.09123
870.999	204.76176
871.171	379.27003
871.344	168.74494
871.516	203.29122
871.689	178.51621
871.861	261.65115
872.033	171.73305
872.206	224.76094
872.378	273.6098
872.55	264.19726
872.723	147.07244
872.895	212.19944
873.067	348.66298
873.24	284.86928
873.412	197.09831
873.584	239.41398
873.756	221.32694
873.928	253.29866
874.101	237.91937
874.273	277.88185
874.445	108.9534
874.617	130.58653
874.789	211.68694
874.961	210.83265
875.133	272.22063
875.305	248.96404
875.477	158.17257
875.649	99.4503
875.821	152.09035
875.993	348.89676
876.165	205.65163
876.337	266.50489
876.509	215.48379
876.681	244.48427
876.853	225.89469
877.025	251.34556
877.197	160.64213
877.369	148.18351
877.541	279.89715
877.712	68.47011
877.884	134.65179
878.056	255.42125
878.228	135.65175
878.4	269.7424
878.571	135.98728
878.743	83.69688
878.915	189.36275
879.086	106.21469
879.258	135.47158
879.43	113.52173
879.601	107.46387
879.773	103.00345
879.945	24.94561
880.116	41.48208
880.288	28.74821
880.459	31.58153
880.631	25.76415
880.802	29.89231
880.974	28.99079
881.145	20.23201
881.317	27.74699
881.488	22.30995
881.66	25.02907
881.831	23.07353
882.002	28.58672
882.174	23.50628
882.345	27.9085
882.517	16.29167
882.688	31.43032
882.859	26.58437
883.03	41.54061
883.202	39.73128
883.373	33.43609
883.544	32.21705
883.715	54.72857
883.887	46.71397
884.058	36.00596
884.229	58.45579
884.4	57.61691
884.571	68.11901
884.742	58.2073
884.914	61.88695
885.085	91.60799
885.256	124.53727
885.427	104.87254
885.598	124.17849
885.769	117.50035
885.94	122.92431
886.111	78.72167
886.282	138.6381
886.453	117.90379
886.624	96.04538
886.795	152.48322
886.966	122.04806
887.136	161.70263
887.307	110.77779
887.478	208.95975
887.649	190.64918
887.82	201.54035
887.991	157.68806
888.161	249.55512
888.332	211.3897
888.503	124.62214
888.674	300.83245
888.844	348.67077
889.015	347.0325
889.186	141.2103
889.356	332.01745
889.527	155.59603
889.698	521.26616
889.868	210.21359
890.039	330.44526
890.209	227.14106
890.38	274.92427
890.551	272.03388
890.721	363.77465
890.892	330.91039
891.062	315.97837
891.233	331.725
891.403	295.48604
891.574	181.86402
891.744	206.48289
891.914	254.58321
892.085	374.1905
892.255	82.81917
892.425	337.97385
892.596	206.56724
892.766	301.05079
892.936	398.16682
893.107	248.85161
893.277	122.0736
893.447	114.30456
893.618	63.7665
893.788	160.31955
893.958	92.11135
894.128	70.92915
894.298	90.71952
894.468	111.3995
894.639	51.14647
894.809	38.84754
894.979	59.51414
895.149	66.30914
895.319	49.23635
895.489	79.44215
895.659	100.27991
895.829	66.37575
895.999	68.83892
896.169	50.54298
896.339	69.33518
896.509	138.20041
896.679	154.88885
896.849	177.45206
897.019	255.51226
897.189	231.33062
897.358	157.5849
897.528	278.94425
897.698	145.23444
897.868	279.14332
898.038	543.24463
898.208	464.17403
898.377	157.56695
898.547	816.72231
898.717	845.54387
898.886	350.04364
899.056	558.47453
899.226	892.37076
899.395	698.11635
899.565	728.05902
899.735	475.08024
899.904	651.56271
900.074	822.29675
900.244	293.46448
900.413	1682.017
900.583	292.40834
900.752	3294.22356
900.922	623.98084
901.091	43.99532
901.261	706.60936
901.43	533.24224
901.599	676.30428
901.769	1420.23931
901.938	743.05249
902.108	629.07591
902.277	706.90499
902.446	281.8406
902.616	267.31194
902.785	436.51492
902.954	542.40213
903.124	289.37979
903.293	222.30853
903.462	90.82238
903.631	158.24688
903.801	100.75883
903.97	50.78079
904.139	87.07365
904.308	67.5272
904.477	59.03803
904.646	34.174
904.816	49.00445
904.985	75.35883
905.154	111.96419
