Data from WindowProjectSample_Transmission__62__00062.txt Node

Date: Sat May 03 17:13:28 EDT 2025
User: jessi
Spectrometer: SR400872
Trigger mode: 0
Integration Time (sec): 5.000010E-1
Scans to average: 6
Electric dark correction enabled: true
Nonlinearity correction enabled: true
Boxcar width: 0
XAxis mode: Wavelengths
Number of Pixels in Spectrum: 3648
>>>>>Begin Spectral Data<<<<<
184.909	178596.21678
185.132	1624.08094
185.355	-2079.07029
185.578	3406.43522
185.801	-705.08242
186.024	5963.80359
186.247	1117.60678
186.47	907.5444
186.693	-115.52156
186.916	266.77051
187.139	10108.66032
187.362	3486.8572
187.585	2736.00872
187.808	-1566.55369
188.031	129.81749
188.254	7766.72195
188.476	531.00363
188.699	-4472.17471
188.922	-320.27732
189.145	-4328.54742
189.368	-403.01058
189.591	-799.15737
189.813	-2141.7108
190.036	5088.46195
190.259	2910.04169
190.482	2306.94733
190.705	8471.44348
190.927	-1671.97518
191.15	-1635.77719
191.373	4936.334
191.595	-1915.83029
191.818	8968.55622
192.041	-174.106
192.263	-2289.9988
192.486	-879.71674
192.709	9074.05631
192.931	-2640.05645
193.154	-1949.06269
193.377	4641.93768
193.599	5481.71477
193.822	-1935.00536
194.044	-1736.0905
194.267	550.3639
194.489	301.6204
194.712	2182.98194
194.934	3474.7838
195.157	-8677.6848
195.379	2072.66658
195.602	5039.48501
195.824	5273.30291
196.047	-8919.43039
196.269	-10613.26483
196.492	-1118.39411
196.714	-5143.97791
196.936	4239.99307
197.159	-2749.59811
197.381	-493.26561
197.604	934.29171
197.826	-3387.05825
198.048	-1339.71813
198.271	-11642.34654
198.493	10184.45599
198.715	-2526.39775
198.938	-795.3066
199.16	-3754.71114
199.382	1771.46564
199.604	-1628.75544
199.827	-1367.85105
200.049	-3981.33356
200.271	2398.25275
200.493	-27051.68059
200.715	4845.72156
200.938	13179.23701
201.16	-239203.31032
201.382	-6437.76592
201.604	-1086.39235
201.826	-6884.44452
202.048	-6689.7021
202.27	-4908.18842
202.492	-3627.80876
202.715	-1478.72099
202.937	-3620.98138
203.159	1118.42324
203.381	-98973.30525
203.603	-1008.68875
203.825	-1291.47818
204.047	2176.07576
204.269	-871.63209
204.491	6626.30374
204.713	-9051.28642
204.935	37900.51207
205.156	1968.55818
205.378	-7634.16194
205.6	-1481.33114
205.822	6436.18814
206.044	-285.91215
206.266	-2043.52989
206.488	837.20378
206.71	-489898.46415
206.932	-15543.94016
207.153	11809.98879
207.375	-2118.30939
207.597	15796.7487
207.819	1695.63962
208.041	6197.04631
208.262	557.14902
208.484	-944.04243
208.706	-900.96702
208.927	10997.08643
209.149	-7520.16095
209.371	-2491.06255
209.593	-1621.945
209.814	-4041.59181
210.036	2622.26716
210.258	-635.50196
210.479	1980.72371
210.701	780.91165
210.922	4069.24308
211.144	-1440.24963
211.366	6066.69127
211.587	-418.62378
211.809	-3629.39895
212.03	-2382.16347
212.252	-369.48042
212.473	2679.70043
212.695	-812.01809
212.916	-794.14045
213.138	651.86847
213.359	-1250.44984
213.581	-3355.93151
213.802	-1294.25868
214.024	10987.34002
214.245	-1173.34713
214.466	-139.12418
214.688	-3453.53785
214.909	-743.61721
215.131	8636.29096
215.352	-1180.50305
215.573	-246293.84097
215.795	4363.47362
216.016	-3628.17039
216.237	-492.70588
216.459	-11935.85269
216.68	-1643.09894
216.901	-1642.58522
217.122	1824.04507
217.344	-9119.73411
217.565	-1632.0133
217.786	22213.80405
218.007	806.90386
218.228	-4091.76486
218.45	-5649.86956
218.671	-1603.94414
218.892	917.34406
219.113	1694.24465
219.334	359.54276
219.555	-6163.97555
219.776	34434.61989
219.997	-6770.54787
220.219	-9526.10886
220.44	-4815.72088
220.661	-1238.78912
220.882	12580.8912
221.103	-681.49568
221.324	2439.12462
221.545	-6644.43204
221.766	-1488.93685
221.987	-362.07801
222.208	1975.16243
222.429	6586.5738
222.65	-135.50805
222.87	-746.29235
223.091	39534.75141
223.312	792.31439
223.533	-2116.04511
223.754	3569.26765
223.975	1658.32942
224.196	-738.17824
224.417	-30561.45576
224.637	-2418.28118
224.858	489.4341
225.079	3838.22199
225.3	1641.24181
225.521	3586.83488
225.741	-2424.76192
225.962	1626.42201
226.183	992.88986
226.404	1830.327
226.624	1938.21275
226.845	1457.33027
227.066	2385.10544
227.286	654.31037
227.507	427.90858
227.728	383.85579
227.948	521.21924
228.169	128.7912
228.389	122.9996
228.61	60.65542
228.831	87.21158
229.051	8.75268
229.272	47.5059
229.492	61.3451
229.713	17.87919
229.933	50.15215
230.154	40.91513
230.374	70.38992
230.595	55.43501
230.815	34.63369
231.036	52.94859
231.256	-14.54316
231.477	107.89231
231.697	66.26332
231.917	57.72284
232.138	81.08033
232.358	185.95724
232.579	181.45544
232.799	22.44165
233.019	162.41166
233.24	234.08444
233.46	67.71674
233.68	112.67148
233.901	88.77563
234.121	46.69583
234.341	15.27125
234.561	-9.62731
234.782	30.5772
235.002	125.42737
235.222	-0.09323
235.442	96.22016
235.662	50.58899
235.883	102.97293
236.103	90.22302
236.323	66.50014
236.543	52.8263
236.763	67.97397
236.983	66.31032
237.203	75.05521
237.423	101.98938
237.643	153.63848
237.864	133.6214
238.084	33.58509
238.304	48.10553
238.524	87.61288
238.744	65.85341
238.964	109.12249
239.184	107.71729
239.404	98.64746
239.624	51.76214
239.843	97.39362
240.063	52.76368
240.283	36.56388
240.503	38.69452
240.723	34.69813
240.943	19.61931
241.163	27.8942
241.383	19.77791
241.603	9.53087
241.822	11.60897
242.042	8.60562
242.262	10.27695
242.482	12.34499
242.702	14.13768
242.921	5.05672
243.141	10.41768
243.361	8.65067
243.581	13.20284
243.8	10.78155
244.02	6.93332
244.24	13.98692
244.459	13.22089
244.679	27.34295
244.899	16.19525
245.118	20.62771
245.338	16.85187
245.558	21.46131
245.777	12.07073
245.997	13.28269
246.216	12.83965
246.436	7.24428
246.655	5.37355
246.875	3.86325
247.094	8.03682
247.314	2.20513
247.533	4.56367
247.753	5.7947
247.972	4.74891
248.192	1.84334
248.411	2.41163
248.631	5.37823
248.85	6.28925
249.07	4.71631
249.289	8.483
249.508	6.97089
249.728	10.72923
249.947	11.23423
250.166	11.68788
250.386	7.05099
250.605	9.25786
250.824	15.48981
251.044	10.0653
251.263	37.62038
251.482	18.84645
251.701	17.80056
251.921	0.67443
252.14	5.97004
252.359	5.85202
252.578	13.77686
252.798	4.53588
253.017	12.47055
253.236	6.33979
253.455	7.89802
253.674	17.31175
253.893	7.0204
254.112	11.03857
254.331	16.48027
254.551	13.22962
254.77	8.13241
254.989	22.23695
255.208	18.45068
255.427	22.68805
255.646	19.68272
255.865	32.41473
256.084	12.87986
256.303	13.73124
256.522	21.5083
256.741	4.15803
256.96	5.28492
257.179	10.23369
257.397	15.07407
257.616	7.16818
257.835	8.72157
258.054	21.26687
258.273	14.28766
258.492	16.21296
258.711	9.20449
258.93	3.56946
259.148	5.01189
259.367	5.62333
259.586	7.33822
259.805	3.47768
260.023	6.83356
260.242	5.02864
260.461	3.66825
260.68	2.14307
260.898	5.83223
261.117	2.12285
261.336	1.46267
261.554	5.13801
261.773	4.90445
261.992	1.20238
262.21	4.97145
262.429	5.97684
262.648	10.32456
262.866	11.92769
263.085	7.48949
263.303	7.19905
263.522	12.12028
263.74	12.60503
263.959	21.2042
264.178	10.56907
264.396	10.1873
264.615	6.47071
264.833	16.80117
265.051	15.05553
265.27	14.09009
265.488	15.73129
265.707	9.55922
265.925	15.10762
266.144	6.56275
266.362	8.33984
266.58	8.86757
266.799	6.48604
267.017	8.64009
267.235	7.74313
267.454	4.66025
267.672	2.77564
267.89	5.57234
268.109	6.64383
268.327	6.18994
268.545	2.00219
268.763	5.87113
268.982	1.96432
269.2	7.34098
269.418	4.32804
269.636	2.99365
269.854	6.56703
270.073	4.87959
270.291	2.32231
270.509	2.58492
270.727	6.37888
270.945	10.19131
271.163	9.9703
271.381	2.21334
271.599	4.24421
271.817	7.34383
272.036	2.34897
272.254	4.40987
272.472	3.29424
272.69	3.49104
272.908	3.22582
273.126	5.96077
273.344	7.27296
273.562	2.65368
273.779	3.6944
273.997	5.243
274.215	5.72327
274.433	4.10856
274.651	6.67814
274.869	6.50845
275.087	3.8114
275.305	5.79071
275.523	2.86424
275.74	4.35047
275.958	7.59856
276.176	11.05332
276.394	3.30459
276.612	4.66835
276.829	4.48178
277.047	3.58478
277.265	4.15933
277.483	5.02035
277.7	5.81639
277.918	4.89739
278.136	8.63275
278.353	4.56297
278.571	2.19647
278.789	7.04532
279.006	1.03047
279.224	3.90723
279.442	6.75312
279.659	4.87026
279.877	3.72756
280.094	7.59724
280.312	1.45148
280.529	4.88022
280.747	1.52965
280.964	3.62489
281.182	8.17163
281.399	3.90934
281.617	5.42757
281.834	3.83889
282.052	2.91725
282.269	4.24528
282.487	3.15477
282.704	2.92374
282.921	3.20723
283.139	4.67344
283.356	5.85517
283.574	5.14509
283.791	2.48787
284.008	7.49435
284.226	3.49038
284.443	4.38152
284.66	5.94584
284.877	4.73237
285.095	2.93405
285.312	2.16749
285.529	1.62088
285.746	1.32612
285.964	2.87933
286.181	1.78539
286.398	2.7016
286.615	3.7296
286.832	3.55318
287.05	1.18002
287.267	2.40082
287.484	3.48527
287.701	3.59683
287.918	3.72473
288.135	3.61382
288.352	1.65872
288.569	2.5431
288.786	3.26874
289.003	2.62867
289.22	3.83939
289.437	2.65257
289.654	3.99707
289.871	4.14913
290.088	4.02303
290.305	3.14508
290.522	2.36342
290.739	3.01891
290.956	4.22356
291.173	5.18723
291.39	4.79442
291.607	3.58325
291.824	2.82869
292.04	1.391
292.257	4.2346
292.474	4.36
292.691	2.95329
292.908	1.73711
293.125	2.85093
293.341	1.3888
293.558	7.45883
293.775	2.81072
293.992	2.88104
294.208	1.35026
294.425	1.78984
294.642	2.26976
294.858	4.19388
295.075	1.1908
295.292	2.68569
295.508	3.57263
295.725	5.3048
295.942	2.44519
296.158	1.7069
296.375	2.9289
296.591	2.43886
296.808	2.44347
297.024	2.74216
297.241	2.9545
297.458	3.22382
297.674	0.28162
297.891	2.46186
298.107	1.91122
298.323	1.45318
298.54	3.86222
298.756	1.74933
298.973	0.81611
299.189	4.30173
299.406	1.60871
299.622	4.04433
299.838	4.07859
300.055	3.71948
300.271	1.11601
300.487	1.3152
300.704	1.80969
300.92	1.11522
301.136	5.44997
301.353	3.89317
301.569	2.89532
301.785	3.2365
302.001	3.70537
302.218	3.38215
302.434	3.23529
302.65	1.11237
302.866	2.28804
303.083	5.48156
303.299	5.27091
303.515	2.89436
303.731	3.23385
303.947	0.98688
304.163	1.95048
304.379	3.07335
304.595	3.20003
304.812	2.04835
305.028	1.77533
305.244	2.25367
305.46	3.80293
305.676	4.22765
305.892	4.67107
306.108	3.18407
306.324	2.51442
306.54	5.29865
306.756	3.63558
306.972	3.48178
307.187	2.60214
307.403	4.71409
307.619	2.0012
307.835	3.92627
308.051	4.7929
308.267	1.21101
308.483	4.06072
308.699	3.52691
308.914	3.19957
309.13	2.64987
309.346	0.92589
309.562	1.66986
309.778	0.90303
309.993	3.45654
310.209	2.79282
310.425	1.2354
310.641	2.56022
310.856	1.43009
311.072	1.40071
311.288	2.45788
311.503	2.8947
311.719	0.7246
311.935	0.67422
312.15	3.46682
312.366	2.94873
312.581	3.47388
312.797	2.91911
313.013	3.86675
313.228	2.33266
313.444	2.5856
313.659	2.01408
313.875	3.29619
314.09	2.79975
314.306	4.17586
314.521	3.74609
314.737	3.74534
314.952	3.05849
315.168	2.93361
315.383	3.62907
315.599	2.3823
315.814	2.32513
316.029	3.76103
316.245	1.31754
316.46	0.94534
316.675	4.44343
316.891	5.54683
317.106	6.6222
317.321	3.67667
317.537	3.71398
317.752	3.91466
317.967	3.69191
318.183	1.94107
318.398	2.45538
318.613	4.16524
318.828	4.64344
319.043	3.89726
319.259	2.42443
319.474	3.41822
319.689	4.18675
319.904	0.8858
320.119	3.99394
320.334	3.38789
320.549	2.76036
320.765	4.18703
320.98	3.31155
321.195	3.979
321.41	2.8593
321.625	3.61336
321.84	5.01966
322.055	5.5495
322.27	2.04312
322.485	1.66244
322.7	3.27922
322.915	4.58734
323.13	2.03075
323.345	5.12565
323.56	4.20705
323.775	3.89261
323.989	3.64021
324.204	3.06303
324.419	3.77721
324.634	1.54804
324.849	2.74642
325.064	5.98679
325.279	4.29121
325.493	3.96104
325.708	4.33297
325.923	1.84061
326.138	2.16846
326.352	4.98337
326.567	3.94222
326.782	2.39314
326.997	2.25408
327.211	3.45082
327.426	3.33925
327.641	2.46006
327.855	0.96808
328.07	3.55651
328.285	5.08324
328.499	2.40945
328.714	3.46679
328.928	3.87674
329.143	3.41
329.358	4.17291
329.572	4.42996
329.787	4.70092
330.001	6.18634
330.216	1.02482
330.43	5.52234
330.645	4.8303
330.859	4.08028
331.074	1.82625
331.288	3.06083
331.503	4.78368
331.717	1.78392
331.931	3.16853
332.146	3.18826
332.36	5.37845
332.575	3.77085
332.789	3.20789
333.003	3.01116
333.218	3.78177
333.432	2.57634
333.646	3.91165
333.86	5.05647
334.075	5.11582
334.289	2.41737
334.503	1.95304
334.717	3.8936
334.932	3.67539
335.146	4.63251
335.36	2.67021
335.574	4.1376
335.788	3.65039
336.003	4.38958
336.217	4.2125
336.431	3.70549
336.645	2.18767
336.859	1.6816
337.073	2.91255
337.287	3.44085
337.501	1.47673
337.715	3.61034
337.929	3.79924
338.143	1.84469
338.357	2.97179
338.571	2.04398
338.785	3.78852
338.999	2.22168
339.213	2.71712
339.427	1.48381
339.641	4.45401
339.855	2.5965
340.069	2.31739
340.283	3.97605
340.497	5.25128
340.711	3.6153
340.924	2.70225
341.138	1.8247
341.352	1.36523
341.566	3.21213
341.78	1.49995
341.993	2.32723
342.207	1.84723
342.421	3.46419
342.635	3.2809
342.848	2.43995
343.062	0.43653
343.276	2.1977
343.49	5.63372
343.703	2.15823
343.917	4.09462
344.131	4.04038
344.344	2.11814
344.558	2.40604
344.771	1.84905
344.985	4.52915
345.199	5.0017
345.412	3.22373
345.626	3.44102
345.839	1.01219
346.053	1.86109
346.266	1.86063
346.48	3.79448
346.693	3.47879
346.907	3.5039
347.12	2.02134
347.334	3.2867
347.547	3.38048
347.76	2.99801
347.974	4.27799
348.187	3.41697
348.401	2.51948
348.614	2.20576
348.827	2.73866
349.041	3.62186
349.254	1.06012
349.467	2.57965
349.681	1.66314
349.894	2.27839
350.107	4.38244
350.32	5.00744
350.534	1.29843
350.747	2.57082
350.96	1.77286
351.173	2.12085
351.386	2.41721
351.6	2.39394
351.813	2.20081
352.026	2.99273
352.239	1.8523
352.452	2.14763
352.665	4.00504
352.878	2.48893
353.092	5.42361
353.305	3.42274
353.518	3.24356
353.731	1.74937
353.944	4.49976
354.157	2.2816
354.37	1.99388
354.583	1.5367
354.796	1.59809
355.009	4.03926
355.222	2.76553
355.435	2.7771
355.647	3.97791
355.86	1.91636
356.073	2.84938
356.286	2.29441
356.499	3.88136
356.712	3.42267
356.925	3.37093
357.138	4.04149
357.35	1.82539
357.563	2.39344
357.776	2.93916
357.989	3.07296
358.201	3.70756
358.414	2.8811
358.627	4.40114
358.84	2.74143
359.052	1.76257
359.265	1.9719
359.478	3.98859
359.69	0.14642
359.903	3.69715
360.116	3.92054
360.328	1.28242
360.541	3.88746
360.753	2.25459
360.966	2.48269
361.179	2.79934
361.391	2.52531
361.604	1.99781
361.816	2.55232
362.029	2.50078
362.241	2.17148
362.454	2.66016
362.666	2.04934
362.879	3.30621
363.091	2.63588
363.304	2.30165
363.516	2.78273
363.728	1.86061
363.941	3.40196
364.153	2.94278
364.366	1.1954
364.578	1.9714
364.79	3.24187
365.003	3.22004
365.215	2.54911
365.427	3.5093
365.639	4.02914
365.852	3.28059
366.064	4.64736
366.276	2.52655
366.488	3.57441
366.701	2.67723
366.913	2.73019
367.125	2.86481
367.337	2.35937
367.549	2.53566
367.762	2.95318
367.974	2.9775
368.186	2.648
368.398	4.14858
368.61	3.40339
368.822	3.62127
369.034	2.83758
369.246	3.73891
369.458	5.86594
369.67	2.24211
369.882	4.83809
370.094	1.11599
370.306	4.50037
370.518	2.70475
370.73	2.51671
370.942	2.51688
371.154	3.0555
371.366	3.05742
371.578	3.9494
371.79	2.79055
372.002	4.58056
372.214	5.35633
372.425	3.08593
372.637	4.9562
372.849	3.46612
373.061	1.12908
373.273	3.8621
373.484	3.8228
373.696	4.17814
373.908	1.1648
374.12	4.32755
374.331	4.02604
374.543	2.559
374.755	2.41456
374.967	3.42176
375.178	4.35566
375.39	3.44984
375.602	3.55059
375.813	2.13653
376.025	2.42543
376.236	3.60248
376.448	3.78357
376.66	3.67185
376.871	3.47467
377.083	4.68449
377.294	5.51494
377.506	3.3812
377.717	5.18289
377.929	3.91699
378.14	3.3722
378.352	4.45363
378.563	4.66325
378.775	5.23551
378.986	2.91031
379.197	3.97492
379.409	3.0434
379.62	4.82168
379.832	4.23226
380.043	3.7339
380.254	4.39139
380.466	2.54755
380.677	6.77004
380.888	6.03794
381.1	6.68591
381.311	6.74547
381.522	4.62529
381.733	6.98867
381.945	4.175
382.156	3.81104
382.367	3.959
382.578	7.23438
382.789	7.31568
383.001	3.77779
383.212	6.11719
383.423	6.34747
383.634	5.62367
383.845	5.27387
384.056	4.04606
384.267	4.67272
384.478	4.86848
384.69	3.59707
384.901	5.15474
385.112	5.0877
385.323	6.48843
385.534	5.24368
385.745	5.41451
385.956	5.03785
386.167	3.89829
386.378	5.58452
386.588	4.31871
386.799	4.11601
387.01	3.73955
387.221	6.06949
387.432	5.22883
387.643	6.84828
387.854	4.87417
388.065	5.01926
388.275	5.27919
388.486	4.73165
388.697	5.20714
388.908	4.95175
389.119	6.3659
389.329	6.86985
389.54	5.35999
389.751	5.97799
389.962	6.72612
390.172	5.61496
390.383	5.42135
390.594	4.82817
390.804	5.07231
391.015	5.23513
391.226	5.7693
391.436	6.34304
391.647	6.2828
391.858	6.2967
392.068	4.37278
392.279	4.96881
392.489	6.38435
392.7	6.73409
392.91	5.6608
393.121	5.37584
393.331	6.68291
393.542	7.23922
393.752	7.07132
393.963	6.81458
394.173	6.79588
394.384	7.03197
394.594	6.30608
394.804	5.42863
395.015	6.5772
395.225	7.02217
395.436	5.63031
395.646	7.02619
395.856	6.35694
396.067	5.32351
396.277	7.37333
396.487	7.09543
396.697	7.09664
396.908	7.54066
397.118	7.31229
397.328	7.01965
397.538	7.64895
397.749	6.27912
397.959	7.73284
398.169	7.41187
398.379	5.64088
398.589	7.27994
398.8	7.23288
399.01	7.4474
399.22	7.01234
399.43	9.07444
399.64	7.2106
399.85	7.78405
400.06	7.45156
400.27	6.57797
400.48	7.25555
400.69	8.38103
400.9	6.94834
401.11	6.41948
401.32	8.09664
401.53	7.1179
401.74	8.60345
401.95	7.92985
402.16	7.28413
402.37	7.77308
402.58	7.16321
402.79	8.02429
403	8.23184
403.209	7.41489
403.419	8.63013
403.629	7.2145
403.839	8.86734
404.049	8.85868
404.258	7.79012
404.468	7.62462
404.678	9.06627
404.888	9.28485
405.097	8.32136
405.307	8.09783
405.517	9.11107
405.727	8.94504
405.936	7.9576
406.146	8.92069
406.356	9.86967
406.565	8.44562
406.775	8.11967
406.984	8.25763
407.194	10.24451
407.404	8.53734
407.613	8.98705
407.823	9.44238
408.032	10.08265
408.242	9.50832
408.451	8.34603
408.661	8.68074
408.87	10.17353
409.08	8.23203
409.289	8.97912
409.499	9.3042
409.708	8.80722
409.918	7.37708
410.127	9.43127
410.336	10.31246
410.546	10.06943
410.755	8.87033
410.964	8.86002
411.174	8.30262
411.383	9.6183
411.592	9.51327
411.802	8.50837
412.011	9.78099
412.22	9.20938
412.429	10.42741
412.639	10.68075
412.848	10.40037
413.057	11.0463
413.266	10.20851
413.475	9.65903
413.685	10.1657
413.894	10.39358
414.103	10.53915
414.312	10.46343
414.521	9.3002
414.73	9.97532
414.939	11.44035
415.148	10.24219
415.357	10.21829
415.566	10.04208
415.776	9.79502
415.985	9.97639
416.194	10.90983
416.403	12.07147
416.611	9.32033
416.82	9.89683
417.029	10.65705
417.238	9.83225
417.447	10.03897
417.656	10.49535
417.865	10.04778
418.074	10.44788
418.283	10.75635
418.492	11.72383
418.7	11.39969
418.909	12.4869
419.118	11.11638
419.327	11.58613
419.536	11.40458
419.744	11.25349
419.953	12.65742
420.162	12.78673
420.371	12.06426
420.579	12.72188
420.788	13.65993
420.997	14.06902
421.205	14.28509
421.414	13.80591
421.623	14.23434
421.831	13.51331
422.04	14.0867
422.249	13.20884
422.457	13.40884
422.666	12.67449
422.874	13.62152
423.083	13.74117
423.291	13.76417
423.5	13.74514
423.708	14.25326
423.917	14.87134
424.125	14.3119
424.334	14.00047
424.542	16.00896
424.751	15.26486
424.959	14.7986
425.167	15.16059
425.376	14.81989
425.584	13.46769
425.793	13.3739
426.001	12.22578
426.209	13.15816
426.418	12.04028
426.626	11.92789
426.834	11.93034
427.042	12.35846
427.251	11.90537
427.459	12.96899
427.667	12.40291
427.875	11.22671
428.084	11.84202
428.292	13.25107
428.5	12.93548
428.708	11.43672
428.916	11.6655
429.124	12.30746
429.333	11.99274
429.541	12.15297
429.749	12.38555
429.957	12.24176
430.165	14.21065
430.373	11.08228
430.581	12.17956
430.789	13.68222
430.997	12.18692
431.205	11.7477
431.413	12.75519
431.621	12.28514
431.829	12.96937
432.037	12.18194
432.245	12.8757
432.453	13.11786
432.661	12.52907
432.869	14.09288
433.076	12.04993
433.284	12.75971
433.492	13.59274
433.7	14.00153
433.908	12.96076
434.116	13.35305
434.323	13.24585
434.531	13.054
434.739	13.62829
434.947	13.62168
435.154	13.94679
435.362	13.17718
435.57	12.91883
435.778	12.65367
435.985	13.4393
436.193	12.51899
436.401	14.0249
436.608	13.11848
436.816	12.60171
437.023	14.47414
437.231	14.70016
437.439	13.24206
437.646	13.837
437.854	13.56935
438.061	13.97009
438.269	13.22867
438.476	13.8069
438.684	13.49263
438.891	13.32359
439.099	13.3789
439.306	12.64898
439.514	12.97703
439.721	13.9504
439.929	13.05458
440.136	14.05297
440.343	13.93143
440.551	13.67442
440.758	15.65859
440.965	14.3899
441.173	13.97661
441.38	13.65789
441.587	14.21901
441.795	13.83419
442.002	13.95408
442.209	14.20324
442.416	14.50283
442.624	14.6017
442.831	14.27859
443.038	13.69924
443.245	13.34929
443.452	13.68922
443.66	14.44875
443.867	13.66068
444.074	13.38745
444.281	13.4163
444.488	13.49908
444.695	13.9193
444.902	13.6144
445.109	14.60948
445.316	13.93153
445.523	14.47383
445.73	14.40127
445.937	15.6515
446.144	16.3766
446.351	16.92747
446.558	15.42789
446.765	17.78233
446.972	16.74261
447.179	16.40868
447.386	16.98044
447.593	15.01677
447.8	15.86623
448.007	14.54798
448.214	14.55547
448.42	14.22496
448.627	15.4793
448.834	14.41438
449.041	14.36479
449.248	14.16476
449.454	15.10007
449.661	15.77737
449.868	13.96731
450.075	13.92746
450.281	13.02318
450.488	13.54797
450.695	13.55676
450.901	13.51243
451.108	13.7129
451.315	15.09033
451.521	14.06933
451.728	15.25067
451.935	14.00065
452.141	14.10471
452.348	14.54294
452.554	14.31773
452.761	14.18589
452.967	15.95686
453.174	14.82115
453.38	14.64701
453.587	13.78607
453.793	14.74446
454	15.19002
454.206	16.28736
454.413	15.42371
454.619	15.16355
454.825	14.24958
455.032	15.01941
455.238	15.23899
455.445	13.60986
455.651	14.88148
455.857	13.39162
456.064	14.73358
456.27	14.35204
456.476	14.52628
456.682	13.74812
456.889	14.75412
457.095	15.0726
457.301	16.13725
457.507	14.78932
457.714	14.90513
457.92	14.84971
458.126	14.24044
458.332	14.83194
458.538	14.53871
458.744	14.78303
458.951	14.69204
459.157	16.42659
459.363	15.56709
459.569	16.08737
459.775	16.84481
459.981	16.50634
460.187	17.09746
460.393	17.10995
460.599	17.06682
460.805	15.77742
461.011	15.62428
461.217	16.28975
461.423	16.56254
461.629	15.6115
461.835	16.04816
462.041	15.50863
462.247	16.39129
462.453	15.36164
462.658	14.96391
462.864	15.87464
463.07	15.46022
463.276	15.31552
463.482	15.33772
463.688	16.85436
463.893	14.77182
464.099	14.92565
464.305	16.86307
464.511	14.99426
464.716	14.9879
464.922	16.07346
465.128	14.90365
465.333	16.69859
465.539	15.87386
465.745	15.82787
465.95	15.53678
466.156	17.89407
466.362	16.49912
466.567	15.60198
466.773	15.2702
466.978	16.93589
467.184	15.06419
467.389	14.34838
467.595	15.89252
467.8	15.18966
468.006	16.99169
468.211	16.81145
468.417	15.0436
468.622	16.19888
468.828	16.32367
469.033	16.12378
469.239	18.23611
469.444	15.39213
469.649	16.58912
469.855	15.86376
470.06	15.82129
470.266	15.29803
470.471	16.50695
470.676	16.15205
470.881	14.45786
471.087	17.59337
471.292	17.66941
471.497	14.94287
471.703	15.72436
471.908	15.6271
472.113	16.22516
472.318	16.78729
472.523	15.36921
472.729	16.52531
472.934	16.46794
473.139	15.75359
473.344	16.62614
473.549	17.26169
473.754	15.48721
473.959	18.07137
474.164	15.93647
474.369	15.73705
474.575	16.62258
474.78	16.25382
474.985	15.82794
475.19	14.86859
475.395	16.02277
475.6	16.21025
475.804	17.55518
476.009	16.40722
476.214	16.3268
476.419	15.95064
476.624	15.37259
476.829	15.89816
477.034	17.25243
477.239	16.12139
477.444	16.79796
477.648	17.11713
477.853	17.08978
478.058	16.42067
478.263	16.10853
478.468	15.9595
478.672	16.11313
478.877	17.98471
479.082	18.14661
479.287	17.23414
479.491	16.88077
479.696	15.96578
479.901	17.38303
480.105	17.26287
480.31	16.27938
480.515	16.89532
480.719	18.62559
480.924	16.29985
481.128	16.09197
481.333	16.98675
481.538	17.10044
481.742	16.76992
481.947	17.83276
482.151	19.25614
482.356	20.97114
482.56	24.26565
482.765	27.37592
482.969	32.72221
483.174	36.65629
483.378	42.32238
483.582	44.30496
483.787	47.24132
483.991	47.65162
484.196	48.31664
484.4	46.95714
484.604	46.31427
484.809	42.41555
485.013	39.61262
485.217	35.90324
485.422	31.7322
485.626	28.77009
485.83	27.2493
486.034	26.42943
486.239	27.14689
486.443	28.28221
486.647	29.10894
486.851	31.3123
487.055	33.8627
487.26	34.06227
487.464	35.65302
487.668	34.67589
487.872	35.88778
488.076	35.71606
488.28	34.1057
488.484	31.9977
488.688	30.97531
488.892	28.71189
489.096	26.61556
489.3	24.79096
489.504	23.0984
489.708	21.96716
489.912	21.34768
490.116	20.92169
490.32	20.87907
490.524	22.81517
490.728	24.53061
490.932	26.0159
491.136	28.11262
491.34	29.86926
491.544	30.54697
491.748	30.5005
491.951	30.18571
492.155	29.54401
492.359	28.18582
492.563	25.6857
492.767	24.09371
492.97	21.24659
493.174	19.07745
493.378	18.43098
493.582	17.75848
493.785	18.03762
493.989	18.32
494.193	18.10164
494.396	17.67592
494.6	18.2374
494.804	17.63769
495.007	17.33637
495.211	17.38332
495.414	17.34284
495.618	17.86681
495.822	18.66497
496.025	17.63755
496.229	18.29011
496.432	17.38044
496.636	17.78846
496.839	18.02208
497.043	18.71987
497.246	18.20256
497.45	17.56417
497.653	18.20706
497.856	18.31337
498.06	17.69194
498.263	17.92014
498.467	18.20945
498.67	18.77857
498.873	18.32587
499.077	18.01489
499.28	18.16792
499.483	18.21641
499.686	19.14758
499.89	18.27544
500.093	18.69897
500.296	17.46706
500.499	19.5085
500.703	18.21224
500.906	18.34495
501.109	19.25679
501.312	18.24591
501.515	18.01993
501.719	18.50635
501.922	18.69236
502.125	18.14651
502.328	18.15778
502.531	17.30186
502.734	18.10688
502.937	16.97974
503.14	18.37718
503.343	17.64781
503.546	17.98346
503.749	17.83046
503.952	18.6847
504.155	17.68385
504.358	18.82208
504.561	18.59164
504.764	17.38132
504.967	18.64778
505.17	18.42855
505.373	19.37366
505.576	18.01778
505.778	18.9605
505.981	17.65617
506.184	19.44983
506.387	16.85658
506.59	19.7912
506.793	19.25535
506.995	18.55951
507.198	16.96896
507.401	18.87017
507.604	18.78915
507.806	17.6374
508.009	18.19481
508.212	19.15599
508.414	18.0342
508.617	18.08658
508.82	18.7587
509.022	19.71623
509.225	19.00529
509.427	17.6124
509.63	19.60663
509.833	18.56182
510.035	18.4767
510.238	17.73316
510.44	19.69735
510.643	17.48343
510.845	20.28288
511.048	19.17426
511.25	18.36032
511.453	18.53195
511.655	19.08174
511.858	18.62591
512.06	19.38695
512.262	18.8945
512.465	19.64225
512.667	18.77418
512.869	18.05226
513.072	19.40567
513.274	19.62802
513.476	19.33072
513.679	19.77292
513.881	18.28012
514.083	20.00616
514.286	18.25311
514.488	18.22724
514.69	18.25707
514.892	17.84342
515.094	19.45387
515.297	18.41293
515.499	18.98481
515.701	18.2267
515.903	20.38452
516.105	20.43593
516.307	19.46985
516.509	17.49158
516.711	18.28784
516.913	19.19595
517.116	19.18355
517.318	18.83873
517.52	19.73157
517.722	19.68461
517.924	18.47864
518.126	19.67521
518.328	18.87202
518.529	19.72959
518.731	20.56763
518.933	19.19445
519.135	19.3838
519.337	20.46029
519.539	19.90426
519.741	18.29352
519.943	19.40343
520.145	19.21874
520.346	20.10756
520.548	19.2687
520.75	19.76621
520.952	19.2768
521.153	19.65733
521.355	19.75183
521.557	18.52696
521.759	19.2365
521.96	19.2901
522.162	18.27868
522.364	20.10757
522.565	18.72094
522.767	19.76669
522.969	20.23688
523.17	19.83411
523.372	19.68095
523.573	19.39449
523.775	19.3357
523.977	18.51976
524.178	20.57272
524.38	18.80516
524.581	19.99498
524.783	19.18371
524.984	19.85839
525.186	19.44079
525.387	20.18577
525.589	19.76556
525.79	19.53589
525.991	19.38328
526.193	20.42635
526.394	19.56363
526.596	20.65609
526.797	21.37082
526.998	20.99044
527.2	22.37474
527.401	25.75757
527.602	28.26901
527.803	32.77928
528.005	35.24016
528.206	38.20168
528.407	40.15823
528.608	40.699
528.81	40.96911
529.011	39.80904
529.212	40.50132
529.413	37.69617
529.614	34.98521
529.815	32.50167
530.017	29.45649
530.218	26.11703
530.419	23.37335
530.62	22.08286
530.821	21.07867
531.022	19.43298
531.223	20.67941
531.424	20.75058
531.625	20.60545
531.826	20.30949
532.027	21.27131
532.228	23.59575
532.429	24.38847
532.63	25.51914
532.831	27.30011
533.032	27.27083
533.233	28.97398
533.433	28.01876
533.634	28.31903
533.835	26.80692
534.036	25.76002
534.237	24.40725
534.438	22.69785
534.638	20.54627
534.839	20.58448
535.04	20.80217
535.241	20.22993
535.441	21.60303
535.642	20.58576
535.843	19.47551
536.043	20.0155
536.244	19.87633
536.445	20.07982
536.645	21.17276
536.846	20.76184
537.047	21.53403
537.247	19.99735
537.448	20.20465
537.648	20.83013
537.849	20.49575
538.049	20.87144
538.25	20.92385
538.451	21.12649
538.651	19.72086
538.851	20.94053
539.052	21.40722
539.252	20.95236
539.453	20.06599
539.653	20.62506
539.854	20.1202
540.054	20.4438
540.254	22.13016
540.455	24.36363
540.655	25.43456
540.855	28.33588
541.056	30.34183
541.256	30.61737
541.456	31.70506
541.657	31.17186
541.857	31.70446
542.057	29.61293
542.257	28.25913
542.458	27.9141
542.658	26.15686
542.858	23.41677
543.058	22.90746
543.258	21.7949
543.458	20.29014
543.659	20.11317
543.859	21.43841
544.059	21.4899
544.259	20.66443
544.459	21.63791
544.659	20.53162
544.859	21.27229
545.059	20.33884
545.259	21.57634
545.459	20.94813
545.659	21.43879
545.859	20.75957
546.059	20.79772
546.259	20.15734
546.459	19.8846
546.659	20.10219
546.859	21.37855
547.059	21.30548
547.258	21.45455
547.458	21.44783
547.658	20.41811
547.858	20.13787
548.058	21.42019
548.258	20.73309
548.457	20.04393
548.657	22.64505
548.857	20.42642
549.057	21.28273
549.256	21.35717
549.456	20.09364
549.656	19.06199
549.855	22.20891
550.055	19.97079
550.255	22.19695
550.454	21.02241
550.654	21.00826
550.853	22.02223
551.053	21.33178
551.253	20.97624
551.452	20.96022
551.652	19.61796
551.851	19.41248
552.051	20.28922
552.25	20.06602
552.45	20.11122
552.649	20.58187
552.849	20.14015
553.048	20.44079
553.248	21.57362
553.447	19.75092
553.646	21.54464
553.846	22.79422
554.045	21.90636
554.244	19.66137
554.444	22.56178
554.643	19.67399
554.842	22.13266
555.042	22.71486
555.241	19.77118
555.44	19.75057
555.64	21.42152
555.839	22.86676
556.038	21.25983
556.237	19.90324
556.436	20.8965
556.636	21.41423
556.835	20.11692
557.034	22.71682
557.233	20.57176
557.432	19.74649
557.631	22.06599
557.83	20.77288
558.029	20.24636
558.228	20.02309
558.427	19.68505
558.626	21.34096
558.825	19.69427
559.024	21.23643
559.223	22.89232
559.422	20.09617
559.621	21.30879
559.82	18.32145
560.019	20.88965
560.218	20.57396
560.417	18.35591
560.616	20.10863
560.815	24.40624
561.014	19.20761
561.212	22.51367
561.411	21.16121
561.61	19.72698
561.809	20.58561
562.008	22.1188
562.206	20.63173
562.405	21.30599
562.604	20.70541
562.803	21.2134
563.001	20.84463
563.2	19.87298
563.399	21.43711
563.597	19.79085
563.796	21.11802
563.995	19.89316
564.193	21.69862
564.392	20.86887
564.59	22.80849
564.789	19.21479
564.988	20.46905
565.186	21.15496
565.385	20.48027
565.583	21.03972
565.782	20.97326
565.98	20.74272
566.179	20.9984
566.377	20.44123
566.575	20.73741
566.774	22.78146
566.972	21.98061
567.171	23.18903
567.369	22.6775
567.567	21.84678
567.766	21.67705
567.964	19.55054
568.162	21.77205
568.361	22.50554
568.559	20.94257
568.757	21.25177
568.956	21.4344
569.154	21.01868
569.352	21.83518
569.55	20.91712
569.748	20.9554
569.947	20.28629
570.145	20.4851
570.343	20.39404
570.541	22.14539
570.739	19.73969
570.937	21.25553
571.135	21.40152
571.333	23.18733
571.532	22.56452
571.73	21.51835
571.928	22.5466
572.126	21.79107
572.324	21.13427
572.522	22.7147
572.72	24.44686
572.918	21.71992
573.116	22.04061
573.313	21.91448
573.511	21.73853
573.709	20.77469
573.907	22.62193
574.105	21.25518
574.303	19.65726
574.501	19.91905
574.699	21.96834
574.896	22.22693
575.094	21.83585
575.292	19.94839
575.49	22.47803
575.688	21.17063
575.885	22.84619
576.083	23.73353
576.281	22.03559
576.478	20.7459
576.676	21.85633
576.874	19.55535
577.071	21.22661
577.269	24.04737
577.467	21.54107
577.664	21.39945
577.862	22.75186
578.059	19.97663
578.257	22.26477
578.455	20.49412
578.652	21.40657
578.85	19.14857
579.047	21.66269
579.245	21.22297
579.442	20.58512
579.64	20.90325
579.837	19.39445
580.034	24.59148
580.232	20.91868
580.429	19.81386
580.627	21.87131
580.824	22.68201
581.021	21.69241
581.219	20.78191
581.416	20.0617
581.613	22.65412
581.811	23.08461
582.008	19.795
582.205	22.10115
582.402	21.64193
582.6	23.19206
582.797	21.0354
582.994	21.32309
583.191	22.21774
583.388	21.37766
583.586	22.42253
583.783	22.5864
583.98	20.85255
584.177	21.30913
584.374	18.13182
584.571	21.21013
584.768	20.90139
584.965	20.16871
585.162	22.04656
585.359	23.27239
585.556	21.02545
585.753	21.63581
585.95	19.43435
586.147	20.2249
586.344	21.74058
586.541	20.33742
586.738	19.85117
586.935	21.31214
587.132	20.34368
587.329	22.41445
587.526	21.63972
587.722	27.59777
587.919	19.39228
588.116	22.17988
588.313	23.50136
588.51	24.51592
588.706	20.8307
588.903	22.01913
589.1	22.87445
589.297	24.72595
589.493	21.75355
589.69	22.37949
589.887	21.27299
590.083	20.45614
590.28	21.12546
590.477	22.76067
590.673	22.56276
590.87	23.7294
591.067	21.37184
591.263	21.90892
591.46	22.0763
591.656	21.26123
591.853	23.46057
592.049	20.63796
592.246	20.51618
592.442	23.17326
592.639	23.33412
592.835	20.30183
593.032	22.06484
593.228	19.79438
593.425	19.46737
593.621	19.21589
593.817	21.9035
594.014	20.19298
594.21	21.66155
594.406	22.89944
594.603	21.93144
594.799	21.18797
594.995	18.71891
595.192	23.14724
595.388	20.92496
595.584	20.96189
595.78	19.84717
595.977	24.56293
596.173	23.9671
596.369	21.55543
596.565	20.39386
596.761	20.33353
596.957	23.62452
597.154	21.16192
597.35	21.75708
597.546	21.22685
597.742	22.95436
597.938	22.20293
598.134	21.19934
598.33	22.63073
598.526	24.07862
598.722	22.09766
598.918	24.24523
599.114	23.01975
599.31	20.36104
599.506	21.45836
599.702	20.48237
599.898	21.92681
600.094	22.50356
600.29	22.456
600.485	23.183
600.681	20.84756
600.877	23.59049
601.073	21.45565
601.269	24.49177
601.465	23.8124
601.66	20.26122
601.856	19.01122
602.052	24.35343
602.248	21.37919
602.443	19.57814
602.639	20.26255
602.835	20.92092
603.03	20.60905
603.226	23.13817
603.422	20.6497
603.617	21.07975
603.813	21.33028
604.009	21.51114
604.204	23.73796
604.4	20.28485
604.595	23.32626
604.791	21.23928
604.986	22.91853
605.182	21.19438
605.377	21.91358
605.573	21.4515
605.768	22.18493
605.964	23.11305
606.159	23.0751
606.355	23.98124
606.55	21.36903
606.746	23.69475
606.941	21.5713
607.136	25.02134
607.332	26.15611
607.527	19.93585
607.722	22.14371
607.918	21.86655
608.113	21.1487
608.308	23.42975
608.503	23.0042
608.699	22.60626
608.894	23.00503
609.089	21.17047
609.284	22.25761
609.479	21.82087
609.675	23.30059
609.87	21.7839
610.065	23.7736
610.26	23.80836
610.455	23.53261
610.65	22.40344
610.845	22.48076
611.04	23.74989
611.235	22.49432
611.43	21.45231
611.625	20.14412
611.82	24.08055
612.015	20.77789
612.21	24.26446
612.405	19.77906
612.6	24.30276
612.795	23.67698
612.99	22.80108
613.185	20.8499
613.38	21.39611
613.575	22.36302
613.77	26.76279
613.965	19.56741
614.159	20.47237
614.354	24.36982
614.549	23.6451
614.744	23.4206
614.938	20.28461
615.133	19.57485
615.328	24.60205
615.523	22.17441
615.717	27.24981
615.912	20.84255
616.107	22.11792
616.301	20.98987
616.496	21.42473
616.691	24.2088
616.885	23.63894
617.08	27.96766
617.274	24.16267
617.469	26.07128
617.664	23.4365
617.858	21.60659
618.053	23.07822
618.247	22.00144
618.442	17.92463
618.636	24.95584
618.831	21.17544
619.025	21.77222
619.219	26.96357
619.414	16.82164
619.608	22.34001
619.803	21.72925
619.997	26.57152
620.191	24.22555
620.386	22.87159
620.58	22.10696
620.774	19.44742
620.969	19.26792
621.163	22.86238
621.357	20.86895
621.551	21.79334
621.746	22.67169
621.94	21.64538
622.134	28.19273
622.328	26.69342
622.522	19.02096
622.716	23.69476
622.911	24.58257
623.105	24.3799
623.299	23.35361
623.493	28.68036
623.687	20.88168
623.881	21.75773
624.075	23.67038
624.269	24.26137
624.463	18.45811
624.657	19.45292
624.851	23.2688
625.045	24.42473
625.239	24.36949
625.433	22.47916
625.627	25.01518
625.821	21.93273
626.015	21.3479
626.209	23.31684
626.403	20.72982
626.596	23.79341
626.79	24.26344
626.984	21.18635
627.178	23.89288
627.372	23.98145
627.565	23.84401
627.759	20.63306
627.953	21.04745
628.147	23.80317
628.34	23.73883
628.534	26.90393
628.728	22.258
628.921	24.22045
629.115	23.29673
629.309	24.23948
629.502	24.87561
629.696	22.45997
629.89	22.29417
630.083	22.76875
630.277	23.42646
630.47	26.19121
630.664	21.70759
630.857	19.54275
631.051	23.66347
631.244	25.16777
631.438	24.42864
631.631	21.24705
631.825	25.88146
632.018	24.25401
632.212	26.99461
632.405	25.80807
632.598	21.27713
632.792	23.67124
632.985	18.32114
633.178	22.62483
633.372	22.50992
633.565	22.94711
633.758	25.65293
633.952	21.48989
634.145	21.16465
634.338	23.10092
634.531	21.52137
634.724	22.25307
634.918	23.18131
635.111	22.44313
635.304	22.63073
635.497	28.00974
635.69	23.20713
635.883	26.19214
636.077	21.28488
636.27	23.47862
636.463	23.28318
636.656	23.15256
636.849	22.11863
637.042	24.69731
637.235	25.63703
637.428	24.60194
637.621	25.3026
637.814	25.52821
638.007	26.63126
638.2	25.82783
638.393	26.72197
638.586	20.20742
638.778	21.87981
638.971	22.72457
639.164	26.78325
639.357	22.74169
639.55	26.80897
639.743	24.74906
639.935	23.46284
640.128	27.28385
640.321	24.74323
640.514	23.22405
640.707	28.99354
640.899	24.7408
641.092	19.09472
641.285	41.3317
641.477	17.66155
641.67	29.10917
641.863	26.28199
642.055	23.14883
642.248	22.26957
642.441	21.17029
642.633	24.91648
642.826	25.76105
643.018	27.27227
643.211	28.36952
643.403	28.14405
643.596	28.47985
643.788	29.09933
643.981	23.14235
644.173	25.93806
644.366	23.36376
644.558	18.58073
644.751	26.00592
644.943	19.68089
645.135	27.48454
645.328	28.18727
645.52	24.38292
645.712	26.76146
645.905	31.50105
646.097	20.92
646.289	23.16068
646.482	29.89289
646.674	22.32149
646.866	28.00952
647.058	25.30769
647.251	20.774
647.443	21.83636
647.635	24.18453
647.827	21.17375
648.019	21.99326
648.211	23.4877
648.404	22.94586
648.596	28.8053
648.788	24.13745
648.98	24.35761
649.172	24.70298
649.364	25.07812
649.556	18.65942
649.748	32.08071
649.94	22.31636
650.132	25.57451
650.324	21.31767
650.516	22.88134
650.708	27.69475
650.9	20.37965
651.092	20.46501
651.284	20.65526
651.476	21.01646
651.667	25.9313
651.859	27.45159
652.051	24.03543
652.243	24.83895
652.435	22.36481
652.627	25.57111
652.818	25.9787
653.01	21.08213
653.202	21.31235
653.394	22.61632
653.585	25.59479
653.777	37.18245
653.969	27.9336
654.16	27.15669
654.352	20.6574
654.544	23.36952
654.735	27.41911
654.927	24.69749
655.118	29.00165
655.31	26.4634
655.502	27.28177
655.693	23.1546
655.885	26.2471
656.076	28.26386
656.268	25.30337
656.459	29.16989
656.651	28.04028
656.842	23.5726
657.034	22.93633
657.225	27.00113
657.416	27.93233
657.608	28.37771
657.799	24.90641
657.99	28.10946
658.182	23.43389
658.373	24.097
658.564	27.43831
658.756	25.77038
658.947	24.75585
659.138	22.93809
659.33	24.46255
659.521	23.63702
659.712	25.63138
659.903	25.28478
660.094	23.96469
660.286	21.7733
660.477	30.81189
660.668	27.41946
660.859	25.3083
661.05	21.33353
661.241	27.863
661.432	26.45344
661.623	23.85397
661.814	23.1777
662.006	20.88267
662.197	25.30407
662.388	29.17889
662.579	26.31398
662.77	28.91149
662.96	33.73622
663.151	28.21942
663.342	20.48482
663.533	27.49329
663.724	25.08874
663.915	31.35924
664.106	24.10181
664.297	30.89335
664.488	28.09573
664.678	22.50578
664.869	27.83152
665.06	28.55887
665.251	26.00657
665.442	27.02271
665.632	21.49216
665.823	30.91464
666.014	15.79482
666.204	27.75436
666.395	29.29942
666.586	33.95494
666.776	28.59571
666.967	31.17873
667.158	26.05534
667.348	29.85959
667.539	21.95548
667.729	28.2106
667.92	22.73177
668.111	28.93774
668.301	27.65437
668.492	24.8574
668.682	26.16232
668.873	25.51879
669.063	22.4919
669.253	27.02927
669.444	29.02799
669.634	25.43088
669.825	33.48876
670.015	29.83046
670.206	22.51056
670.396	32.01662
670.586	25.80596
670.777	27.22839
670.967	18.63127
671.157	25.56678
671.347	22.24534
671.538	32.17773
671.728	28.36517
671.918	33.36079
672.108	30.06517
672.299	25.95104
672.489	27.75024
672.679	24.29868
672.869	27.70214
673.059	33.90829
673.249	28.32577
673.44	21.84652
673.63	26.10468
673.82	30.7231
674.01	23.31765
674.2	27.8779
674.39	36.68383
674.58	29.91133
674.77	26.30557
674.96	26.88423
675.15	41.3092
675.34	32.14204
675.53	26.90077
675.72	26.32442
675.91	21.17714
676.099	34.40155
676.289	36.13523
676.479	30.90375
676.669	24.66627
676.859	27.43865
677.049	22.81687
677.238	26.73892
677.428	33.67572
677.618	29.54967
677.808	31.77217
677.997	28.88065
678.187	23.64146
678.377	27.41953
678.567	26.02157
678.756	25.65545
678.946	26.85303
679.136	22.69036
679.325	24.8665
679.515	24.35624
679.704	23.55589
679.894	30.17776
680.084	28.87766
680.273	31.40098
680.463	25.84269
680.652	25.04591
680.842	27.86459
681.031	31.04195
681.221	26.0573
681.41	30.00918
681.6	26.38356
681.789	31.14487
681.978	32.06097
682.168	29.00118
682.357	27.77009
682.547	30.9896
682.736	28.78105
682.925	32.59129
683.115	31.54556
683.304	30.92351
683.493	29.95846
683.682	29.16663
683.872	30.45454
684.061	33.78266
684.25	30.12689
684.439	35.64515
684.629	31.0608
684.818	42.26958
685.007	27.55855
685.196	27.35572
685.385	35.34031
685.574	29.52289
685.763	30.45959
685.952	29.57173
686.142	23.6562
686.331	34.40665
686.52	21.19073
686.709	37.7029
686.898	36.01288
687.087	31.77818
687.276	36.15448
687.465	33.62924
687.654	29.49709
687.842	35.24065
688.031	24.88282
688.22	35.39207
688.409	29.21404
688.598	30.1442
688.787	41.16661
688.976	28.82213
689.165	38.19024
689.353	28.50226
689.542	31.52029
689.731	33.32847
689.92	38.95821
690.108	33.40263
690.297	29.38656
690.486	30.3104
690.675	34.93385
690.863	37.64542
691.052	37.86447
691.241	30.19904
691.429	31.11141
691.618	38.02016
691.806	25.87376
691.995	27.93532
692.184	31.18081
692.372	28.70219
692.561	32.84085
692.749	31.44627
692.938	43.14064
693.126	33.19208
693.315	30.50206
693.503	34.70368
693.692	33.44089
693.88	35.99382
694.068	41.19765
694.257	31.62748
694.445	33.35418
694.634	22.25229
694.822	36.29565
695.01	38.37629
695.199	39.71983
695.387	39.40684
695.575	36.24999
695.763	31.36281
695.952	29.44293
696.14	26.48963
696.328	29.18854
696.516	31.93163
696.705	33.05418
696.893	32.03926
697.081	22.99556
697.269	35.07619
697.457	26.32927
697.645	26.77719
697.833	34.63332
698.021	27.73439
698.21	28.64313
698.398	30.92495
698.586	27.5396
698.774	26.10406
698.962	31.02372
699.15	28.07441
699.338	25.37342
699.526	33.50849
699.714	29.50233
699.901	29.75952
700.089	36.58787
700.277	29.08732
700.465	31.08302
700.653	36.57861
700.841	34.61528
701.029	28.59386
701.217	37.61863
701.404	33.26038
701.592	40.56634
701.78	42.10874
701.968	32.17165
702.155	32.22893
702.343	25.32092
702.531	37.89248
702.718	34.74689
702.906	32.44442
703.094	30.23659
703.281	38.68839
703.469	33.68195
703.657	39.38924
703.844	49.36008
704.032	42.81992
704.219	30.00111
704.407	36.08822
704.595	40.76779
704.782	34.25097
704.97	32.0902
705.157	32.14068
705.345	40.37861
705.532	49.58756
705.719	35.77117
705.907	42.39527
706.094	34.40123
706.282	43.59379
706.469	32.48578
706.656	36.03714
706.844	32.17482
707.031	40.54072
707.218	36.0075
707.406	44.58983
707.593	38.39478
707.78	38.80187
707.968	34.11648
708.155	29.70976
708.342	40.04823
708.529	38.77763
708.716	36.66818
708.904	44.16488
709.091	38.97215
709.278	28.78087
709.465	48.89891
709.652	44.18195
709.839	41.87843
710.026	38.14163
710.213	26.90174
710.4	38.64852
710.587	41.08066
710.774	43.45598
710.961	41.61061
711.148	35.9272
711.335	42.84347
711.522	35.39325
711.709	37.96511
711.896	49.36869
712.083	42.85143
712.27	31.85376
712.457	36.61958
712.644	28.43454
712.831	49.20812
713.017	37.82963
713.204	42.54374
713.391	33.27679
713.578	44.26291
713.765	46.86691
713.951	41.15806
714.138	56.78263
714.325	41.59922
714.512	38.03333
714.698	33.21851
714.885	47.76944
715.072	40.99895
715.258	39.7908
715.445	34.54305
715.631	45.63793
715.818	23.76607
716.005	35.57602
716.191	42.61785
716.378	36.75198
716.564	46.4013
716.751	34.60554
716.937	37.15457
717.124	46.38666
717.31	34.74704
717.497	51.37289
717.683	35.58997
717.869	54.57673
718.056	35.33362
718.242	43.2627
718.429	39.43801
718.615	30.91425
718.801	39.45571
718.988	46.77579
719.174	42.53076
719.36	38.51963
719.547	47.39041
719.733	41.7635
719.919	42.12103
720.105	46.72483
720.291	41.35347
720.478	41.85176
720.664	40.55485
720.85	36.82816
721.036	60.94191
721.222	50.29518
721.408	39.81649
721.595	57.20169
721.781	53.71755
721.967	48.86288
722.153	52.53957
722.339	46.64039
722.525	44.26558
722.711	34.5864
722.897	32.54087
723.083	38.05217
723.269	50.98242
723.455	62.82512
723.641	68.58931
723.827	43.86623
724.012	46.25482
724.198	42.02943
724.384	51.36984
724.57	45.31301
724.756	30.01282
724.942	27.627
725.127	51.73795
725.313	55.06912
725.499	51.82443
725.685	55.66905
725.87	43.99266
726.056	35.7857
726.242	52.13068
726.428	31.90621
726.613	49.83307
726.799	39.11308
726.985	34.89079
727.17	30.6051
727.356	56.77036
727.541	34.48278
727.727	39.79896
727.913	49.00841
728.098	37.29708
728.284	48.6416
728.469	33.64295
728.655	36.79509
728.84	48.76784
729.026	48.8948
729.211	48.53678
729.397	48.21576
729.582	47.62653
729.767	45.16841
729.953	46.99538
730.138	51.77527
730.323	26.07091
730.509	36.36701
730.694	56.79914
730.879	46.7418
731.065	45.81689
731.25	61.36236
731.435	49.5241
731.621	32.16628
731.806	40.01774
731.991	46.54033
732.176	31.73121
732.361	55.21816
732.547	47.19233
732.732	31.19838
732.917	63.95908
733.102	34.81063
733.287	37.3246
733.472	44.78264
733.657	44.18017
733.842	31.49756
734.027	40.27041
734.212	41.06144
734.397	37.60469
734.582	47.04563
734.767	54.2387
734.952	57.33594
735.137	24.00541
735.322	58.05563
735.507	47.19041
735.692	47.39519
735.877	65.79125
736.062	60.97296
736.247	48.48945
736.431	40.66282
736.616	56.34729
736.801	47.77392
736.986	44.709
737.171	38.95752
737.355	31.82147
737.54	58.15132
737.725	47.00286
737.909	71.44491
738.094	39.98901
738.279	51.55951
738.463	43.06553
738.648	52.66394
738.833	49.89905
739.017	63.83987
739.202	41.09388
739.386	44.42273
739.571	38.35659
739.756	53.95631
739.94	47.12623
740.125	53.48887
740.309	39.32124
740.494	51.94375
740.678	47.75225
740.863	51.19514
741.047	49.95289
741.231	57.78643
741.416	40.54006
741.6	61.04899
741.785	38.24518
741.969	57.7524
742.153	59.48276
742.338	28.50848
742.522	46.85591
742.706	57.79642
742.89	33.36323
743.075	49.42934
743.259	61.62544
743.443	56.86615
743.627	64.71123
743.812	72.66396
743.996	24.04159
744.18	46.73564
744.364	43.05306
744.548	75.2744
744.732	46.72311
744.916	56.5277
745.1	53.40302
745.285	48.16141
745.469	55.7453
745.653	71.30798
745.837	35.87911
746.021	73.4667
746.205	60.38412
746.389	49.16092
746.573	46.58378
746.757	65.51129
746.94	47.65112
747.124	62.01385
747.308	37.75953
747.492	61.24311
747.676	41.47052
747.86	80.28055
748.044	45.51534
748.227	32.08956
748.411	94.87895
748.595	52.21962
748.779	39.49099
748.963	53.731
749.146	50.85186
749.33	41.93491
749.514	37.64544
749.697	61.24193
749.881	41.19355
750.065	37.03907
750.248	48.97003
750.432	75.60808
750.616	51.13356
750.799	35.96158
750.983	72.94664
751.166	79.52434
751.35	34.38311
751.533	64.0349
751.717	64.5801
751.9	69.62482
752.084	44.99348
752.267	36.83124
752.451	42.78395
752.634	52.50627
752.818	56.67443
753.001	60.26792
753.184	63.51622
753.368	54.41282
753.551	14.00448
753.734	42.90791
753.918	76.01723
754.101	45.43826
754.284	59.488
754.467	47.67709
754.651	44.48732
754.834	41.09139
755.017	65.28251
755.2	64.17926
755.384	38.70042
755.567	59.74788
755.75	65.41334
755.933	49.72916
756.116	54.88117
756.299	43.95848
756.482	39.93439
756.665	57.45132
756.848	52.14779
757.032	56.98189
757.215	34.37008
757.398	40.7391
757.581	38.52368
757.764	83.33767
757.947	51.66501
758.129	64.3316
758.312	17.89691
758.495	50.24462
758.678	50.001
758.861	48.82393
759.044	77.58817
759.227	39.88844
759.41	42.05645
759.592	63.89026
759.775	50.66429
759.958	62.48784
760.141	36.00731
760.324	77.35883
760.506	71.86615
760.689	62.55172
760.872	82.6734
761.054	57.41198
761.237	46.99978
761.42	58.7657
761.602	66.22179
761.785	55.27288
761.968	65.48135
762.15	76.88895
762.333	48.10839
762.515	55.32088
762.698	44.08732
762.88	57.79088
763.063	50.03521
763.245	58.69802
763.428	38.32036
763.61	36.80854
763.793	35.52206
763.975	50.39719
764.158	45.44441
764.34	41.77469
764.522	39.20357
764.705	47.05752
764.887	65.90168
765.069	33.55142
765.252	59.12098
765.434	57.90125
765.616	50.28834
765.799	44.92069
765.981	58.01341
766.163	43.12687
766.345	67.1931
766.528	46.59789
766.71	26.21753
766.892	53.39696
767.074	68.9986
767.256	46.96302
767.438	76.85411
767.62	56.63159
767.802	87.39941
767.985	61.37671
768.167	79.16518
768.349	47.79657
768.531	62.99249
768.713	55.63228
768.895	73.70234
769.077	59.33086
769.259	95.90609
769.441	134.98742
769.623	73.61982
769.804	84.35514
769.986	83.55568
770.168	97.20019
770.35	120.23619
770.532	92.7613
770.714	92.60321
770.896	99.34181
771.077	42.13521
771.259	95.09009
771.441	81.54706
771.623	106.30513
771.804	129.05644
771.986	41.03288
772.168	64.00555
772.35	99.63766
772.531	144.53929
772.713	77.70668
772.894	107.22611
773.076	81.33623
773.258	66.04685
773.439	104.75004
773.621	121.02211
773.802	52.42752
773.984	74.8945
774.166	81.61595
774.347	123.35477
774.529	110.35081
774.71	31.64405
774.891	82.17066
775.073	79.83594
775.254	126.27143
775.436	66.27837
775.617	133.96725
775.799	65.46953
775.98	124.00881
776.161	128.67858
776.343	121.19928
776.524	78.253
776.705	75.1983
776.886	37.13887
777.068	83.22797
777.249	148.07444
777.43	129.43261
777.611	52.72311
777.793	79.66289
777.974	116.90126
778.155	72.13787
778.336	57.06337
778.517	133.04948
778.698	66.87003
778.879	35.9613
779.061	21.9376
779.242	96.83055
779.423	95.15066
779.604	66.98484
779.785	78.22837
779.966	88.08813
780.147	101.21002
780.328	110.99913
780.509	146.12884
780.69	107.83275
780.871	65.00929
781.051	47.68488
781.232	87.78062
781.413	86.56509
781.594	70.15387
781.775	72.59338
781.956	68.61885
782.137	38.33796
782.317	66.31668
782.498	89.49191
782.679	89.81543
782.86	85.84097
783.04	67.00282
783.221	93.7126
783.402	133.42406
783.583	85.17307
783.763	103.81213
783.944	72.9699
784.124	50.84902
784.305	126.59251
784.486	104.28377
784.666	80.82044
784.847	50.58945
785.027	169.82159
785.208	71.63864
785.388	69.52533
785.569	63.86083
785.749	74.35941
785.93	66.69901
786.11	44.8523
786.291	100.2759
786.471	90.83397
786.652	104.45068
786.832	81.55978
787.012	90.87469
787.193	52.40617
787.373	86.69749
787.553	74.19876
787.734	88.75395
787.914	70.99769
788.094	91.80636
788.275	94.0605
788.455	70.6247
788.635	46.83003
788.815	84.75169
788.995	52.32077
789.176	45.70963
789.356	60.78268
789.536	69.89964
789.716	90.98118
789.896	58.05045
790.076	68.95934
790.256	84.75208
790.436	28.20085
790.616	57.25571
790.796	85.48341
790.976	67.78003
791.156	62.9684
791.336	106.6685
791.516	86.05146
791.696	73.67674
791.876	39.18732
792.056	83.58557
792.236	101.84388
792.416	99.81461
792.596	92.33588
792.776	97.42708
792.956	96.8819
793.135	123.66378
793.315	53.69549
793.495	113.15326
793.675	104.65542
793.854	101.96074
794.034	102.81232
794.214	52.05066
794.394	97.67716
794.573	113.76776
794.753	85.61892
794.933	64.27802
795.112	84.55177
795.292	99.66053
795.472	130.59148
795.651	50.66694
795.831	79.33877
796.01	68.06319
796.19	71.57483
796.369	71.72598
796.549	92.99817
796.728	73.80344
796.908	55.21924
797.087	54.78456
797.267	81.04353
797.446	52.33006
797.626	94.67768
797.805	89.26938
797.984	61.04826
798.164	91.80158
798.343	55.00252
798.522	84.73781
798.702	76.90968
798.881	54.21753
799.06	77.68575
799.239	41.79729
799.419	55.72144
799.598	122.24996
799.777	95.93247
799.956	112.72455
800.136	64.88093
800.315	68.23485
800.494	96.02176
800.673	111.34567
800.852	101.25172
801.031	116.38859
801.21	99.00473
801.389	65.59259
801.568	88.2152
801.747	136.81666
801.926	79.61303
802.105	116.37185
802.284	75.39244
802.463	120.29013
802.642	88.19178
802.821	90.26815
803	117.27081
803.179	103.12713
803.358	115.56682
803.537	68.24834
803.716	91.66171
803.895	65.28027
804.073	84.82427
804.252	71.50828
804.431	98.55575
804.61	80.98073
804.789	113.04616
804.967	66.65839
805.146	72.03254
805.325	147.3531
805.503	97.4995
805.682	43.61679
805.861	158.4295
806.039	117.943
806.218	64.50818
806.397	93.67262
806.575	85.16758
806.754	92.26836
806.932	60.32975
807.111	132.25878
807.289	109.99126
807.468	92.6313
807.646	108.02003
807.825	94.44994
808.003	97.46291
808.182	112.84376
808.36	83.9931
808.539	65.49149
808.717	124.10069
808.895	60.6033
809.074	89.59144
809.252	80.99179
809.43	111.96168
809.609	129.3711
809.787	143.19086
809.965	84.19008
810.144	86.54606
810.322	74.22988
810.5	106.43268
810.678	82.76941
810.856	159.01534
811.035	115.05492
811.213	119.20103
811.391	127.35901
811.569	87.83509
811.747	197.18386
811.925	141.9186
812.103	72.32563
812.281	73.91893
812.459	161.83555
812.637	142.66733
812.816	133.26937
812.994	159.75687
813.171	126.92335
813.349	114.13546
813.527	140.56176
813.705	145.46137
813.883	152.42434
814.061	129.0411
814.239	153.85776
814.417	162.93232
814.595	112.61388
814.773	105.8414
814.95	106.88848
815.128	105.20354
815.306	89.58494
815.484	87.67164
815.662	74.35246
815.839	63.87614
816.017	71.7813
816.195	114.29106
816.372	86.08727
816.55	133.11819
816.728	136.33401
816.905	90.40504
817.083	131.90536
817.261	91.87206
817.438	193.56291
817.616	157.26638
817.793	78.1397
817.971	122.27721
818.148	122.29188
818.326	140.05985
818.503	102.89956
818.681	147.2892
818.858	78.8998
819.036	91.56312
819.213	106.83462
819.391	73.62035
819.568	67.90682
819.745	62.73062
819.923	102.29571
820.1	70.39925
820.277	63.77868
820.455	75.53847
820.632	80.39563
820.809	81.48449
820.986	51.77468
821.164	43.37238
821.341	38.95392
821.518	52.44974
821.695	41.36295
821.872	40.06575
822.05	35.55666
822.227	31.75257
822.404	33.52611
822.581	36.13808
822.758	34.84498
822.935	34.55065
823.112	38.8402
823.289	33.9965
823.466	38.71918
823.643	38.2774
823.82	42.85395
823.997	40.81539
824.174	45.40168
824.351	55.52006
824.528	54.77485
824.705	50.09312
824.882	53.58872
825.059	65.72156
825.236	51.07756
825.412	51.30014
825.589	60.17238
825.766	77.86399
825.943	52.53597
826.12	62.83511
826.296	45.12596
826.473	53.68441
826.65	52.59843
826.827	61.07404
827.003	43.2813
827.18	47.30404
827.357	52.15691
827.533	46.78221
827.71	33.25872
827.887	44.38191
828.063	49.23081
828.24	45.95753
828.416	57.57447
828.593	50.70944
828.769	68.22407
828.946	71.3836
829.122	75.41451
829.299	79.0032
829.475	48.66829
829.652	74.78536
829.828	115.85495
830.005	72.60227
830.181	106.62248
830.357	73.3357
830.534	94.83822
830.71	84.4347
830.886	106.43345
831.063	99.08236
831.239	132.81154
831.415	59.93061
831.592	121.53275
831.768	84.08746
831.944	66.89408
832.12	121.77691
832.296	123.04676
832.473	108.57067
832.649	68.27817
832.825	92.32207
833.001	57.18823
833.177	81.86659
833.353	71.11256
833.529	45.49103
833.705	61.07043
833.881	49.16
834.058	48.7058
834.234	50.45605
834.41	50.83638
834.586	42.7771
834.761	48.24868
834.937	53.22679
835.113	57.05602
835.289	52.96652
835.465	63.71134
835.641	54.10905
835.817	62.15729
835.993	108.17256
836.169	58.0161
836.344	82.44057
836.52	91.00227
836.696	103.69904
836.872	66.5291
837.048	205.97257
837.223	80.34413
837.399	170.868
837.575	140.20104
837.75	129.90108
837.926	180.14595
838.102	273.22835
838.277	197.94465
838.453	287.78412
838.628	286.0315
838.804	111.065
838.98	257.17931
839.155	128.23013
839.331	172.00463
839.506	119.74246
839.682	109.97371
839.857	159.80532
840.033	169.57856
840.208	84.67367
840.384	50.36356
840.559	87.31139
840.734	131.51211
840.91	168.54364
841.085	114.40461
841.26	113.24805
841.436	123.29089
841.611	105.37481
841.786	160.45056
841.962	243.95807
842.137	159.24148
842.312	69.00471
842.487	139.33081
842.663	117.2586
842.838	131.15199
843.013	544.96853
843.188	310.9645
843.363	179.34018
843.538	504.30129
843.714	522.35886
843.889	464.52887
844.064	521.66365
844.239	284.88873
844.414	579.91034
844.589	314.24604
844.764	734.86279
844.939	489.43697
845.114	439.01003
845.289	704.0438
845.464	807.94835
845.639	754.48384
845.814	250.68053
845.989	515.45564
846.163	404.48364
846.338	745.29582
846.513	631.99194
846.688	358.56123
846.863	746.73085
847.038	407.00962
847.212	343.91424
847.387	769.57787
847.562	396.72732
847.737	580.54812
847.911	262.37271
848.086	241.43825
848.261	503.05204
848.435	354.10064
848.61	554.55408
848.785	265.35761
848.959	528.48767
849.134	654.88911
849.308	1118.76681
849.483	670.53972
849.658	706.27543
849.832	378.19743
850.007	254.93655
850.181	1076.72627
850.356	667.62287
850.53	972.09681
850.705	376.63745
850.879	249.65173
851.053	501.50814
851.228	423.0457
851.402	866.10952
851.577	658.50329
851.751	837.37682
851.925	428.41998
852.099	265.86155
852.274	288.81398
852.448	388.81503
852.622	1076.70183
852.797	394.75056
852.971	499.45176
853.145	829.23178
853.319	1018.17877
853.493	1202.95846
853.668	500.55954
853.842	1508.67249
854.016	1154.36437
854.19	1622.4205
854.364	653.87545
854.538	681.07045
854.712	720.64945
854.886	411.6319
855.06	364.69722
855.234	219.37901
855.408	843.87286
855.582	581.82778
855.756	929.85016
855.93	605.58863
856.104	706.0839
856.278	787.59513
856.452	385.35822
856.626	659.19762
856.8	1143.75986
856.973	1208.02323
857.147	1192.817
857.321	1490.37367
857.495	547.03267
857.669	860.58635
857.842	669.57766
858.016	524.01027
858.19	369.65427
858.364	1366.70115
858.537	636.89221
858.711	1138.11544
858.885	895.59346
859.058	302.01832
859.232	304.04587
859.405	437.31574
859.579	768.64979
859.753	716.6699
859.926	866.79287
860.1	441.59337
860.273	1018.76203
860.447	911.67332
860.62	670.90874
860.794	876.95836
860.967	660.16558
861.141	549.46421
861.314	738.7168
861.487	707.53758
861.661	529.95555
861.834	852.96245
862.008	1104.52604
862.181	820.89777
862.354	1390.62583
862.528	672.01406
862.701	386.37819
862.874	359.58263
863.047	443.86009
863.221	508.49971
863.394	334.05385
863.567	469.21302
863.74	176.41384
863.913	1122.19745
864.087	594.5764
864.26	652.53827
864.433	657.85524
864.606	1046.77997
864.779	1477.4367
864.952	305.3197
865.125	1017.13441
865.298	605.67388
865.471	580.32855
865.644	996.69478
865.817	582.98901
865.99	993.43832
866.163	870.99038
866.336	452.97505
866.509	433.45023
866.682	623.78295
866.855	1229.7948
867.028	230.24894
867.2	634.0575
867.373	123.01659
867.546	498.69973
867.719	1254.78565
867.892	661.00435
868.064	420.0919
868.237	477.00899
868.41	497.07509
868.583	257.8455
868.755	325.11477
868.928	603.64627
869.101	923.41886
869.273	1733.53219
869.446	464.72375
869.619	892.58145
869.791	491.29945
869.964	789.66186
870.136	1013.35029
870.309	419.08523
870.481	412.22538
870.654	377.77414
870.826	453.90229
870.999	351.74139
871.171	558.15147
871.344	327.42936
871.516	463.89463
871.689	418.09443
871.861	587.34629
872.033	344.18315
872.206	389.42757
872.378	516.91831
872.55	521.27455
872.723	364.55397
872.895	660.34819
873.067	556.27129
873.24	509.86523
873.412	464.62781
873.584	378.51341
873.756	620.62296
873.928	769.74139
874.101	380.23441
874.273	505.98236
874.445	148.95244
874.617	301.07795
874.789	386.65735
874.961	359.2656
875.133	462.29271
875.305	547.92057
875.477	433.48205
875.649	233.97853
875.821	338.50173
875.993	744.23999
876.165	368.44268
876.337	513.08177
876.509	486.1752
876.681	467.91493
876.853	453.17074
877.025	735.10332
877.197	258.54906
877.369	266.15372
877.541	426.10921
877.712	107.25144
877.884	209.30043
878.056	507.84315
878.228	227.94108
878.4	500.55187
878.571	255.19628
878.743	182.67901
878.915	310.74615
879.086	180.14925
879.258	207.44694
879.43	190.57923
879.601	165.41428
879.773	151.53273
879.945	43.12215
880.116	63.81741
880.288	43.41041
880.459	44.91973
880.631	38.96803
880.802	44.94055
880.974	43.0167
881.145	32.75935
881.317	40.76888
881.488	36.02721
881.66	38.62928
881.831	34.66573
882.002	44.72281
882.174	37.3023
882.345	43.24415
882.517	30.49735
882.688	51.73369
882.859	42.00008
883.03	66.63534
883.202	60.84129
883.373	57.81763
883.544	55.6266
883.715	87.4012
883.887	77.68391
884.058	71.67174
884.229	92.86823
884.4	89.81269
884.571	115.58012
884.742	85.45297
884.914	97.86033
885.085	146.71564
885.256	187.72004
885.427	153.00806
885.598	167.75299
885.769	192.79617
885.94	186.87801
886.111	116.0156
886.282	206.29463
886.453	223.82425
886.624	161.26076
886.795	250.70009
886.966	219.88107
887.136	272.85627
887.307	196.80979
887.478	404.24752
887.649	338.32764
887.82	368.25228
887.991	265.60731
888.161	420.78338
888.332	412.00715
888.503	238.5883
888.674	468.84041
888.844	705.83712
889.015	663.41033
889.186	297.73482
889.356	654.04341
889.527	354.06126
889.698	1028.32649
889.868	295.72484
890.039	560.91175
890.209	374.63688
890.38	601.50227
890.551	470.80779
890.721	768.17753
890.892	518.78051
891.062	1067.94113
891.233	546.67984
891.403	733.98509
891.574	541.16445
891.744	331.53249
891.914	372.96261
892.085	496.13099
892.255	117.39231
892.425	539.79907
892.596	427.2352
892.766	518.40262
892.936	778.42637
893.107	439.99083
893.277	225.32244
893.447	189.61726
893.618	134.73033
893.788	249.37347
893.958	121.18758
894.128	100.13167
894.298	133.8067
894.468	170.32879
894.639	82.26897
894.809	60.06809
894.979	84.40986
895.149	111.00433
895.319	82.45841
895.489	118.71898
895.659	150.88721
895.829	95.05508
895.999	108.12136
896.169	91.96544
896.339	128.92362
896.509	260.66125
896.679	239.09213
896.849	272.98567
897.019	335.40227
897.189	358.15247
897.358	301.83554
897.528	506.19332
897.698	229.11727
897.868	347.24976
898.038	880.91344
898.208	1002.0741
898.377	228.56403
898.547	1882.88196
898.717	3231.22502
898.886	853.82287
899.056	773.71237
899.226	2067.80581
899.395	2137.37622
899.565	2563.82586
899.735	4444.13608
899.904	1659.25973
900.074	5568.72198
900.244	670.69662
900.413	3377.06431
900.583	872.39297
900.752	-1847.03104
900.922	1049.83331
901.091	371.35921
901.261	2130.21796
901.43	1194.2387
901.599	3171.76535
901.769	2777.56587
901.938	2597.45375
902.108	962.79671
902.277	1452.28703
902.446	456.23478
902.616	659.03529
902.785	561.13747
902.954	849.02069
903.124	517.06827
903.293	380.67816
903.462	139.60328
903.631	215.96356
903.801	155.25529
903.97	74.97291
904.139	123.13028
904.308	98.41166
904.477	78.52795
904.646	54.35177
904.816	76.25133
904.985	116.1275
905.154	177.65865
