Data from WindowProjectSample_Transmission__48__00048.txt Node

Date: Mon May 05 18:05:59 EDT 2025
User: jessi
Spectrometer: SR400872
Trigger mode: 0
Integration Time (sec): 5.000010E-1
Scans to average: 20
Electric dark correction enabled: true
Nonlinearity correction enabled: true
Boxcar width: 0
XAxis mode: Wavelengths
Number of Pixels in Spectrum: 3648
>>>>>Begin Spectral Data<<<<<
184.909	21111.12633
185.132	-5274.15082
185.355	-3061.38428
185.578	-18246.32072
185.801	1001.44328
186.024	10203.55824
186.247	-1860.49379
186.47	1229.25808
186.693	363.59281
186.916	278.01115
187.139	-3756.6174
187.362	3798.09719
187.585	4184.61956
187.808	3786.79503
188.031	12.51946
188.254	-56780.73789
188.476	-702.46575
188.699	6503.63442
188.922	693.85246
189.145	-15452.92743
189.368	-777.63062
189.591	-1377.36304
189.813	3218.34903
190.036	-52167.01541
190.259	-917.40846
190.482	-4459.99437
190.705	7105.27848
190.927	-2574.04307
191.15	13968.01654
191.373	3602.97099
191.595	-9307.85753
191.818	-4153.29005
192.041	-5460.01512
192.263	-3515.28877
192.486	-898.29753
192.709	-4103.90832
192.931	8204.24989
193.154	-28509.76514
193.377	-2991.21551
193.599	-2603.53632
193.822	-9375.02488
194.044	-1978.19889
194.267	1226.70133
194.489	249.74108
194.712	-42743.29656
194.934	-33044.45863
195.157	1220.40451
195.379	1604.16994
195.602	-6785.83586
195.824	-1372.09649
196.047	-9654.37379
196.269	2846.45938
196.492	-6692.94524
196.714	29194.9091
196.936	-8772.50624
197.159	-1141.95986
197.381	1160.08526
197.604	451.32951
197.826	12032.86823
198.048	-10946.89174
198.271	-2804.19275
198.493	7825.86357
198.715	2490.76279
198.938	-522.48639
199.16	7111.47808
199.382	-104403.38254
199.604	2829.88786
199.827	-1015.50197
200.049	-2758.43074
200.271	14887.26834
200.493	1201.49869
200.715	-39442.26797
200.938	-6179.97134
201.16	-4190.35346
201.382	20970.93536
201.604	2357.03049
201.826	2273.00829
202.048	-1923.6918
202.27	-1940.5404
202.492	-36197.13957
202.715	2848.28803
202.937	-4862.63757
203.159	-6609.6634
203.381	1606.13563
203.603	6643.6036
203.825	7107.22919
204.047	2240.75339
204.269	-2993.20528
204.491	2291.37348
204.713	6046.91253
204.935	-504820.0381
205.156	1242.06849
205.378	-3079.70678
205.6	1642.13445
205.822	154473.71268
206.044	-1236.65756
206.266	1604.70921
206.488	4993.60535
206.71	-5229.49601
206.932	1113.15426
207.153	12586.27256
207.375	-6868.9728
207.597	-38892.08198
207.819	-2967.59466
208.041	2527.05416
208.262	495.80795
208.484	780.34061
208.706	-829.83626
208.927	-888.14017
209.149	578.59233
209.371	-2881.29262
209.593	-258.75231
209.814	-828.64227
210.036	664.39663
210.258	-671.81029
210.479	1761.30477
210.701	1556.6466
210.922	3470.09688
211.144	-3894.55367
211.366	2204.47375
211.587	7191.6588
211.809	-8311.21306
212.03	2406.96662
212.252	522.83575
212.473	2210.15804
212.695	-5891.132
212.916	2731.03922
213.138	-661.79822
213.359	3653.29776
213.581	5234.27012
213.802	-816.4565
214.024	1124.04784
214.245	2151.13569
214.466	4032.29093
214.688	-3208.09523
214.909	-1288.42366
215.131	-1842.04202
215.352	-3294.56227
215.573	15345.15497
215.795	5188.50155
216.016	5684.963
216.237	877.99869
216.459	3745.89074
216.68	1870.32712
216.901	5107.37893
217.122	-3227.22938
217.344	-12098.26012
217.565	3487.24987
217.786	9293.00107
218.007	17463.7276
218.228	-949.20708
218.45	5882.71354
218.671	750.67147
218.892	37194.25898
219.113	1655.40359
219.334	-323.39446
219.555	10731.01096
219.776	3188.4165
219.997	23447.46646
220.219	2631.5954
220.44	-11143.72693
220.661	464.85824
220.882	1543.22194
221.103	-1100.72148
221.324	2351.9577
221.545	2335.45995
221.766	-8973.50867
221.987	963.35088
222.208	1610.97995
222.429	4420.93532
222.65	220.7539
222.87	18648.09819
223.091	727.59683
223.312	603.87234
223.533	1369.6823
223.754	1532.27306
223.975	1422.50795
224.196	2049.73084
224.417	1340.22316
224.637	615.06401
224.858	135.51158
225.079	1124.78651
225.3	657.13241
225.521	3783.18435
225.741	485.61359
225.962	558.08681
226.183	142.61963
226.404	665.69804
226.624	432.65134
226.845	655.7868
227.066	413.04814
227.286	264.48622
227.507	136.85465
227.728	117.46015
227.948	245.35743
228.169	77.12079
228.389	86.23674
228.61	49.34053
228.831	62.19208
229.051	1.57544
229.272	40.10547
229.492	57.90008
229.713	13.81075
229.933	36.32603
230.154	32.5064
230.374	54.98617
230.595	38.44691
230.815	24.04012
231.036	39.03567
231.256	-8.57867
231.477	70.81707
231.697	41.53012
231.917	38.82784
232.138	57.85977
232.358	110.39113
232.579	107.33297
232.799	18.20845
233.019	102.77499
233.24	113.91923
233.46	38.09465
233.68	66.47196
233.901	43.95122
234.121	24.79164
234.341	11.69598
234.561	-2.75007
234.782	22.2831
235.002	67.36156
235.222	-3.78883
235.442	68.02634
235.662	34.68895
235.883	62.68376
236.103	51.76946
236.323	42.31321
236.543	32.03283
236.763	39.96646
236.983	43.23229
237.203	41.54712
237.423	64.45011
237.643	90.00488
237.864	75.06222
238.084	16.44497
238.304	28.91851
238.524	46.87367
238.744	41.79972
238.964	74.46408
239.184	62.53009
239.404	68.21745
239.624	33.89828
239.843	62.77498
240.063	36.91834
240.283	22.59617
240.503	26.0698
240.723	26.26884
240.943	12.74203
241.163	20.61147
241.383	15.44445
241.603	7.01498
241.822	9.85548
242.042	6.94978
242.262	8.2071
242.482	9.50183
242.702	11.19096
242.921	3.13575
243.141	6.74022
243.361	6.41413
243.581	9.38653
243.8	7.97452
244.02	5.2118
244.24	9.19462
244.459	9.26481
244.679	17.92798
244.899	11.33751
245.118	12.86933
245.338	12.74299
245.558	14.35809
245.777	8.69242
245.997	10.87204
246.216	10.54657
246.436	6.81581
246.655	4.88523
246.875	3.42604
247.094	6.31352
247.314	2.16604
247.533	3.71317
247.753	4.45396
247.972	3.55698
248.192	1.23602
248.411	1.82083
248.631	3.58457
248.85	4.6597
249.07	4.02875
249.289	6.02309
249.508	5.07269
249.728	7.88941
249.947	7.45503
250.166	8.76031
250.386	4.11104
250.605	7.3224
250.824	10.89858
251.044	7.66676
251.263	28.62691
251.482	14.63592
251.701	11.86431
251.921	-0.29818
252.14	3.50357
252.359	3.9243
252.578	10.12423
252.798	3.52216
253.017	9.44916
253.236	4.49742
253.455	5.85138
253.674	10.53243
253.893	5.03492
254.112	8.06418
254.331	11.57424
254.551	9.21025
254.77	3.69111
254.989	13.3388
255.208	9.49864
255.427	14.81816
255.646	11.85299
255.865	22.3766
256.084	8.56721
256.303	11.05795
256.522	13.63014
256.741	2.6299
256.96	2.77574
257.179	7.72941
257.397	10.67835
257.616	6.10483
257.835	6.53516
258.054	15.57718
258.273	10.80757
258.492	11.34485
258.711	6.99661
258.93	3.28786
259.148	4.85625
259.367	4.68247
259.586	5.45923
259.805	2.51712
260.023	5.30437
260.242	4.04146
260.461	2.85995
260.68	1.40008
260.898	4.35938
261.117	1.53072
261.336	1.01981
261.554	3.49698
261.773	3.55517
261.992	1.04368
262.21	3.49621
262.429	3.76752
262.648	7.6715
262.866	8.24456
263.085	6.01938
263.303	5.11501
263.522	8.73465
263.74	9.51505
263.959	15.50869
264.178	7.21597
264.396	6.71664
264.615	4.61962
264.833	10.96182
265.051	8.91715
265.27	10.97749
265.488	11.23909
265.707	6.35071
265.925	11.0785
266.144	4.93394
266.362	5.87697
266.58	5.59748
266.799	5.07576
267.017	6.17888
267.235	5.32183
267.454	3.35418
267.672	2.0893
267.89	4.15791
268.109	4.57552
268.327	4.399
268.545	1.0549
268.763	4.1697
268.982	1.69663
269.2	4.71589
269.418	2.9422
269.636	1.94704
269.854	4.749
270.073	3.37003
270.291	2.08877
270.509	1.70017
270.727	4.41561
270.945	7.33343
271.163	7.29868
271.381	1.47435
271.599	3.20451
271.817	5.60445
272.036	1.94597
272.254	3.14937
272.472	2.59665
272.69	2.63581
272.908	2.29805
273.126	4.56319
273.344	5.37229
273.562	1.8312
273.779	2.60217
273.997	3.9411
274.215	4.20155
274.433	2.74665
274.651	4.49596
274.869	4.85554
275.087	2.89683
275.305	4.1946
275.523	2.88692
275.74	3.0661
275.958	5.44958
276.176	8.37818
276.394	2.43184
276.612	3.3449
276.829	3.10037
277.047	2.67582
277.265	3.09627
277.483	3.52951
277.7	4.44504
277.918	3.74727
278.136	6.4129
278.353	2.99477
278.571	1.86243
278.789	4.72379
279.006	1.13591
279.224	2.94056
279.442	5.06478
279.659	3.61503
279.877	2.36025
280.094	5.73691
280.312	1.1473
280.529	3.34943
280.747	1.05339
280.964	2.67203
281.182	6.01994
281.399	2.86774
281.617	3.93755
281.834	2.6032
282.052	1.96387
282.269	3.23477
282.487	2.61298
282.704	2.13638
282.921	2.16835
283.139	3.4619
283.356	4.30703
283.574	3.80598
283.791	1.9466
284.008	5.87815
284.226	3.16878
284.443	3.32585
284.66	4.4706
284.877	3.5395
285.095	2.17637
285.312	1.60927
285.529	0.95252
285.746	0.68076
285.964	2.03253
286.181	1.53156
286.398	1.95209
286.615	2.74593
286.832	2.67308
287.05	0.61701
287.267	1.89518
287.484	1.81501
287.701	2.71646
287.918	2.6669
288.135	2.7111
288.352	1.38337
288.569	1.5421
288.786	2.36307
289.003	2.06693
289.22	3.11336
289.437	1.65649
289.654	3.07188
289.871	3.06101
290.088	2.90427
290.305	2.2941
290.522	1.86844
290.739	2.1732
290.956	3.30841
291.173	3.69408
291.39	3.46799
291.607	2.43584
291.824	1.75801
292.04	1.29205
292.257	3.00544
292.474	3.3405
292.691	1.99006
292.908	0.86759
293.125	1.703
293.341	1.15854
293.558	5.1842
293.775	2.07813
293.992	2.06829
294.208	0.92728
294.425	1.39142
294.642	1.95997
294.858	2.75358
295.075	0.62901
295.292	1.9925
295.508	2.33319
295.725	4.13199
295.942	1.6751
296.158	1.28478
296.375	2.09854
296.591	1.599
296.808	1.75209
297.024	1.90806
297.241	2.24584
297.458	2.46777
297.674	0.13846
297.891	1.90567
298.107	1.48697
298.323	1.09536
298.54	3.06572
298.756	1.28892
298.973	0.63877
299.189	3.07874
299.406	1.22979
299.622	2.90794
299.838	2.70657
300.055	2.65893
300.271	0.56771
300.487	1.07353
300.704	1.36849
300.92	0.63653
301.136	4.20873
301.353	2.59873
301.569	2.01648
301.785	2.15209
302.001	2.70175
302.218	2.1475
302.434	2.24249
302.65	0.64543
302.866	1.55942
303.083	3.98255
303.299	3.77304
303.515	2.00475
303.731	2.14259
303.947	0.65113
304.163	1.2493
304.379	2.19127
304.595	2.47393
304.812	1.34369
305.028	1.30341
305.244	1.77067
305.46	2.67178
305.676	2.63985
305.892	3.0741
306.108	2.40641
306.324	1.54893
306.54	3.6982
306.756	2.46066
306.972	2.52285
307.187	1.6602
307.403	3.57
307.619	1.58276
307.835	3.30717
308.051	3.38908
308.267	0.9712
308.483	2.86339
308.699	2.55192
308.914	1.94035
309.13	1.88418
309.346	0.62352
309.562	0.95517
309.778	0.6383
309.993	2.46116
310.209	1.93552
310.425	0.89554
310.641	1.67218
310.856	0.87874
311.072	0.88216
311.288	1.7413
311.503	1.92647
311.719	0.40514
311.935	0.25563
312.15	2.25324
312.366	1.79938
312.581	2.14909
312.797	1.8577
313.013	2.59433
313.228	1.26997
313.444	1.79681
313.659	1.36238
313.875	2.37092
314.09	1.75143
314.306	3.25684
314.521	2.78152
314.737	2.55182
314.952	2.00368
315.168	1.82219
315.383	2.25415
315.599	1.64158
315.814	1.57619
316.029	2.5619
316.245	0.84114
316.46	0.66927
316.675	3.1676
316.891	3.61609
317.106	4.61745
317.321	2.24934
317.537	2.43648
317.752	2.86124
317.967	2.7141
318.183	1.11464
318.398	1.55464
318.613	2.61658
318.828	3.22256
319.043	2.81159
319.259	1.6771
319.474	2.33752
319.689	3.1697
319.904	0.5677
320.119	2.61414
320.334	2.26922
320.549	1.77053
320.765	2.93984
320.98	2.20245
321.195	2.74621
321.41	1.92906
321.625	2.63448
321.84	3.82178
322.055	3.69178
322.27	1.37563
322.485	1.17907
322.7	2.32102
322.915	2.92318
323.13	1.29293
323.345	3.47367
323.56	2.90315
323.775	2.50823
323.989	2.34131
324.204	2.24665
324.419	2.93826
324.634	0.88081
324.849	1.9347
325.064	4.95535
325.279	2.89932
325.493	2.44366
325.708	2.88219
325.923	1.32712
326.138	1.26456
326.352	3.49112
326.567	2.98725
326.782	1.56979
326.997	1.31242
327.211	2.58082
327.426	2.34683
327.641	1.60522
327.855	0.64362
328.07	2.29289
328.285	3.42795
328.499	1.61546
328.714	2.23798
328.928	2.55763
329.143	1.8919
329.358	2.90015
329.572	2.91592
329.787	3.01891
330.001	4.28009
330.216	0.93733
330.43	3.63521
330.645	3.49779
330.859	2.6372
331.074	1.4683
331.288	2.13992
331.503	3.05886
331.717	1.05149
331.931	2.21458
332.146	2.08072
332.36	3.65621
332.575	2.50548
332.789	2.40053
333.003	2.19436
333.218	2.45778
333.432	1.46651
333.646	2.78976
333.86	3.51405
334.075	3.42926
334.289	1.4955
334.503	1.13662
334.717	2.30315
334.932	2.44799
335.146	3.21835
335.36	1.70429
335.574	2.6137
335.788	2.43609
336.003	2.83814
336.217	2.59943
336.431	2.62528
336.645	1.57977
336.859	0.94883
337.073	1.7726
337.287	2.23303
337.501	1.08734
337.715	2.25245
337.929	2.83482
338.143	1.03351
338.357	1.91706
338.571	1.24228
338.785	2.36828
338.999	1.69566
339.213	1.5661
339.427	0.68491
339.641	3.2619
339.855	1.85856
340.069	1.54149
340.283	2.85616
340.497	3.7002
340.711	2.31528
340.924	1.72442
341.138	0.98948
341.352	0.85311
341.566	2.18537
341.78	0.51468
341.993	1.63979
342.207	1.07985
342.421	2.1262
342.635	1.89081
342.848	1.61678
343.062	0.19111
343.276	1.31488
343.49	3.7841
343.703	1.28654
343.917	2.76725
344.131	2.76661
344.344	1.31246
344.558	1.56127
344.771	1.0519
344.985	3.35066
345.199	3.21265
345.412	2.15851
345.626	2.19112
345.839	0.55645
346.053	0.9535
346.266	1.01978
346.48	2.52756
346.693	2.21299
346.907	2.18141
347.12	1.10267
347.334	2.27212
347.547	2.16508
347.76	1.5174
347.974	2.90414
348.187	2.07302
348.401	1.63273
348.614	1.45086
348.827	1.49555
349.041	2.38535
349.254	0.68959
349.467	1.66129
349.681	0.80566
349.894	1.37511
350.107	2.84512
350.32	3.28244
350.534	0.57524
350.747	1.44373
350.96	1.17868
351.173	1.18996
351.386	1.54527
351.6	1.42696
351.813	1.37948
352.026	1.69314
352.239	0.70084
352.452	1.5866
352.665	2.55854
352.878	1.83737
353.092	3.48188
353.305	2.37268
353.518	1.97829
353.731	1.17379
353.944	2.77431
354.157	1.36717
354.37	1.05606
354.583	0.89572
354.796	0.47331
355.009	2.60497
355.222	1.90071
355.435	1.69978
355.647	2.49054
355.86	1.09807
356.073	1.77646
356.286	1.28215
356.499	2.28195
356.712	1.98919
356.925	2.18265
357.138	2.33285
357.35	0.9963
357.563	1.46012
357.776	1.63912
357.989	1.37844
358.201	2.0413
358.414	1.74531
358.627	2.6597
358.84	1.46572
359.052	0.7033
359.265	0.98065
359.478	2.44239
359.69	-0.27557
359.903	2.13098
360.116	2.37865
360.328	0.42742
360.541	2.21272
360.753	0.83133
360.966	1.11198
361.179	1.19437
361.391	1.10462
361.604	0.84157
361.816	1.1755
362.029	0.95423
362.241	0.82632
362.454	1.09054
362.666	0.80817
362.879	1.5705
363.091	1.2442
363.304	0.89839
363.516	1.46778
363.728	0.67287
363.941	1.91705
364.153	1.20451
364.366	-0.00091
364.578	0.74628
364.79	1.67149
365.003	1.38786
365.215	1.01825
365.427	1.86209
365.639	2.40253
365.852	1.57764
366.064	3.14462
366.276	1.29511
366.488	1.8704
366.701	1.11363
366.913	1.4192
367.125	1.27419
367.337	0.8982
367.549	1.10314
367.762	1.54458
367.974	1.57175
368.186	0.94259
368.398	2.17988
368.61	1.99502
368.822	2.00414
369.034	1.59729
369.246	1.86
369.458	3.71992
369.67	0.9732
369.882	2.84809
370.094	0.23808
370.306	3.00975
370.518	1.29797
370.73	1.07809
370.942	0.94349
371.154	1.45647
371.366	1.1364
371.578	1.74737
371.79	0.94473
372.002	2.33155
372.214	2.85847
372.425	1.58148
372.637	2.43004
372.849	1.8045
373.061	0.14612
373.273	1.77784
373.484	1.77465
373.696	2.14552
373.908	0.14725
374.12	2.4039
374.331	1.88649
374.543	1.03098
374.755	0.94705
374.967	1.70395
375.178	2.0406
375.39	1.41386
375.602	1.61003
375.813	0.62687
376.025	0.79078
376.236	1.67849
376.448	1.79873
376.66	1.27267
376.871	1.27812
377.083	2.51602
377.294	2.5816
377.506	1.24467
377.717	2.51576
377.929	1.73061
378.14	1.07998
378.352	1.88128
378.563	1.80974
378.775	2.65018
378.986	1.05723
379.197	1.66444
379.409	1.18629
379.62	2.17661
379.832	1.89424
380.043	1.47556
380.254	1.83248
380.466	0.96568
380.677	3.81834
380.888	3.05899
381.1	3.46998
381.311	3.41009
381.522	1.81321
381.733	3.74522
381.945	1.71197
382.156	1.86378
382.367	1.33054
382.578	3.73519
382.789	3.65903
383.001	1.53052
383.212	2.84858
383.423	2.91918
383.634	2.68079
383.845	2.31045
384.056	1.50301
384.267	1.92272
384.478	1.82359
384.69	1.24195
384.901	2.20699
385.112	2.15158
385.323	2.94707
385.534	2.33086
385.745	2.12763
385.956	2.22211
386.167	1.29069
386.378	2.31325
386.588	1.35953
386.799	1.4907
387.01	0.93917
387.221	2.55479
387.432	1.97927
387.643	3.26527
387.854	1.90834
388.065	1.8903
388.275	1.99957
388.486	1.86738
388.697	2.03383
388.908	1.88046
389.119	2.97489
389.329	3.26863
389.54	2.23377
389.751	2.50638
389.962	3.03396
390.172	2.48475
390.383	2.05041
390.594	1.85714
390.804	1.81913
391.015	1.89328
391.226	2.39755
391.436	2.68987
391.647	2.55894
391.858	2.75494
392.068	1.29004
392.279	1.69322
392.489	2.50631
392.7	3.10266
392.91	1.88893
393.121	1.95761
393.331	2.70009
393.542	3.27383
393.752	2.74397
393.963	2.82405
394.173	2.67124
394.384	2.98528
394.594	2.62642
394.804	1.88934
395.015	2.75221
395.225	3.02323
395.436	1.99794
395.646	3.01078
395.856	2.28512
396.067	1.95334
396.277	3.34361
396.487	3.09954
396.697	3.01388
396.908	3.18316
397.118	3.21758
397.328	3.05933
397.538	3.51198
397.749	2.42799
397.959	3.53907
398.169	3.39352
398.379	2.18618
398.589	3.47228
398.8	3.07295
399.01	3.15968
399.22	2.94297
399.43	4.57806
399.64	3.1082
399.85	3.61195
400.06	3.29453
400.27	2.73447
400.48	3.26732
400.69	4.27245
400.9	3.00025
401.11	2.70375
401.32	3.84973
401.53	3.19211
401.74	4.41827
401.95	3.88104
402.16	2.98807
402.37	3.74263
402.58	3.12783
402.79	3.89591
403	4.2988
403.209	3.27553
403.419	4.31459
403.629	3.13176
403.839	4.25316
404.049	4.23053
404.258	3.45862
404.468	3.2914
404.678	4.0656
404.888	4.44007
405.097	3.4989
405.307	3.78718
405.517	4.33525
405.727	4.12495
405.936	3.75435
406.146	4.14876
406.356	4.92614
406.565	3.99361
406.775	3.78132
406.984	3.88245
407.194	5.12519
407.404	4.03521
407.613	4.43289
407.823	4.58607
408.032	4.88535
408.242	4.83786
408.451	3.85015
408.661	4.18229
408.87	5.44291
409.08	3.89349
409.289	4.54449
409.499	4.58487
409.708	4.48534
409.918	3.17738
410.127	4.6193
410.336	5.48305
410.546	4.88204
410.755	4.33671
410.964	4.42965
411.174	3.94792
411.383	4.90951
411.592	4.94966
411.802	4.07199
412.011	5.18514
412.22	4.53966
412.429	5.80016
412.639	5.62189
412.848	5.43723
413.057	5.59017
413.266	5.55771
413.475	4.89827
413.685	5.23318
413.894	5.56407
414.103	5.64519
414.312	5.49302
414.521	4.883
414.73	5.15449
414.939	6.43481
415.148	5.52286
415.357	5.287
415.566	5.03233
415.776	5.03708
415.985	5.09391
416.194	5.77146
416.403	6.43657
416.611	4.57768
416.82	5.18092
417.029	5.46813
417.238	5.15638
417.447	5.07868
417.656	5.42737
417.865	5.21668
418.074	5.51337
418.283	5.67252
418.492	6.27456
418.7	6.13672
418.909	6.96144
419.118	6.21147
419.327	6.40367
419.536	6.37499
419.744	6.27673
419.953	7.40993
420.162	7.55358
420.371	6.8956
420.579	7.20236
420.788	8.04489
420.997	8.09075
421.205	8.39565
421.414	8.18209
421.623	8.25988
421.831	7.92255
422.04	8.44941
422.249	7.55954
422.457	8.08568
422.666	7.37999
422.874	8.23456
423.083	8.245
423.291	8.24548
423.5	8.11383
423.708	8.41578
423.917	8.80611
424.125	8.35918
424.334	8.23321
424.542	9.82901
424.751	9.32147
424.959	8.92468
425.167	9.10977
425.376	8.91049
425.584	8.06157
425.793	7.98678
426.001	7.18809
426.209	7.44182
426.418	6.52585
426.626	6.34751
426.834	6.26292
427.042	6.57307
427.251	6.31411
427.459	7.11589
427.667	6.58604
427.875	5.86968
428.084	6.25128
428.292	7.25118
428.5	6.9182
428.708	5.89321
428.916	5.97617
429.124	6.60018
429.333	6.34886
429.541	6.44759
429.749	6.65068
429.957	6.52323
430.165	8.14444
430.373	5.77545
430.581	6.78083
430.789	7.46319
430.997	6.43026
431.205	6.28057
431.413	6.89839
431.621	6.52931
431.829	7.18064
432.037	6.63539
432.245	6.82141
432.453	7.00085
432.661	6.74744
432.869	7.87081
433.076	6.43674
433.284	6.85285
433.492	7.34292
433.7	7.5333
433.908	6.80486
434.116	6.9618
434.323	7.07414
434.531	6.93307
434.739	7.32274
434.947	7.44682
435.154	7.38543
435.362	6.91916
435.57	6.79933
435.778	6.63942
435.985	7.10331
436.193	6.70761
436.401	7.57303
436.608	6.98069
436.816	6.68794
437.023	7.86443
437.231	7.90635
437.439	7.20624
437.646	7.40026
437.854	7.20734
438.061	7.476
438.269	7.07847
438.476	7.44741
438.684	7.16517
438.891	7.06044
439.099	6.85125
439.306	6.65619
439.514	6.71155
439.721	7.63644
439.929	7.27747
440.136	8.07566
440.343	8.06568
440.551	8.09342
440.758	9.5441
440.965	8.42139
441.173	8.10662
441.38	7.93968
441.587	7.91705
441.795	7.6083
442.002	7.49363
442.209	7.3774
442.416	7.59958
442.624	7.57101
442.831	7.45185
443.038	7.00167
443.245	6.71375
443.452	7.12433
443.66	7.59716
443.867	7.01431
444.074	7.03555
444.281	6.9597
444.488	7.15282
444.695	7.35364
444.902	7.18763
445.109	8.09092
445.316	7.76162
445.523	8.12839
445.73	8.24036
445.937	9.05829
446.144	9.40907
446.351	9.7454
446.558	8.9764
446.765	10.44542
446.972	9.99576
447.179	9.50168
447.386	10.12961
447.593	8.73851
447.8	9.53253
448.007	8.34735
448.214	7.9496
448.42	7.51097
448.627	7.95067
448.834	7.39839
449.041	7.37372
449.248	7.31071
449.454	7.77373
449.661	8.21176
449.868	7.21209
450.075	7.11041
450.281	6.32914
450.488	6.8578
450.695	6.86225
450.901	6.90693
451.108	7.00947
451.315	7.92633
451.521	7.19868
451.728	7.94152
451.935	7.00876
452.141	7.27032
452.348	7.33508
452.554	7.3426
452.761	7.03912
452.967	8.25271
453.174	7.44197
453.38	7.56903
453.587	6.79515
453.793	7.49062
454	7.92093
454.206	8.50322
454.413	7.90076
454.619	7.64292
454.825	7.03933
455.032	7.81269
455.238	7.83526
455.445	6.83746
455.651	7.48272
455.857	6.48517
456.064	7.19152
456.27	7.23054
456.476	7.19331
456.682	6.7461
456.889	7.58793
457.095	7.70237
457.301	8.70906
457.507	7.37812
457.714	7.54868
457.92	7.49739
458.126	7.03253
458.332	7.45875
458.538	7.24715
458.744	7.44059
458.951	7.48017
459.157	9.34596
459.363	8.60229
459.569	8.84973
459.775	9.5518
459.981	8.99982
460.187	9.47836
460.393	9.7014
460.599	9.97781
460.805	9.11105
461.011	8.33439
461.217	8.38155
461.423	8.17651
461.629	7.65311
461.835	7.86954
462.041	7.45714
462.247	8.42024
462.453	7.42376
462.658	7.47167
462.864	7.89748
463.07	7.69354
463.276	7.67365
463.482	7.49768
463.688	8.31371
463.893	7.22849
464.099	7.44595
464.305	8.30379
464.511	7.25383
464.716	7.55397
464.922	8.07744
465.128	7.135
465.333	8.47375
465.539	8.0006
465.745	7.56661
465.95	7.61001
466.156	9.26072
466.362	8.28085
466.567	7.70109
466.773	7.25493
466.978	8.5109
467.184	7.16464
467.389	6.66832
467.595	7.87021
467.8	7.29568
468.006	8.37502
468.211	8.35003
468.417	7.05349
468.622	7.9333
468.828	8.00122
469.033	7.86267
469.239	9.08049
469.444	7.39265
469.649	8.19058
469.855	7.61365
470.06	7.62256
470.266	7.19165
470.471	7.98418
470.676	7.87819
470.881	6.74558
471.087	8.49322
471.292	9.16942
471.497	6.97537
471.703	7.53432
471.908	7.32893
472.113	7.66633
472.318	8.10919
472.523	7.16577
472.729	7.9385
472.934	7.93778
473.139	7.42657
473.344	7.9148
473.549	8.27448
473.754	7.22551
473.959	9.25097
474.164	7.29096
474.369	7.64358
474.575	8.00012
474.78	7.72204
474.985	7.35806
475.19	6.72754
475.395	7.2612
475.6	7.65633
475.804	8.55357
476.009	7.65477
476.214	7.61493
476.419	7.55917
476.624	6.86475
476.829	7.27811
477.034	8.04278
477.239	7.26801
477.444	7.95226
477.648	8.02501
477.853	8.02618
478.058	7.5257
478.263	7.33806
478.468	7.15451
478.672	7.18623
478.877	8.48777
479.082	8.46617
479.287	7.90825
479.491	7.67701
479.696	7.22089
479.901	8.00856
480.105	8.16283
480.31	7.3798
480.515	7.67167
480.719	8.7552
480.924	7.52732
481.128	7.1873
481.333	7.84953
481.538	7.84568
481.742	7.97427
481.947	8.84219
482.151	9.66122
482.356	10.22446
482.56	12.08122
482.765	13.3153
482.969	15.80072
483.174	17.77843
483.378	20.76405
483.582	21.54869
483.787	23.31379
483.991	23.92994
484.196	24.43304
484.4	23.95166
484.604	24.49928
484.809	22.31114
485.013	21.07557
485.217	19.15342
485.422	17.22599
485.626	15.61506
485.83	14.55758
486.034	13.84784
486.239	13.97697
486.443	14.20533
486.647	14.38239
486.851	15.36755
487.055	16.6764
487.26	16.54854
487.464	17.39761
487.668	17.01435
487.872	17.5625
488.076	17.76067
488.28	17.10097
488.484	16.11833
488.688	15.74772
488.892	14.9272
489.096	13.98391
489.3	12.79237
489.504	12.02264
489.708	11.33517
489.912	10.99593
490.116	10.75589
490.32	10.23165
490.524	11.0835
490.728	11.84141
490.932	12.40548
491.136	13.03884
491.34	14.03773
491.544	14.56182
491.748	14.45132
491.951	14.62316
492.155	14.20697
492.359	13.9765
492.563	12.66691
492.767	12.07077
492.97	10.87316
493.174	9.68688
493.378	8.84823
493.582	7.69724
493.785	7.49207
493.989	7.58299
494.193	7.52707
494.396	7.27504
494.6	7.77263
494.804	7.46112
495.007	7.07523
495.211	7.12848
495.414	7.2817
495.618	7.53818
495.822	8.01772
496.025	7.4376
496.229	7.76406
496.432	7.13305
496.636	7.43853
496.839	7.38152
497.043	8.09133
497.246	7.56342
497.45	7.21236
497.653	7.44108
497.856	7.55606
498.06	6.97172
498.263	7.30765
498.467	7.17967
498.67	7.75967
498.873	7.51297
499.077	7.23871
499.28	7.22876
499.483	7.38258
499.686	7.66596
499.89	7.37474
500.093	7.67387
500.296	6.7237
500.499	8.05387
500.703	7.21191
500.906	7.43653
501.109	7.88973
501.312	7.23511
501.515	7.04539
501.719	7.28257
501.922	7.67323
502.125	7.24051
502.328	7.16859
502.531	6.6043
502.734	7.0834
502.937	6.29379
503.14	7.25179
503.343	6.73609
503.546	6.9543
503.749	6.78302
503.952	7.5774
504.155	6.73209
504.358	7.28897
504.561	7.12816
504.764	6.46447
504.967	7.09011
505.17	7.05401
505.373	7.76731
505.576	7.02983
505.778	7.35373
505.981	6.53652
506.184	7.70114
506.387	6.18272
506.59	7.99806
506.793	7.54109
506.995	7.26755
507.198	6.12496
507.401	7.25413
507.604	7.22647
507.806	6.52317
508.009	6.61419
508.212	7.45424
508.414	6.71383
508.617	6.78939
508.82	7.02951
509.022	7.68394
509.225	7.07708
509.427	6.32237
509.63	7.58084
509.833	7.03259
510.035	6.71977
510.238	6.22486
510.44	7.55979
510.643	6.08383
510.845	7.93783
511.048	7.10395
511.25	6.59888
511.453	6.79809
511.655	7.08228
511.858	6.77284
512.06	7.24447
512.262	6.90423
512.465	7.34254
512.667	6.57559
512.869	6.3245
513.072	7.01122
513.274	7.16026
513.476	7.12703
513.679	7.24367
513.881	6.24558
514.083	7.59254
514.286	6.44408
514.488	6.41992
514.69	6.32219
514.892	6.07641
515.094	6.94778
515.297	6.29911
515.499	6.80834
515.701	6.36174
515.903	7.62978
516.105	7.60749
516.307	7.13822
516.509	5.87545
516.711	6.14843
516.913	6.77742
517.116	6.77809
517.318	6.52409
517.52	7.37584
517.722	7.12216
517.924	6.2809
518.126	7.04576
518.328	6.61102
518.529	7.29422
518.731	8.08854
518.933	6.71937
519.135	6.95513
519.337	7.62273
519.539	7.00817
519.741	5.90625
519.943	6.60191
520.145	6.58214
520.346	7.02413
520.548	6.4947
520.75	6.77469
520.952	6.49642
521.153	6.7789
521.355	6.7952
521.557	6.14581
521.759	6.68173
521.96	6.60343
522.162	6.09112
522.364	7.21258
522.565	6.33292
522.767	6.98743
522.969	7.14752
523.17	6.96288
523.372	6.85874
523.573	6.34471
523.775	6.55271
523.977	6.25229
524.178	7.63354
524.38	6.35565
524.581	7.03359
524.783	6.57472
524.984	7.06539
525.186	6.78918
525.387	7.34666
525.589	7.24937
525.79	7.28619
525.991	7.21257
526.193	7.81627
526.394	7.16703
526.596	8.02813
526.797	8.25942
526.998	7.92954
527.2	8.14206
527.401	9.72008
527.602	10.38922
527.803	12.21612
528.005	12.96236
528.206	14.11193
528.407	14.97063
528.608	14.87984
528.81	15.39745
529.011	14.99504
529.212	15.77431
529.413	14.806
529.614	13.91659
529.815	13.18086
530.017	12.18549
530.218	10.75004
530.419	9.4529
530.62	9.17889
530.821	8.71957
531.022	7.39271
531.223	8.04909
531.424	7.9942
531.625	7.87087
531.826	7.6934
532.027	8.05989
532.228	9.10447
532.429	9.05621
532.63	9.31015
532.831	10.0443
533.032	10.24625
533.233	10.92892
533.433	10.74503
533.634	10.922
533.835	10.22019
534.036	9.83504
534.237	9.54156
534.438	8.81577
534.638	7.81853
534.839	7.56862
535.04	7.49206
535.241	6.82008
535.441	7.6152
535.642	7.23823
535.843	6.65777
536.043	6.87869
536.244	7.19031
536.445	7.38711
536.645	8.02465
536.846	7.80628
537.047	8.22958
537.247	7.22197
537.448	7.08398
537.648	6.91862
537.849	6.69305
538.049	6.69654
538.25	6.99691
538.451	6.83812
538.651	6.33315
538.851	7.08317
539.052	7.32428
539.252	7.17201
539.453	6.79996
539.653	6.93791
539.854	6.80954
540.054	6.88187
540.254	8.28299
540.455	9.06898
540.655	9.10529
540.855	10.39775
541.056	11.20975
541.256	11.21528
541.456	12.03238
541.657	11.72436
541.857	12.46603
542.057	11.18747
542.257	10.81958
542.458	11.1511
542.658	10.84263
542.858	9.26137
543.058	9.46073
543.258	8.75899
543.458	7.59743
543.659	7.20783
543.859	7.7518
544.059	7.47912
544.259	6.95585
544.459	7.5331
544.659	6.79915
544.859	7.15412
545.059	6.72169
545.259	7.34387
545.459	7.09738
545.659	7.42788
545.859	7.04896
546.059	7.21226
546.259	6.73124
546.459	6.48863
546.659	6.6728
546.859	7.4532
547.059	7.2683
547.258	7.30555
547.458	7.35468
547.658	6.53952
547.858	6.52655
548.058	7.11746
548.258	6.85071
548.457	6.54881
548.657	8.26636
548.857	6.91001
549.057	7.48931
549.256	7.34167
549.456	6.85859
549.656	5.94173
549.855	8.20556
550.055	6.7458
550.255	8.05005
550.454	7.23283
550.654	7.64478
550.853	8.09083
551.053	7.61731
551.253	7.47463
551.452	7.52515
551.652	6.51104
551.851	6.37232
552.051	6.99332
552.25	6.91051
552.45	6.79802
552.649	7.04528
552.849	6.65653
553.048	7.37283
553.248	7.61471
553.447	6.68759
553.646	7.66504
553.846	8.83109
554.045	8.00517
554.244	6.48166
554.444	8.08288
554.643	6.60004
554.842	8.16833
555.042	8.57233
555.241	7.02459
555.44	6.72211
555.64	7.67326
555.839	8.25593
556.038	7.76017
556.237	7.00337
556.436	7.65592
556.636	7.59811
556.835	6.92764
557.034	8.40273
557.233	7.38576
557.432	6.57376
557.631	8.1387
557.83	7.34684
558.029	7.07194
558.228	7.03384
558.427	7.0177
558.626	7.72343
558.825	6.86503
559.024	7.4805
559.223	8.83725
559.422	7.40348
559.621	8.00805
559.82	6.09012
560.019	7.69164
560.218	7.36956
560.417	6.05088
560.616	7.43088
560.815	9.89403
561.014	6.73824
561.212	8.80862
561.411	7.81397
561.61	6.94755
561.809	7.53928
562.008	8.93767
562.206	7.65576
562.405	8.19952
562.604	7.63487
562.803	8.01769
563.001	7.77563
563.2	7.02614
563.399	8.25095
563.597	7.08446
563.796	7.89245
563.995	7.18968
564.193	8.45068
564.392	7.62336
564.59	9.32115
564.789	6.74947
564.988	7.92031
565.186	8.17784
565.385	8.04711
565.583	7.85795
565.782	8.1404
565.98	7.97508
566.179	8.01532
566.377	7.60715
566.575	7.67374
566.774	9.1332
566.972	8.74793
567.171	9.59504
567.369	9.21788
567.567	8.39658
567.766	8.42456
567.964	6.98812
568.162	8.65476
568.361	9.03818
568.559	8.11056
568.757	8.67835
568.956	8.51483
569.154	8.49701
569.352	8.8247
569.55	8.24241
569.748	8.49807
569.947	7.88736
570.145	7.82027
570.343	7.81421
570.541	9.60239
570.739	7.7666
570.937	8.5334
571.135	8.89479
571.333	10.20982
571.532	9.98282
571.73	8.92854
571.928	9.49732
572.126	9.17074
572.324	8.54474
572.522	9.56041
572.72	10.58597
572.918	8.86202
573.116	9.13251
573.313	8.56096
573.511	8.74356
573.709	8.44838
573.907	9.50673
574.105	8.61689
574.303	7.8899
574.501	7.70174
574.699	9.23362
574.896	9.11091
575.094	9.40408
575.292	8.09819
575.49	9.68987
575.688	8.91917
575.885	9.97292
576.083	10.62809
576.281	9.481
576.478	8.52692
576.676	9.49014
576.874	8.00544
577.071	8.90817
577.269	10.61764
577.467	9.00397
577.664	9.03745
577.862	9.63561
578.059	8.38831
578.257	9.67912
578.455	8.76824
578.652	9.096
578.85	7.59704
579.047	9.30469
579.245	8.95798
579.442	9.05679
579.64	8.88114
579.837	7.94289
580.034	11.30989
580.232	8.99015
580.429	8.45051
580.627	9.65209
580.824	10.17085
581.021	9.61621
581.219	9.03096
581.416	8.70611
581.613	10.54266
581.811	10.37022
582.008	8.72403
582.205	10.26275
582.402	9.71357
582.6	10.6431
582.797	9.48766
582.994	9.77821
583.191	10.22017
583.388	9.31701
583.586	10.34183
583.783	10.51509
583.98	8.80196
584.177	9.75074
584.374	7.35661
584.571	9.33708
584.768	9.51184
584.965	9.20488
585.162	10.36033
585.359	10.96713
585.556	9.76662
585.753	9.97272
585.95	8.56765
586.147	9.00618
586.344	10.27696
586.541	9.48447
586.738	8.75797
586.935	9.71087
587.132	9.05771
587.329	10.73874
587.526	9.72808
587.722	13.9278
587.919	8.70757
588.116	10.27683
588.313	11.05285
588.51	11.76643
588.706	9.74778
588.903	10.36602
589.1	10.70803
589.297	12.48267
589.493	9.91804
589.69	10.66128
589.887	9.55598
590.083	9.07428
590.28	9.52391
590.477	10.86508
590.673	10.54061
590.87	11.09604
591.067	9.58107
591.263	10.47513
591.46	10.26614
591.656	9.88585
591.853	11.58216
592.049	9.53999
592.246	9.80746
592.442	10.98491
592.639	11.39143
592.835	9.43914
593.032	10.41468
593.228	9.07847
593.425	9.09618
593.621	9.04889
593.817	10.55125
594.014	9.74908
594.21	10.72326
594.406	11.23609
594.603	10.85322
594.799	9.81821
594.995	8.61956
595.192	11.46445
595.388	10.2686
595.584	10.14685
595.78	9.31073
595.977	13.00543
596.173	11.97174
596.369	10.44442
596.565	9.89504
596.761	9.5522
596.957	11.56423
597.154	10.06035
597.35	10.23783
597.546	10.05933
597.742	11.05687
597.938	10.80149
598.134	9.85548
598.33	10.84085
598.526	11.63071
598.722	10.81521
598.918	12.10068
599.114	11.17549
599.31	9.46473
599.506	10.57505
599.702	9.97102
599.898	10.90504
600.094	11.25267
600.29	11.55275
600.485	11.45889
600.681	10.14219
600.877	12.34619
601.073	10.82553
601.269	12.7317
601.465	12.25818
601.66	9.93229
601.856	9.12281
602.052	12.74487
602.248	10.63534
602.443	9.16582
602.639	9.78531
602.835	10.24085
603.03	10.14454
603.226	11.86121
603.422	10.27374
603.617	11.01364
603.813	10.84975
604.009	10.72907
604.204	12.12759
604.4	10.10891
604.595	12.22193
604.791	10.37128
604.986	11.28106
605.182	10.5344
605.377	10.83341
605.573	10.72685
605.768	11.0096
605.964	11.68617
606.159	11.46337
606.355	11.91415
606.55	10.73547
606.746	11.95238
606.941	11.0392
607.136	12.85287
607.332	13.67069
607.527	9.89398
607.722	11.40701
607.918	11.01384
608.113	10.44603
608.308	11.91333
608.503	11.77647
608.699	11.75171
608.894	11.7727
609.089	10.84205
609.284	11.70297
609.479	11.20158
609.675	12.10211
609.87	11.31151
610.065	12.03962
610.26	12.22312
610.455	11.90299
610.65	11.26053
610.845	11.6164
611.04	12.08459
611.235	11.15041
611.43	11.31221
611.625	10.47664
611.82	12.71119
612.015	10.70116
612.21	13.17472
612.405	9.92356
612.6	12.92
612.795	12.79787
612.99	12.14151
613.185	10.6508
613.38	10.66988
613.575	11.62587
613.77	14.69626
613.965	9.87902
614.159	10.89163
614.354	12.91455
614.549	12.54124
614.744	12.18322
614.938	10.42324
615.133	9.92472
615.328	13.1341
615.523	12.89782
615.717	14.55637
615.912	11.11223
616.107	11.67109
616.301	11.19869
616.496	10.89477
616.691	13.44972
616.885	12.47679
617.08	14.96725
617.274	12.7672
617.469	14.00629
617.664	12.54253
617.858	11.06662
618.053	12.21974
618.247	11.53497
618.442	9.44053
618.636	13.51252
618.831	10.88772
619.025	11.1691
619.219	15.32493
619.414	8.37568
619.608	11.49036
619.803	11.17595
619.997	14.43275
620.191	12.78219
620.386	12.15882
620.58	11.65513
620.774	9.8089
620.969	9.95888
621.163	11.9385
621.357	10.62405
621.551	11.53192
621.746	11.99475
621.94	11.55656
622.134	15.62073
622.328	14.49299
622.522	10.12614
622.716	13.02467
622.911	13.02243
623.105	12.93014
623.299	12.32906
623.493	15.65989
623.687	10.97665
623.881	11.25116
624.075	12.7778
624.269	13.45329
624.463	9.69534
624.657	10.15355
624.851	12.8636
625.045	12.98396
625.239	13.13375
625.433	11.63612
625.627	14.1805
625.821	11.48208
626.015	11.36952
626.209	12.43347
626.403	10.50822
626.596	12.74725
626.79	13.06331
626.984	10.91663
627.178	13.01497
627.372	12.81617
627.565	13.15315
627.759	10.78805
627.953	11.13479
628.147	12.77461
628.34	12.9844
628.534	14.93235
628.728	11.93906
628.921	13.62331
629.115	13.07661
629.309	13.58296
629.502	13.39034
629.696	12.41134
629.89	12.1972
630.083	12.51567
630.277	12.72233
630.47	14.45995
630.664	11.88328
630.857	10.56164
631.051	13.24659
631.244	13.67187
631.438	13.61892
631.631	11.55952
631.825	14.20338
632.018	13.02122
632.212	15.07657
632.405	13.93719
632.598	11.46249
632.792	12.65242
632.985	9.46428
633.178	12.04607
633.372	12.41673
633.565	12.12829
633.758	13.94094
633.952	11.39353
634.145	11.55135
634.338	12.06564
634.531	12.00247
634.724	11.40344
634.918	12.56318
635.111	12.16965
635.304	11.6242
635.497	15.61909
635.69	12.85753
635.883	13.86962
636.077	11.29831
636.27	13.2258
636.463	12.77703
636.656	12.67268
636.849	12.26167
637.042	13.39869
637.235	15.0987
637.428	13.71472
637.621	13.40407
637.814	14.64747
638.007	14.5998
638.2	14.86217
638.393	15.14548
638.586	10.78102
638.778	12.14565
638.971	12.47271
639.164	14.75584
639.357	13.35025
639.55	15.32436
639.743	13.76516
639.935	13.57038
640.128	16.41416
640.321	14.26184
640.514	13.38672
640.707	16.23697
640.899	13.75473
641.092	10.70699
641.285	28.69798
641.477	9.85366
641.67	16.95021
641.863	15.19699
642.055	13.44565
642.248	12.94896
642.441	12.67187
642.633	13.92033
642.826	14.48105
643.018	15.12789
643.211	16.42707
643.403	16.35989
643.596	16.96552
643.788	16.63169
643.981	12.47423
644.173	14.80517
644.366	12.80692
644.558	10.53527
644.751	14.77321
644.943	11.5486
645.135	16.00841
645.328	15.90122
645.52	14.3166
645.712	15.1312
645.905	18.3074
646.097	11.44939
646.289	13.74989
646.482	17.35302
646.674	12.33262
646.866	15.49581
647.058	14.51955
647.251	12.12138
647.443	12.78893
647.635	13.34705
647.827	11.96356
648.019	12.00012
648.211	13.24554
648.404	13.65422
648.596	16.5344
648.788	14.14192
648.98	13.8881
649.172	14.79203
649.364	14.37334
649.556	11.36561
649.748	18.23772
649.94	12.14769
650.132	14.96633
650.324	12.45071
650.516	12.66406
650.708	15.39728
650.9	11.6164
651.092	11.12401
651.284	11.60359
651.476	12.13158
651.667	15.09774
651.859	16.523
652.051	13.69253
652.243	14.03746
652.435	13.37245
652.627	14.82801
652.818	14.56215
653.01	11.57456
653.202	12.68298
653.394	13.0851
653.585	14.69783
653.777	21.15301
653.969	16.41916
654.16	16.06677
654.352	12.29993
654.544	13.60555
654.735	16.27022
654.927	14.19658
655.118	16.76616
655.31	15.67327
655.502	16.42586
655.693	13.49632
655.885	14.93575
656.076	16.58062
656.268	14.60096
656.459	17.14974
656.651	16.44095
656.842	13.66782
657.034	12.99804
657.225	15.71553
657.416	16.85318
657.608	16.82931
657.799	14.60217
657.99	16.34185
658.182	13.24688
658.373	13.46664
658.564	16.64533
658.756	15.32617
658.947	14.27231
659.138	13.16219
659.33	13.73893
659.521	13.48606
659.712	14.50383
659.903	14.0274
660.094	13.67686
660.286	11.88882
660.477	17.35583
660.668	15.54866
660.859	14.04234
661.05	12.15005
661.241	15.33472
661.432	15.11138
661.623	14.09141
661.814	13.50069
662.006	11.90841
662.197	15.10851
662.388	16.38666
662.579	15.17571
662.77	16.91941
662.96	19.83979
663.151	16.55787
663.342	11.42151
663.533	15.83649
663.724	14.51578
663.915	18.42525
664.106	14.97554
664.297	18.5647
664.488	16.26364
664.678	13.61488
664.869	16.65951
665.06	16.08721
665.251	15.44888
665.442	16.04979
665.632	12.98578
665.823	19.01653
666.014	9.86158
666.204	16.50513
666.395	17.61184
666.586	20.03119
666.776	16.63962
666.967	18.98683
667.158	15.19843
667.348	18.06892
667.539	13.58174
667.729	17.02659
667.92	13.82813
668.111	17.4899
668.301	16.96888
668.492	14.92158
668.682	15.63989
668.873	15.13899
669.063	13.00016
669.253	15.96503
669.444	18.3448
669.634	15.35646
669.825	18.8078
670.015	18.0233
670.206	13.83426
670.396	19.61758
670.586	15.16893
670.777	16.24041
670.967	11.57205
671.157	15.07136
671.347	14.26821
671.538	18.61053
671.728	17.27356
671.918	19.45792
672.108	17.74856
672.299	15.2455
672.489	16.40386
672.679	14.35334
672.869	16.52295
673.059	20.72451
673.249	17.32591
673.44	13.62794
673.63	15.56041
673.82	17.69137
674.01	13.52341
674.2	16.61444
674.39	22.02376
674.58	17.93708
674.77	16.50316
674.96	15.59496
675.15	24.71421
675.34	18.32349
675.53	15.95471
675.72	15.38172
675.91	12.60562
676.099	20.40773
676.289	21.63515
676.479	18.54845
676.669	14.93831
676.859	17.16903
677.049	14.70444
677.238	16.3441
677.428	20.25792
677.618	17.4436
677.808	20.68127
677.997	17.11151
678.187	14.46914
678.377	16.18986
678.567	15.21219
678.756	15.38929
678.946	16.47362
679.136	13.67488
679.325	15.14402
679.515	14.50642
679.704	13.9766
679.894	18.46403
680.084	17.27018
680.273	19.11216
680.463	14.71679
680.652	14.5919
680.842	16.44099
681.031	18.25522
681.221	14.7911
681.41	17.53425
681.6	15.87656
681.789	17.80896
681.978	19.22843
682.168	17.29328
682.357	16.87702
682.547	17.4382
682.736	17.22379
682.925	19.54494
683.115	19.45721
683.304	18.16807
683.493	17.05768
683.682	18.49024
683.872	17.54846
684.061	19.73245
684.25	17.95487
684.439	22.58641
684.629	19.0067
684.818	25.43311
685.007	16.99592
685.196	16.80636
685.385	21.98906
685.574	18.27061
685.763	18.38689
685.952	18.01807
686.142	14.25238
686.331	20.91043
686.52	14.13085
686.709	22.7042
686.898	22.10516
687.087	19.22986
687.276	21.96313
687.465	21.00888
687.654	17.11575
687.842	21.44836
688.031	14.86711
688.22	21.72909
688.409	18.73308
688.598	18.32591
688.787	24.12585
688.976	18.13071
689.165	23.41937
689.353	17.43169
689.542	19.73627
689.731	21.28837
689.92	23.82905
690.108	20.14256
690.297	17.40343
690.486	18.55271
690.675	20.49889
690.863	23.13458
691.052	22.63406
691.241	19.28676
691.429	19.54524
691.618	21.98704
691.806	15.61836
691.995	17.87901
692.184	18.51811
692.372	17.52763
692.561	19.44197
692.749	19.65184
692.938	28.79421
693.126	20.34367
693.315	18.35208
693.503	20.67596
693.692	22.16489
693.88	21.48994
694.068	25.06546
694.257	20.0213
694.445	21.24654
694.634	14.35044
694.822	22.20165
695.01	22.48558
695.199	25.47013
695.387	23.66833
695.575	22.95841
695.763	18.44981
695.952	18.34109
696.14	15.04491
696.328	17.79704
696.516	19.64838
696.705	20.53377
696.893	20.19505
697.081	14.69127
697.269	21.75246
697.457	16.63608
697.645	15.78821
697.833	21.42052
698.021	17.01241
698.21	17.63596
698.398	18.62982
698.586	16.2608
698.774	15.66724
698.962	18.54812
699.15	16.25115
699.338	14.8214
699.526	19.89378
699.714	16.73211
699.901	17.30739
700.089	20.78507
700.277	16.88821
700.465	18.52939
700.653	20.78251
700.841	20.08772
701.029	17.0894
701.217	23.62705
701.404	19.51546
701.592	23.80569
701.78	26.4065
701.968	18.79669
702.155	18.12529
702.343	16.03699
702.531	24.32578
702.718	21.60608
702.906	18.6313
703.094	18.75814
703.281	23.86584
703.469	19.24164
703.657	23.64477
703.844	30.57609
704.032	26.85135
704.219	19.95151
704.407	22.3075
704.595	25.61532
704.782	22.02774
704.97	20.37847
705.157	20.39708
705.345	28.26372
705.532	33.51857
705.719	24.32123
705.907	28.08963
706.094	24.11192
706.282	31.07634
706.469	24.46401
706.656	26.06148
706.844	24.0029
707.031	29.25158
707.218	27.18291
707.406	31.22933
707.593	28.78997
707.78	28.82301
707.968	26.90076
708.155	24.51471
708.342	29.7091
708.529	29.09986
708.716	28.44109
708.904	32.65992
709.091	28.62285
709.278	23.30726
709.465	33.99927
709.652	32.49478
709.839	31.08728
710.026	26.66786
710.213	20.8668
710.4	26.95224
710.587	28.27809
710.774	29.82556
710.961	29.66331
711.148	26.58572
711.335	29.62024
711.522	25.83587
711.709	28.04498
711.896	33.54353
712.083	30.3836
712.27	24.1493
712.457	27.8735
712.644	21.64824
712.831	33.99721
713.017	27.53096
713.204	29.11077
713.391	23.59278
713.578	30.00115
713.765	31.38963
713.951	26.76347
714.138	36.89844
714.325	26.69687
714.512	24.44156
714.698	21.53486
714.885	30.10377
715.072	24.68594
715.258	24.63864
715.445	21.77675
715.631	28.1347
715.818	14.78892
716.005	21.44801
716.191	25.95131
716.378	22.1553
716.564	26.56028
716.751	19.62028
716.937	21.5793
717.124	26.74557
717.31	19.85198
717.497	30.57795
717.683	20.85373
717.869	31.80595
718.056	21.38812
718.242	25.65324
718.429	23.07036
718.615	19.16428
718.801	23.38867
718.988	28.0299
719.174	25.81581
719.36	22.72979
719.547	29.33546
719.733	24.62957
719.919	25.09502
720.105	26.23539
720.291	23.79031
720.478	24.76691
720.664	23.59117
720.85	21.45807
721.036	36.23898
721.222	31.48319
721.408	23.65535
721.595	31.77891
721.781	30.91016
721.967	29.09495
722.153	32.22882
722.339	26.7856
722.525	26.03586
722.711	20.50623
722.897	19.60493
723.083	23.1255
723.269	29.0855
723.455	37.43381
723.641	42.78611
723.827	24.96345
724.012	27.5231
724.198	24.47909
724.384	31.21189
724.57	26.67165
724.756	19.29615
724.942	16.57449
725.127	30.39687
725.313	31.01656
725.499	30.33929
725.685	33.93305
725.87	26.75952
726.056	21.20526
726.242	30.51201
726.428	18.46142
726.613	29.55379
726.799	23.79439
726.985	20.709
727.17	18.45302
727.356	35.25511
727.541	21.24298
727.727	24.81991
727.913	28.66063
728.098	22.89722
728.284	28.44764
728.469	20.44892
728.655	22.60122
728.84	30.05544
729.026	29.07493
729.211	29.37584
729.397	27.50456
729.582	29.02555
729.767	25.28932
729.953	27.07873
730.138	32.05836
730.323	15.6521
730.509	20.32913
730.694	32.83046
730.879	28.35903
731.065	26.89887
731.25	36.83256
731.435	28.85151
731.621	19.43995
731.806	23.51427
731.991	26.99147
732.176	19.67602
732.361	33.56177
732.547	27.36228
732.732	19.81696
732.917	36.77289
733.102	21.00443
733.287	22.79448
733.472	25.4727
733.657	25.26746
733.842	19.4732
734.027	23.44979
734.212	25.39218
734.397	23.09343
734.582	26.75313
734.767	31.17872
734.952	32.88751
735.137	15.1183
735.322	33.06179
735.507	28.0883
735.692	27.40257
735.877	37.58615
736.062	35.29878
736.247	28.43862
736.431	25.74823
736.616	31.80134
736.801	28.26547
736.986	26.15898
737.171	21.55863
737.355	20.97612
737.54	33.00932
737.725	26.88163
737.909	40.94357
738.094	24.55161
738.279	30.04828
738.463	26.27413
738.648	30.79083
738.833	28.80778
739.017	38.7683
739.202	25.38711
739.386	25.54037
739.571	22.91872
739.756	31.14975
739.94	27.25317
740.125	29.398
740.309	23.27481
740.494	30.84335
740.678	28.14789
740.863	29.52091
741.047	28.27888
741.231	34.89567
741.416	23.61223
741.6	35.77646
741.785	23.29628
741.969	32.23578
742.153	36.24201
742.338	17.97773
742.522	26.95802
742.706	32.49721
742.89	21.6238
743.075	27.34081
743.259	34.74957
743.443	34.0687
743.627	34.86445
743.812	40.4201
743.996	19.33672
744.18	25.96872
744.364	25.49625
744.548	42.09155
744.732	25.59724
744.916	33.51369
745.1	32.22857
745.285	26.38359
745.469	31.42102
745.653	38.08239
745.837	22.05636
746.021	42.13811
746.205	35.41293
746.389	29.35294
746.573	27.18195
746.757	37.15756
746.94	25.91273
747.124	34.89436
747.308	22.56704
747.492	35.18802
747.676	24.04469
747.86	43.56994
748.044	25.98853
748.227	19.29346
748.411	52.16968
748.595	29.64597
748.779	23.49901
748.963	30.81049
749.146	29.31876
749.33	24.79778
749.514	22.99572
749.697	36.00041
749.881	23.76671
750.065	23.23603
750.248	29.68036
750.432	42.83025
750.616	28.41332
750.799	21.87546
750.983	44.5301
751.166	44.54451
751.35	20.45009
751.533	37.15341
751.717	39.64699
751.9	38.56615
752.084	27.49329
752.267	23.73091
752.451	24.77955
752.634	29.11933
752.818	32.88227
753.001	34.60591
753.184	36.82393
753.368	31.34438
753.551	10.85434
753.734	24.42279
753.918	44.66331
754.101	25.28343
754.284	33.8875
754.467	26.3649
754.651	24.93905
754.834	23.80608
755.017	36.26374
755.2	36.03296
755.384	21.4291
755.567	33.5026
755.75	35.19738
755.933	26.55151
756.116	34.76262
756.299	24.56528
756.482	23.84691
756.665	33.80576
756.848	28.79186
757.032	32.28964
757.215	21.31101
757.398	23.70187
757.581	24.7199
757.764	48.37104
757.947	28.3769
758.129	35.76727
758.312	13.12437
758.495	27.52357
758.678	28.82074
758.861	26.929
759.044	42.43387
759.227	23.2101
759.41	24.00194
759.592	33.92266
759.775	27.39505
759.958	35.5742
760.141	22.53356
760.324	45.79036
760.506	38.818
760.689	34.81281
760.872	45.20582
761.054	32.22308
761.237	28.47375
761.42	30.92024
761.602	34.39013
761.785	32.06001
761.968	38.18391
762.15	41.88815
762.333	28.99815
762.515	32.85811
762.698	26.53872
762.88	35.8003
763.063	32.07612
763.245	36.04761
763.428	23.7547
763.61	26.14133
763.793	21.69774
763.975	31.45422
764.158	27.21425
764.34	25.44933
764.522	23.77601
764.705	28.00684
764.887	39.37901
765.069	19.29699
765.252	33.08306
765.434	33.82192
765.616	29.87612
765.799	24.65767
765.981	34.21403
766.163	24.2602
766.345	37.5553
766.528	24.93024
766.71	15.61073
766.892	31.01608
767.074	38.99842
767.256	27.8917
767.438	42.62212
767.62	31.68093
767.802	46.88716
767.985	33.48734
768.167	43.49671
768.349	27.29775
768.531	35.41679
768.713	32.76031
768.895	36.73627
769.077	34.16914
769.259	50.01648
769.441	67.64027
769.623	37.00649
769.804	42.38953
769.986	39.98335
770.168	46.96493
770.35	59.94064
770.532	44.56431
770.714	49.01337
770.896	49.0566
771.077	24.38404
771.259	51.83918
771.441	44.12786
771.623	53.98715
771.804	65.46504
771.986	25.5231
772.168	34.51034
772.35	51.44
772.531	65.90944
772.713	44.90652
772.894	55.07819
773.076	42.40496
773.258	37.18815
773.439	57.35321
773.621	62.00875
773.802	32.71948
773.984	37.3554
774.166	43.83831
774.347	60.26001
774.529	55.23127
774.71	21.67061
774.891	40.70403
775.073	36.78488
775.254	56.47063
775.436	36.61152
775.617	68.9709
775.799	37.16439
775.98	56.67484
776.161	64.51176
776.343	64.27206
776.524	41.13076
776.705	41.5898
776.886	22.55319
777.068	47.38851
777.249	94.07826
777.43	68.14933
777.611	30.19341
777.793	38.8301
777.974	65.21243
778.155	35.99021
778.336	32.51853
778.517	73.64873
778.698	33.74524
778.879	22.10971
779.061	13.87616
779.242	49.49047
779.423	49.00572
779.604	36.65418
779.785	39.31391
779.966	44.89309
780.147	55.75031
780.328	55.74602
780.509	76.38865
780.69	54.89909
780.871	36.29492
781.051	28.1298
781.232	44.58569
781.413	45.45919
781.594	39.50716
781.775	38.60682
781.956	35.27662
782.137	21.9798
782.317	38.18596
782.498	45.48469
782.679	45.43069
782.86	46.12368
783.04	36.04978
783.221	44.97351
783.402	66.81779
783.583	44.69377
783.763	54.99662
783.944	36.26469
784.124	26.86774
784.305	65.99229
784.486	50.378
784.666	42.23137
784.847	25.0591
785.027	87.06827
785.208	35.73191
785.388	35.29025
785.569	34.80385
785.749	40.90169
785.93	38.79547
786.11	25.73328
786.291	51.15118
786.471	45.30564
786.652	55.08587
786.832	42.34025
787.012	45.64626
787.193	29.90336
787.373	44.78499
787.553	36.27494
787.734	46.34898
787.914	39.18757
788.094	56.64811
788.275	48.41699
788.455	39.50557
788.635	28.67097
788.815	44.82006
788.995	31.65332
789.176	25.42324
789.356	33.53263
789.536	39.98832
789.716	48.88389
789.896	33.92592
790.076	37.03956
790.256	46.04124
790.436	19.68404
790.616	32.02383
790.796	45.73266
790.976	39.0735
791.156	34.99629
791.336	49.49865
791.516	47.30009
791.696	40.69052
791.876	29.17894
792.056	44.63157
792.236	55.17495
792.416	52.29585
792.596	45.774
792.776	48.0708
792.956	51.03804
793.135	66.96725
793.315	31.06026
793.495	57.25153
793.675	51.68955
793.854	53.35679
794.034	56.08777
794.214	31.20007
794.394	52.3919
794.573	58.16441
794.753	45.44128
794.933	33.06147
795.112	47.10511
795.292	56.62798
795.472	66.31243
795.651	29.0507
795.831	42.03445
796.01	41.18128
796.19	39.21219
796.369	42.05769
796.549	48.97689
796.728	41.41063
796.908	27.48214
797.087	29.30189
797.267	39.84585
797.446	30.35728
797.626	49.04995
797.805	47.96874
797.984	35.54844
798.164	52.09916
798.343	32.15271
798.522	45.34949
798.702	45.36149
798.881	28.12499
799.06	39.99043
799.239	22.07112
799.419	34.18915
799.598	65.72923
799.777	49.18907
799.956	57.6006
800.136	39.27612
800.315	32.7287
800.494	47.31915
800.673	56.12162
800.852	50.94247
801.031	59.17079
801.21	49.33953
801.389	38.28981
801.568	44.48844
801.747	69.26808
801.926	42.56851
802.105	62.70979
802.284	36.54783
802.463	65.26049
802.642	48.3278
802.821	46.56797
803	62.27776
803.179	55.77579
803.358	57.22843
803.537	36.01957
803.716	44.18443
803.895	35.12586
804.073	41.53032
804.252	34.17631
804.431	50.57245
804.61	41.73771
804.789	52.53114
804.967	38.34223
805.146	38.28529
805.325	73.1983
805.503	47.20402
805.682	28.21966
805.861	88.72496
806.039	62.37107
806.218	38.08227
806.397	45.61682
806.575	42.98616
806.754	47.83403
806.932	31.91442
807.111	58.41929
807.289	54.45237
807.468	45.59723
807.646	57.77032
807.825	51.70716
808.003	46.57061
808.182	58.54803
808.36	46.56933
808.539	33.96043
808.717	63.98181
808.895	37.07324
809.074	48.15549
809.252	42.49037
809.43	54.12805
809.609	60.92298
809.787	65.07547
809.965	40.66929
810.144	42.99069
810.322	43.12281
810.5	50.62523
810.678	40.71033
810.856	76.21143
811.035	59.10913
811.213	54.13682
811.391	67.09771
811.569	48.3022
811.747	95.77704
811.925	59.98952
812.103	37.25388
812.281	44.48237
812.459	71.53865
812.637	70.3582
812.816	57.24258
812.994	76.17037
813.171	66.09639
813.349	52.63947
813.527	60.22042
813.705	64.13626
813.883	84.57776
814.061	59.13876
814.239	71.96515
814.417	77.36369
814.595	54.8923
814.773	53.47852
814.95	47.99404
815.128	53.18832
815.306	49.38285
815.484	43.24221
815.662	38.89036
815.839	32.37429
816.017	41.69647
816.195	62.71403
816.372	42.3564
816.55	55.87787
816.728	71.8212
816.905	43.37407
817.083	70.84705
817.261	46.61915
817.438	93.68297
817.616	72.13615
817.793	39.1099
817.971	57.35984
818.148	57.94265
818.326	66.47592
818.503	51.67424
818.681	71.33255
818.858	44.32554
819.036	47.66257
819.213	50.91171
819.391	38.85339
819.568	38.52595
819.745	34.93192
819.923	57.71053
820.1	42.92246
820.277	37.36975
820.455	42.33263
820.632	44.34934
820.809	47.36554
820.986	32.51649
821.164	28.13483
821.341	25.61035
821.518	35.9898
821.695	27.70482
821.872	26.01615
822.05	22.84381
822.227	20.36063
822.404	20.73791
822.581	22.96031
822.758	20.58194
822.935	20.86335
823.112	22.3058
823.289	20.01317
823.466	22.85527
823.643	21.66714
823.82	24.61402
823.997	23.00079
824.174	25.73084
824.351	32.44431
824.528	30.81718
824.705	28.14977
824.882	31.03006
825.059	37.9922
825.236	28.77965
825.412	29.87411
825.589	34.39921
825.766	47.89998
825.943	31.85082
826.12	36.38252
826.296	27.97479
826.473	33.21133
826.65	33.3426
826.827	38.65949
827.003	28.16183
827.18	30.32872
827.357	33.45517
827.533	29.01457
827.71	19.71601
827.887	26.44569
828.063	29.20841
828.24	25.77651
828.416	32.34803
828.593	27.92112
828.769	36.95054
828.946	38.10135
829.122	39.34454
829.299	37.31253
829.475	25.98408
829.652	38.35547
829.828	59.22686
830.005	38.59735
830.181	52.64293
830.357	39.56874
830.534	55.12463
830.71	41.82374
830.886	53.92031
831.063	50.96635
831.239	64.65719
831.415	34.99281
831.592	67.14732
831.768	44.29014
831.944	39.76126
832.12	72.83937
832.296	65.60352
832.473	57.43167
832.649	41.62268
832.825	55.86166
833.001	36.49559
833.177	49.33262
833.353	45.36586
833.529	29.0682
833.705	42.9404
833.881	30.16841
834.058	28.38649
834.234	31.08587
834.41	31.60058
834.586	25.16541
834.761	29.01533
834.937	32.47651
835.113	33.10108
835.289	29.29335
835.465	33.58111
835.641	30.41426
835.817	33.63511
835.993	53.28254
836.169	30.86587
836.344	44.9476
836.52	49.05411
836.696	45.60884
836.872	38.00634
837.048	95.3868
837.223	40.79955
837.399	75.87062
837.575	60.48356
837.75	57.45702
837.926	78.38085
838.102	109.07586
838.277	89.5614
838.453	121.35489
838.628	121.79937
838.804	52.47191
838.98	108.30353
839.155	58.17112
839.331	76.99407
839.506	54.17379
839.682	53.37564
839.857	76.062
840.033	89.47806
840.208	45.36572
840.384	26.21132
840.559	46.73428
840.734	66.97062
840.91	85.08691
841.085	53.51305
841.26	51.80418
841.436	48.80155
841.611	47.12279
841.786	72.36456
841.962	89.43787
842.137	59.10771
842.312	38.5451
842.487	53.2318
842.663	43.34743
842.838	56.18116
843.013	160.13777
843.188	79.09018
843.363	89.88338
843.538	137.42752
843.714	137.16497
843.889	134.24381
844.064	152.47056
844.239	122.23952
844.414	137.26792
844.589	98.383
844.764	173.82456
844.939	167.25362
845.114	184.27444
845.289	170.66383
845.464	240.84215
845.639	161.01277
845.814	88.10991
845.989	98.64368
846.163	119.77073
846.338	122.48787
846.513	178.25661
846.688	115.03408
846.863	115.08667
847.038	107.17784
847.212	122.13862
847.387	129.75887
847.562	130.64721
847.737	161.04423
847.911	64.71155
848.086	78.40943
848.261	224.72985
848.435	107.89535
848.61	161.62705
848.785	89.36066
848.959	170.99557
849.134	222.13718
849.308	239.04709
849.483	130.99784
849.658	201.77552
849.832	110.12853
850.007	97.89934
850.181	252.52768
850.356	105.65654
850.53	245.20763
850.705	76.97716
850.879	46.3629
851.053	124.12462
851.228	106.86026
851.402	143.59816
851.577	177.41699
851.751	199.73761
851.925	130.74041
852.099	60.47411
852.274	92.76324
852.448	124.21294
852.622	139.24976
852.797	123.3426
852.971	124.86472
853.145	133.92997
853.319	358.57509
853.493	183.61849
853.668	103.232
853.842	231.47178
854.016	189.84831
854.19	223.33
854.364	136.613
854.538	145.0106
854.712	189.83279
854.886	123.31321
855.06	112.78552
855.234	53.78302
855.408	209.75766
855.582	173.48404
855.756	173.32935
855.93	232.16361
856.104	155.79789
856.278	178.26553
856.452	134.3476
856.626	169.9343
856.8	266.06192
856.973	162.83749
857.147	147.05202
857.321	150.9169
857.495	192.20837
857.669	126.71343
857.842	112.10408
858.016	191.58443
858.19	95.37683
858.364	299.34759
858.537	122.01808
858.711	140.01215
858.885	124.59621
859.058	105.96962
859.232	62.09287
859.405	73.10461
859.579	177.30273
859.753	152.75709
859.926	100.00993
860.1	73.07113
860.273	134.4828
860.447	215.68281
860.62	116.57273
860.794	248.91248
860.967	152.35567
861.141	189.49998
861.314	271.20509
861.487	162.3294
861.661	208.78116
861.834	212.82
862.008	189.26839
862.181	142.47273
862.354	137.06735
862.528	159.56067
862.701	111.70554
862.874	81.79662
863.047	123.17889
863.221	120.90836
863.394	61.48166
863.567	219.94485
863.74	48.77128
863.913	172.90344
864.087	155.0537
864.26	181.78422
864.433	132.88926
864.606	231.16727
864.779	139.57028
864.952	71.45089
865.125	116.39165
865.298	131.38413
865.471	139.03718
865.644	266.60324
865.817	216.96136
865.99	189.94883
866.163	205.20252
866.336	116.74732
866.509	130.12483
866.682	104.12936
866.855	197.16123
867.028	91.03896
867.2	167.31604
867.373	69.27987
867.546	148.41696
867.719	267.94096
867.892	175.67763
868.064	99.98345
868.237	162.55354
868.41	140.68531
868.583	78.43374
868.755	83.15965
868.928	138.20297
869.101	276.34405
869.273	204.09447
869.446	170.29239
869.619	200.67945
869.791	129.37235
869.964	202.4881
870.136	181.85522
870.309	146.40463
870.481	149.45105
870.654	69.52142
870.826	148.66754
870.999	115.64541
871.171	184.47401
871.344	117.92777
871.516	139.1489
871.689	100.84952
871.861	152.19473
872.033	100.60886
872.206	118.75581
872.378	191.09662
872.55	122.39384
872.723	85.88248
872.895	123.3375
873.067	200.598
873.24	220.89089
873.412	116.47071
873.584	133.66455
873.756	123.66817
873.928	155.75338
874.101	155.19627
874.273	174.7065
874.445	60.38828
874.617	86.82285
874.789	150.57386
874.961	121.40398
875.133	166.10518
875.305	142.3713
875.477	94.21805
875.649	81.93195
875.821	103.30716
875.993	238.13763
876.165	92.87137
876.337	157.43235
876.509	123.06488
876.681	156.28307
876.853	149.24154
877.025	147.14471
877.197	99.39298
877.369	96.92596
877.541	186.34131
877.712	56.55998
877.884	90.03833
878.056	174.81756
878.228	97.56582
878.4	164.42464
878.571	92.12675
878.743	69.43594
878.915	150.25815
879.086	90.70855
879.258	114.98767
879.43	101.5715
879.601	90.70248
879.773	95.07729
879.945	27.51856
880.116	44.71585
880.288	29.82679
880.459	32.41032
880.631	25.0968
880.802	30.543
880.974	28.6158
881.145	21.91252
881.317	27.53896
881.488	22.07842
881.66	24.0841
881.831	22.07716
882.002	29.57047
882.174	23.22297
882.345	27.90121
882.517	18.13102
882.688	31.9059
882.859	27.94338
883.03	41.20963
883.202	38.08025
883.373	35.08132
883.544	35.73362
883.715	55.26015
883.887	46.70936
884.058	40.62904
884.229	58.42584
884.4	57.11182
884.571	65.45935
884.742	58.15186
884.914	64.05749
885.085	84.58298
885.256	106.71262
885.427	89.08309
885.598	104.78898
885.769	108.12943
885.94	104.53901
886.111	73.19141
886.282	123.85685
886.453	100.18235
886.624	72.18069
886.795	122.33255
886.966	99.38077
887.136	133.58623
887.307	86.59934
887.478	163.08606
887.649	146.13184
887.82	150.10594
887.991	116.74014
888.161	162.15106
888.332	156.13004
888.503	92.27984
888.674	210.58087
888.844	220.09125
889.015	177.86662
889.186	85.40116
889.356	212.80793
889.527	83.5046
889.698	354.81786
889.868	114.42411
890.039	159.01048
890.209	135.03596
890.38	180.98681
890.551	150.66413
890.721	222.79523
890.892	184.13226
891.062	125.94269
891.233	157.63883
891.403	115.15288
891.574	96.75595
891.744	126.15895
891.914	166.4826
892.085	142.04747
892.255	55.52528
892.425	216.12807
892.596	183.11994
892.766	162.73906
892.936	216.40791
893.107	183.31883
893.277	104.31407
893.447	80.9994
893.618	56.39638
893.788	119.45764
893.958	60.95948
894.128	70.63725
894.298	75.03181
894.468	105.73266
894.639	49.91658
894.809	36.79625
894.979	56.17806
895.149	64.02945
895.319	52.39331
895.489	75.40289
895.659	89.55489
895.829	61.90077
895.999	63.99142
896.169	48.62553
896.339	57.96325
896.509	119.23884
896.679	134.71085
896.849	128.23456
897.019	180.05372
897.189	137.21721
897.358	120.31552
897.528	178.4337
897.698	69.7399
897.868	170.62608
898.038	279.34902
898.208	257.37118
898.377	89.13952
898.547	268.4215
898.717	421.19938
898.886	174.9843
899.056	260.39261
899.226	396.41334
899.395	238.64488
899.565	299.75664
899.735	203.67112
899.904	335.94822
900.074	282.95635
900.244	138.03519
900.413	511.46629
900.583	126.39517
900.752	191.32165
900.922	307.43455
901.091	39.3627
901.261	270.33931
901.43	252.59275
901.599	257.22788
901.769	563.03113
901.938	298.48517
902.108	294.32094
902.277	361.90033
902.446	110.50668
902.616	123.81577
902.785	182.79858
902.954	287.14033
903.124	188.33274
903.293	157.36602
903.462	90.44599
903.631	122.1157
903.801	90.6996
903.97	52.04919
904.139	82.98395
904.308	62.32088
904.477	52.53016
904.646	34.37125
904.816	49.23022
904.985	71.46005
905.154	103.96522
