Data from WindowProjectSample_Transmission__69__00069.txt Node

Date: Sat May 03 17:51:47 EDT 2025
User: jessi
Spectrometer: SR400872
Trigger mode: 0
Integration Time (sec): 5.000010E-1
Scans to average: 6
Electric dark correction enabled: true
Nonlinearity correction enabled: true
Boxcar width: 0
XAxis mode: Wavelengths
Number of Pixels in Spectrum: 3648
>>>>>Begin Spectral Data<<<<<
184.909	3363.43138
185.132	3904.79218
185.355	-4121.42161
185.578	4032.56504
185.801	-202.75934
186.024	-4860.18759
186.247	1722.15732
186.47	636.57513
186.693	-36.78723
186.916	3924.96184
187.139	3069.73834
187.362	-1844.17501
187.585	5233.36246
187.808	26829.71134
188.031	4.32058
188.254	-4200.14585
188.476	855.1576
188.699	3605.42708
188.922	-181.6421
189.145	-6911.47078
189.368	-332.96949
189.591	-662.91525
189.813	-2848.65622
190.036	979.15112
190.259	-8033.73585
190.482	1249.41201
190.705	3804.23315
190.927	-1996.36036
191.15	-6536.23816
191.373	5760.1639
191.595	-1081.75282
191.818	2014.67971
192.041	-502.78674
192.263	1876.42128
192.486	-2376.36107
192.709	-22072.57757
192.931	1772.56594
193.154	-3712.35307
193.377	-2372.65407
193.599	5131.7796
193.822	1825.44363
194.044	5910.97574
194.267	899.96541
194.489	-278.41012
194.712	2465.65242
194.934	8571.78321
195.157	-26842.14937
195.379	1846.82854
195.602	1574.07325
195.824	1476.51118
196.047	41988.40395
196.269	3092.54595
196.492	-1712.0229
196.714	-1200.83998
196.936	1711.83441
197.159	-11128.38879
197.381	-436.29716
197.604	-6083.56521
197.826	-16511.46543
198.048	9811.83769
198.271	-8363.68185
198.493	4055.92952
198.715	3318.62458
198.938	-778.93435
199.16	-17822.57823
199.382	1186.69738
199.604	-1691.36937
199.827	-3688.06199
200.049	2362.96353
200.271	-6829.70605
200.493	-48089.10145
200.715	3392.72775
200.938	-2917.49126
201.16	-2545.67599
201.382	-1571.89065
201.604	-3356.35505
201.826	3599.15624
202.048	3401.61045
202.27	-1027.50887
202.492	-3505.64528
202.715	-1222.89768
202.937	-16830.20517
203.159	2527.79899
203.381	2261.69711
203.603	-3068.51806
203.825	-837.32795
204.047	57203.57134
204.269	-1376.64536
204.491	-1082.88134
204.713	60740.66573
204.935	-3260.5342
205.156	-963.83929
205.378	-4175.87773
205.6	-1071.99285
205.822	2331.56662
206.044	-393.4083
206.266	5967.54776
206.488	880.07672
206.71	3257.3827
206.932	1485.44915
207.153	-1586.43514
207.375	-2547.29912
207.597	3697.63155
207.819	28878.82193
208.041	4004.64692
208.262	-1851.11777
208.484	-1195.45811
208.706	-1413.81271
208.927	2758.86254
209.149	4633.51433
209.371	-5151.00138
209.593	417.11817
209.814	-27908.99353
210.036	2049.64554
210.258	-758.87751
210.479	4057.32349
210.701	-3403.77333
210.922	-11054.37873
211.144	-860.89122
211.366	5007.25201
211.587	-2104.73157
211.809	-4693.88476
212.03	-805.96264
212.252	-652.94936
212.473	3737.64577
212.695	-638.86963
212.916	-815.77998
213.138	671.8754
213.359	-1383.25795
213.581	12104.68833
213.802	-2085.25965
214.024	-2334.98611
214.245	-5745.18059
214.466	-368.4093
214.688	-2937.42956
214.909	-20515.68678
215.131	-4436.3254
215.352	-1954.03025
215.573	11280.80799
215.795	1585.59933
216.016	6039.79942
216.237	-544.66172
216.459	6623.74423
216.68	-3411.36398
216.901	-2738.19059
217.122	-1978.97829
217.344	-6763.2254
217.565	-2986.82414
217.786	2088.81708
218.007	1508.19808
218.228	-390.2736
218.45	-4387.69585
218.671	1353.1498
218.892	3867.73701
219.113	1637.91349
219.334	262.17331
219.555	-6836.68238
219.776	11894.83893
219.997	3927.27018
220.219	1752.29305
220.44	1190.99243
220.661	1087.23268
220.882	-2624.51286
221.103	-1074.95602
221.324	2290.08833
221.545	2988.13914
221.766	-3379.27552
221.987	-550.32871
222.208	-10448.05221
222.429	172997.60551
222.65	-459.96066
222.87	-8383.02063
223.091	2830.15697
223.312	-1139.87407
223.533	2321.5195
223.754	1974.15984
223.975	2747.28334
224.196	-5738.04774
224.417	-2419.6659
224.637	7677.73097
224.858	2296.17221
225.079	1239.80421
225.3	1141.90248
225.521	4888.38716
225.741	867.40157
225.962	1152.38741
226.183	-514.69477
226.404	1365.86011
226.624	1085.65227
226.845	1562.31486
227.066	898.51357
227.286	572.83464
227.507	220.97326
227.728	183.95953
227.948	274.60058
228.169	93.13931
228.389	94.70834
228.61	44.98342
228.831	64.88344
229.051	9.08001
229.272	36.54215
229.492	52.01606
229.713	15.70794
229.933	38.40844
230.154	32.58718
230.374	51.70698
230.595	41.66839
230.815	24.96208
231.036	37.74354
231.256	-8.36799
231.477	75.22178
231.697	43.35688
231.917	43.03751
232.138	60.91621
232.358	131.69174
232.579	118.71907
232.799	22.48548
233.019	105.83583
233.24	146.32055
233.46	36.78895
233.68	77.92685
233.901	52.40796
234.121	31.34426
234.341	16.49362
234.561	-0.34987
234.782	25.31928
235.002	76.88095
235.222	-1.7841
235.442	68.71158
235.662	35.77553
235.883	75.3875
236.103	64.63068
236.323	48.96119
236.543	28.49899
236.763	49.50729
236.983	46.14881
237.203	49.42438
237.423	73.5937
237.643	100.03355
237.864	91.46049
238.084	22.35832
238.304	33.83173
238.524	53.04343
238.744	45.45304
238.964	73.8097
239.184	66.73057
239.404	67.16712
239.624	38.61597
239.843	68.06265
240.063	36.48971
240.283	25.99189
240.503	29.04207
240.723	26.59507
240.943	13.09646
241.163	21.0038
241.383	15.40928
241.603	6.61657
241.822	10.35651
242.042	6.44637
242.262	8.29097
242.482	9.19955
242.702	11.71471
242.921	3.77298
243.141	7.61185
243.361	5.96831
243.581	9.71827
243.8	8.86823
244.02	5.39649
244.24	10.35952
244.459	10.25339
244.679	20.7219
244.899	11.8208
245.118	14.75998
245.338	13.79305
245.558	16.66021
245.777	9.39779
245.997	10.59935
246.216	10.47381
246.436	6.27595
246.655	4.26461
246.875	3.42004
247.094	6.47072
247.314	2.51021
247.533	3.59816
247.753	4.7408
247.972	3.73947
248.192	1.35382
248.411	2.30334
248.631	4.27828
248.85	5.70753
249.07	3.87629
249.289	7.06948
249.508	5.15807
249.728	7.95271
249.947	8.39154
250.166	8.85485
250.386	5.10539
250.605	7.08243
250.824	11.47927
251.044	9.4039
251.263	27.22045
251.482	14.00078
251.701	13.04859
251.921	0.17923
252.14	4.58641
252.359	5.00406
252.578	10.82123
252.798	3.81137
253.017	9.98376
253.236	5.41353
253.455	6.27763
253.674	12.524
253.893	5.4364
254.112	7.53762
254.331	13.62573
254.551	11.28665
254.77	5.29306
254.989	15.99606
255.208	13.65072
255.427	15.29845
255.646	15.07795
255.865	23.23474
256.084	9.32367
256.303	11.85011
256.522	15.61733
256.741	3.62542
256.96	3.82659
257.179	9.55666
257.397	11.43463
257.616	6.60283
257.835	6.62314
258.054	16.15208
258.273	9.7722
258.492	11.85904
258.711	7.42954
258.93	3.44146
259.148	4.11316
259.367	4.28893
259.586	6.01354
259.805	2.79393
260.023	5.16355
260.242	4.08306
260.461	2.92962
260.68	1.56206
260.898	4.80682
261.117	1.53427
261.336	1.13404
261.554	4.36228
261.773	4.02029
261.992	1.04991
262.21	3.94043
262.429	5.08335
262.648	7.69026
262.866	9.13722
263.085	5.8292
263.303	5.63755
263.522	9.29983
263.74	9.83487
263.959	16.6619
264.178	9.10523
264.396	7.10568
264.615	5.31589
264.833	12.22308
265.051	10.73124
265.27	10.87413
265.488	12.18972
265.707	7.59647
265.925	11.55382
266.144	5.39396
266.362	7.20576
266.58	6.53142
266.799	5.4129
267.017	6.88134
267.235	6.04077
267.454	3.63695
267.672	2.44832
267.89	4.68212
268.109	5.46377
268.327	4.9212
268.545	1.52174
268.763	4.76029
268.982	1.96908
269.2	5.76197
269.418	3.42361
269.636	2.6417
269.854	5.00549
270.073	3.90352
270.291	2.11585
270.509	2.06661
270.727	5.14412
270.945	7.92645
271.163	7.83433
271.381	1.9744
271.599	3.37541
271.817	5.76706
272.036	2.12642
272.254	3.64564
272.472	2.81782
272.69	2.69708
272.908	2.79232
273.126	4.4296
273.344	5.81072
273.562	2.05767
273.779	3.29395
273.997	3.88462
274.215	4.60544
274.433	3.20974
274.651	4.91431
274.869	5.40134
275.087	3.01196
275.305	5.08005
275.523	2.72287
275.74	3.59556
275.958	5.69453
276.176	8.90597
276.394	2.90331
276.612	3.45945
276.829	3.35621
277.047	2.84013
277.265	3.46124
277.483	4.0744
277.7	4.60895
277.918	3.98432
278.136	6.76603
278.353	3.52284
278.571	2.08598
278.789	5.55742
279.006	1.23038
279.224	3.37898
279.442	5.76348
279.659	3.6796
279.877	2.8347
280.094	5.67608
280.312	1.34066
280.529	4.01824
280.747	1.26706
280.964	3.04592
281.182	6.57933
281.399	3.18187
281.617	4.31082
281.834	2.94127
282.052	2.67597
282.269	3.27162
282.487	2.91544
282.704	2.32712
282.921	2.5123
283.139	3.69253
283.356	4.84365
283.574	3.726
283.791	2.252
284.008	5.75642
284.226	2.95416
284.443	3.45995
284.66	4.46916
284.877	3.74103
285.095	2.47007
285.312	1.67739
285.529	1.17355
285.746	0.94763
285.964	2.27051
286.181	1.52955
286.398	2.26425
286.615	2.87129
286.832	2.97901
287.05	0.84894
287.267	1.93644
287.484	2.09921
287.701	3.18046
287.918	2.81076
288.135	3.29727
288.352	1.47735
288.569	1.78264
288.786	2.74297
289.003	1.9653
289.22	3.08892
289.437	1.91115
289.654	3.31833
289.871	3.41581
290.088	3.42956
290.305	2.54246
290.522	1.98501
290.739	2.40626
290.956	3.51109
291.173	4.24076
291.39	3.79121
291.607	2.72443
291.824	1.99888
292.04	1.54206
292.257	3.07087
292.474	3.55488
292.691	2.32747
292.908	1.47858
293.125	2.02967
293.341	1.17185
293.558	5.81773
293.775	2.26391
293.992	2.30215
294.208	0.94458
294.425	1.53012
294.642	2.18212
294.858	2.62573
295.075	0.88708
295.292	2.22578
295.508	2.57379
295.725	4.0844
295.942	1.99517
296.158	1.53413
296.375	2.24038
296.591	1.81897
296.808	2.00431
297.024	2.14168
297.241	2.29162
297.458	2.63412
297.674	0.21688
297.891	2.04643
298.107	1.62616
298.323	1.33037
298.54	2.97612
298.756	1.44785
298.973	0.58262
299.189	3.16165
299.406	1.34198
299.622	3.20953
299.838	3.09263
300.055	3.00444
300.271	0.89468
300.487	1.00804
300.704	1.27621
300.92	0.87907
301.136	4.29933
301.353	2.94818
301.569	2.34643
301.785	2.55709
302.001	3.07791
302.218	2.45459
302.434	2.59461
302.65	1.04266
302.866	1.71724
303.083	4.3211
303.299	3.92484
303.515	2.15027
303.731	2.41446
303.947	0.8497
304.163	1.39693
304.379	2.433
304.595	2.7779
304.812	1.60789
305.028	1.32669
305.244	1.73909
305.46	2.86551
305.676	3.23828
305.892	3.76272
306.108	2.35946
306.324	1.71546
306.54	4.24005
306.756	2.84936
306.972	2.78415
307.187	1.98373
307.403	3.56446
307.619	1.4109
307.835	3.27797
308.051	3.6142
308.267	0.87716
308.483	3.06108
308.699	2.71862
308.914	2.21432
309.13	1.99323
309.346	0.53034
309.562	1.17988
309.778	0.76364
309.993	2.65923
310.209	2.13422
310.425	0.89714
310.641	1.858
310.856	1.06363
311.072	1.01589
311.288	2.06275
311.503	2.18048
311.719	0.5154
311.935	0.35592
312.15	2.49761
312.366	2.03718
312.581	2.64313
312.797	2.14623
313.013	2.78732
313.228	1.63737
313.444	2.08383
313.659	1.44464
313.875	2.42014
314.09	2.19511
314.306	3.30673
314.521	3.0355
314.737	2.63746
314.952	2.58581
315.168	1.92826
315.383	2.67362
315.599	1.97357
315.814	1.90964
316.029	3.05281
316.245	0.92635
316.46	0.8358
316.675	3.36689
316.891	4.11948
317.106	5.0585
317.321	3.03831
317.537	2.74395
317.752	3.01053
317.967	3.00745
318.183	1.4296
318.398	1.81285
318.613	3.38568
318.828	3.66584
319.043	2.99699
319.259	1.80921
319.474	2.51377
319.689	3.28286
319.904	0.50069
320.119	3.17693
320.334	2.55686
320.549	1.95923
320.765	3.50108
320.98	2.42032
321.195	3.28755
321.41	1.88914
321.625	3.00822
321.84	4.2224
322.055	4.126
322.27	1.6348
322.485	1.09607
322.7	2.40412
322.915	3.33481
323.13	1.47707
323.345	3.70275
323.56	3.06622
323.775	3.01741
323.989	2.86917
324.204	2.37341
324.419	2.94899
324.634	1.08259
324.849	2.10812
325.064	4.59778
325.279	3.35112
325.493	2.99227
325.708	3.33731
325.923	1.3581
326.138	1.50756
326.352	3.80389
326.567	3.21869
326.782	1.7662
326.997	1.31374
327.211	2.60889
327.426	2.59085
327.641	1.88403
327.855	0.70827
328.07	2.55254
328.285	3.98197
328.499	1.94354
328.714	2.93127
328.928	3.01867
329.143	2.57114
329.358	2.93786
329.572	3.45748
329.787	3.632
330.001	4.61194
330.216	0.73396
330.43	4.05224
330.645	3.76575
330.859	3.16608
331.074	1.51914
331.288	2.6331
331.503	3.72708
331.717	1.12735
331.931	2.19909
332.146	2.46081
332.36	4.00596
332.575	2.9077
332.789	2.42307
333.003	2.21818
333.218	2.86585
333.432	2.00099
333.646	2.94924
333.86	3.60979
334.075	3.84313
334.289	2.048
334.503	1.42859
334.717	2.89345
334.932	2.83795
335.146	3.48413
335.36	2.05102
335.574	3.15451
335.788	2.76037
336.003	3.67296
336.217	3.00804
336.431	2.87915
336.645	1.54335
336.859	1.11442
337.073	1.89877
337.287	2.6204
337.501	1.42567
337.715	2.71447
337.929	2.98665
338.143	1.35808
338.357	2.18369
338.571	1.39496
338.785	2.70064
338.999	1.84002
339.213	1.8467
339.427	0.8455
339.641	3.33115
339.855	2.17406
340.069	1.64747
340.283	3.08016
340.497	3.89291
340.711	2.75662
340.924	1.77423
341.138	1.17974
341.352	0.98242
341.566	2.4327
341.78	0.7139
341.993	1.7584
342.207	1.23911
342.421	2.44375
342.635	2.42431
342.848	1.75267
343.062	0.1643
343.276	1.67261
343.49	4.24243
343.703	1.69138
343.917	2.98154
344.131	2.92559
344.344	1.5179
344.558	1.60096
344.771	1.57697
344.985	3.42756
345.199	3.82807
345.412	2.34464
345.626	2.5302
345.839	0.80098
346.053	1.167
346.266	1.19229
346.48	3.00458
346.693	2.38019
346.907	2.61314
347.12	1.42254
347.334	2.58362
347.547	2.51178
347.76	2.00208
347.974	3.15837
348.187	2.45354
348.401	1.70773
348.614	1.72994
348.827	1.90835
349.041	2.76788
349.254	0.68679
349.467	1.86448
349.681	1.01713
349.894	1.54251
350.107	3.21795
350.32	3.41544
350.534	0.544
350.747	1.61188
350.96	1.23006
351.173	1.58926
351.386	1.7415
351.6	1.6187
351.813	1.4405
352.026	2.13629
352.239	0.82186
352.452	1.72466
352.665	2.8922
352.878	1.60642
353.092	4.15988
353.305	2.72813
353.518	2.16406
353.731	1.30955
353.944	3.24612
354.157	1.4476
354.37	1.35734
354.583	0.74469
354.796	0.81903
355.009	3.02154
355.222	1.97282
355.435	2.25567
355.647	3.06015
355.86	1.1057
356.073	1.89525
356.286	1.49854
356.499	2.74964
356.712	2.15391
356.925	2.21853
357.138	2.84092
357.35	1.24463
357.563	1.58649
357.776	2.0243
357.989	1.7034
358.201	2.46193
358.414	1.92738
358.627	2.80416
358.84	1.62503
359.052	1.15492
359.265	1.18456
359.478	2.85393
359.69	-0.30376
359.903	2.40609
360.116	2.57508
360.328	0.6912
360.541	2.55852
360.753	1.13781
360.966	1.46415
361.179	1.55709
361.391	1.49717
361.604	0.98914
361.816	1.40485
362.029	1.27308
362.241	1.13696
362.454	1.37109
362.666	1.08349
362.879	1.81713
363.091	1.53997
363.304	1.09717
363.516	1.54788
363.728	0.75033
363.941	2.2408
364.153	1.43988
364.366	0.17988
364.578	0.89827
364.79	2.17951
365.003	1.74436
365.215	1.39794
365.427	2.16342
365.639	2.83123
365.852	2.08517
366.064	3.26269
366.276	1.52376
366.488	2.14541
366.701	1.53474
366.913	1.60338
367.125	1.71541
367.337	1.22523
367.549	1.39168
367.762	1.74037
367.974	1.69316
368.186	1.24865
368.398	2.64571
368.61	2.24029
368.822	2.32437
369.034	1.63458
369.246	2.48111
369.458	3.73166
369.67	1.02335
369.882	3.15688
370.094	0.40671
370.306	3.04499
370.518	1.36194
370.73	1.234
370.942	1.25614
371.154	1.58521
371.366	1.32878
371.578	2.10184
371.79	1.39759
372.002	2.76464
372.214	3.29656
372.425	1.91448
372.637	2.87894
372.849	1.88444
373.061	0.07769
373.273	2.15867
373.484	2.22563
373.696	2.62985
373.908	0.16815
374.12	2.68155
374.331	2.38784
374.543	1.25005
374.755	0.93392
374.967	1.83678
375.178	2.63052
375.39	1.7072
375.602	1.93667
375.813	0.79529
376.025	0.84539
376.236	1.79317
376.448	1.8732
376.66	1.68134
376.871	1.58516
377.083	2.53555
377.294	2.97287
377.506	1.4717
377.717	2.86147
377.929	1.9318
378.14	1.3806
378.352	2.26037
378.563	2.33865
378.775	2.91119
378.986	1.23165
379.197	1.97186
379.409	1.46272
379.62	2.52773
379.832	2.0089
380.043	1.70159
380.254	1.98137
380.466	0.94528
380.677	4.07758
380.888	3.58288
381.1	4.10289
381.311	3.57237
381.522	2.10564
381.733	4.21589
381.945	1.77779
382.156	1.89762
382.367	1.68967
382.578	4.14855
382.789	4.1015
383.001	1.49261
383.212	3.05807
383.423	3.42106
383.634	2.797
383.845	2.41158
384.056	1.6983
384.267	1.98157
384.478	2.18543
384.69	1.16902
384.901	2.38201
385.112	2.29739
385.323	3.26368
385.534	2.45708
385.745	2.43993
385.956	2.25708
386.167	1.33926
386.378	2.51637
386.588	1.58723
386.799	1.39187
387.01	0.85595
387.221	2.85208
387.432	2.23259
387.643	3.64836
387.854	1.88135
388.065	1.86697
388.275	2.02134
388.486	1.73923
388.697	2.07811
388.908	1.7236
389.119	3.0966
389.329	3.28229
389.54	2.13253
389.751	2.49252
389.962	3.22873
390.172	2.24754
390.383	2.04052
390.594	1.79235
390.804	1.61287
391.015	1.88097
391.226	2.21908
391.436	2.72602
391.647	2.47415
391.858	2.57957
392.068	1.01891
392.279	1.49052
392.489	2.3423
392.7	2.92427
392.91	1.74483
393.121	1.7484
393.331	2.6709
393.542	3.05058
393.752	2.85679
393.963	2.53103
394.173	2.51512
394.384	2.86258
394.594	2.16504
394.804	1.50773
395.015	2.38858
395.225	2.77198
395.436	1.68838
395.646	2.72234
395.856	2.01848
396.067	1.52899
396.277	2.97152
396.487	2.48319
396.697	2.62305
396.908	2.99982
397.118	2.73103
397.328	2.65662
397.538	3.02877
397.749	2.01417
397.959	3.18547
398.169	2.80813
398.379	1.3653
398.589	2.57115
398.8	2.69611
399.01	2.48723
399.22	2.36699
399.43	4.23668
399.64	2.30535
399.85	2.89882
400.06	2.32517
400.27	2.00734
400.48	2.45913
400.69	3.41484
400.9	2.15032
401.11	1.7827
401.32	2.95165
401.53	2.12637
401.74	3.57574
401.95	2.93906
402.16	2.12758
402.37	2.97583
402.58	2.18126
402.79	2.91361
403	3.16103
403.209	2.06516
403.419	3.28779
403.629	2.10795
403.839	3.12294
404.049	3.21316
404.258	2.23457
404.468	2.09752
404.678	3.06696
404.888	3.43191
405.097	2.45106
405.307	2.61054
405.517	3.12963
405.727	2.97071
405.936	2.24739
406.146	2.86799
406.356	3.59137
406.565	2.60191
406.775	2.36577
406.984	2.3202
407.194	4.12021
407.404	2.67936
407.613	2.98401
407.823	3.27012
408.032	3.56352
408.242	3.4909
408.451	2.23833
408.661	2.62504
408.87	4.01593
409.08	2.21645
409.289	3.04652
409.499	2.72125
409.708	2.72494
409.918	1.47065
410.127	2.96376
410.336	3.86348
410.546	3.39586
410.755	2.44618
410.964	2.45792
411.174	1.96604
411.383	3.21234
411.592	3.01036
411.802	2.08766
412.011	3.55394
412.22	2.63568
412.429	3.61158
412.639	3.77323
412.848	3.57556
413.057	3.96863
413.266	3.54944
413.475	2.81996
413.685	3.49078
413.894	3.44129
414.103	3.55826
414.312	3.34171
414.521	2.647
414.73	3.12224
414.939	4.11493
415.148	3.16137
415.357	3.12213
415.566	2.79762
415.776	2.78423
415.985	2.70761
416.194	3.50872
416.403	4.23723
416.611	2.14818
416.82	2.59418
417.029	3.1747
417.238	2.53967
417.447	2.57946
417.656	2.93757
417.865	2.69824
418.074	3.11934
418.283	3.43748
418.492	4.30532
418.7	4.17561
418.909	5.17507
419.118	3.87975
419.327	4.59805
419.536	4.15855
419.744	3.89697
419.953	5.36483
420.162	5.38852
420.371	4.16712
420.579	4.50113
420.788	5.32713
420.997	5.76623
421.205	5.54045
421.414	5.30394
421.623	5.50325
421.831	4.82261
422.04	5.59288
422.249	4.74303
422.457	5.36697
422.666	4.5981
422.874	5.79581
423.083	5.60016
423.291	5.57935
423.5	5.38627
423.708	5.61859
423.917	6.09139
424.125	5.37277
424.334	5.05555
424.542	7.11951
424.751	6.33473
424.959	5.90729
425.167	6.50027
425.376	6.1521
425.584	5.28212
425.793	5.4317
426.001	4.45181
426.209	5.06451
426.418	3.9765
426.626	3.80568
426.834	3.50962
427.042	3.61223
427.251	3.31484
427.459	4.00559
427.667	3.50994
427.875	2.70581
428.084	3.22082
428.292	4.40557
428.5	3.88864
428.708	2.88567
428.916	3.06378
429.124	3.61175
429.333	3.38025
429.541	3.38521
429.749	3.59063
429.957	3.57348
430.165	5.03747
430.373	2.56408
430.581	3.61486
430.789	4.3663
430.997	3.21021
431.205	3.09252
431.413	3.70659
431.621	3.37627
431.829	4.05414
432.037	3.28511
432.245	3.5695
432.453	3.94509
432.661	3.47136
432.869	4.90532
433.076	3.45947
433.284	4.00984
433.492	4.65332
433.7	4.84195
433.908	3.96712
434.116	4.16983
434.323	4.19076
434.531	3.91458
434.739	4.22045
434.947	4.24849
435.154	4.26237
435.362	3.57835
435.57	3.49098
435.778	3.37661
435.985	3.93049
436.193	3.43541
436.401	4.44862
436.608	3.59955
436.816	3.38089
437.023	4.54007
437.231	4.73566
437.439	3.97889
437.646	4.2296
437.854	4.15299
438.061	4.22497
438.269	3.88334
438.476	4.21138
438.684	4.11278
438.891	4.00725
439.099	3.95702
439.306	3.66001
439.514	3.86215
439.721	5.07582
439.929	4.26536
440.136	5.28998
440.343	5.36615
440.551	4.87553
440.758	6.80983
440.965	5.41078
441.173	5.32647
441.38	4.70031
441.587	5.09975
441.795	4.62974
442.002	4.65235
442.209	4.50985
442.416	4.59659
442.624	4.43649
442.831	4.36082
443.038	3.76834
443.245	3.51755
443.452	3.66735
443.66	4.32423
443.867	3.7748
444.074	3.61964
444.281	3.79891
444.488	4.0924
444.695	4.57461
444.902	4.24695
445.109	5.38762
445.316	4.91162
445.523	5.07817
445.73	4.95932
445.937	5.59797
446.144	6.22024
446.351	6.57585
446.558	5.35322
446.765	7.02082
446.972	6.60036
447.179	5.97857
447.386	6.86756
447.593	5.33291
447.8	6.3596
448.007	5.16046
448.214	4.80489
448.42	4.39203
448.627	5.24891
448.834	4.30087
449.041	4.10735
449.248	4.00576
449.454	4.42301
449.661	4.9993
449.868	3.73516
450.075	3.60184
450.281	3.02949
450.488	3.45144
450.695	3.38619
450.901	3.46046
451.108	3.56347
451.315	4.62706
451.521	3.66069
451.728	4.56423
451.935	3.44434
452.141	3.85132
452.348	3.8211
452.554	3.90465
452.761	3.77164
452.967	5.0292
453.174	4.15368
453.38	3.97014
453.587	3.24234
453.793	4.04243
454	4.35317
454.206	5.25716
454.413	4.62285
454.619	4.27273
454.825	3.59339
455.032	4.19639
455.238	4.5026
455.445	3.18284
455.651	4.07465
455.857	2.93726
456.064	3.77066
456.27	3.87152
456.476	3.66461
456.682	3.06069
456.889	4.12
457.095	4.36659
457.301	5.21967
457.507	3.99813
457.714	4.01542
457.92	3.87687
458.126	3.51425
458.332	3.82926
458.538	3.9338
458.744	4.3307
458.951	4.49095
459.157	6.34536
459.363	5.46449
459.569	5.52558
459.775	6.17527
459.981	5.59437
460.187	6.16424
460.393	6.42767
460.599	6.66613
460.805	5.85036
461.011	5.19887
461.217	5.46674
461.423	5.01755
461.629	4.11535
461.835	4.60809
462.041	4.03921
462.247	5.11428
462.453	4.00435
462.658	3.85488
462.864	4.56758
463.07	4.2014
463.276	4.205
463.482	4.26897
463.688	5.09277
463.893	3.61432
464.099	3.97269
464.305	4.97007
464.511	3.78087
464.716	3.8432
464.922	4.57434
465.128	3.47108
465.333	4.99162
465.539	4.54391
465.745	4.22665
465.95	4.17221
466.156	5.8192
466.362	4.84682
466.567	4.03136
466.773	3.99316
466.978	5.08963
467.184	3.50423
467.389	2.98864
467.595	4.3538
467.8	3.70303
468.006	4.9629
468.211	4.84473
468.417	3.51638
468.622	4.2672
468.828	4.44139
469.033	4.33107
469.239	5.94095
469.444	3.76011
469.649	4.74692
469.855	4.13212
470.06	4.24523
470.266	3.56897
470.471	4.63357
470.676	4.46662
470.881	3.1895
471.087	5.13346
471.292	5.41178
471.497	3.36422
471.703	4.13369
471.908	3.82406
472.113	4.31577
472.318	4.78625
472.523	3.56927
472.729	4.4309
472.934	4.5924
473.139	4.07031
473.344	4.54945
473.549	5.02649
473.754	3.76271
473.959	5.66165
474.164	3.78635
474.369	4.06708
474.575	4.67647
474.78	4.18018
474.985	4.01529
475.19	3.11124
475.395	3.82855
475.6	4.06375
475.804	5.15759
476.009	4.37463
476.214	4.05491
476.419	3.8747
476.624	3.30367
476.829	3.73885
477.034	4.60799
477.239	3.96224
477.444	4.38576
477.648	4.57268
477.853	4.6198
478.058	4.02342
478.263	3.85913
478.468	3.76278
478.672	3.89504
478.877	5.15334
479.082	5.2978
479.287	4.57525
479.491	4.20227
479.696	3.8137
479.901	4.78394
480.105	4.73489
480.31	3.94863
480.515	4.3168
480.719	5.71296
480.924	4.13276
481.128	4.02292
481.333	4.91366
481.538	5.16006
481.742	5.1143
481.947	6.23345
482.151	6.63394
482.356	6.9746
482.56	8.44355
482.765	9.36431
482.969	11.44386
483.174	12.73131
483.378	15.07942
483.582	15.37956
483.787	16.71145
483.991	16.7459
484.196	16.90792
484.4	16.53533
484.604	16.9599
484.809	14.9544
485.013	14.39223
485.217	12.80742
485.422	11.22143
485.626	10.08255
485.83	9.76911
486.034	9.31333
486.239	9.6361
486.443	9.67597
486.647	9.84529
486.851	10.91847
487.055	12.04844
487.26	11.4327
487.464	12.27383
487.668	11.63722
487.872	11.84912
488.076	12.44441
488.28	11.47276
488.484	10.72432
488.688	10.427
488.892	10.05763
489.096	9.39383
489.3	8.57256
489.504	8.11925
489.708	7.8259
489.912	7.66112
490.116	7.46824
490.32	6.80629
490.524	7.79485
490.728	8.50253
490.932	8.69558
491.136	9.27114
491.34	10.32211
491.544	10.60379
491.748	10.25695
491.951	10.35021
492.155	9.96179
492.359	9.80113
492.563	8.34546
492.767	8.05759
492.97	7.19707
493.174	6.30195
493.378	5.93957
493.582	4.88462
493.785	4.92415
493.989	4.97362
494.193	4.63009
494.396	4.2063
494.6	4.56271
494.804	4.05235
495.007	3.94435
495.211	4.08385
495.414	4.20053
495.618	4.58992
495.822	5.19055
496.025	4.55573
496.229	5.33548
496.432	4.69982
496.636	5.0282
496.839	5.06787
497.043	6.02235
497.246	5.24836
497.45	4.83279
497.653	5.15198
497.856	5.01792
498.06	4.51489
498.263	4.63672
498.467	4.59071
498.67	5.12202
498.873	4.66661
499.077	4.35089
499.28	4.37297
499.483	4.62426
499.686	4.98198
499.89	4.47327
500.093	4.91985
500.296	3.99503
500.499	5.3469
500.703	4.38505
500.906	4.65685
501.109	5.45743
501.312	4.45681
501.515	4.33611
501.719	4.7548
501.922	5.12991
502.125	4.54431
502.328	4.43463
502.531	3.69746
502.734	4.46544
502.937	3.42585
503.14	4.55731
503.343	3.93479
503.546	4.2118
503.749	4.048
503.952	4.78655
504.155	3.96066
504.358	4.74921
504.561	4.6232
504.764	3.69552
504.967	4.48551
505.17	4.42055
505.373	5.36848
505.576	4.30548
505.778	4.84402
505.981	3.9704
506.184	5.12876
506.387	3.42794
506.59	5.52304
506.793	5.03998
506.995	4.7452
507.198	3.35301
507.401	4.71496
507.604	4.68782
507.806	3.82995
508.009	4.07319
508.212	4.83194
508.414	4.06655
508.617	4.04125
508.82	4.52679
509.022	5.3973
509.225	4.74068
509.427	3.65702
509.63	5.20001
509.833	4.46612
510.035	4.22242
510.238	3.65085
510.44	5.22217
510.643	3.40263
510.845	5.69285
511.048	4.70947
511.25	4.13938
511.453	4.32822
511.655	4.64073
511.858	4.30031
512.06	4.8472
512.262	4.57173
512.465	5.11962
512.667	4.33767
512.869	3.84572
513.072	4.66832
513.274	4.94357
513.476	4.88937
513.679	4.89998
513.881	3.85989
514.083	5.42573
514.286	3.93962
514.488	3.9591
514.69	3.86424
514.892	3.73054
515.094	4.81195
515.297	4.04288
515.499	4.34086
515.701	3.9019
515.903	5.45414
516.105	5.37337
516.307	4.87995
516.509	3.45554
516.711	3.97167
516.913	4.47534
517.116	4.3368
517.318	4.29098
517.52	5.15562
517.722	5.24588
517.924	4.39927
518.126	5.48456
518.328	4.91428
518.529	5.66701
518.731	6.49191
518.933	5.0091
519.135	5.23702
519.337	5.97187
519.539	5.34598
519.741	3.83877
519.943	4.39926
520.145	4.20469
520.346	4.9844
520.548	4.2777
520.75	4.64839
520.952	4.34638
521.153	4.70191
521.355	4.76092
521.557	3.92964
521.759	4.51201
521.96	4.35677
522.162	3.77391
522.364	4.93804
522.565	3.86583
522.767	4.93045
522.969	4.98771
523.17	4.67955
523.372	4.63806
523.573	4.32913
523.775	4.43904
523.977	3.76481
524.178	5.42184
524.38	4.13018
524.581	5.00583
524.783	4.62772
524.984	5.56246
525.186	5.26045
525.387	5.92935
525.589	5.72177
525.79	5.5358
525.991	5.35802
526.193	6.14571
526.394	5.29849
526.596	6.36496
526.797	6.57782
526.998	6.28051
527.2	6.24893
527.401	8.10438
527.602	8.60416
527.803	10.43661
528.005	10.94173
528.206	11.87212
528.407	12.42867
528.608	12.14185
528.81	12.62577
529.011	11.78066
529.212	12.8167
529.413	11.55921
529.614	10.69728
529.815	10.47496
530.017	9.3269
530.218	8.15082
530.419	7.2206
530.62	6.94141
530.821	6.60509
531.022	5.32433
531.223	6.4849
531.424	6.2113
531.625	6.51874
531.826	6.29299
532.027	6.60364
532.228	7.92042
532.429	7.46415
532.63	7.4831
532.831	8.27842
533.032	8.20621
533.233	8.89333
533.433	8.54851
533.634	8.81743
533.835	8.14703
534.036	7.62041
534.237	7.31342
534.438	6.70568
534.638	5.62166
534.839	5.5106
535.04	5.76195
535.241	5.07808
535.441	6.54416
535.642	5.77684
535.843	4.99899
536.043	5.34083
536.244	5.40193
536.445	5.71657
536.645	6.49746
536.846	6.21689
537.047	6.6329
537.247	5.12893
537.448	5.28504
537.648	5.28101
537.849	4.76544
538.049	4.67222
538.25	4.8703
538.451	4.84139
538.651	4.04304
538.851	4.83419
539.052	5.40242
539.252	5.11299
539.453	4.56532
539.653	4.96473
539.854	5.0024
540.054	5.70699
540.254	6.90519
540.455	7.76483
540.655	7.28847
540.855	8.40927
541.056	9.28333
541.256	8.74319
541.456	9.82731
541.657	8.92422
541.857	9.89848
542.057	8.34328
542.257	8.04406
542.458	8.56463
542.658	8.18619
542.858	6.65418
543.058	7.35136
543.258	6.63706
543.458	5.21833
543.659	4.90166
543.859	5.92493
544.059	5.74886
544.259	4.94186
544.459	5.36522
544.659	4.39121
544.859	4.90655
545.059	4.25961
545.259	4.94838
545.459	4.6555
545.659	5.20143
545.859	4.70482
546.059	4.87244
546.259	4.3736
546.459	4.10747
546.659	4.15733
546.859	5.10635
547.059	4.7902
547.258	4.90165
547.458	4.97381
547.658	3.96065
547.858	3.944
548.058	4.68391
548.258	4.43546
548.457	3.78745
548.657	5.90293
548.857	4.43833
549.057	5.05373
549.256	4.95842
549.456	4.2983
549.656	3.17765
549.855	5.76315
550.055	4.25876
550.255	5.89457
550.454	4.64371
550.654	5.06372
550.853	5.49741
551.053	5.1254
551.253	4.69862
551.452	4.76365
551.652	3.62538
551.851	3.59831
552.051	4.32729
552.25	4.2258
552.45	4.06924
552.649	4.34178
552.849	3.82433
553.048	4.36176
553.248	4.79957
553.447	3.78287
553.646	4.96556
553.846	5.81561
554.045	5.18703
554.244	3.64795
554.444	5.58679
554.643	4.11365
554.842	5.65597
555.042	6.12988
555.241	3.94689
555.44	3.78292
555.64	5.08826
555.839	5.86822
556.038	4.76949
556.237	3.9472
556.436	4.58845
556.636	5.05493
556.835	4.17934
557.034	5.79717
557.233	4.65429
557.432	3.51514
557.631	5.31158
557.83	4.4686
558.029	4.20215
558.228	3.9604
558.427	3.88246
558.626	4.78158
558.825	3.7478
559.024	4.75228
559.223	5.88704
559.422	4.31167
559.621	4.94566
559.82	2.5171
560.019	4.54509
560.218	4.43017
560.417	2.21741
560.616	3.99137
560.815	7.06469
561.014	3.35465
561.212	5.77483
561.411	4.51541
561.61	3.15093
561.809	4.17882
562.008	5.50628
562.206	4.15588
562.405	4.91786
562.604	4.14086
562.803	4.79228
563.001	4.18265
563.2	3.50523
563.399	4.8493
563.597	3.39002
563.796	4.58256
563.995	3.27912
564.193	4.85176
564.392	4.26258
564.59	6.10722
564.789	3.05832
564.988	4.00965
565.186	4.57154
565.385	4.19061
565.583	4.25443
565.782	4.42065
565.98	4.13554
566.179	4.32587
566.377	3.5976
566.575	3.84616
566.774	5.28012
566.972	4.85715
567.171	5.94996
567.369	5.34437
567.567	4.53185
567.766	4.64473
567.964	2.88491
568.162	4.75995
568.361	5.22193
568.559	4.25017
568.757	4.64439
568.956	4.49827
569.154	4.36051
569.352	4.90233
569.55	4.39884
569.748	4.29499
569.947	3.71182
570.145	3.55885
570.343	3.62866
570.541	5.02352
570.739	3.19483
570.937	4.19328
571.135	4.55956
571.333	5.70943
571.532	5.56163
571.73	4.64218
571.928	5.30327
572.126	4.68532
572.324	3.93315
572.522	5.4353
572.72	6.50734
572.918	4.48155
573.116	4.77655
573.313	4.3934
573.511	4.29303
573.709	3.9064
573.907	4.89103
574.105	4.19173
574.303	3.04766
574.501	3.07154
574.699	4.58225
574.896	4.6119
575.094	4.82279
575.292	3.07079
575.49	4.97847
575.688	4.13468
575.885	5.34153
576.083	5.90384
576.281	4.78899
576.478	3.6458
576.676	4.79351
576.874	3.0902
577.071	4.24861
577.269	6.26617
577.467	4.19884
577.664	4.4837
577.862	5.23503
578.059	3.80125
578.257	5.1182
578.455	4.07132
578.652	4.58011
578.85	2.58456
579.047	4.43532
579.245	4.08947
579.442	4.27465
579.64	4.44639
579.837	2.78913
580.034	6.58406
580.232	3.96866
580.429	3.36982
580.627	5.28898
580.824	5.58525
581.021	4.80816
581.219	4.20329
581.416	3.52336
581.613	5.53739
581.811	5.80864
582.008	3.45044
582.205	5.2107
582.402	4.75618
582.6	6.53565
582.797	4.52596
582.994	4.67463
583.191	5.2661
583.388	4.24519
583.586	5.22857
583.783	5.48664
583.98	3.9328
584.177	4.75446
584.374	1.71107
584.571	4.29983
584.768	4.3363
584.965	3.92057
585.162	4.96368
585.359	5.82485
585.556	4.67201
585.753	4.67606
585.95	3.39709
586.147	3.9521
586.344	5.02236
586.541	4.0794
586.738	3.42126
586.935	4.33284
587.132	3.71635
587.329	5.4973
587.526	4.52233
587.722	9.36424
587.919	2.97652
588.116	4.76537
588.313	5.82831
588.51	6.84735
588.706	4.0426
588.903	4.88642
589.1	5.45846
589.297	7.17628
589.493	4.40525
589.69	4.94939
589.887	3.8821
590.083	3.31484
590.28	3.71136
590.477	5.25992
590.673	5.40924
590.87	5.64621
591.067	4.37255
591.263	4.85524
591.46	4.99909
591.656	4.30405
591.853	5.66801
592.049	3.54355
592.246	3.8595
592.442	6.06309
592.639	5.71269
592.835	3.29616
593.032	4.95428
593.228	3.14673
593.425	2.90059
593.621	2.80927
593.817	5.04141
594.014	3.822
594.21	4.71965
594.406	5.6231
594.603	4.9718
594.799	3.82899
594.995	2.07953
595.192	5.32778
595.388	3.92084
595.584	4.24253
595.78	3.04982
595.977	6.45889
596.173	6.23921
596.369	4.25651
596.565	3.58106
596.761	3.07026
596.957	5.63095
597.154	3.57522
597.35	3.78685
597.546	3.75131
597.742	4.946
597.938	4.21733
598.134	3.63554
598.33	4.64364
598.526	5.73765
598.722	4.95964
598.918	6.39446
599.114	4.92093
599.31	3.64936
599.506	4.44134
599.702	3.98284
599.898	4.59398
600.094	5.29153
600.29	5.27193
600.485	5.34267
600.681	4.04805
600.877	6.59365
601.073	4.61255
601.269	6.93388
601.465	6.09721
601.66	3.5654
601.856	2.70378
602.052	6.40862
602.248	4.02031
602.443	2.60095
602.639	3.2234
602.835	3.85705
603.03	3.52251
603.226	5.31531
603.422	3.43232
603.617	3.92675
603.813	4.12832
604.009	3.73265
604.204	5.49029
604.4	2.95943
604.595	5.11455
604.791	3.33177
604.986	4.41282
605.182	3.57839
605.377	3.88665
605.573	3.6307
605.768	4.45431
605.964	4.83199
606.159	4.80626
606.355	5.60051
606.55	3.7758
606.746	5.58486
606.941	4.15076
607.136	6.63451
607.332	7.90192
607.527	3.13335
607.722	4.65903
607.918	4.29833
608.113	3.78648
608.308	5.53361
608.503	4.94483
608.699	4.7386
608.894	5.05114
609.089	3.69657
609.284	4.59521
609.479	4.05619
609.675	5.28991
609.87	3.93122
610.065	5.22014
610.26	5.36326
610.455	5.26977
610.65	4.05295
610.845	4.43339
611.04	5.37329
611.235	4.1236
611.43	3.85051
611.625	3.18712
611.82	5.92367
612.015	3.89874
612.21	6.15693
612.405	3.08731
612.6	7.05448
612.795	6.04567
612.99	5.47911
613.185	3.31937
613.38	3.96483
613.575	5.05192
613.77	8.12245
613.965	2.72998
614.159	3.90134
614.354	6.83866
614.549	6.36569
614.744	5.35688
614.938	3.52311
615.133	2.919
615.328	6.79403
615.523	6.44322
615.717	8.85883
615.912	4.13877
616.107	5.16443
616.301	4.33987
616.496	4.00472
616.691	6.72083
616.885	5.94292
617.08	8.42941
617.274	6.3322
617.469	7.75494
617.664	5.64443
617.858	4.47312
618.053	5.44141
618.247	4.6779
618.442	2.24753
618.636	6.9088
618.831	4.48386
619.025	3.92547
619.219	8.64467
619.414	1.18692
619.608	4.79109
619.803	4.0703
619.997	7.79356
620.191	6.36626
620.386	5.63882
620.58	5.12094
620.774	2.86287
620.969	2.98023
621.163	5.16856
621.357	3.43663
621.551	4.5723
621.746	5.47508
621.94	4.95225
622.134	9.89303
622.328	7.60057
622.522	2.97545
622.716	6.36141
622.911	6.4846
623.105	6.44337
623.299	5.60441
623.493	9.61745
623.687	3.82663
623.881	4.37798
624.075	5.68769
624.269	7.086
624.463	2.29949
624.657	2.62198
624.851	5.93756
625.045	6.06428
625.239	6.58811
625.433	4.1869
625.627	6.95184
625.821	4.22849
626.015	4.02085
626.209	5.00737
626.403	2.82003
626.596	5.4022
626.79	5.87391
626.984	3.09616
627.178	5.45882
627.372	5.58023
627.565	6.09888
627.759	3.10927
627.953	3.52615
628.147	5.50871
628.34	5.76038
628.534	7.5231
628.728	4.58022
628.921	6.22306
629.115	5.62811
629.309	6.01623
629.502	6.53613
629.696	5.1494
629.89	4.84148
630.083	5.29895
630.277	5.98456
630.47	8.03023
630.664	4.88889
630.857	3.06668
631.051	6.28779
631.244	7.29046
631.438	6.8229
631.631	4.36875
631.825	7.35446
632.018	6.5275
632.212	8.01255
632.405	7.01999
632.598	4.27892
632.792	5.63441
632.985	2.36182
633.178	4.76575
633.372	5.06966
633.565	4.99833
633.758	7.40411
633.952	4.07129
634.145	3.80452
634.338	5.58497
634.531	4.16955
634.724	4.13094
634.918	5.34204
635.111	4.7253
635.304	5.02286
635.497	8.85606
635.69	5.96739
635.883	6.81439
636.077	3.92799
636.27	6.48309
636.463	5.80734
636.656	6.5782
636.849	4.69312
637.042	6.0336
637.235	8.3064
637.428	6.89081
637.621	7.04825
637.814	8.05893
638.007	8.74356
638.2	7.84626
638.393	9.06451
638.586	4.06048
638.778	5.04971
638.971	5.76438
639.164	8.48515
639.357	6.36901
639.55	7.78763
639.743	7.12677
639.935	7.10611
640.128	9.31898
640.321	7.58966
640.514	6.35251
640.707	10.65746
640.899	7.36783
641.092	3.35703
641.285	19.61693
641.477	2.00092
641.67	10.10938
641.863	8.57639
642.055	6.33317
642.248	6.50298
642.441	5.20829
642.633	7.3682
642.826	8.38375
643.018	9.18383
643.211	9.44114
643.403	9.48748
643.596	10.41137
643.788	9.82809
643.981	5.60524
644.173	7.92613
644.366	6.08495
644.558	3.39949
644.751	8.18396
644.943	3.99252
645.135	9.23765
645.328	10.24656
645.52	7.48982
645.712	8.35929
645.905	12.79601
646.097	4.5698
646.289	7.33837
646.482	10.69716
646.674	5.80346
646.866	9.01753
647.058	7.55093
647.251	4.8386
647.443	5.80637
647.635	6.03082
647.827	4.71551
648.019	5.09016
648.211	6.55868
648.404	7.06381
648.596	10.1904
648.788	7.38308
648.98	7.20203
649.172	7.67496
649.364	7.58259
649.556	3.48283
649.748	11.70346
649.94	4.55808
650.132	7.68165
650.324	4.93664
650.516	5.68669
650.708	8.83283
650.9	4.18728
651.092	3.98087
651.284	4.21746
651.476	4.5243
651.667	7.87003
651.859	9.65082
652.051	6.53895
652.243	6.48915
652.435	5.73121
652.627	8.19356
652.818	7.29512
653.01	3.4471
653.202	5.40181
653.394	6.04314
653.585	7.9719
653.777	16.5016
653.969	9.472
654.16	9.30886
654.352	5.27104
654.544	6.47035
654.735	9.48966
654.927	7.41614
655.118	10.16902
655.31	8.84318
655.502	9.1425
655.693	6.42138
655.885	8.14382
656.076	10.3366
656.268	7.51696
656.459	10.57812
656.651	9.91823
656.842	6.0167
657.034	5.66415
657.225	8.75628
657.416	9.91442
657.608	9.86886
657.799	7.30943
657.99	8.98133
658.182	5.71385
658.373	5.59095
658.564	8.61212
658.756	6.79934
658.947	6.23703
659.138	4.49354
659.33	5.81548
659.521	5.20338
659.712	6.27566
659.903	6.1433
660.094	5.57254
660.286	3.82122
660.477	10.29876
660.668	7.89144
660.859	6.90274
661.05	3.89169
661.241	8.41048
661.432	7.94251
661.623	6.57922
661.814	5.92773
662.006	3.88717
662.197	7.88942
662.388	9.88028
662.579	7.25655
662.77	10.29681
662.96	14.23694
663.151	9.78082
663.342	3.433
663.533	8.72332
663.724	7.43347
663.915	11.37263
664.106	7.02747
664.297	12.19303
664.488	9.41649
664.678	6.42303
664.869	9.56379
665.06	10.71647
665.251	8.41769
665.442	8.53342
665.632	5.19332
665.823	13.43112
666.014	1.25121
666.204	9.65139
666.395	10.71857
666.586	14.59146
666.776	10.21375
666.967	12.41643
667.158	7.75032
667.348	11.94561
667.539	5.18367
667.729	10.21733
667.92	6.18555
668.111	10.0443
668.301	9.63024
668.492	7.26996
668.682	7.49343
668.873	7.21188
669.063	5.27233
669.253	8.00829
669.444	10.73341
669.634	7.2168
669.825	12.82494
670.015	9.93036
670.206	6.18542
670.396	13.19356
670.586	7.76767
670.777	9.49176
670.967	2.93403
671.157	7.46465
671.347	6.4216
671.538	12.56839
671.728	10.07738
671.918	13.52577
672.108	10.67802
672.299	8.24988
672.489	9.03433
672.679	7.31196
672.869	9.23224
673.059	12.95814
673.249	10.41635
673.44	5.58726
673.63	7.63506
673.82	11.87572
674.01	6.40553
674.2	10.4094
674.39	15.87827
674.58	10.74795
674.77	9.03043
674.96	8.75429
675.15	19.98969
675.34	11.9385
675.53	8.7382
675.72	8.07485
675.91	4.76981
676.099	13.8415
676.289	15.72391
676.479	11.45935
676.669	7.53645
676.859	9.75096
677.049	6.02205
677.238	8.75597
677.428	13.20567
677.618	10.01469
677.808	12.51254
677.997	10.36346
678.187	5.8765
678.377	8.57528
678.567	6.95651
678.756	7.70217
678.946	7.53442
679.136	4.91583
679.325	6.37177
679.515	6.18911
679.704	5.42138
679.894	9.8347
680.084	9.08613
680.273	11.27483
680.463	6.09558
680.652	6.12421
680.842	8.02696
681.031	10.44128
681.221	5.87128
681.41	9.4826
681.6	7.50731
681.789	10.33313
681.978	11.78186
682.168	9.83588
682.357	9.30664
682.547	10.81654
682.736	9.69636
682.925	12.03675
683.115	11.62948
683.304	10.91132
683.493	10.19988
683.682	10.37667
683.872	10.58465
684.061	12.64749
684.25	10.68592
684.439	15.01535
684.629	10.90782
684.818	19.80388
685.007	9.4741
685.196	8.14521
685.385	14.3155
685.574	10.52089
685.763	10.51157
685.952	10.16574
686.142	6.94975
686.331	14.09794
686.52	4.0392
686.709	14.88056
686.898	14.41106
687.087	11.89593
687.276	15.13997
687.465	12.90552
687.654	8.45862
687.842	14.97439
688.031	5.47763
688.22	14.10832
688.409	10.44835
688.598	9.91555
688.787	18.54051
688.976	10.17142
689.165	16.39844
689.353	9.0359
689.542	10.8682
689.731	12.76993
689.92	17.05629
690.108	13.48508
690.297	9.34852
690.486	11.03159
690.675	13.28893
690.863	17.18027
691.052	16.39087
691.241	12.07683
691.429	11.52086
691.618	15.88361
691.806	7.02738
691.995	9.58398
692.184	10.23779
692.372	9.66488
692.561	10.78191
692.749	11.69622
692.938	20.29334
693.126	13.12096
693.315	11.54957
693.503	13.02612
693.692	13.8757
693.88	14.74765
694.068	18.77372
694.257	10.85125
694.445	13.24903
694.634	4.21302
694.822	15.36823
695.01	16.30282
695.199	17.33354
695.387	17.32927
695.575	15.26768
695.763	11.26258
695.952	10.06501
696.14	6.04423
696.328	9.23609
696.516	11.70223
696.705	12.60945
696.893	12.48732
697.081	5.24996
697.269	13.67585
697.457	7.96406
697.645	7.3311
697.833	13.32487
698.021	8.56519
698.21	8.64299
698.398	9.70457
698.586	7.25858
698.774	5.98677
698.962	9.39803
699.15	7.42097
699.338	5.58667
699.526	11.18645
699.714	8.15683
699.901	8.21723
700.089	13.17981
700.277	8.23591
700.465	9.74246
700.653	13.22846
700.841	11.78186
701.029	8.32421
701.217	14.50716
701.404	11.96133
701.592	15.93723
701.78	19.6937
701.968	10.6284
702.155	10.53502
702.343	6.38261
702.531	16.96434
702.718	13.9402
702.906	11.72216
703.094	9.74157
703.281	17.35746
703.469	11.61593
703.657	16.06805
703.844	23.86624
704.032	19.54324
704.219	10.11638
704.407	13.811
704.595	18.48499
704.782	13.18172
704.97	10.70084
705.157	11.24827
705.345	18.12183
705.532	23.60136
705.719	14.55913
705.907	18.73769
706.094	14.19063
706.282	20.05227
706.469	10.9513
706.656	14.15615
706.844	11.52156
707.031	17.0182
707.218	14.23718
707.406	19.38917
707.593	17.18046
707.78	16.05337
707.968	12.08869
708.155	9.46828
708.342	16.51237
708.529	16.20568
708.716	13.54956
708.904	20.78472
709.091	16.25837
709.278	8.10758
709.465	20.77575
709.652	21.17468
709.839	19.64154
710.026	15.75535
710.213	7.83958
710.4	15.04723
710.587	17.70636
710.774	17.9588
710.961	18.6618
711.148	13.7752
711.335	19.45923
711.522	12.96315
711.709	15.73446
711.896	22.84762
712.083	18.01231
712.27	10.34442
712.457	14.79702
712.644	8.35347
712.831	22.76739
713.017	15.49
713.204	17.74163
713.391	11.73644
713.578	19.94166
713.765	21.62521
713.951	17.52919
714.138	29.72129
714.325	18.20172
714.512	14.91809
714.698	11.08163
714.885	22.21437
715.072	17.04071
715.258	16.655
715.445	12.4963
715.631	21.34412
715.818	5.02052
716.005	12.42942
716.191	18.5165
716.378	13.45577
716.564	19.77183
716.751	11.71222
716.937	13.73319
717.124	21.66988
717.31	12.20285
717.497	24.2916
717.683	13.90124
717.869	25.79538
718.056	13.46162
718.242	19.36935
718.429	16.7864
718.615	10.62448
718.801	16.38435
718.988	21.0087
719.174	18.59519
719.36	16.09604
719.547	21.43308
719.733	19.12805
719.919	18.73811
720.105	20.79979
720.291	16.08193
720.478	19.34064
720.664	16.80122
720.85	14.91138
721.036	31.29048
721.222	24.60325
721.408	16.50716
721.595	27.57979
721.781	26.01602
721.967	25.01855
722.153	26.19969
722.339	21.1235
722.525	20.41615
722.711	12.65592
722.897	11.2714
723.083	15.89462
723.269	23.58103
723.455	31.55347
723.641	35.37405
723.827	20.14753
724.012	21.42015
724.198	16.72231
724.384	26.13321
724.57	19.95359
724.756	10.32905
724.942	7.23388
725.127	24.13549
725.313	26.01927
725.499	25.04308
725.685	29.4046
725.87	19.24864
726.056	14.24206
726.242	26.44374
726.428	10.62194
726.613	23.96641
726.799	16.3073
726.985	12.60611
727.17	10.27403
727.356	28.85295
727.541	13.33239
727.727	18.04649
727.913	23.1544
728.098	16.12472
728.284	22.48453
728.469	11.66123
728.655	13.64536
728.84	23.38526
729.026	23.52067
729.211	23.93347
729.397	21.97193
729.582	21.65104
729.767	18.401
729.953	21.13531
730.138	24.90007
730.323	6.86401
730.509	12.12666
730.694	26.70366
730.879	21.43421
731.065	19.73835
731.25	32.01154
731.435	21.92179
731.621	11.03733
731.806	16.05457
731.991	20.54061
732.176	10.73567
732.361	26.49347
732.547	22.28265
732.732	9.91347
732.917	32.84962
733.102	12.33381
733.287	14.84419
733.472	18.80629
733.657	19.46074
733.842	11.07435
734.027	16.75884
734.212	16.4879
734.397	14.54007
734.582	20.26819
734.767	22.83664
734.952	26.4729
735.137	5.61847
735.322	28.30833
735.507	19.63671
735.692	21.2596
735.877	33.19726
736.062	31.31238
736.247	21.0465
736.431	17.96049
736.616	27.04741
736.801	21.53577
736.986	19.28713
737.171	16.68267
737.355	11.71218
737.54	28.49868
737.725	20.97833
737.909	39.54644
738.094	16.97271
738.279	24.84243
738.463	18.94418
738.648	24.30071
738.833	21.50687
739.017	33.77364
739.202	19.58728
739.386	19.91304
739.571	14.97403
739.756	25.2986
739.94	21.43438
740.125	25.18745
740.309	17.70845
740.494	24.58506
740.678	21.40934
740.863	25.13817
741.047	23.29079
741.231	30.66727
741.416	15.73921
741.6	30.6533
741.785	15.88981
741.969	27.67259
742.153	27.78588
742.338	7.14325
742.522	21.42526
742.706	26.36724
742.89	12.67496
743.075	20.8837
743.259	30.76714
743.443	28.54466
743.627	27.29275
743.812	37.22847
743.996	5.4993
744.18	22.0872
744.364	16.96031
744.548	40.72142
744.732	21.34481
744.916	26.08419
745.1	27.13409
745.285	20.77091
745.469	26.01734
745.653	35.21657
745.837	12.4626
746.021	38.36717
746.205	31.92798
746.389	22.92982
746.573	19.71783
746.757	35.93074
746.94	19.1498
747.124	31.09794
747.308	12.93114
747.492	30.92656
747.676	19.47224
747.86	40.23083
748.044	20.84678
748.227	11.65318
748.411	51.70528
748.595	25.24196
748.779	17.51257
748.963	25.98439
749.146	25.34078
749.33	17.34869
749.514	14.22009
749.697	31.01057
749.881	16.99149
750.065	15.86532
750.248	23.77375
750.432	41.64332
750.616	24.29083
750.799	12.41742
750.983	39.78415
751.166	46.88654
751.35	10.42172
751.533	29.14598
751.717	31.8092
751.9	35.91275
752.084	19.95461
752.267	12.66424
752.451	17.22507
752.634	24.26945
752.818	26.16796
753.001	30.96743
753.184	29.80451
753.368	25.69227
753.551	-0.11243
753.734	16.95458
753.918	41.19284
754.101	16.63977
754.284	28.10339
754.467	20.78085
754.651	18.53476
754.834	17.71283
755.017	33.26947
755.2	32.08367
755.384	13.70662
755.567	28.59174
755.75	32.78144
755.933	21.30927
756.116	26.72131
756.299	18.32234
756.482	17.32566
756.665	28.8034
756.848	28.10105
757.032	26.08121
757.215	12.52322
757.398	15.2869
757.581	16.77504
757.764	43.82836
757.947	23.01578
758.129	31.83617
758.312	2.08314
758.495	22.37455
758.678	21.68906
758.861	23.47575
759.044	42.08936
759.227	17.77789
759.41	17.97288
759.592	28.82629
759.775	23.41911
759.958	31.17156
760.141	11.94345
760.324	39.86053
760.506	36.56086
760.689	28.48164
760.872	43.3473
761.054	28.40937
761.237	22.38498
761.42	28.64215
761.602	29.72607
761.785	27.62063
761.968	32.42381
762.15	39.33851
762.333	22.6291
762.515	26.93697
762.698	18.92945
762.88	29.94073
763.063	24.48183
763.245	29.0437
763.428	15.77363
763.61	16.91504
763.793	13.68769
763.975	23.8539
764.158	19.03655
764.34	17.02107
764.522	15.82581
764.705	19.3135
764.887	33.60427
765.069	11.51945
765.252	28.82156
765.434	28.95936
765.616	22.85983
765.799	17.94732
765.981	27.44358
766.163	14.65865
766.345	31.26012
766.528	18.65425
766.71	4.88868
766.892	25.75894
767.074	34.23964
767.256	20.41537
767.438	40.25425
767.62	29.10412
767.802	45.58368
767.985	32.19886
768.167	42.7972
768.349	19.80986
768.531	32.03873
768.713	28.81521
768.895	33.53574
769.077	28.07573
769.259	50.6265
769.441	73.91431
769.623	38.2833
769.804	44.03599
769.986	42.33793
770.168	52.01161
770.35	61.91546
770.532	46.46933
770.714	48.93044
770.896	55.71529
771.077	19.55977
771.259	54.24845
771.441	45.97854
771.623	53.9772
771.804	73.79076
771.986	16.88887
772.168	33.42611
772.35	56.86217
772.531	76.16523
772.713	47.93562
772.894	57.03435
773.076	41.22624
773.258	32.47459
773.439	61.70609
773.621	61.81669
773.802	24.50352
773.984	36.59669
774.166	46.83456
774.347	69.75034
774.529	52.98863
774.71	14.7543
774.891	39.98434
775.073	42.02135
775.254	66.60014
775.436	37.11237
775.617	70.99501
775.799	33.5225
775.98	69.17741
776.161	67.9192
776.343	66.37405
776.524	43.64237
776.705	38.57823
776.886	20.29583
777.068	42.88215
777.249	84.12334
777.43	74.85417
777.611	25.77035
777.793	41.05813
777.974	68.28879
778.155	38.81494
778.336	31.83833
778.517	72.99962
778.698	30.83095
778.879	13.47345
779.061	6.87923
779.242	52.08759
779.423	51.0205
779.604	32.11353
779.785	38.30671
779.966	48.3459
780.147	56.1389
780.328	59.69979
780.509	82.95669
780.69	52.96783
780.871	35.50298
781.051	16.91526
781.232	46.27866
781.413	47.04002
781.594	34.78743
781.775	36.50664
781.956	31.962
782.137	17.65921
782.317	31.73067
782.498	46.66515
782.679	46.32417
782.86	47.21177
783.04	28.82855
783.221	46.8176
783.402	80.2151
783.583	42.91254
783.763	54.33739
783.944	30.5195
784.124	21.77161
784.305	72.73978
784.486	55.26831
784.666	38.53933
784.847	15.80911
785.027	89.17986
785.208	31.21394
785.388	31.90655
785.569	31.92076
785.749	35.56165
785.93	29.34772
786.11	19.60094
786.291	47.00148
786.471	45.64331
786.652	53.22932
786.832	44.06263
787.012	51.68414
787.193	22.12567
787.373	39.13087
787.553	34.17069
787.734	46.47442
787.914	35.03745
788.094	51.06157
788.275	46.41862
788.455	37.24103
788.635	22.71707
788.815	46.93019
788.995	24.36626
789.176	21.24331
789.356	30.72542
789.536	37.57066
789.716	50.58669
789.896	30.17863
790.076	35.86754
790.256	43.48366
790.436	10.32562
790.616	25.24836
790.796	48.74818
790.976	35.66768
791.156	32.8504
791.336	53.25507
791.516	43.26001
791.696	38.43801
791.876	20.14814
792.056	42.68766
792.236	58.56408
792.416	56.31938
792.596	50.25651
792.776	49.49089
792.956	52.65543
793.135	67.87174
793.315	24.2893
793.495	64.47301
793.675	47.89294
793.854	53.51406
794.034	56.31058
794.214	23.52708
794.394	57.20552
794.573	56.81987
794.753	42.03843
794.933	28.63763
795.112	44.46075
795.292	54.69116
795.472	73.23048
795.651	25.41841
795.831	43.88112
796.01	35.85221
796.19	36.2566
796.369	35.10075
796.549	48.35661
796.728	35.90232
796.908	27.43573
797.087	23.34983
797.267	42.91998
797.446	24.15622
797.626	46.24422
797.805	47.38792
797.984	28.90171
798.164	50.17919
798.343	29.68637
798.522	47.20265
798.702	44.5859
798.881	24.67323
799.06	37.59409
799.239	13.69755
799.419	25.07233
799.598	64.76686
799.777	51.7502
799.956	56.72083
800.136	35.10959
800.315	30.02783
800.494	42.90402
800.673	55.28716
800.852	51.43932
801.031	64.33311
801.21	51.97692
801.389	28.11059
801.568	46.65888
801.747	72.44735
801.926	35.65661
802.105	66.89304
802.284	35.77592
802.463	66.1708
802.642	43.63056
802.821	51.91439
803	64.31644
803.179	54.90634
803.358	63.02439
803.537	30.57266
803.716	53.88603
803.895	31.37136
804.073	42.24439
804.252	35.68159
804.431	53.79418
804.61	42.97601
804.789	66.28721
804.967	37.06012
805.146	32.2156
805.325	80.4023
805.503	48.15061
805.682	22.69109
805.861	89.04806
806.039	65.50615
806.218	28.50088
806.397	47.02222
806.575	45.51626
806.754	49.8443
806.932	31.24191
807.111	63.62793
807.289	55.00169
807.468	48.54189
807.646	60.22191
807.825	45.2115
808.003	48.19185
808.182	58.92103
808.36	43.43275
808.539	30.42501
808.717	72.99169
808.895	29.85265
809.074	51.19309
809.252	39.86131
809.43	60.16816
809.609	70.49662
809.787	81.86538
809.965	40.54896
810.144	44.93556
810.322	39.0206
810.5	58.08077
810.678	42.60685
810.856	85.51793
811.035	65.03903
811.213	66.00186
811.391	66.88303
811.569	45.46829
811.747	106.20057
811.925	64.73536
812.103	35.80768
812.281	36.26265
812.459	89.87994
812.637	82.2543
812.816	71.56097
812.994	90.23904
813.171	66.94371
813.349	60.32548
813.527	73.57591
813.705	71.45899
813.883	91.20725
814.061	66.5511
814.239	87.17068
814.417	92.33157
814.595	55.33341
814.773	55.8845
814.95	50.08296
815.128	60.69417
815.306	46.74079
815.484	48.07584
815.662	35.28701
815.839	29.51511
816.017	40.9293
816.195	64.97186
816.372	48.94778
816.55	71.64548
816.728	82.2117
816.905	46.70234
817.083	76.70902
817.261	55.3558
817.438	100.20665
817.616	89.9123
817.793	42.79572
817.971	65.67252
818.148	58.92837
818.326	75.89797
818.503	59.61319
818.681	70.9927
818.858	40.63334
819.036	54.09905
819.213	52.29564
819.391	35.90476
819.568	33.33327
819.745	29.74083
819.923	56.31671
820.1	37.60516
820.277	31.8554
820.455	37.46695
820.632	42.36123
820.809	43.53662
820.986	25.76482
821.164	18.6657
821.341	15.52261
821.518	24.58229
821.695	17.80208
821.872	15.50923
822.05	12.89309
822.227	9.27165
822.404	9.78129
822.581	11.73463
822.758	9.5186
822.935	9.07777
823.112	12.00004
823.289	8.35335
823.466	11.89561
823.643	10.21425
823.82	13.92863
823.997	11.14967
824.174	15.14819
824.351	21.03492
824.528	20.50038
824.705	17.59436
824.882	19.78663
825.059	28.11075
825.236	17.78468
825.412	18.4331
825.589	23.88136
825.766	38.15389
825.943	21.21087
826.12	26.50029
826.296	14.36073
826.473	23.5089
826.65	23.3584
826.827	30.58948
827.003	17.33301
827.18	20.78413
827.357	23.91749
827.533	20.63498
827.71	7.99565
827.887	16.71392
828.063	20.97891
828.24	16.9705
828.416	25.60608
828.593	19.26367
828.769	31.09548
828.946	34.81388
829.122	36.4733
829.299	36.32163
829.475	13.77225
829.652	32.18342
829.828	56.18856
830.005	40.35538
830.181	47.57889
830.357	30.28394
830.534	59.21842
830.71	42.23542
830.886	58.99432
831.063	48.31754
831.239	64.83487
831.415	27.0612
831.592	76.27679
831.768	40.8214
831.944	36.78561
832.12	74.79176
832.296	66.71964
832.473	52.6628
832.649	37.8347
832.825	53.9202
833.001	28.4678
833.177	43.24826
833.353	40.74005
833.529	21.36878
833.705	32.10795
833.881	21.88047
834.058	21.37736
834.234	21.54442
834.41	23.39378
834.586	17.05429
834.761	20.51033
834.937	24.85724
835.113	26.01857
835.289	22.82792
835.465	27.95812
835.641	23.76018
835.817	27.70291
835.993	55.09501
836.169	23.728
836.344	36.68321
836.52	48.23619
836.696	49.25267
836.872	29.04902
837.048	112.75026
837.223	35.43662
837.399	90.28311
837.575	70.48153
837.75	60.61628
837.926	97.04537
838.102	147.03353
838.277	104.47533
838.453	156.54144
838.628	151.61842
838.804	31.93507
838.98	147.90954
839.155	67.0079
839.331	97.61005
839.506	65.43931
839.682	64.92635
839.857	81.26077
840.033	94.99549
840.208	40.90303
840.384	22.9507
840.559	40.59816
840.734	68.55857
840.91	97.61204
841.085	58.4051
841.26	58.9412
841.436	55.45527
841.611	47.24307
841.786	86.11717
841.962	118.22603
842.137	78.35065
842.312	33.49888
842.487	57.9029
842.663	56.36912
842.838	70.58416
843.013	238.40797
843.188	122.13651
843.363	99.21481
843.538	223.13407
843.714	228.43526
843.889	225.07396
844.064	189.55414
844.239	152.88832
844.414	241.44341
844.589	158.47595
844.764	268.90062
844.939	276.9967
845.114	248.79828
845.289	304.58529
845.464	347.04128
845.639	265.44848
845.814	152.73844
845.989	178.87112
846.163	189.74006
846.338	248.32629
846.513	309.08613
846.688	212.5419
846.863	233.20566
847.038	140.03179
847.212	187.9595
847.387	222.27337
847.562	215.16206
847.737	301.71458
847.911	108.10137
848.086	142.47967
848.261	327.2641
848.435	179.56081
848.61	273.57331
848.785	160.65507
848.959	311.34912
849.134	298.97053
849.308	602.81037
849.483	229.49575
849.658	347.51843
849.832	197.28696
850.007	106.98193
850.181	483.3279
850.356	236.10936
850.53	404.72042
850.705	130.49151
850.879	97.23544
851.053	175.15666
851.228	235.01166
851.402	309.56035
851.577	294.35099
851.751	407.18141
851.925	198.95272
852.099	68.24879
852.274	164.18631
852.448	210.99958
852.622	288.35855
852.797	203.98767
852.971	242.54693
853.145	261.10695
853.319	465.03851
853.493	437.24676
853.668	234.17913
853.842	497.18915
854.016	373.70399
854.19	445.74882
854.364	231.68592
854.538	303.20401
854.712	317.90425
854.886	202.24605
855.06	221.49186
855.234	85.30983
855.408	371.46653
855.582	343.26851
855.756	488.99995
855.93	345.34609
856.104	324.51042
856.278	309.63749
856.452	220.14714
856.626	245.00588
856.8	455.26642
856.973	342.23174
857.147	331.13034
857.321	309.03499
857.495	344.23702
857.669	276.60146
857.842	260.17169
858.016	397.43316
858.19	149.41584
858.364	500.20627
858.537	212.07747
858.711	350.38688
858.885	222.16378
859.058	156.30062
859.232	123.15118
859.405	101.93724
859.579	323.42687
859.753	395.52332
859.926	192.97724
860.1	135.54844
860.273	287.95975
860.447	376.30387
860.62	212.70396
860.794	509.23523
860.967	225.43852
861.141	288.43402
861.314	473.89079
861.487	296.47555
861.661	352.01481
861.834	546.91209
862.008	325.97355
862.181	325.19976
862.354	254.03505
862.528	380.41234
862.701	226.8573
862.874	131.25954
863.047	212.88193
863.221	178.25698
863.394	97.08518
863.567	305.35238
863.74	93.43047
863.913	316.67749
864.087	316.66352
864.26	332.06039
864.433	246.79731
864.606	504.60222
864.779	276.1063
864.952	98.40451
865.125	264.21209
865.298	260.25147
865.471	290.28744
865.644	449.94389
865.817	332.84139
865.99	371.42471
866.163	408.48626
866.336	174.41489
866.509	277.0847
866.682	240.25782
866.855	425.05784
867.028	128.92039
867.2	265.14368
867.373	72.19143
867.546	241.3542
867.719	487.25974
867.892	326.0342
868.064	170.86494
868.237	247.8391
868.41	263.55136
868.583	123.12477
868.755	169.35567
868.928	217.95437
869.101	515.93596
869.273	395.04101
869.446	280.66047
869.619	406.29407
869.791	321.02914
869.964	386.52383
870.136	425.51522
870.309	198.56223
870.481	264.69685
870.654	121.57982
870.826	233.07513
870.999	197.1589
871.171	388.83356
871.344	156.84575
871.516	199.15028
871.689	173.62099
871.861	231.52099
872.033	166.71766
872.206	222.6041
872.378	249.03907
872.55	233.86956
872.723	150.91939
872.895	198.52438
873.067	335.40173
873.24	266.20386
873.412	182.34024
873.584	226.06415
873.756	215.38068
873.928	254.1226
874.101	220.22621
874.273	271.05419
874.445	97.13246
874.617	137.94947
874.789	192.01639
874.961	183.30076
875.133	264.64988
875.305	236.32984
875.477	148.01922
875.649	116.98569
875.821	150.06687
875.993	345.74645
876.165	187.78923
876.337	255.69878
876.509	237.35951
876.681	239.21763
876.853	208.30112
877.025	256.84247
877.197	149.98681
877.369	145.81435
877.541	246.46963
877.712	57.0783
877.884	132.64512
878.056	224.63622
878.228	121.78311
878.4	270.63138
878.571	115.97973
878.743	79.37615
878.915	193.52914
879.086	96.48104
879.258	125.98498
879.43	110.64583
879.601	101.06767
879.773	94.8954
879.945	16.83612
880.116	38.01996
880.288	20.70437
880.459	24.02447
880.631	15.04038
880.802	20.04132
880.974	18.55959
881.145	9.50138
881.317	17.23718
881.488	10.9917
881.66	13.04972
881.831	11.26928
882.002	17.41899
882.174	11.46119
882.345	16.08926
882.517	6.15765
882.688	21.176
882.859	13.97602
883.03	28.97597
883.202	26.50604
883.373	20.9631
883.544	20.98531
883.715	41.97895
883.887	32.95648
884.058	26.19704
884.229	41.01031
884.4	43.5158
884.571	52.95118
884.742	40.7018
884.914	46.11628
885.085	79.71043
885.256	108.01106
885.427	83.35777
885.598	106.5858
885.769	107.49138
885.94	96.21301
886.111	57.78333
886.282	116.15492
886.453	101.00313
886.624	80.14701
886.795	148.16488
886.966	120.30982
887.136	141.80114
887.307	105.24097
887.478	198.41183
887.649	182.736
887.82	192.50584
887.991	128.18399
888.161	229.76666
888.332	196.67222
888.503	112.5653
888.674	287.02806
888.844	345.29296
889.015	313.35843
889.186	149.10742
889.356	312.77451
889.527	146.81821
889.698	520.05699
889.868	180.27829
890.039	319.45997
890.209	196.65407
890.38	274.0857
890.551	266.85687
890.721	352.48142
890.892	328.42467
891.062	316.89506
891.233	347.21337
891.403	271.16608
891.574	179.73718
891.744	172.07984
891.914	230.18434
892.085	336.09018
892.255	69.13976
892.425	310.61583
892.596	182.31072
892.766	274.48518
892.936	385.18493
893.107	241.69269
893.277	118.16605
893.447	99.53707
893.618	67.7069
893.788	153.70164
893.958	86.88198
894.128	63.58378
894.298	80.90611
894.468	106.93173
894.639	42.82305
894.809	21.67054
894.979	52.55895
895.149	55.09668
895.319	44.25787
895.489	71.4748
895.659	91.37139
895.829	58.87115
895.999	58.17305
896.169	47.15901
896.339	61.22912
896.509	126.17309
896.679	144.80725
896.849	159.23826
897.019	233.43527
897.189	238.04889
897.358	150.57024
897.528	262.73216
897.698	135.65299
897.868	246.30312
898.038	531.01872
898.208	443.42953
898.377	131.75521
898.547	736.92481
898.717	826.95513
898.886	335.99207
899.056	530.86151
899.226	879.48469
899.395	673.67906
899.565	691.91775
899.735	409.3164
899.904	591.47852
900.074	834.76169
900.244	270.40103
900.413	1633.87287
900.583	241.01049
900.752	3072.30273
900.922	625.79503
901.091	40.36522
901.261	679.01616
901.43	544.94936
901.599	650.50124
901.769	1389.2553
901.938	708.10778
902.108	614.68708
902.277	700.02433
902.446	242.239
902.616	308.66013
902.785	384.64708
902.954	517.32974
903.124	291.0766
903.293	203.07918
903.462	90.99996
903.631	140.58109
903.801	97.09023
903.97	44.88597
904.139	76.98282
904.308	60.20436
904.477	55.86336
904.646	26.78904
904.816	43.12745
904.985	68.97432
905.154	99.70119
