Data from WindowProjectSample_Transmission__5__00005.txt Node

Date: Sat May 03 14:56:16 EDT 2025
User: jessi
Spectrometer: SR400872
Trigger mode: 0
Integration Time (sec): 5.000010E-1
Scans to average: 6
Electric dark correction enabled: true
Nonlinearity correction enabled: true
Boxcar width: 0
XAxis mode: Wavelengths
Number of Pixels in Spectrum: 3648
>>>>>Begin Spectral Data<<<<<
184.909	17760.17463
185.132	2581.65148
185.355	23339.87958
185.578	-7786.18854
185.801	265.74173
186.024	-1504.21358
186.247	878.24703
186.47	1834.09779
186.693	-390.86396
186.916	-2042.57122
187.139	-2647.30769
187.362	1634.83664
187.585	2730.07874
187.808	-3228.66697
188.031	-834.07566
188.254	-1140.28143
188.476	-582.27626
188.699	2465.68669
188.922	-806.59499
189.145	-9699.40601
189.368	-365.31732
189.591	-1138.98843
189.813	-1724.97193
190.036	1280.37445
190.259	1604.1439
190.482	528.23153
190.705	10347.91052
190.927	-945.43941
191.15	3420.73641
191.373	2367.5428
191.595	-2387.86561
191.818	2315.50435
192.041	-225.94794
192.263	2576.94288
192.486	1906.61617
192.709	-5304.7656
192.931	2657.78436
193.154	-6091.26745
193.377	195295.80207
193.599	1393.26874
193.822	1887.75198
194.044	-2109.79721
194.267	476.39929
194.489	-503.21302
194.712	1347.72498
194.934	3291.7631
195.157	-14952.65296
195.379	766.02852
195.602	2236.75926
195.824	2004.54738
196.047	2592.24485
196.269	3208.03095
196.492	3520.42192
196.714	2653.12458
196.936	1162.92808
197.159	1397.0767
197.381	-2030.54477
197.604	-1328.72178
197.826	6096.12202
198.048	2950.79191
198.271	4248.6051
198.493	2216.50899
198.715	-5577.52457
198.938	-619.34144
199.16	1989.80335
199.382	1431.9749
199.604	-690.20965
199.827	8825.16711
200.049	944.14576
200.271	-2978.97758
200.493	-54861.22522
200.715	2242.65579
200.938	6625.08252
201.16	-7258.59386
201.382	-2702.43641
201.604	-2000.47489
201.826	6902.50391
202.048	911.37895
202.27	-15650.18375
202.492	4730.35594
202.715	-1249.91759
202.937	4647.23025
203.159	-2234.45387
203.381	841.97882
203.603	-3508.65684
203.825	-2449.05254
204.047	3365.49197
204.269	-1986.55414
204.491	2155.80448
204.713	1906.79102
204.935	15967.09896
205.156	1631.93489
205.378	-8952.20606
205.6	-3983.67653
205.822	9121.16674
206.044	-686.6011
206.266	4200.90045
206.488	1189.89335
206.71	28862.71939
206.932	2076.34117
207.153	-4831.04685
207.375	-1784.21314
207.597	8528.12202
207.819	3883.77164
208.041	2208.99795
208.262	-2187.4001
208.484	-1053.49922
208.706	-3094.15575
208.927	25668.98998
209.149	1001.68149
209.371	-6173.12948
209.593	1347.96768
209.814	5546.00522
210.036	-3510.18247
210.258	-5195.51235
210.479	-1306.53244
210.701	962.45382
210.922	6737.14594
211.144	-1143.22256
211.366	-5917.18388
211.587	-387.08763
211.809	9782.11275
212.03	-1242.37335
212.252	-1496.66091
212.473	857.67054
212.695	-2392.09981
212.916	2764.18628
213.138	2760.06803
213.359	-1738.84442
213.581	5938.28449
213.802	-1686.39178
214.024	16327.55906
214.245	-2968.37043
214.466	-738.17694
214.688	1564.37666
214.909	987.74664
215.131	-91424.22926
215.352	1528.3946
215.573	2447.72532
215.795	2900.00737
216.016	3906.50535
216.237	-587.06148
216.459	6731.372
216.68	99821.84893
216.901	-82872.71191
217.122	1782.66011
217.344	5967.10429
217.565	-58934.50252
217.786	1632.36285
218.007	2179.89995
218.228	-1155.44819
218.45	-1167.94019
218.671	-1068.28624
218.892	1098.58566
219.113	-18980.9775
219.334	-388.46969
219.555	-5467.45945
219.776	1685.84157
219.997	3495.03701
220.219	1082.91396
220.44	2365.36782
220.661	-2896.74654
220.882	3172.60834
221.103	-1007.26775
221.324	970.62888
221.545	2103.33727
221.766	-5663.5408
221.987	3367.78647
222.208	-1774.61817
222.429	3458.35224
222.65	-122.46481
222.87	-642.40424
223.091	7900.98851
223.312	2636.979
223.533	5611.02017
223.754	1824.86347
223.975	1490.50477
224.196	-10556.95532
224.417	997.77203
224.637	931.11539
224.858	-1011.6027
225.079	6723.44902
225.3	573.56517
225.521	2053.66571
225.741	1494.94093
225.962	701.82396
226.183	282.21376
226.404	636.10472
226.624	573.37908
226.845	362.39584
227.066	396.21134
227.286	181.55125
227.507	95.49974
227.728	82.51803
227.948	122.38778
228.169	39.84656
228.389	45.28341
228.61	24.56592
228.831	34.15477
229.051	4.44466
229.272	22.06041
229.492	30.66543
229.713	9.26481
229.933	23.5603
230.154	18.77375
230.374	31.66966
230.595	23.30724
230.815	14.38597
231.036	24.12068
231.256	-4.43262
231.477	43.3988
231.697	23.7395
231.917	26.17893
232.138	37.21749
232.358	83.49779
232.579	64.19872
232.799	11.26194
233.019	63.76101
233.24	72.96642
233.46	22.48718
233.68	40.7027
233.901	32.88015
234.121	19.5727
234.341	7.36909
234.561	-3.25084
234.782	15.65737
235.002	43.64319
235.222	-1.2794
235.442	40.65917
235.662	19.68342
235.883	44.19203
236.103	37.32795
236.323	21.98676
236.543	18.81252
236.763	29.54097
236.983	29.87894
237.203	30.37066
237.423	44.76776
237.643	64.04346
237.864	52.37313
238.084	12.82653
238.304	21.45276
238.524	32.12729
238.744	28.56811
238.964	48.96847
239.184	41.03142
239.404	43.3489
239.624	19.80134
239.843	39.26017
240.063	22.2807
240.283	18.97786
240.503	16.3644
240.723	16.06738
240.943	10.03383
241.163	13.16184
241.383	9.97767
241.603	5.09919
241.822	6.31583
242.042	4.17692
242.262	5.80134
242.482	6.79363
242.702	7.97952
242.921	2.61411
243.141	5.62268
243.361	4.77944
243.581	7.46405
243.8	6.47164
244.02	3.33128
244.24	7.42045
244.459	7.24665
244.679	13.7128
244.899	9.84015
245.118	10.42383
245.338	8.64004
245.558	9.70556
245.777	6.46768
245.997	7.49405
246.216	7.58041
246.436	4.14544
246.655	3.34948
246.875	2.26741
247.094	4.7447
247.314	1.75147
247.533	2.8763
247.753	3.396
247.972	2.70613
248.192	1.22171
248.411	1.61999
248.631	3.35846
248.85	3.7954
249.07	2.80222
249.289	5.43843
249.508	3.51915
249.728	6.16939
249.947	6.57986
250.166	6.52138
250.386	3.78237
250.605	5.233
250.824	8.76584
251.044	6.29944
251.263	20.18932
251.482	10.55323
251.701	10.05996
251.921	0.31058
252.14	3.74989
252.359	3.91383
252.578	8.08344
252.798	2.99632
253.017	7.46664
253.236	3.79913
253.455	4.81222
253.674	9.48117
253.893	5.08404
254.112	6.15848
254.331	9.0199
254.551	7.68673
254.77	4.23946
254.989	12.387
255.208	9.52308
255.427	11.65548
255.646	10.2121
255.865	17.23502
256.084	6.86144
256.303	7.8427
256.522	11.49775
256.741	2.24854
256.96	3.52858
257.179	7.16898
257.397	7.83233
257.616	4.68019
257.835	4.74568
258.054	11.71523
258.273	7.29573
258.492	8.80469
258.711	4.75773
258.93	2.08518
259.148	2.93331
259.367	3.39522
259.586	4.45238
259.805	1.96448
260.023	4.03457
260.242	3.11578
260.461	2.13088
260.68	1.34575
260.898	3.87827
261.117	1.14555
261.336	0.96258
261.554	3.15125
261.773	3.07854
261.992	0.35498
262.21	3.36523
262.429	3.48099
262.648	6.14724
262.866	7.08195
263.085	4.4755
263.303	4.06085
263.522	7.51232
263.74	7.45823
263.959	12.30754
264.178	6.34204
264.396	6.10215
264.615	3.99804
264.833	10.09902
265.051	8.28514
265.27	8.15992
265.488	9.13634
265.707	5.49402
265.925	8.99216
266.144	4.33651
266.362	5.47949
266.58	5.15745
266.799	3.93058
267.017	5.03923
267.235	4.51334
267.454	2.87653
267.672	1.71215
267.89	3.60516
268.109	4.03873
268.327	3.50807
268.545	1.02811
268.763	3.36847
268.982	1.31358
269.2	4.35329
269.418	2.38028
269.636	1.82781
269.854	3.61826
270.073	3.02312
270.291	1.4685
270.509	1.72596
270.727	3.81032
270.945	5.86361
271.163	6.05841
271.381	1.19662
271.599	2.39088
271.817	4.51411
272.036	1.4318
272.254	2.66944
272.472	1.97187
272.69	2.12001
272.908	2.06443
273.126	3.7808
273.344	4.67795
273.562	1.80533
273.779	2.42573
273.997	3.32218
274.215	3.93694
274.433	2.76839
274.651	3.78292
274.869	3.85391
275.087	2.59806
275.305	3.61105
275.523	2.08554
275.74	2.99766
275.958	4.68855
276.176	6.96356
276.394	2.10886
276.612	2.96222
276.829	2.86943
277.047	2.23929
277.265	2.51595
277.483	3.10528
277.7	3.54446
277.918	3.03889
278.136	5.48069
278.353	2.77772
278.571	1.28625
278.789	4.30825
279.006	1.21451
279.224	2.61668
279.442	4.64077
279.659	2.90584
279.877	2.04348
280.094	4.60867
280.312	1.02015
280.529	3.1285
280.747	0.85985
280.964	2.05272
281.182	5.42315
281.399	2.31739
281.617	3.14563
281.834	2.13557
282.052	1.91037
282.269	2.42667
282.487	2.17911
282.704	1.68446
282.921	2.24512
283.139	2.8307
283.356	3.7342
283.574	3.07245
283.791	1.71991
284.008	4.44898
284.226	2.41772
284.443	2.70989
284.66	3.4032
284.877	3.04528
285.095	1.87686
285.312	1.3084
285.529	0.96334
285.746	0.82655
285.964	1.90054
286.181	1.19226
286.398	1.86678
286.615	2.50124
286.832	2.31767
287.05	0.79959
287.267	1.65637
287.484	1.67359
287.701	2.39262
287.918	2.13781
288.135	2.3542
288.352	1.15243
288.569	1.25268
288.786	2.27996
289.003	1.59688
289.22	2.49174
289.437	1.5404
289.654	2.72443
289.871	2.84003
290.088	2.53868
290.305	2.26354
290.522	1.4794
290.739	2.01691
290.956	2.81006
291.173	3.41595
291.39	3.18244
291.607	2.33621
291.824	1.62252
292.04	1.05487
292.257	2.5011
292.474	3.09929
292.691	1.74734
292.908	0.96619
293.125	1.59256
293.341	0.86939
293.558	4.51133
293.775	1.84742
293.992	1.949
294.208	0.78142
294.425	1.05097
294.642	1.54873
294.858	2.36647
295.075	0.77491
295.292	1.70674
295.508	2.33652
295.725	3.44913
295.942	1.6342
296.158	1.26809
296.375	1.77831
296.591	1.4141
296.808	1.53053
297.024	1.71356
297.241	1.96869
297.458	2.25889
297.674	0.30354
297.891	1.83256
298.107	1.41944
298.323	1.10043
298.54	2.78704
298.756	1.21887
298.973	0.66961
299.189	2.88066
299.406	1.46342
299.622	2.67141
299.838	2.76506
300.055	2.5823
300.271	1.06398
300.487	1.03447
300.704	1.5037
300.92	1.08093
301.136	4.03788
301.353	2.86086
301.569	2.25317
301.785	2.5261
302.001	2.75298
302.218	2.41756
302.434	2.55291
302.65	1.21853
302.866	2.03027
303.083	4.2618
303.299	4.2664
303.515	2.46252
303.731	2.89778
303.947	1.5834
304.163	1.93677
304.379	2.63516
304.595	2.98255
304.812	2.00357
305.028	1.87104
305.244	2.23999
305.46	3.24993
305.676	3.38626
305.892	3.71519
306.108	3.10447
306.324	2.30166
306.54	4.25363
306.756	3.19037
306.972	3.05279
307.187	2.81313
307.403	3.76053
307.619	2.16003
307.835	3.41117
308.051	4.07471
308.267	1.61427
308.483	3.85743
308.699	3.31452
308.914	2.9502
309.13	2.79504
309.346	1.97706
309.562	2.125
309.778	1.93985
309.993	3.46417
310.209	3.31142
310.425	1.95395
310.641	3.23985
310.856	2.36989
311.072	2.40592
311.288	3.21843
311.503	3.59313
311.719	1.80064
311.935	1.94501
312.15	3.69537
312.366	3.51696
312.581	3.75697
312.797	3.43215
313.013	3.84464
313.228	2.8922
313.444	3.05495
313.659	2.67432
313.875	3.61467
314.09	3.18856
314.306	4.09502
314.521	3.57246
314.737	3.94826
314.952	3.31875
315.168	3.35496
315.383	3.69891
315.599	2.83469
315.814	3.12433
316.029	3.83034
316.245	2.60937
316.46	1.94437
316.675	4.23626
316.891	4.84047
317.106	5.49359
317.321	3.76405
317.537	3.96485
317.752	4.05157
317.967	3.98321
318.183	2.64026
318.398	3.05494
318.613	4.13634
318.828	4.44818
319.043	3.89464
319.259	2.86253
319.474	3.45654
319.689	4.39367
319.904	1.99592
320.119	4.27452
320.334	3.4089
320.549	3.3573
320.765	4.25344
320.98	3.89796
321.195	3.8674
321.41	3.25923
321.625	3.79479
321.84	4.63692
322.055	4.87303
322.27	2.95785
322.485	2.38826
322.7	3.81972
322.915	4.40764
323.13	3.10811
323.345	5.05122
323.56	4.40907
323.775	4.32636
323.989	4.32342
324.204	3.8495
324.419	4.425
324.634	2.78118
324.849	3.55192
325.064	6.37158
325.279	4.8838
325.493	4.39848
325.708	4.6672
325.923	3.11232
326.138	3.70872
326.352	5.21951
326.567	4.60134
326.782	3.49128
326.997	3.68794
327.211	4.45809
327.426	4.11772
327.641	3.96147
327.855	2.70557
328.07	4.67431
328.285	5.64795
328.499	3.66813
328.714	4.31423
328.928	4.28928
329.143	4.05067
329.358	4.99491
329.572	4.77002
329.787	5.52251
330.001	6.28435
330.216	2.68436
330.43	6.15518
330.645	5.32167
330.859	4.72552
331.074	3.34447
331.288	4.05254
331.503	5.56239
331.717	3.15714
331.931	4.0673
332.146	4.57709
332.36	6.06226
332.575	4.81181
332.789	4.42891
333.003	4.46626
333.218	5.10719
333.432	4.27365
333.646	5.29068
333.86	6.03396
334.075	5.97783
334.289	4.16122
334.503	3.32907
334.717	5.34708
334.932	4.87171
335.146	5.00427
335.36	3.82038
335.574	4.97874
335.788	4.64181
336.003	5.50256
336.217	5.52543
336.431	4.9628
336.645	4.25847
336.859	3.83722
337.073	4.89024
337.287	5.14543
337.501	3.80912
337.715	5.4954
337.929	5.33298
338.143	4.21636
338.357	4.85109
338.571	4.69793
338.785	5.8796
338.999	4.55815
339.213	4.96019
339.427	3.88079
339.641	6.02649
339.855	4.72257
340.069	4.26906
340.283	6.02434
340.497	6.5445
340.711	5.54722
340.924	5.30464
341.138	4.34619
341.352	4.02434
341.566	5.4047
341.78	4.0081
341.993	4.7653
342.207	4.26462
342.421	5.75777
342.635	5.18028
342.848	5.0585
343.062	3.15511
343.276	4.89365
343.49	7.06304
343.703	4.85292
343.917	6.15852
344.131	6.45323
344.344	4.77715
344.558	5.07388
344.771	4.54346
344.985	6.61959
345.199	7.25526
345.412	5.81747
345.626	6.27049
345.839	4.22582
346.053	4.71942
346.266	4.82429
346.48	6.08226
346.693	6.17362
346.907	6.10056
347.12	4.92261
347.334	5.79818
347.547	5.99685
347.76	5.61642
347.974	6.62482
348.187	5.81147
348.401	5.61252
348.614	4.5627
348.827	5.48316
349.041	5.92378
349.254	4.41042
349.467	5.44658
349.681	4.99832
349.894	5.02968
350.107	7.10988
350.32	7.3992
350.534	4.78251
350.747	5.63018
350.96	5.32304
351.173	5.42396
351.386	5.71456
351.6	5.37637
351.813	5.41578
352.026	5.69113
352.239	5.32938
352.452	5.21909
352.665	6.65466
352.878	5.63144
353.092	7.84175
353.305	6.54531
353.518	6.47409
353.731	5.20768
353.944	7.03083
354.157	5.69723
354.37	5.98905
354.583	5.12495
354.796	5.34846
355.009	7.07903
355.222	6.39748
355.435	6.38196
355.647	7.4119
355.86	5.69115
356.073	6.49639
356.286	5.99583
356.499	7.27421
356.712	7.37678
356.925	7.12791
357.138	7.43729
357.35	6.0344
357.563	6.48566
357.776	7.04879
357.989	6.99977
358.201	7.51842
358.414	7.22565
358.627	8.02641
358.84	6.77456
359.052	6.0695
359.265	6.11635
359.478	7.69523
359.69	5.08112
359.903	7.80211
360.116	7.73446
360.328	6.0356
360.541	7.81659
360.753	6.99898
360.966	7.04656
361.179	7.6021
361.391	7.35683
361.604	7.05302
361.816	7.34043
362.029	7.42372
362.241	7.06489
362.454	7.39914
362.666	6.9165
362.879	7.97385
363.091	7.35112
363.304	7.119
363.516	7.30766
363.728	6.56254
363.941	7.66147
364.153	7.68156
364.366	6.07286
364.578	6.64962
364.79	7.66486
365.003	7.82261
365.215	7.09107
365.427	8.07114
365.639	8.19182
365.852	7.82034
366.064	8.83914
366.276	7.21283
366.488	7.79073
366.701	7.37522
366.913	7.16862
367.125	7.57225
367.337	6.93374
367.549	7.22626
367.762	7.37164
367.974	7.66442
368.186	7.37156
368.398	8.20952
368.61	7.90164
368.822	7.86417
369.034	7.30427
369.246	8.38066
369.458	9.52138
369.67	7.23758
369.882	8.95809
370.094	6.38301
370.306	8.71751
370.518	7.7623
370.73	7.3649
370.942	7.58025
371.154	7.75945
371.366	7.8933
371.578	8.35355
371.79	8.04776
372.002	8.95176
372.214	9.68602
372.425	7.92877
372.637	9.4325
372.849	8.28561
373.061	6.43656
373.273	8.39444
373.484	8.49797
373.696	8.60467
373.908	6.62961
374.12	8.59454
374.331	8.50162
374.543	7.41942
374.755	7.41217
374.967	8.33245
375.178	9.05026
375.39	7.96031
375.602	8.46545
375.813	7.41957
376.025	7.82971
376.236	8.45818
376.448	8.86798
376.66	8.64795
376.871	8.53493
377.083	9.33108
377.294	9.94234
377.506	8.38985
377.717	9.72416
377.929	9.02834
378.14	8.4338
378.352	9.07129
378.563	9.35827
378.775	9.62596
378.986	8.07271
379.197	8.81373
379.409	8.13147
379.62	9.15984
379.832	8.87596
380.043	8.61544
380.254	9.21164
380.466	7.89834
380.677	10.93731
380.888	10.41308
381.1	11.03952
381.311	10.85399
381.522	9.4302
381.733	10.9189
381.945	9.0065
382.156	8.74814
382.367	8.8471
382.578	11.10663
382.789	11.29099
383.001	8.47063
383.212	10.54094
383.423	10.40531
383.634	10.11881
383.845	9.92266
384.056	9.03277
384.267	9.38067
384.478	9.71322
384.69	8.57312
384.901	9.93614
385.112	9.58245
385.323	10.72173
385.534	9.95252
385.745	10.06696
385.956	9.87431
386.167	8.91723
386.378	10.07892
386.588	9.22403
386.799	9.00471
387.01	8.74536
387.221	10.26396
387.432	9.99174
387.643	10.72574
387.854	9.61123
388.065	9.48754
388.275	9.61117
388.486	9.46514
388.697	9.84408
388.908	9.39344
389.119	10.70119
389.329	10.74391
389.54	9.84456
389.751	10.07471
389.962	10.80211
390.172	9.9572
390.383	9.76089
390.594	9.59561
390.804	9.61966
391.015	9.70611
391.226	10.34623
391.436	10.64879
391.647	10.59526
391.858	10.58435
392.068	9.43655
392.279	9.51902
392.489	10.39983
392.7	10.86358
392.91	9.99401
393.121	9.67261
393.331	10.83455
393.542	11.32577
393.752	11.05456
393.963	10.67005
394.173	10.83596
394.384	10.96163
394.594	10.55883
394.804	9.67245
395.015	10.47896
395.225	10.61922
395.436	9.82345
395.646	10.79053
395.856	10.26412
396.067	9.34091
396.277	10.98568
396.487	10.54836
396.697	10.73771
396.908	10.89486
397.118	10.79775
397.328	10.44205
397.538	11.37881
397.749	10.24892
397.959	11.31247
398.169	10.81143
398.379	9.73831
398.589	10.70914
398.8	10.91933
399.01	10.72479
399.22	10.49033
399.43	12.1646
399.64	10.6431
399.85	10.97037
400.06	10.74902
400.27	10.18481
400.48	10.67692
400.69	11.36235
400.9	10.32301
401.11	10.00121
401.32	11.14721
401.53	10.39715
401.74	11.69552
401.95	10.92939
402.16	10.80425
402.37	10.97937
402.58	10.60531
402.79	11.33719
403	11.45569
403.209	10.39474
403.419	11.52818
403.629	10.31755
403.839	11.75562
404.049	11.70974
404.258	11.08037
404.468	10.638
404.678	11.74047
404.888	12.05546
405.097	11.1456
405.307	11.0243
405.517	11.65859
405.727	11.53969
405.936	10.98223
406.146	11.15048
406.356	12.10765
406.565	10.95474
406.775	10.85068
406.984	10.70723
407.194	12.47444
407.404	11.17465
407.613	11.47732
407.823	11.50819
408.032	11.90633
408.242	11.776
408.451	10.90327
408.661	10.94728
408.87	12.23634
409.08	10.5999
409.289	11.52387
409.499	11.31005
409.708	11.3084
409.918	9.98946
410.127	11.55591
410.336	12.48394
410.546	11.89896
410.755	11.04079
410.964	11.16524
411.174	10.84055
411.383	11.68047
411.592	11.52004
411.802	10.79639
412.011	11.7319
412.22	11.3786
412.429	12.5966
412.639	12.17274
412.848	11.98759
413.057	12.48549
413.266	12.04004
413.475	11.54995
413.685	11.95792
413.894	12.11945
414.103	12.23023
414.312	11.86783
414.521	11.54358
414.73	11.83575
414.939	12.90044
415.148	12.18501
415.357	12.13104
415.566	11.85191
415.776	11.7774
415.985	11.70355
416.194	12.33572
416.403	13.24024
416.611	11.41753
416.82	11.83338
417.029	12.22822
417.238	11.99028
417.447	11.85351
417.656	12.28985
417.865	12.34429
418.074	12.76274
418.283	13.57518
418.492	14.78973
418.7	14.51945
418.909	16.42837
419.118	15.33953
419.327	15.97872
419.536	15.76956
419.744	16.21835
419.953	17.786
420.162	18.152
420.371	17.71283
420.579	18.54966
420.788	19.61104
420.997	19.79032
421.205	20.0678
421.414	19.8197
421.623	19.98132
421.831	19.27131
422.04	19.94538
422.249	18.53639
422.457	18.78579
422.666	17.85601
422.874	18.78217
423.083	18.95102
423.291	19.16408
423.5	19.42554
423.708	19.98748
423.917	20.51013
424.125	19.68394
424.334	19.64961
424.542	21.49896
424.751	20.90691
424.959	20.25396
425.167	20.12098
425.376	19.78876
425.584	18.11612
425.793	17.7538
426.001	16.50651
426.209	16.28742
426.418	15.03457
426.626	14.02162
426.834	13.60094
427.042	13.26473
427.251	12.90265
427.459	13.55701
427.667	13.07254
427.875	12.35713
428.084	12.84525
428.292	13.7468
428.5	13.4159
428.708	12.45019
428.916	12.36263
429.124	13.08404
429.333	12.94645
429.541	13.03691
429.749	13.33986
429.957	13.20792
430.165	14.79724
430.373	12.37391
430.581	13.09671
430.789	13.96161
430.997	13.10607
431.205	12.71788
431.413	13.35775
431.621	13.09662
431.829	13.78583
432.037	13.26639
432.245	13.72942
432.453	13.7337
432.661	13.50909
432.869	14.94862
433.076	13.83871
433.284	14.50249
433.492	15.28386
433.7	15.30254
433.908	14.40842
434.116	14.76312
434.323	14.4375
434.531	14.23532
434.739	14.02987
434.947	14.0314
435.154	14.09421
435.362	13.56737
435.57	13.41494
435.778	13.07981
435.985	13.82351
436.193	13.2841
436.401	14.34258
436.608	13.77196
436.816	13.48013
437.023	14.56097
437.231	14.64954
437.439	13.94235
437.646	14.1977
437.854	13.96797
438.061	14.2362
438.269	14.06695
438.476	14.35973
438.684	14.52083
438.891	14.80315
439.099	14.96537
439.306	14.84313
439.514	14.90811
439.721	17.0088
439.929	16.68623
440.136	17.94402
440.343	17.96203
440.551	17.77456
440.758	19.65141
440.965	17.99245
441.173	17.73932
441.38	17.21983
441.587	16.69467
441.795	16.40256
442.002	15.80622
442.209	15.47177
442.416	15.09666
442.624	14.81975
442.831	14.30858
443.038	13.94209
443.245	13.53276
443.452	13.8959
443.66	14.58116
443.867	13.88677
444.074	13.87462
444.281	14.59709
444.488	14.87845
444.695	15.64551
444.902	15.97608
445.109	17.75631
445.316	17.79911
445.523	18.57925
445.73	18.99909
445.937	20.12573
446.144	20.74281
446.351	21.19648
446.558	19.8272
446.765	22.21888
446.972	21.0752
447.179	20.63883
447.386	21.2743
447.593	18.89822
447.8	19.81411
448.007	17.84142
448.214	16.90039
448.42	16.05536
448.627	16.08218
448.834	15.29795
449.041	15.00049
449.248	14.32104
449.454	14.61105
449.661	15.45323
449.868	14.26382
450.075	14.00139
450.281	13.19126
450.488	13.59144
450.695	13.80038
450.901	13.91017
451.108	13.97522
451.315	14.8985
451.521	14.14294
451.728	14.9333
451.935	14.08093
452.141	14.10011
452.348	14.46682
452.554	14.51775
452.761	14.04057
452.967	15.34694
453.174	14.43075
453.38	14.49833
453.587	13.64917
453.793	14.60191
454	14.88278
454.206	15.67147
454.413	14.91818
454.619	14.78501
454.825	13.95298
455.032	14.82606
455.238	15.07202
455.445	13.8527
455.651	14.39474
455.857	13.47703
456.064	14.1912
456.27	14.54588
456.476	14.26774
456.682	13.7118
456.889	14.55414
457.095	14.79908
457.301	15.72877
457.507	14.70337
457.714	14.61213
457.92	14.70063
458.126	14.1948
458.332	14.51429
458.538	14.79779
458.744	15.89686
458.951	16.68772
459.157	19.45597
459.363	19.16351
459.569	19.73798
459.775	20.00716
459.981	20.1004
460.187	20.58555
460.393	20.39771
460.599	20.27807
460.805	19.01984
461.011	17.37472
461.217	16.77819
461.423	15.68996
461.629	14.79173
461.835	15.28956
462.041	14.67849
462.247	15.69822
462.453	14.63107
462.658	14.4776
462.864	15.23013
463.07	14.71513
463.276	14.95312
463.482	14.64107
463.688	15.73603
463.893	14.28093
464.099	14.5946
464.305	15.72608
464.511	14.54936
464.716	14.63173
464.922	15.08929
465.128	14.32614
465.333	15.66437
465.539	15.16772
465.745	14.88733
465.95	14.84962
466.156	16.74998
466.362	15.68671
466.567	14.97491
466.773	14.75054
466.978	16.1746
467.184	14.55378
467.389	14.05916
467.595	15.14468
467.8	14.61133
468.006	15.78619
468.211	15.82832
468.417	14.3387
468.622	15.21568
468.828	15.42384
469.033	15.08253
469.239	16.72324
469.444	14.98211
469.649	15.74879
469.855	15.01036
470.06	15.01385
470.266	14.66392
470.471	15.4897
470.676	15.46913
470.881	14.07029
471.087	16.35569
471.292	16.30212
471.497	14.2702
471.703	14.87265
471.908	14.7556
472.113	15.1237
472.318	15.65639
472.523	14.58582
472.729	15.49711
472.934	15.47529
473.139	15.07105
473.344	15.5617
473.549	15.92423
473.754	14.8257
473.959	16.8131
474.164	14.89695
474.369	15.22832
474.575	15.6299
474.78	15.61262
474.985	14.50927
475.19	14.31456
475.395	14.80142
475.6	15.11574
475.804	16.21082
476.009	15.22555
476.214	15.1257
476.419	15.14002
476.624	14.39936
476.829	14.98232
477.034	15.88562
477.239	15.07503
477.444	15.67749
477.648	15.93123
477.853	15.90315
478.058	15.3055
478.263	15.28263
478.468	14.94132
478.672	15.03616
478.877	16.43868
479.082	16.55671
479.287	15.93263
479.491	15.48586
479.696	15.08065
479.901	16.0645
480.105	16.02325
480.31	15.16871
480.515	15.69427
480.719	17.04442
480.924	15.37035
481.128	15.48568
481.333	17.12664
481.538	17.36846
481.742	18.45053
481.947	20.38033
482.151	22.2623
482.356	24.04998
482.56	28.49924
482.765	32.29745
482.969	38.25796
483.174	42.79714
483.378	48.56675
483.582	50.67925
483.787	53.43643
483.991	54.06045
484.196	53.76362
484.4	52.37431
484.604	51.66491
484.809	47.15531
485.013	43.79182
485.217	39.01749
485.422	35.09058
485.626	31.9496
485.83	30.62739
486.034	29.95033
486.239	30.86842
486.443	32.1177
486.647	33.4263
486.851	35.55438
487.055	38.03336
487.26	38.51243
487.464	40.05506
487.668	39.48955
487.872	40.15674
488.076	39.8994
488.28	38.0405
488.484	35.21626
488.688	33.98354
488.892	31.86909
489.096	29.44944
489.3	27.19606
489.504	25.37168
489.708	24.16807
489.912	23.83864
490.116	23.41671
490.32	23.8274
490.524	25.84878
490.728	27.68912
490.932	29.56606
491.136	31.6455
491.34	33.21962
491.544	33.88849
491.748	33.89119
491.951	33.22349
492.155	32.07343
492.359	30.87504
492.563	27.91343
492.767	25.95388
492.97	22.85617
493.174	20.5976
493.378	18.82808
493.582	16.74197
493.785	16.19615
493.989	15.96755
494.193	15.2063
494.396	14.4587
494.6	14.99784
494.804	14.92866
495.007	15.51066
495.211	15.64724
495.414	15.96353
495.618	16.05798
495.822	16.66086
496.025	16.3423
496.229	16.83532
496.432	16.53448
496.636	16.92914
496.839	17.34213
497.043	18.1689
497.246	17.48498
497.45	16.99813
497.653	17.23305
497.856	16.94982
498.06	16.2422
498.263	16.20312
498.467	16.12875
498.67	16.71255
498.873	16.30024
499.077	16.1148
499.28	16.22582
499.483	16.40184
499.686	16.56158
499.89	16.19095
500.093	16.80059
500.296	15.81931
500.499	17.07311
500.703	16.26734
500.906	16.26978
501.109	17.2506
501.312	16.17368
501.515	16.13915
501.719	16.34165
501.922	16.92525
502.125	16.18008
502.328	16.23501
502.531	15.40202
502.734	16.27012
502.937	15.26582
503.14	16.50144
503.343	15.9147
503.546	16.07295
503.749	15.99573
503.952	16.54415
504.155	15.7079
504.358	16.46206
504.561	16.48726
504.764	15.4312
504.967	16.23628
505.17	16.11895
505.373	17.2591
505.576	15.98689
505.778	16.80413
505.981	15.64641
506.184	17.18499
506.387	15.46016
506.59	17.46793
506.793	17.01467
506.995	16.76094
507.198	15.13828
507.401	16.73487
507.604	16.74493
507.806	15.81865
508.009	15.88249
508.212	16.90512
508.414	16.04814
508.617	16.15255
508.82	16.60623
509.022	17.37587
509.225	16.83605
509.427	15.77469
509.63	17.18246
509.833	16.46229
510.035	16.07776
510.238	15.66516
510.44	17.17042
510.643	15.48496
510.845	17.48001
511.048	16.58051
511.25	16.28005
511.453	16.36972
511.655	16.56823
511.858	16.60615
512.06	16.97621
512.262	16.64411
512.465	17.16222
512.667	16.3652
512.869	15.9502
513.072	17.07276
513.274	16.9376
513.476	16.83293
513.679	17.06253
513.881	16.12927
514.083	17.35148
514.286	15.99272
514.488	16.10447
514.69	15.88321
514.892	15.55656
515.094	16.75599
515.297	15.92445
515.499	16.37431
515.701	15.96076
515.903	17.31761
516.105	17.66646
516.307	16.97374
516.509	15.41819
516.711	15.91936
516.913	16.61467
517.116	16.54463
517.318	16.34894
517.52	17.18533
517.722	17.31985
517.924	16.67497
518.126	18.40169
518.328	17.93944
518.529	18.90661
518.731	19.68196
518.933	17.73394
519.135	18.08549
519.337	18.49259
519.539	17.55909
519.741	15.84213
519.943	16.62939
520.145	16.58763
520.346	17.06863
520.548	16.66293
520.75	16.70042
520.952	16.47854
521.153	16.85308
521.355	16.97183
521.557	16.04212
521.759	16.70924
521.96	16.37324
522.162	15.70348
522.364	17.29676
522.565	16.10261
522.767	17.02033
522.969	16.94413
523.17	16.89258
523.372	16.56472
523.573	16.42627
523.775	16.60106
523.977	16.01924
524.178	17.83011
524.38	16.4592
524.581	17.19413
524.783	16.76256
524.984	18.16855
525.186	18.51877
525.387	19.45922
525.589	19.55458
525.79	19.82896
525.991	19.83178
526.193	20.65269
526.394	20.0509
526.596	21.1323
526.797	21.86143
526.998	22.03369
527.2	23.56747
527.401	26.93911
527.602	29.66262
527.803	34.11239
528.005	36.85441
528.206	39.24403
528.407	41.41262
528.608	41.26137
528.81	41.59435
529.011	40.24542
529.212	40.62657
529.413	37.67109
529.614	35.04235
529.815	32.26756
530.017	29.35632
530.218	25.90446
530.419	23.70803
530.62	22.1982
530.821	20.99911
531.022	19.52607
531.223	20.40056
531.424	20.12032
531.625	20.57465
531.826	20.47077
532.027	21.82066
532.228	23.97915
532.429	24.93006
532.63	26.15968
532.831	27.70942
533.032	27.86143
533.233	28.9914
533.433	28.25565
533.634	28.36889
533.835	26.91685
534.036	25.66856
534.237	24.05824
534.438	22.51444
534.638	20.1607
534.839	19.29185
535.04	18.377
535.241	17.85455
535.441	19.15658
535.642	18.68926
535.843	18.35328
536.043	19.13688
536.244	19.54372
536.445	20.14151
536.645	20.78141
536.846	20.44686
537.047	20.47511
537.247	18.96677
537.448	18.16441
537.648	17.86714
537.849	16.96531
538.049	16.90839
538.25	17.26476
538.451	17.38724
538.651	16.48064
538.851	17.3611
539.052	17.92355
539.252	17.38067
539.453	16.80606
539.653	17.34929
539.854	17.56549
540.054	19.41057
540.254	22.33162
540.455	24.85446
540.655	25.83552
540.855	28.80198
541.056	30.32354
541.256	30.61899
541.456	31.48412
541.657	30.70555
541.857	31.26301
542.057	28.97365
542.257	27.61701
542.458	27.4352
542.658	25.37719
542.858	22.87161
543.058	22.49146
543.258	21.14931
543.458	18.94244
543.659	18.33
543.859	18.73353
544.059	18.40476
544.259	17.17859
544.459	17.8132
544.659	16.63363
544.859	17.41936
545.059	16.872
545.259	17.51455
545.459	17.43678
545.659	17.71723
545.859	17.30493
546.059	17.27987
546.259	16.7584
546.459	16.44553
546.659	16.67556
546.859	17.80335
547.059	17.51656
547.258	17.33989
547.458	17.48061
547.658	16.64026
547.858	16.33248
548.058	17.09368
548.258	16.70246
548.457	16.29
548.657	18.30847
548.857	16.84343
549.057	17.35755
549.256	17.25977
549.456	16.57536
549.656	15.5741
549.855	18.11679
550.055	16.59855
550.255	18.21223
550.454	17.03525
550.654	17.38559
550.853	17.9701
551.053	17.41591
551.253	17.18699
551.452	17.20154
551.652	16.27904
551.851	15.97627
552.051	16.72494
552.25	16.81938
552.45	16.68151
552.649	16.75751
552.849	16.66764
553.048	16.81364
553.248	17.42257
553.447	16.18486
553.646	17.55709
553.846	18.42805
554.045	17.72202
554.244	16.02068
554.444	17.94156
554.643	16.14594
554.842	18.22641
555.042	18.39726
555.241	16.38562
555.44	15.94745
555.64	17.31116
555.839	18.58329
556.038	17.08268
556.237	16.43151
556.436	17.02573
556.636	17.28583
556.835	16.11899
557.034	18.11729
557.233	16.72843
557.432	15.66729
557.631	17.90647
557.83	16.71794
558.029	16.53829
558.228	16.34061
558.427	16.15026
558.626	17.29467
558.825	16.06462
559.024	16.68943
559.223	18.22985
559.422	16.54574
559.621	16.84279
559.82	14.72795
560.019	17.00954
560.218	16.74513
560.417	14.84477
560.616	16.33118
560.815	19.65511
561.014	15.54149
561.212	18.38628
561.411	16.81884
561.61	15.70275
561.809	16.50011
562.008	18.18268
562.206	16.32351
562.405	17.44901
562.604	16.35005
562.803	17.04369
563.001	17.04074
563.2	15.77316
563.399	17.23017
563.597	15.7877
563.796	16.79252
563.995	15.85684
564.193	17.38516
564.392	16.67232
564.59	18.75729
564.789	15.57271
564.988	16.46936
565.186	17.52456
565.385	16.72181
565.583	16.8752
565.782	16.82509
565.98	16.87265
566.179	16.82385
566.377	16.4163
566.575	16.64133
566.774	18.00228
566.972	17.76678
567.171	18.62904
567.369	18.06463
567.567	17.07255
567.766	17.06574
567.964	15.35236
568.162	17.34386
568.361	17.62913
568.559	16.70638
568.757	17.33092
568.956	17.06063
569.154	17.15684
569.352	17.3144
569.55	17.00389
569.748	16.7281
569.947	16.63816
570.145	16.11364
570.343	16.18524
570.541	17.92428
570.739	16.16311
570.937	16.98704
571.135	17.44106
571.333	18.93336
571.532	18.26534
571.73	17.28415
571.928	18.17409
572.126	17.57873
572.324	16.79925
572.522	18.38105
572.72	19.26819
572.918	17.06649
573.116	17.44871
573.313	17.18906
573.511	17.07305
573.709	16.63975
573.907	17.99152
574.105	17.0093
574.303	15.87511
574.501	15.88295
574.699	17.36535
574.896	17.413
575.094	17.58705
575.292	15.93242
575.49	17.80956
575.688	16.947
575.885	17.76559
576.083	18.66128
576.281	17.68613
576.478	16.23833
576.676	17.25755
576.874	15.51472
577.071	16.52131
577.269	18.96937
577.467	17.06342
577.664	17.01706
577.862	17.61699
578.059	16.22286
578.257	17.34482
578.455	16.5597
578.652	17.012
578.85	14.78216
579.047	16.9318
579.245	16.58065
579.442	16.69896
579.64	16.75338
579.837	15.0845
580.034	19.45095
580.232	16.50709
580.429	15.08867
580.627	17.21925
580.824	17.98645
581.021	17.14336
581.219	16.27586
581.416	15.69137
581.613	18.31627
581.811	18.04596
582.008	16.0286
582.205	17.44511
582.402	16.92881
582.6	18.69517
582.797	16.7518
582.994	17.21685
583.191	17.43975
583.388	16.61907
583.586	17.51213
583.783	17.43103
583.98	16.21294
584.177	17.46818
584.374	13.79987
584.571	16.68655
584.768	16.28091
584.965	16.14091
585.162	17.46919
585.359	18.36691
585.556	16.6266
585.753	17.0737
585.95	15.35162
586.147	16.18142
586.344	17.3178
586.541	16.50013
586.738	15.5724
586.935	16.83424
587.132	15.84532
587.329	17.68812
587.526	16.56177
587.722	21.81803
587.919	15.30334
588.116	17.26272
588.313	18.30643
588.51	19.16697
588.706	16.49943
588.903	17.43716
589.1	18.00964
589.297	19.58852
589.493	17.32014
589.69	17.59159
589.887	16.50806
590.083	16.24699
590.28	16.44446
590.477	17.945
590.673	18.00131
590.87	18.19826
591.067	16.76929
591.263	17.46397
591.46	16.94999
591.656	16.27267
591.853	18.59926
592.049	15.94
592.246	15.90667
592.442	18.22629
592.639	18.04297
592.835	15.83385
593.032	17.56957
593.228	15.46511
593.425	15.47155
593.621	15.20399
593.817	16.90767
594.014	16.23557
594.21	16.8751
594.406	18.21226
594.603	17.53224
594.799	16.41345
594.995	14.64371
595.192	18.0926
595.388	16.61807
595.584	16.75259
595.78	16.08117
595.977	19.95635
596.173	19.18772
596.369	17.1966
596.565	16.68994
596.761	15.98767
596.957	18.54848
597.154	16.68878
597.35	16.73948
597.546	16.71685
597.742	17.87903
597.938	17.0042
598.134	16.57825
598.33	17.39327
598.526	18.17093
598.722	17.32006
598.918	19.13597
599.114	17.67072
599.31	16.11014
599.506	16.86237
599.702	16.15067
599.898	17.45744
600.094	17.46608
600.29	17.61192
600.485	17.98094
600.681	16.36798
600.877	19.01312
601.073	16.82061
601.269	19.27148
601.465	18.66757
601.66	16.13757
601.856	14.91813
602.052	19.11478
602.248	16.58123
602.443	15.43965
602.639	16.06614
602.835	16.53752
603.03	16.27447
603.226	18.51011
603.422	16.47309
603.617	17.21342
603.813	17.12889
604.009	17.05302
604.204	18.58677
604.4	16.41109
604.595	18.53063
604.791	16.4367
604.986	17.71054
605.182	16.76247
605.377	16.91403
605.573	16.80869
605.768	17.1838
605.964	17.96982
606.159	17.96891
606.355	18.09366
606.55	17.02477
606.746	18.76829
606.941	16.78526
607.136	19.66451
607.332	20.67059
607.527	15.36305
607.722	17.24809
607.918	16.86366
608.113	16.47915
608.308	18.52141
608.503	17.95493
608.699	17.88129
608.894	18.16292
609.089	16.7179
609.284	17.70203
609.479	16.95603
609.675	18.30401
609.87	17.53499
610.065	18.27465
610.26	18.52981
610.455	18.19313
610.65	17.11125
610.845	17.55009
611.04	18.34227
611.235	16.91499
611.43	17.11812
611.625	15.64625
611.82	18.70955
612.015	16.26698
612.21	19.10865
612.405	14.93637
612.6	19.38801
612.795	18.37635
612.99	17.34183
613.185	15.96133
613.38	15.95577
613.575	17.04089
613.77	20.79869
613.965	14.62006
614.159	15.67213
614.354	19.1515
614.549	18.23703
614.744	18.04231
614.938	15.5652
615.133	15.13835
615.328	18.84964
615.523	18.72556
615.717	20.98019
615.912	16.18103
616.107	17.21592
616.301	16.5388
616.496	16.35806
616.691	19.22405
616.885	18.41111
617.08	21.2272
617.274	18.38862
617.469	20.25113
617.664	18.32254
617.858	16.38882
618.053	17.82897
618.247	16.80755
618.442	14.23001
618.636	19.54288
618.831	16.39313
619.025	16.71222
619.219	20.86249
619.414	13.05308
619.608	16.6757
619.803	16.63337
619.997	20.32366
620.191	18.80022
620.386	17.73156
620.58	17.5439
620.774	14.64016
620.969	15.06121
621.163	17.37488
621.357	15.59036
621.551	16.87631
621.746	17.13902
621.94	16.39402
622.134	21.96666
622.328	20.59034
622.522	15.368
622.716	18.27275
622.911	18.75708
623.105	18.91466
623.299	18.06087
623.493	22.088
623.687	15.51071
623.881	17.02793
624.075	17.82589
624.269	19.27557
624.463	14.54903
624.657	15.01827
624.851	18.36241
625.045	18.60924
625.239	19.48581
625.433	17.24073
625.627	19.39862
625.821	16.66558
626.015	16.60871
626.209	18.16482
626.403	15.65221
626.596	18.33323
626.79	18.84838
626.984	16.18335
627.178	18.67818
627.372	18.80799
627.565	18.69665
627.759	15.52898
627.953	16.1231
628.147	18.40615
628.34	18.56102
628.534	20.5291
628.728	17.11209
628.921	19.03363
629.115	18.65053
629.309	19.15232
629.502	18.87305
629.696	18.06423
629.89	17.46233
630.083	17.74071
630.277	18.02122
630.47	20.60841
630.664	16.86264
630.857	14.6593
631.051	19.66639
631.244	19.27406
631.438	18.9241
631.631	16.07801
631.825	19.72635
632.018	18.37455
632.212	20.44781
632.405	19.69517
632.598	16.21008
632.792	17.71016
632.985	13.97539
633.178	17.36528
633.372	17.34367
633.565	17.62102
633.758	20.22394
633.952	16.07436
634.145	16.5719
634.338	17.02325
634.531	16.96251
634.724	16.70489
634.918	17.46863
635.111	17.04918
635.304	16.64492
635.497	22.03747
635.69	18.29111
635.883	19.95489
636.077	16.04357
636.27	18.97418
636.463	17.91748
636.656	18.07616
636.849	17.14687
637.042	18.93627
637.235	20.33791
637.428	19.05009
637.621	19.37561
637.814	20.11658
638.007	20.74955
638.2	20.23151
638.393	20.94631
638.586	15.25021
638.778	17.20231
638.971	17.85981
639.164	20.63589
639.357	18.14134
639.55	20.49284
639.743	19.22587
639.935	18.66385
640.128	21.53257
640.321	19.22788
640.514	17.49327
640.707	22.5913
640.899	19.16985
641.092	15.22699
641.285	34.77826
641.477	13.97721
641.67	22.86828
641.863	20.34462
642.055	18.22509
642.248	17.51584
642.441	17.17173
642.633	18.40961
642.826	20.01016
643.018	20.16161
643.211	21.88485
643.403	22.32488
643.596	23.11506
643.788	21.77672
643.981	16.85967
644.173	20.46285
644.366	17.75485
644.558	14.62748
644.751	20.14079
644.943	15.39205
645.135	21.07046
645.328	21.4396
645.52	19.22169
645.712	20.57609
645.905	25.00513
646.097	16.46846
646.289	18.8751
646.482	22.74481
646.674	16.81187
646.866	21.2557
647.058	19.01165
647.251	16.36072
647.443	17.46432
647.635	18.37287
647.827	16.38969
648.019	17.49773
648.211	17.95155
648.404	18.51569
648.596	22.44266
648.788	18.83299
648.98	18.85735
649.172	19.79549
649.364	19.69672
649.556	15.40729
649.748	24.31279
649.94	16.94336
650.132	20.6222
650.324	16.46902
650.516	17.42664
650.708	21.02829
650.9	15.44234
651.092	18.20268
651.284	15.87591
651.476	16.12677
651.667	20.21582
651.859	21.54655
652.051	18.15169
652.243	18.81462
652.435	17.03846
652.627	20.29211
652.818	19.78267
653.01	15.03137
653.202	16.45452
653.394	17.49289
653.585	19.8183
653.777	28.88006
653.969	21.54852
654.16	21.59436
654.352	16.78676
654.544	18.1481
654.735	20.9906
654.927	19.36116
655.118	22.04267
655.31	20.42415
655.502	21.90336
655.693	17.85086
655.885	20.7324
656.076	21.80397
656.268	19.16164
656.459	22.63896
656.651	22.14313
656.842	17.57695
657.034	17.43368
657.225	21.2683
657.416	21.94431
657.608	22.81942
657.799	19.21275
657.99	22.828
658.182	18.32052
658.373	18.19236
658.564	21.67653
658.756	19.92018
658.947	19.71083
659.138	17.27174
659.33	18.8126
659.521	18.18991
659.712	19.17266
659.903	19.3702
660.094	18.19087
660.286	16.29787
660.477	23.34516
660.668	20.32342
660.859	19.00965
661.05	16.37117
661.241	21.14117
661.432	21.12457
661.623	19.05185
661.814	18.58053
662.006	15.67019
662.197	20.45248
662.388	22.32995
662.579	19.9831
662.77	21.89819
662.96	26.98748
663.151	22.12861
663.342	15.6878
663.533	20.04381
663.724	19.13811
663.915	24.34691
664.106	19.13694
664.297	24.72141
664.488	21.56685
664.678	18.43824
664.869	22.00661
665.06	21.66849
665.251	20.49992
665.442	21.17987
665.632	17.20858
665.823	24.16741
666.014	11.9617
666.204	21.8435
666.395	23.51522
666.586	27.65024
666.776	22.14078
666.967	24.76469
667.158	20.741
667.348	23.01445
667.539	17.50651
667.729	22.91038
667.92	17.32323
668.111	22.81331
668.301	21.62337
668.492	19.98564
668.682	20.6142
668.873	19.7251
669.063	18.12761
669.253	21.40454
669.444	23.18801
669.634	19.78256
669.825	24.95988
670.015	23.89848
670.206	18.10174
670.396	25.93157
670.586	20.53667
670.777	22.16083
670.967	14.55658
671.157	20.30355
671.347	18.1364
671.538	25.01887
671.728	22.5656
671.918	25.8113
672.108	23.11056
672.299	20.34566
672.489	21.8972
672.679	18.92976
672.869	22.63719
673.059	26.34656
673.249	22.15902
673.44	17.38909
673.63	20.26566
673.82	24.01136
674.01	17.18689
674.2	22.56361
674.39	29.0917
674.58	23.04817
674.77	20.67718
674.96	20.01882
675.15	34.12011
675.34	25.15497
675.53	21.26622
675.72	20.66749
675.91	16.56323
676.099	26.81072
676.289	28.27981
676.479	24.14679
676.669	19.76065
676.859	22.48361
677.049	19.43911
677.238	21.30586
677.428	26.39964
677.618	23.34454
677.808	25.33857
677.997	23.65856
678.187	18.30721
678.377	21.9785
678.567	19.80621
678.756	20.54146
678.946	20.88679
679.136	17.71188
679.325	19.50229
679.515	19.62049
679.704	17.82323
679.894	23.90294
680.084	23.05554
680.273	24.82053
680.463	20.51551
680.652	18.9747
680.842	21.95956
681.031	24.36999
681.221	19.44922
681.41	23.08236
681.6	21.47436
681.789	24.66748
681.978	25.12156
682.168	22.65979
682.357	22.47932
682.547	23.84691
682.736	22.35402
682.925	26.68858
683.115	24.8669
683.304	24.70657
683.493	23.85752
683.682	24.6436
683.872	23.7127
684.061	26.52234
684.25	25.0215
684.439	29.3154
684.629	24.77556
684.818	33.94233
685.007	21.9624
685.196	22.09202
685.385	29.2435
685.574	24.11223
685.763	25.26023
685.952	23.26776
686.142	20.15233
686.331	26.94393
686.52	17.25236
686.709	29.21532
686.898	28.32428
687.087	25.36798
687.276	29.39551
687.465	26.9425
687.654	22.71206
687.842	28.95108
688.031	19.74207
688.22	28.91487
688.409	24.56194
688.598	23.40142
688.787	33.02183
688.976	24.44015
689.165	30.72113
689.353	22.31349
689.542	25.75231
689.731	27.41447
689.92	31.63175
690.108	27.43143
690.297	23.15461
690.486	24.64488
690.675	27.22332
690.863	30.73352
691.052	30.75979
691.241	25.08486
691.429	25.0503
691.618	31.37605
691.806	19.44589
691.995	22.48315
692.184	24.74568
692.372	23.01216
692.561	26.13313
692.749	24.76554
692.938	36.62354
693.126	26.90873
693.315	25.68969
693.503	27.4246
693.692	28.74138
693.88	30.07687
694.068	34.33347
694.257	24.63952
694.445	27.74413
694.634	16.82907
694.822	29.21185
695.01	30.00233
695.199	32.09919
695.387	30.6184
695.575	29.32948
695.763	25.14803
695.952	23.57854
696.14	19.99964
696.328	23.34473
696.516	26.34142
696.705	26.08998
696.893	26.87194
697.081	18.90569
697.269	28.52457
697.457	22.512
697.645	21.55879
697.833	27.884
698.021	22.48307
698.21	24.23604
698.398	24.83244
698.586	21.72572
698.774	21.46792
698.962	24.87264
699.15	22.1991
699.338	20.63721
699.526	27.1991
699.714	23.44503
699.901	23.11707
700.089	29.21773
700.277	23.02626
700.465	25.25734
700.653	29.09388
700.841	27.06522
701.029	22.28778
701.217	31.3925
701.404	25.75551
701.592	31.1212
701.78	35.40099
701.968	25.43007
702.155	25.33688
702.343	19.28397
702.531	31.93213
702.718	28.16856
702.906	25.67823
703.094	23.59831
703.281	31.81649
703.469	27.23605
703.657	32.37664
703.844	40.95992
704.032	34.75825
704.219	22.85392
704.407	27.48213
704.595	32.13267
704.782	27.87032
704.97	25.65386
705.157	25.98491
705.345	34.19538
705.532	41.66535
705.719	29.97869
705.907	33.74308
706.094	27.05306
706.282	36.45994
706.469	25.89039
706.656	28.6701
706.844	26.834
707.031	32.50284
707.218	29.21265
707.406	34.87558
707.593	31.92128
707.78	31.16985
707.968	28.39493
708.155	24.98865
708.342	31.29057
708.529	30.56261
708.716	28.91957
708.904	35.38606
709.091	32.43514
709.278	22.47805
709.465	39.07349
709.652	37.03921
709.839	35.57924
710.026	31.31044
710.213	21.70154
710.4	30.8512
710.587	33.70133
710.774	35.16798
710.961	33.41752
711.148	29.3625
711.335	34.26234
711.522	27.80033
711.709	31.30416
711.896	41.59902
712.083	34.12901
712.27	25.65791
712.457	30.94378
712.644	23.39327
712.831	40.59344
713.017	30.32764
713.204	33.51247
713.391	27.36185
713.578	36.67312
713.765	38.61839
713.951	32.89587
714.138	48.1868
714.325	34.2874
714.512	30.39539
714.698	26.40828
714.885	39.29321
715.072	32.60368
715.258	31.30415
715.445	28.00639
715.631	37.39043
715.818	18.70363
716.005	27.90761
716.191	35.57034
716.378	29.43391
716.564	36.36943
716.751	28.55847
716.937	28.85232
717.124	38.13869
717.31	27.52345
717.497	41.66333
717.683	28.45863
717.869	46.19882
718.056	29.93758
718.242	34.92696
718.429	30.55273
718.615	26.17808
718.801	32.45736
718.988	37.72053
719.174	36.62651
719.36	32.43499
719.547	37.97028
719.733	35.09697
719.919	36.19604
720.105	39.06868
720.291	31.40328
720.478	33.95727
720.664	33.98951
720.85	30.11882
721.036	50.81782
721.222	43.10187
721.408	32.04234
721.595	44.19076
721.781	43.06288
721.967	40.43514
722.153	44.87735
722.339	38.18909
722.525	35.44519
722.711	29.42709
722.897	26.51014
723.083	29.82295
723.269	39.91242
723.455	51.1463
723.641	56.70494
723.827	35.62956
724.012	38.22598
724.198	32.34105
724.384	42.30711
724.57	39.33807
724.756	25.56998
724.942	22.15614
725.127	40.61139
725.313	42.57459
725.499	42.41453
725.685	48.67212
725.87	36.76759
726.056	28.05721
726.242	43.03554
726.428	24.51164
726.613	41.23633
726.799	32.87379
726.985	28.57045
727.17	25.48873
727.356	48.21507
727.541	29.10072
727.727	33.772
727.913	37.95236
728.098	32.78149
728.284	38.98619
728.469	26.45253
728.655	29.94943
728.84	40.78419
729.026	39.50766
729.211	40.28374
729.397	37.64524
729.582	39.39412
729.767	36.49318
729.953	38.33762
730.138	43.87224
730.323	21.71435
730.509	29.11778
730.694	46.62835
730.879	38.25014
731.065	36.19118
731.25	50.64299
731.435	39.77701
731.621	26.0737
731.806	32.74542
731.991	37.38589
732.176	25.73194
732.361	45.82399
732.547	39.49353
732.732	24.11481
732.917	52.19423
733.102	26.20732
733.287	30.53255
733.472	35.86691
733.657	35.7004
733.842	25.43375
734.027	32.40509
734.212	33.77911
734.397	31.29746
734.582	36.32822
734.767	44.90775
734.952	47.61308
735.137	19.61792
735.322	47.02034
735.507	36.14101
735.692	38.79409
735.877	53.48958
736.062	50.33177
736.247	39.56448
736.431	36.30036
736.616	45.0082
736.801	40.00336
736.986	38.35229
737.171	33.38222
737.355	24.56579
737.54	45.95623
737.725	37.79316
737.909	57.92821
738.094	33.70559
738.279	46.26588
738.463	36.28328
738.648	43.7777
738.833	40.80485
739.017	53.05873
739.202	36.94571
739.386	36.92978
739.571	30.7896
739.756	45.10034
739.94	38.93773
740.125	45.23262
740.309	33.66595
740.494	43.80427
740.678	39.70859
740.863	44.15605
741.047	39.88698
741.231	50.46322
741.416	31.73705
741.6	51.05375
741.785	34.11729
741.969	44.99495
742.153	48.8996
742.338	21.90179
742.522	38.39434
742.706	45.70821
742.89	29.98129
743.075	39.80118
743.259	49.24698
743.443	49.47129
743.627	52.66121
743.812	58.8906
743.996	25.43578
744.18	36.08355
744.364	35.94622
744.548	61.17878
744.732	37.90735
744.916	45.57868
745.1	45.17617
745.285	39.17769
745.469	43.19608
745.653	55.23946
745.837	26.15862
746.021	59.66103
746.205	50.06388
746.389	43.1132
746.573	37.36086
746.757	52.67863
746.94	37.05338
747.124	51.20217
747.308	29.51301
747.492	48.45957
747.676	37.6855
747.86	62.40316
748.044	39.06577
748.227	24.05052
748.411	78.29746
748.595	43.95677
748.779	32.68253
748.963	45.36173
749.146	41.52875
749.33	32.45709
749.514	32.78361
749.697	50.18314
749.881	36.19273
750.065	32.23152
750.248	42.56727
750.432	61.26793
750.616	43.66469
750.799	27.40037
750.983	63.42607
751.166	67.19506
751.35	25.91025
751.533	47.51761
751.717	56.81975
751.9	53.77062
752.084	38.9977
752.267	30.48848
752.451	37.38753
752.634	42.21907
752.818	47.34748
753.001	50.39803
753.184	53.45249
753.368	45.9529
753.551	13.17442
753.734	34.38163
753.918	62.0972
754.101	33.68911
754.284	45.4859
754.467	37.42547
754.651	35.45223
754.834	37.66055
755.017	53.41878
755.2	53.30723
755.384	29.9523
755.567	51.92344
755.75	51.09082
755.933	40.77849
756.116	43.72385
756.299	35.83591
756.482	33.3275
756.665	47.0253
756.848	45.22934
757.032	47.50558
757.215	29.6527
757.398	36.22024
757.581	32.80044
757.764	71.2223
757.947	42.84588
758.129	55.73935
758.312	13.84381
758.495	41.39744
758.678	41.1241
758.861	40.66408
759.044	65.28065
759.227	33.21829
759.41	33.89408
759.592	53.29272
759.775	40.49029
759.958	52.75177
760.141	31.0197
760.324	65.50288
760.506	56.94041
760.689	51.32661
760.872	70.62092
761.054	49.98245
761.237	39.50588
761.42	46.70419
761.602	52.91832
761.785	47.6754
761.968	54.61432
762.15	61.63066
762.333	40.28299
762.515	45.9752
762.698	36.96096
762.88	48.82065
763.063	45.65628
763.245	49.64797
763.428	33.43794
763.61	36.57222
763.793	31.5407
763.975	44.98565
764.158	38.5623
764.34	38.04707
764.522	33.95073
764.705	40.17794
764.887	55.14727
765.069	31.29525
765.252	51.04863
765.434	50.73616
765.616	45.23038
765.799	36.5075
765.981	52.10489
766.163	38.18272
766.345	56.11114
766.528	40.3781
766.71	21.66768
766.892	46.20087
767.074	60.62521
767.256	41.08976
767.438	62.20924
767.62	49.98842
767.802	68.78818
767.985	50.65782
768.167	67.07438
768.349	42.4466
768.531	53.59156
768.713	49.7109
768.895	57.00051
769.077	51.86104
769.259	79.75522
769.441	106.92828
769.623	60.09902
769.804	65.12707
769.986	65.15612
770.168	80.11892
770.35	88.19102
770.532	73.34436
770.714	75.73217
770.896	77.4142
771.077	31.3401
771.259	81.47736
771.441	63.01423
771.623	81.56135
771.804	103.64672
771.986	34.83763
772.168	52.05405
772.35	80.40795
772.531	108.14002
772.713	63.72293
772.894	89.93146
773.076	58.46777
773.258	52.37087
773.439	88.85909
773.621	98.47694
773.802	47.2567
773.984	64.31145
774.166	66.13945
774.347	100.19549
774.529	87.24738
774.71	30.79822
774.891	60.32364
775.073	56.89852
775.254	95.08691
775.436	55.69606
775.617	104.53515
775.799	56.5352
775.98	93.937
776.161	98.35711
776.343	99.06551
776.524	62.92742
776.705	62.30673
776.886	34.50753
777.068	61.8987
777.249	125.53465
777.43	100.47286
777.611	45.14612
777.793	67.64253
777.974	95.948
778.155	57.89378
778.336	52.17746
778.517	106.19835
778.698	49.32103
778.879	32.09892
779.061	12.93702
779.242	76.64565
779.423	75.38095
779.604	56.95925
779.785	63.44067
779.966	72.12363
780.147	87.53629
780.328	86.78729
780.509	121.41326
780.69	84.77495
780.871	57.43874
781.051	39.11807
781.232	73.30931
781.413	66.59133
781.594	57.78104
781.775	57.13685
781.956	52.30452
782.137	29.80561
782.317	53.68339
782.498	72.48155
782.679	75.82452
782.86	73.57439
783.04	46.06545
783.221	73.17073
783.402	108.37248
783.583	69.91915
783.763	87.60057
783.944	62.40423
784.124	38.27831
784.305	104.44373
784.486	77.30522
784.666	67.17998
784.847	36.47869
785.027	130.01796
785.208	49.13848
785.388	56.26605
785.569	55.35508
785.749	55.92086
785.93	55.91157
786.11	40.5826
786.291	72.24275
786.471	72.03397
786.652	82.7932
786.832	66.36173
787.012	74.98817
787.193	45.44589
787.373	68.87095
787.553	59.78726
787.734	75.17413
787.914	62.12282
788.094	79.14696
788.275	73.03341
788.455	58.77209
788.635	40.81475
788.815	68.59715
788.995	48.16696
789.176	38.88373
789.356	52.09042
789.536	60.2578
789.716	76.4123
789.896	52.04595
790.076	56.8485
790.256	73.30779
790.436	26.1748
790.616	52.39778
790.796	73.72463
790.976	59.51857
791.156	53.74712
791.336	78.85712
791.516	72.58474
791.696	62.73956
791.876	37.90747
792.056	67.67463
792.236	88.95821
792.416	86.72853
792.596	75.17674
792.776	71.2538
792.956	80.55657
793.135	103.08726
793.315	47.11467
793.495	91.90458
793.675	84.75286
793.854	81.78545
794.034	84.35093
794.214	45.39753
794.394	81.43797
794.573	88.20927
794.753	68.6686
794.933	52.01147
795.112	73.47808
795.292	83.71384
795.472	101.80194
795.651	42.00486
795.831	67.85786
796.01	58.76079
796.19	59.36487
796.369	64.45209
796.549	77.1663
796.728	61.66601
796.908	43.68463
797.087	45.61075
797.267	61.74762
797.446	43.71683
797.626	80.96974
797.805	74.53386
797.984	53.61517
798.164	80.71655
798.343	47.92935
798.522	72.66969
798.702	67.25807
798.881	43.98509
799.06	60.09665
799.239	31.12168
799.419	48.53295
799.598	101.11769
799.777	76.89689
799.956	87.33814
800.136	61.15943
800.315	47.34295
800.494	76.02124
800.673	85.38528
800.852	82.78298
801.031	90.6855
801.21	79.08041
801.389	60.83413
801.568	73.84286
801.747	104.15655
801.926	67.67619
802.105	101.0169
802.284	60.96626
802.463	98.56685
802.642	78.67564
802.821	75.11559
803	96.16166
803.179	87.57479
803.358	93.5096
803.537	51.85651
803.716	76.76679
803.895	56.80775
804.073	71.89329
804.252	53.39908
804.431	76.62323
804.61	72.58329
804.789	93.56524
804.967	57.15453
805.146	55.41405
805.325	116.24189
805.503	79.35897
805.682	43.63067
805.861	136.00342
806.039	97.09193
806.218	58.87751
806.397	80.12893
806.575	70.3865
806.754	78.89161
806.932	50.97431
807.111	102.71751
807.289	92.99484
807.468	76.13452
807.646	91.33669
807.825	87.72285
808.003	84.95584
808.182	92.22847
808.36	75.9469
808.539	56.45525
808.717	111.57069
808.895	47.71329
809.074	80.68295
809.252	65.14605
809.43	95.8601
809.609	97.89791
809.787	110.29589
809.965	69.50853
810.144	75.32935
810.322	71.85859
810.5	83.35294
810.678	71.21203
810.856	117.16615
811.035	93.96517
811.213	96.41129
811.391	97.21727
811.569	79.18132
811.747	152.5261
811.925	105.40672
812.103	57.46494
812.281	78.25479
812.459	128.01458
812.637	120.68816
812.816	103.79626
812.994	126.69618
813.171	104.90262
813.349	98.76039
813.527	107.52147
813.705	112.06944
813.883	126.41451
814.061	114.86255
814.239	125.51807
814.417	137.54793
814.595	97.90328
814.773	81.8012
814.95	85.62806
815.128	82.84102
815.306	81.3248
815.484	76.66409
815.662	60.44079
815.839	51.39664
816.017	67.05409
816.195	107.74116
816.372	72.59244
816.55	99.79055
816.728	115.24474
816.905	73.14987
817.083	118.12433
817.261	79.92665
817.438	151.63194
817.616	125.6088
817.793	61.10953
817.971	97.92045
818.148	98.49442
818.326	121.63034
818.503	87.33507
818.681	110.37809
818.858	65.64819
819.036	78.08349
819.213	80.59336
819.391	64.96516
819.568	58.87912
819.745	53.35256
819.923	90.90583
820.1	69.28679
820.277	59.63578
820.455	67.38656
820.632	69.81149
820.809	73.23015
820.986	48.97242
821.164	44.24615
821.341	38.87544
821.518	53.16305
821.695	42.36515
821.872	40.23859
822.05	37.54558
822.227	32.7873
822.404	34.44848
822.581	38.90982
822.758	35.49324
822.935	35.79627
823.112	39.28005
823.289	35.7089
823.466	39.71991
823.643	39.26574
823.82	45.9086
823.997	43.3773
824.174	49.0406
824.351	58.44098
824.528	57.61165
824.705	55.88604
824.882	59.21711
825.059	69.44896
825.236	57.45443
825.412	57.93815
825.589	64.60595
825.766	83.3516
825.943	58.93401
826.12	64.38397
826.296	49.55623
826.473	57.77902
826.65	54.34987
826.827	64.697
827.003	48.30944
827.18	50.63441
827.357	55.06817
827.533	49.89374
827.71	35.45329
827.887	46.67622
828.063	50.78222
828.24	46.92219
828.416	56.39137
828.593	52.86446
828.769	67.90648
828.946	71.48962
829.122	72.65213
829.299	75.91395
829.475	44.80117
829.652	72.76441
829.828	101.54258
830.005	74.70428
830.181	95.88112
830.357	73.09862
830.534	91.4004
830.71	84.44994
830.886	92.7315
831.063	89.22635
831.239	112.37985
831.415	57.9907
831.592	115.9025
831.768	71.96356
831.944	64.02263
832.12	122.73919
832.296	109.62863
832.473	96.98711
832.649	62.14865
832.825	85.24953
833.001	57.06987
833.177	77.91317
833.353	70.1676
833.529	44.40091
833.705	61.71331
833.881	47.6347
834.058	45.27012
834.234	48.64752
834.41	50.71641
834.586	42.55376
834.761	48.9408
834.937	52.57496
835.113	54.90655
835.289	51.80974
835.465	58.56635
835.641	55.68563
835.817	59.12237
835.993	98.3241
836.169	58.277
836.344	76.63944
836.52	86.67464
836.696	96.73046
836.872	68.75508
837.048	167.11896
837.223	78.55318
837.399	148.71742
837.575	116.12122
837.75	107.38775
837.926	146.94726
838.102	217.86457
838.277	177.6206
838.453	236.91547
838.628	224.42662
838.804	93.14489
838.98	210.51366
839.155	108.17814
839.331	147.74393
839.506	97.06136
839.682	96.18553
839.857	126.56835
840.033	145.6032
840.208	75.00866
840.384	45.57971
840.559	75.73691
840.734	109.30363
840.91	150.05221
841.085	103.77302
841.26	98.3133
841.436	95.5552
841.611	95.03892
841.786	128.50814
841.962	172.59957
842.137	132.48588
842.312	70.34229
842.487	107.87035
842.663	90.16735
842.838	105.73293
843.013	320.64996
843.188	220.25459
843.363	126.27369
843.538	313.96845
843.714	367.39811
843.889	319.92221
844.064	307.82936
844.239	238.29185
844.414	444.09231
844.589	258.84982
844.764	410.88888
844.939	382.78905
845.114	408.35349
845.289	425.63191
845.464	507.55391
845.639	384.02671
845.814	204.89877
845.989	295.97328
846.163	261.2551
846.338	334.14042
846.513	398.81505
846.688	251.62663
846.863	302.30907
847.038	252.63525
847.212	289.93238
847.387	353.07822
847.562	288.56324
847.737	457.19783
847.911	216.38844
848.086	182.35422
848.261	478.67377
848.435	278.89042
848.61	368.4099
848.785	210.84936
848.959	416.46893
849.134	470.53589
849.308	646.56563
849.483	300.99936
849.658	537.68726
849.832	251.33976
850.007	238.88107
850.181	670.37727
850.356	279.91512
850.53	770.88036
850.705	324.17259
850.879	173.80186
851.053	326.57336
851.228	305.84197
851.402	489.199
851.577	491.88369
851.751	584.48059
851.925	356.30881
852.099	132.67794
852.274	250.65053
852.448	294.83402
852.622	463.34481
852.797	330.43989
852.971	339.74771
853.145	400.18349
853.319	768.60088
853.493	649.48281
853.668	463.7642
853.842	767.68005
854.016	481.42403
854.19	660.57258
854.364	353.80713
854.538	344.15216
854.712	744.18134
854.886	424.71014
855.06	279.96297
855.234	134.36813
855.408	642.34449
855.582	410.52542
855.756	637.33677
855.93	567.60892
856.104	667.07911
856.278	557.60572
856.452	366.9715
856.626	384.33524
856.8	926.02398
856.973	396.09992
857.147	491.66476
857.321	492.98453
857.495	497.39705
857.669	334.8304
857.842	423.02987
858.016	597.31167
858.19	225.19579
858.364	786.70688
858.537	414.64885
858.711	526.70009
858.885	431.11966
859.058	239.35675
859.232	183.82849
859.405	157.13452
859.579	474.23093
859.753	532.68567
859.926	239.61102
860.1	249.20324
860.273	382.89079
860.447	496.33933
860.62	369.8793
860.794	620.66923
860.967	353.46437
861.141	494.09195
861.314	759.29218
861.487	461.46413
861.661	478.29138
861.834	527.05226
862.008	675.64419
862.181	446.34738
862.354	507.44144
862.528	509.39116
862.701	309.21049
862.874	185.82616
863.047	311.37739
863.221	299.55929
863.394	206.36412
863.567	419.20373
863.74	141.19918
863.913	499.75676
864.087	483.48428
864.26	462.91439
864.433	365.00526
864.606	572.50294
864.779	340.71542
864.952	165.68813
865.125	415.37108
865.298	316.41645
865.471	371.91761
865.644	768.026
865.817	494.88682
865.99	514.80555
866.163	461.54677
866.336	250.72082
866.509	349.98421
866.682	575.68997
866.855	683.55978
867.028	215.01929
867.2	376.7506
867.373	107.94282
867.546	350.44803
867.719	681.58613
867.892	415.1284
868.064	289.04955
868.237	325.78565
868.41	377.0364
868.583	228.70595
868.755	220.15313
868.928	421.53559
869.101	791.11867
869.273	550.61989
869.446	505.75769
869.619	581.6238
869.791	367.11167
869.964	501.228
870.136	863.91982
870.309	371.15672
870.481	410.10632
870.654	219.07274
870.826	307.68902
870.999	230.19265
871.171	414.26164
871.344	269.80979
871.516	307.97503
871.689	266.33794
871.861	327.05521
872.033	252.21659
872.206	275.91657
872.378	330.27114
872.55	343.74731
872.723	186.91696
872.895	343.96556
873.067	456.90427
873.24	401.56391
873.412	300.58393
873.584	371.53668
873.756	332.52032
873.928	422.51238
874.101	358.82298
874.273	402.44505
874.445	123.93238
874.617	255.6538
874.789	304.59795
874.961	340.99936
875.133	335.01616
875.305	380.11185
875.477	310.87615
875.649	171.58157
875.821	206.72001
875.993	616.80303
876.165	313.82069
876.337	379.05221
876.509	288.46349
876.681	392.74056
876.853	371.50662
877.025	356.99731
877.197	254.33444
877.369	161.91599
877.541	348.60055
877.712	97.42327
877.884	193.77681
878.056	351.26526
878.228	188.84957
878.4	392.89406
878.571	187.09137
878.743	119.63027
878.915	286.38113
879.086	149.83675
879.258	189.46576
879.43	176.68405
879.601	149.6517
879.773	146.92245
879.945	44.12433
880.116	69.59388
880.288	47.18992
880.459	47.54938
880.631	43.47884
880.802	47.12873
880.974	44.08853
881.145	37.19814
881.317	45.15454
881.488	38.2841
881.66	41.32051
881.831	40.88555
882.002	47.73703
882.174	41.84909
882.345	48.21797
882.517	36.90728
882.688	57.56438
882.859	52.45163
883.03	71.32567
883.202	68.89475
883.373	66.92915
883.544	68.61836
883.715	98.8255
883.887	88.41593
884.058	83.85846
884.229	114.81953
884.4	112.25332
884.571	121.73219
884.742	118.31154
884.914	126.99367
885.085	155.81689
885.256	204.32429
885.427	180.26266
885.598	208.05639
885.769	202.82018
885.94	210.02619
886.111	151.89499
886.282	234.5667
886.453	207.08393
886.624	155.57818
886.795	255.47261
886.966	212.89376
887.136	267.39409
887.307	180.31581
887.478	336.07139
887.649	306.24229
887.82	291.78411
887.991	251.76782
888.161	349.7309
888.332	381.65988
888.503	155.8026
888.674	399.99109
888.844	574.46724
889.015	370.44854
889.186	202.82434
889.356	516.73218
889.527	227.97564
889.698	698.98362
889.868	252.82484
890.039	417.06957
890.209	290.87331
890.38	427.33443
890.551	359.39166
890.721	419.03646
890.892	472.76942
891.062	449.86881
891.233	571.84276
891.403	470.23847
891.574	286.23817
891.744	251.83505
891.914	354.15602
892.085	395.85275
892.255	114.34186
892.425	448.61581
892.596	320.97862
892.766	394.72436
892.936	451.2114
893.107	434.62869
893.277	192.94362
893.447	202.28634
893.618	126.15521
893.788	215.7623
893.958	141.03215
894.128	113.69581
894.298	127.48602
894.468	168.70018
894.639	82.4887
894.809	55.97803
894.979	84.4356
895.149	103.45427
895.319	87.01678
895.489	120.29359
895.659	153.21655
895.829	105.94444
895.999	110.58449
896.169	98.90596
896.339	113.6691
896.509	216.19926
896.679	229.28744
896.849	260.48877
897.019	308.18221
897.189	269.53832
897.358	265.95749
897.528	368.61596
897.698	272.80411
897.868	368.23114
898.038	669.0131
898.208	643.10878
898.377	257.06946
898.547	1017.45855
898.717	1486.22804
898.886	462.67759
899.056	660.51108
899.226	1497.27504
899.395	848.67594
899.565	1287.43335
899.735	900.87915
899.904	934.6646
900.074	982.90252
900.244	333.34104
900.413	1241.85439
900.583	483.33649
900.752	1295.50159
900.922	936.74638
901.091	73.94866
901.261	1717.98309
901.43	565.5746
901.599	2351.80237
901.769	1439.72325
901.938	1106.65193
902.108	1687.14869
902.277	831.9899
902.446	391.46712
902.616	374.66895
902.785	557.40008
902.954	694.89649
903.124	503.45903
903.293	282.99319
903.462	140.97191
903.631	216.86918
903.801	154.09912
903.97	81.97595
904.139	121.39152
904.308	92.33568
904.477	84.77814
904.646	52.27215
904.816	78.89712
904.985	115.05189
905.154	163.58279
