Data from WindowProjectSample3_Transmission__43__00043.txt Node

Date: Sun May 04 11:09:51 EDT 2025
User: jessi
Spectrometer: SR400872
Trigger mode: 0
Integration Time (sec): 5.000050E-1
Scans to average: 20
Electric dark correction enabled: true
Nonlinearity correction enabled: true
Boxcar width: 0
XAxis mode: Wavelengths
Number of Pixels in Spectrum: 3648
>>>>>Begin Spectral Data<<<<<
184.909	-1279.25114
185.132	-1487.64
185.355	-1148.04928
185.578	-1073.444
185.801	1004.78638
186.024	-945.63074
186.247	-5278.52789
186.47	-1912.90305
186.693	-144.51716
186.916	-386.32608
187.139	-778.65549
187.362	-2886.92941
187.585	-678.99946
187.808	-5132.04436
188.031	9349.74086
188.254	-2246.48949
188.476	-8480.94916
188.699	-1007.00205
188.922	630.90528
189.145	-1211.66505
189.368	3365.65093
189.591	-2369.50136
189.813	-1521.72517
190.036	-887.2332
190.259	-1214.71518
190.482	-1614.54657
190.705	-2384.57529
190.927	-714.67595
191.15	-1475.05132
191.373	-1097.29198
191.595	-1302.37472
191.818	-1299.45884
192.041	-641.70565
192.263	-1133.71622
192.486	-516.83608
192.709	-1554.61156
192.931	-3333.02112
193.154	-1162.08354
193.377	-1609.039
193.599	-3177.58778
193.822	-3397.33021
194.044	-3224.03228
194.267	-1753.4447
194.489	-389.93209
194.712	-990.00526
194.934	-1726.80022
195.157	-779.67935
195.379	-1377.96578
195.602	-858.12198
195.824	-1292.00657
196.047	-2129.33575
196.269	-1079.23062
196.492	-1421.18722
196.714	-1251.9606
196.936	-1233.49883
197.159	-908.31544
197.381	-684.78588
197.604	-467.497
197.826	-2088.46121
198.048	-1095.17648
198.271	-1587.83899
198.493	-1104.66521
198.715	-952.69779
198.938	-3177.28416
199.16	-3872.21977
199.382	-1257.09106
199.604	-1145.70113
199.827	-1896.57513
200.049	-1645.89986
200.271	-1191.00512
200.493	-1409.20855
200.715	-994.13154
200.938	-832.42814
201.16	-926.53559
201.382	-978.54689
201.604	-1252.75501
201.826	-683.68494
202.048	-847.49546
202.27	-1380.5904
202.492	-1409.59651
202.715	-1979.00055
202.937	-2060.93191
203.159	-1362.96243
203.381	-1621.4834
203.603	-1030.44505
203.825	-4803.55748
204.047	-1602.98037
204.269	-1374.1074
204.491	-1215.20931
204.713	-1498.88816
204.935	-1403.48339
205.156	-2731.27008
205.378	-2735.75949
205.6	-1513.80526
205.822	-1097.63252
206.044	1327.23821
206.266	-1317.31961
206.488	-810.477
206.71	-1653.06155
206.932	-1779.96771
207.153	-1088.94917
207.375	-1340.6125
207.597	-1076.17446
207.819	-1108.26238
208.041	-1193.04685
208.262	-1652.30785
208.484	-903.16797
208.706	-2097.39218
208.927	-763.72965
209.149	-1278.60061
209.371	-1207.43732
209.593	-1681.09506
209.814	-632.0071
210.036	-1040.89307
210.258	-721.16899
210.479	-1060.18817
210.701	-1773.83067
210.922	-1282.36079
211.144	-948.50343
211.366	-1113.81816
211.587	1434.58178
211.809	-1133.18203
212.03	-6291.4336
212.252	919.02584
212.473	-917.98346
212.695	-18328.86355
212.916	-3508.78121
213.138	-1477.16404
213.359	-941.47782
213.581	-1422.16408
213.802	-864.44556
214.024	-1346.22122
214.245	-11444.1538
214.466	-950.3645
214.688	-1460.47484
214.909	-1045.98698
215.131	-2714.87233
215.352	-3770.18583
215.573	-1096.92138
215.795	-1773.11021
216.016	-1433.14342
216.237	-2877.74102
216.459	-1482.44853
216.68	-1037.01683
216.901	-1450.5101
217.122	10977.66957
217.344	-955.91904
217.565	-1295.949
217.786	-1315.0452
218.007	-965.85507
218.228	-1120.45634
218.45	-1104.58223
218.671	-1060.49152
218.892	-1029.99081
219.113	-1559.28536
219.334	-129.99894
219.555	-1635.19641
219.776	-1536.35885
219.997	-1230.798
220.219	16304.46995
220.44	-1235.10897
220.661	-3475.50784
220.882	-933.90995
221.103	1599.53704
221.324	-2806.15927
221.545	-1118.42742
221.766	-1295.08242
221.987	-1931.24793
222.208	-2121.4201
222.429	-752.87021
222.65	-903.73967
222.87	-1637.68631
223.091	-3374.61065
223.312	2871.2319
223.533	-1164.21443
223.754	-1545.67195
223.975	-2184.44885
224.196	8727.42168
224.417	-7779.00413
224.637	3934.74142
224.858	242.54634
225.079	-1845.47522
225.3	26526.65439
225.521	-1038.5502
225.741	-5005.64272
225.962	7083.88508
226.183	385.12141
226.404	-3682.38628
226.624	2434.11768
226.845	-82427.56378
227.066	-665011.45956
227.286	937.4997
227.507	300.58466
227.728	268.49029
227.948	658.57288
228.169	175.78611
228.389	172.34498
228.61	102.22006
228.831	135.50857
229.051	9.27129
229.272	71.18932
229.492	103.66482
229.713	30.65852
229.933	71.00826
230.154	61.38057
230.374	100.67346
230.595	72.33032
230.815	43.23361
231.036	70.70207
231.256	-9.13867
231.477	130.44953
231.697	75.72261
231.917	80.3217
232.138	116.345
232.358	241.39458
232.579	196.59516
232.799	30.49542
233.019	190.87669
233.24	233.9892
233.46	80.71651
233.68	121.57791
233.901	82.2831
234.121	56.52192
234.341	23.75508
234.561	-5.92232
234.782	45.36497
235.002	135.99498
235.222	-1.35064
235.442	118.92625
235.662	58.84259
235.883	112.16135
236.103	94.84953
236.323	68.23448
236.543	51.11033
236.763	69.46985
236.983	83.85658
237.203	78.84204
237.423	109.03859
237.643	176.1416
237.864	149.81031
238.084	36.63304
238.304	46.87928
238.524	84.4157
238.744	74.34347
238.964	130.13405
239.184	113.6258
239.404	124.21292
239.624	63.25696
239.843	105.23619
240.063	63.79442
240.283	40.97143
240.503	45.28155
240.723	44.32804
240.943	27.4261
241.163	34.80569
241.383	24.97906
241.603	12.71377
241.822	15.71023
242.042	10.57939
242.262	14.08763
242.482	15.47429
242.702	16.43331
242.921	5.2883
243.141	10.95786
243.361	10.31015
243.581	15.17557
243.8	12.42207
244.02	8.0635
244.24	14.53698
244.459	13.84634
244.679	29.31675
244.899	18.42056
245.118	22.56748
245.338	20.45721
245.558	23.25236
245.777	14.36675
245.997	17.02415
246.216	17.83454
246.436	10.25674
246.655	7.55271
246.875	5.73833
247.094	10.10432
247.314	3.63442
247.533	6.01227
247.753	6.98685
247.972	5.41892
248.192	2.29633
248.411	3.35719
248.631	5.61407
248.85	7.06536
249.07	6.96837
249.289	9.89079
249.508	6.97428
249.728	11.78857
249.947	11.35769
250.166	13.64627
250.386	7.29935
250.605	11.58908
250.824	18.53243
251.044	12.29147
251.263	39.64916
251.482	22.84285
251.701	19.38577
251.921	0.09856
252.14	6.15752
252.359	7.41801
252.578	16.47728
252.798	6.14368
253.017	14.26624
253.236	6.89282
253.455	9.59615
253.674	18.241
253.893	7.87489
254.112	13.441
254.331	18.15266
254.551	15.89369
254.77	8.93047
254.989	22.84903
255.208	18.036
255.427	26.90344
255.646	21.71114
255.865	33.3155
256.084	14.45629
256.303	18.91562
256.522	23.4367
256.741	5.59384
256.96	5.90811
257.179	13.74941
257.397	17.94285
257.616	9.45004
257.835	10.38303
258.054	24.84568
258.273	17.54786
258.492	17.75383
258.711	11.25543
258.93	5.34028
259.148	7.83953
259.367	7.28629
259.586	9.31793
259.805	4.19717
260.023	7.76436
260.242	5.69125
260.461	4.39183
260.68	2.28111
260.898	6.46335
261.117	2.34871
261.336	1.64748
261.554	5.56586
261.773	5.56373
261.992	1.5461
262.21	5.23682
262.429	5.92509
262.648	11.28265
262.866	12.71523
263.085	9.55188
263.303	7.85287
263.522	14.09523
263.74	14.14594
263.959	23.92847
264.178	12.63606
264.396	10.57155
264.615	7.94445
264.833	17.3632
265.051	15.3579
265.27	18.1615
265.488	17.48418
265.707	10.63275
265.925	17.19083
266.144	8.39368
266.362	9.55168
266.58	9.75966
266.799	8.08565
267.017	9.58882
267.235	8.68554
267.454	6.02345
267.672	2.97433
267.89	6.99905
268.109	7.44827
268.327	7.39357
268.545	1.55606
268.763	6.76342
268.982	3.05187
269.2	7.9487
269.418	5.12656
269.636	3.97572
269.854	7.26705
270.073	5.3582
270.291	3.23559
270.509	3.15237
270.727	7.20572
270.945	11.82296
271.163	11.3619
271.381	2.8695
271.599	4.82436
271.817	8.08096
272.036	3.01913
272.254	5.68589
272.472	3.92357
272.69	3.93992
272.908	4.36642
273.126	6.53849
273.344	8.46714
273.562	3.187
273.779	4.48681
273.997	6.91973
274.215	6.65816
274.433	4.69965
274.651	7.12178
274.869	7.18201
275.087	4.13783
275.305	6.70593
275.523	4.03206
275.74	4.76645
275.958	8.7952
276.176	12.66474
276.394	4.09378
276.612	5.26521
276.829	5.17988
277.047	4.82355
277.265	4.78168
277.483	5.74832
277.7	6.4888
277.918	5.47151
278.136	10.11213
278.353	5.071
278.571	3.12083
278.789	7.49009
279.006	1.89387
279.224	5.16995
279.442	8.14297
279.659	5.92132
279.877	3.77974
280.094	8.58985
280.312	2.0088
280.529	5.64523
280.747	2.11462
280.964	4.87771
281.182	9.00363
281.399	4.70221
281.617	6.13885
281.834	4.23049
282.052	3.30033
282.269	5.44909
282.487	4.09693
282.704	3.75387
282.921	3.6378
283.139	5.3929
283.356	6.88075
283.574	6.48389
283.791	3.0935
284.008	8.64623
284.226	4.98237
284.443	5.44794
284.66	7.13275
284.877	5.94345
285.095	3.64621
285.312	2.5609
285.529	1.63909
285.746	1.50396
285.964	3.41313
286.181	2.29605
286.398	3.22338
286.615	4.49453
286.832	4.40018
287.05	1.20411
287.267	2.98008
287.484	3.15525
287.701	4.46043
287.918	4.1378
288.135	4.44651
288.352	1.88841
288.569	2.38688
288.786	4.06952
289.003	3.11934
289.22	5.00791
289.437	2.85988
289.654	4.68801
289.871	4.73258
290.088	4.7947
290.305	3.76392
290.522	3.18608
290.739	3.41329
290.956	4.95651
291.173	5.77228
291.39	5.53698
291.607	3.85005
291.824	3.15111
292.04	2.40275
292.257	4.70882
292.474	5.16514
292.691	3.36812
292.908	1.58131
293.125	3.01986
293.341	1.89391
293.558	7.95925
293.775	3.68304
293.992	3.94495
294.208	1.35021
294.425	2.48661
294.642	3.32093
294.858	4.73284
295.075	1.16169
295.292	3.43545
295.508	4.07163
295.725	5.69151
295.942	2.96212
296.158	2.21725
296.375	3.49706
296.591	2.83791
296.808	2.83474
297.024	3.31536
297.241	3.724
297.458	3.92266
297.674	0.56631
297.891	3.08156
298.107	2.64128
298.323	1.87978
298.54	4.4619
298.756	2.53185
298.973	1.18184
299.189	4.70946
299.406	2.35946
299.622	4.89339
299.838	4.91169
300.055	4.51439
300.271	1.42117
300.487	2.07896
300.704	2.4678
300.92	1.69151
301.136	6.66333
301.353	5.10169
301.569	3.59162
301.785	4.00252
302.001	4.6394
302.218	4.30646
302.434	4.43721
302.65	2.15684
302.866	2.88349
303.083	7.14564
303.299	6.90046
303.515	3.87548
303.731	4.25202
303.947	2.01677
304.163	2.86692
304.379	4.03233
304.595	4.30928
304.812	2.94881
305.028	2.63905
305.244	3.42204
305.46	4.91267
305.676	5.13476
305.892	5.8688
306.108	4.78932
306.324	3.62712
306.54	6.68399
306.756	4.74129
306.972	4.53978
307.187	3.7777
307.403	6.36224
307.619	3.23101
307.835	5.71119
308.051	5.88171
308.267	2.7504
308.483	5.56694
308.699	4.95904
308.914	3.95223
309.13	4.21977
309.346	1.72485
309.562	2.57613
309.778	1.88863
309.993	4.7994
310.209	4.14245
310.425	2.41703
310.641	3.76198
310.856	2.62145
311.072	2.4825
311.288	3.96131
311.503	4.17537
311.719	1.75731
311.935	1.60592
312.15	4.70248
312.366	4.29616
312.581	4.77191
312.797	4.02196
313.013	5.16265
313.228	3.28267
313.444	3.96256
313.659	2.92127
313.875	4.77359
314.09	4.18828
314.306	6.47378
314.521	5.29426
314.737	5.40742
314.952	4.73519
315.168	4.51489
315.383	4.91614
315.599	3.9204
315.814	4.14418
316.029	5.68774
316.245	2.78841
316.46	1.94797
316.675	6.35875
316.891	7.41174
317.106	8.89078
317.321	5.27095
317.537	5.24005
317.752	5.74498
317.967	5.76719
318.183	3.46747
318.398	4.10478
318.613	6.2266
318.828	6.67084
319.043	5.95409
319.259	4.26668
319.474	4.95914
319.689	6.43397
319.904	2.02652
320.119	6.02057
320.334	4.9666
320.549	4.25347
320.765	6.57914
320.98	5.24241
321.195	5.88773
321.41	4.87251
321.625	6.09139
321.84	7.44617
322.055	7.39192
322.27	3.93782
322.485	3.04507
322.7	5.1932
322.915	6.41248
323.13	3.75563
323.345	7.2334
323.56	6.19312
323.775	5.93138
323.989	5.79424
324.204	5.1877
324.419	6.08555
324.634	2.97742
324.849	4.83321
325.064	7.83616
325.279	6.34869
325.493	5.75226
325.708	6.28661
325.923	3.82291
326.138	4.21535
326.352	7.37876
326.567	6.25671
326.782	4.34367
326.997	4.18233
327.211	6.05442
327.426	5.66645
327.641	4.57
327.855	2.80401
328.07	5.94882
328.285	7.82354
328.499	4.77919
328.714	5.64815
328.928	6.05132
329.143	5.16549
329.358	7.08997
329.572	6.57648
329.787	7.53906
330.001	9.35948
330.216	3.17006
330.43	8.00074
330.645	7.72853
330.859	6.7978
331.074	3.76259
331.288	5.26013
331.503	7.95783
331.717	3.83071
331.931	5.49261
332.146	5.92923
332.36	8.61836
332.575	6.05398
332.789	5.89223
333.003	5.37568
333.218	6.31559
333.432	4.63082
333.646	6.73152
333.86	8.0309
334.075	8.31251
334.289	4.88627
334.503	3.8851
334.717	6.49078
334.932	6.22967
335.146	6.89808
335.36	4.56498
335.574	6.31158
335.788	6.1064
336.003	6.94577
336.217	6.9773
336.431	6.1324
336.645	5.15665
336.859	4.09469
337.073	5.759
337.287	5.99249
337.501	4.35495
337.715	6.62198
337.929	6.92101
338.143	4.21668
338.357	5.51524
338.571	4.99509
338.785	6.80013
338.999	5.06596
339.213	5.06907
339.427	3.92477
339.641	7.66943
339.855	5.17825
340.069	4.78662
340.283	7.08943
340.497	8.05347
340.711	6.77774
340.924	5.91284
341.138	4.5531
341.352	3.94909
341.566	6.18487
341.78	3.73818
341.993	5.11385
342.207	4.79223
342.421	6.55711
342.635	5.72258
342.848	5.32638
343.062	2.63641
343.276	4.99759
343.49	8.94323
343.703	5.02889
343.917	7.34809
344.131	7.47647
344.344	5.253
344.558	5.27356
344.771	4.41102
344.985	7.58822
345.199	8.60147
345.412	6.65187
345.626	6.64725
345.839	3.73702
346.053	4.67336
346.266	4.69002
346.48	7.03325
346.693	6.62413
346.907	6.63199
347.12	4.76831
347.334	6.41401
347.547	6.76315
347.76	6.01195
347.974	7.80367
348.187	6.61708
348.401	5.90453
348.614	5.16393
348.827	5.83869
349.041	6.88365
349.254	3.85549
349.467	6.00948
349.681	5.05463
349.894	5.22669
350.107	7.97418
350.32	9.09148
350.534	4.34011
350.747	5.8541
350.96	5.09621
351.173	5.18627
351.386	5.59033
351.6	5.50368
351.813	5.65431
352.026	6.04706
352.239	4.83128
352.452	5.75616
352.665	8.03112
352.878	6.00877
353.092	9.30308
353.305	7.3367
353.518	6.43693
353.731	5.11441
353.944	7.65704
354.157	5.77455
354.37	5.56517
354.583	5.03686
354.796	4.61386
355.009	8.07716
355.222	6.67355
355.435	6.61659
355.647	8.03541
355.86	5.44415
356.073	6.47143
356.286	5.88056
356.499	7.74595
356.712	7.45522
356.925	7.12725
357.138	7.88364
357.35	5.34584
357.563	5.99203
357.776	6.81748
357.989	6.80854
358.201	7.29116
358.414	7.20138
358.627	8.13171
358.84	6.36415
359.052	5.16178
359.265	5.49296
359.478	7.91903
359.69	3.53322
359.903	8.01268
360.116	8.05405
360.328	4.84183
360.541	7.74767
360.753	6.0358
360.966	6.50446
361.179	6.69093
361.391	6.33292
361.604	5.8999
361.816	6.37627
362.029	6.35447
362.241	5.95158
362.454	6.52137
362.666	5.88721
362.879	7.47631
363.091	6.52555
363.304	6.11889
363.516	6.52925
363.728	5.366
363.941	7.5009
364.153	6.8218
364.366	4.41866
364.578	5.51195
364.79	7.46104
365.003	7.12618
365.215	6.28394
365.427	7.56857
365.639	8.34971
365.852	7.23865
366.064	9.01081
366.276	6.56717
366.488	7.50814
366.701	6.68893
366.913	6.72976
367.125	7.10753
367.337	6.16603
367.549	6.3625
367.762	7.03542
367.974	7.00165
368.186	6.65993
368.398	8.42001
368.61	7.73916
368.822	8.00599
369.034	7.08822
369.246	8.07364
369.458	10.38691
369.67	6.30418
369.882	9.44986
370.094	4.84178
370.306	9.01033
370.518	6.99742
370.73	7.0813
370.942	6.73473
371.154	7.2732
371.366	7.0409
371.578	8.19663
371.79	7.10706
372.002	8.83327
372.214	10.09255
372.425	7.60877
372.637	9.49083
372.849	8.18802
373.061	5.08632
373.273	8.35879
373.484	8.23027
373.696	8.77599
373.908	4.98252
374.12	9.11319
374.331	8.4175
374.543	6.79502
374.755	6.51739
374.967	7.7715
375.178	9.31353
375.39	7.40483
375.602	7.97968
375.813	6.28179
376.025	6.70132
376.236	8.05716
376.448	8.40339
376.66	7.96486
376.871	7.95898
377.083	9.08204
377.294	10.08527
377.506	7.90079
377.717	10.05076
377.929	8.53675
378.14	7.80351
378.352	8.83272
378.563	9.2528
378.775	9.99553
378.986	7.46292
379.197	8.68469
379.409	7.71207
379.62	9.36998
379.832	8.74742
380.043	8.40776
380.254	8.98465
380.466	7.12208
380.677	12.03714
380.888	11.24268
381.1	11.95679
381.311	11.9763
381.522	9.12487
381.733	12.31996
381.945	8.80847
382.156	8.74342
382.367	8.2611
382.578	12.38383
382.789	12.42222
383.001	8.1311
383.212	11.53099
383.423	11.32074
383.634	10.73746
383.845	10.19853
384.056	8.98583
384.267	9.33582
384.478	9.44385
384.69	8.32007
384.901	10.29889
385.112	9.90329
385.323	11.78378
385.534	10.06415
385.745	10.02306
385.956	10.16467
386.167	8.677
386.378	10.51678
386.588	8.76706
386.799	8.89498
387.01	8.16355
387.221	10.89091
387.432	10.06352
387.643	12.12598
387.854	9.64899
388.065	9.65427
388.275	9.80761
388.486	9.46536
388.697	10.25053
388.908	9.74426
389.119	11.52255
389.329	12.21397
389.54	10.5439
389.751	10.86581
389.962	11.81376
390.172	10.63618
390.383	10.24655
390.594	9.73555
390.804	10.13584
391.015	10.32055
391.226	11.06413
391.436	11.68916
391.647	11.29969
391.858	11.56756
392.068	9.16603
392.279	9.91314
392.489	11.49175
392.7	12.06844
392.91	10.17294
393.121	10.19544
393.331	11.5473
393.542	12.65738
393.752	11.64824
393.963	11.80635
394.173	11.79878
394.384	12.33495
394.594	11.60229
394.804	10.17325
395.015	11.68257
395.225	12.37195
395.436	10.31856
395.646	11.91694
395.856	11.07642
396.067	9.81565
396.277	12.69631
396.487	12.12689
396.697	11.95245
396.908	12.6376
397.118	12.42211
397.328	11.92724
397.538	12.89067
397.749	11.1826
397.959	13.17153
398.169	12.53717
398.379	10.56676
398.589	12.71399
398.8	12.35588
399.01	12.55793
399.22	11.76881
399.43	14.66534
399.64	12.10363
399.85	12.68908
400.06	12.60695
400.27	11.51067
400.48	12.09442
400.69	13.61939
400.9	11.75471
401.11	11.31419
401.32	13.34877
401.53	11.71729
401.74	14.2083
401.95	13.02847
402.16	11.98748
402.37	13.32708
402.58	12.24686
402.79	13.37044
403	13.93326
403.209	12.28727
403.419	14.14429
403.629	12.51374
403.839	14.10898
404.049	14.18864
404.258	12.68205
404.468	12.19633
404.678	14.03898
404.888	14.33862
405.097	12.71969
405.307	13.20103
405.517	13.90987
405.727	13.78212
405.936	12.98255
406.146	13.56738
406.356	14.79747
406.565	13.33148
406.775	12.94618
406.984	12.95047
407.194	15.42252
407.404	13.35156
407.613	13.828
407.823	14.17564
408.032	14.87462
408.242	14.44471
408.451	12.83002
408.661	13.41215
408.87	15.54508
409.08	12.89428
409.289	14.10588
409.499	14.27436
409.708	13.9424
409.918	11.85356
410.127	14.13739
410.336	15.62736
410.546	14.6794
410.755	13.67985
410.964	13.48976
411.174	12.96489
411.383	14.4917
411.592	14.23546
411.802	12.9573
412.011	14.95931
412.22	13.872
412.429	15.30455
412.639	15.58671
412.848	15.24096
413.057	15.96285
413.266	15.20591
413.475	14.25713
413.685	14.98392
413.894	15.38612
414.103	15.45664
414.312	15.23242
414.521	14.21557
414.73	14.64455
414.939	16.51248
415.148	15.19255
415.357	15.09243
415.566	14.5519
415.776	14.48678
415.985	14.3893
416.194	15.63189
416.403	16.74486
416.611	13.5518
416.82	14.42447
417.029	15.21382
417.238	14.51804
417.447	14.4437
417.656	14.92514
417.865	14.72816
418.074	15.06039
418.283	15.21051
418.492	16.35593
418.7	15.99151
418.909	16.89362
419.118	15.48906
419.327	15.71576
419.536	15.47588
419.744	15.06731
419.953	16.38207
420.162	16.43623
420.371	15.04925
420.579	14.78668
420.788	16.08484
420.997	15.96959
421.205	15.88355
421.414	15.54103
421.623	15.48455
421.831	15.01047
422.04	15.77272
422.249	14.91068
422.457	15.53464
422.666	14.9378
422.874	16.22444
423.083	16.28054
423.291	16.14806
423.5	15.86366
423.708	15.8568
423.917	16.46118
424.125	15.79424
424.334	15.53117
424.542	17.35046
424.751	16.49268
424.959	16.23102
425.167	16.66284
425.376	16.40848
425.584	15.66256
425.793	15.96308
426.001	15.04214
426.209	16.29783
426.418	15.0199
426.626	15.09908
426.834	14.94541
427.042	15.56124
427.251	15.09867
427.459	16.32573
427.667	15.75089
427.875	14.42374
428.084	15.12337
428.292	16.75521
428.5	16.25108
428.708	14.65659
428.916	14.74621
429.124	15.81534
429.333	15.6056
429.541	15.52927
429.749	15.7431
429.957	15.87151
430.165	18.07345
430.373	14.58711
430.581	16.14807
430.789	17.12447
430.997	15.40573
431.205	15.20187
431.413	16.05514
431.621	15.54478
431.829	16.55368
432.037	15.72157
432.245	16.20771
432.453	16.62418
432.661	16.09804
432.869	17.93719
433.076	15.45595
433.284	16.12209
433.492	16.80757
433.7	17.29988
433.908	15.82636
434.116	16.08679
434.323	16.25151
434.531	16.00659
434.739	16.50441
434.947	16.63146
435.154	16.87298
435.362	16.11412
435.57	15.83875
435.778	15.50503
435.985	16.31449
436.193	15.60675
436.401	17.36583
436.608	16.13814
436.816	15.73598
437.023	17.69436
437.231	17.81689
437.439	16.42478
437.646	16.8734
437.854	16.70324
438.061	16.87437
438.269	16.18879
438.476	17.04441
438.684	16.9029
438.891	16.23236
439.099	16.02161
439.306	15.35411
439.514	15.56793
439.721	16.89883
439.929	15.97688
440.136	17.1014
440.343	16.80935
440.551	16.19953
440.758	17.80389
440.965	16.88513
441.173	16.36714
441.38	15.76191
441.587	16.60186
441.795	15.9562
442.002	16.36323
442.209	16.54736
442.416	16.73021
442.624	16.73632
442.831	16.54128
443.038	15.7987
443.245	15.55298
443.452	16.14332
443.66	17.24607
443.867	15.98986
444.074	16.10183
444.281	15.99684
444.488	16.39763
444.695	16.75872
444.902	16.25402
445.109	17.23279
445.316	16.43679
445.523	16.42404
445.73	15.96783
445.937	16.75552
446.144	17.00562
446.351	16.94438
446.558	15.89372
446.765	17.06069
446.972	17.22721
447.179	16.28894
447.386	17.36039
447.593	16.04793
447.8	17.20468
448.007	16.03853
448.214	16.18378
448.42	15.78795
448.627	17.25725
448.834	16.14962
449.041	15.91466
449.248	16.02984
449.454	17.04009
449.661	17.89463
449.868	15.77705
450.075	15.58952
450.281	14.39307
450.488	15.2803
450.695	15.5416
450.901	15.58545
451.108	16.04639
451.315	17.40584
451.521	16.32221
451.728	17.38173
451.935	15.87845
452.141	16.27134
452.348	16.51575
452.554	16.33672
452.761	15.95457
452.967	17.73527
453.174	16.54364
453.38	16.70343
453.587	15.34124
453.793	16.36064
454	16.87003
454.206	18.14293
454.413	17.33523
454.619	16.80137
454.825	15.70587
455.032	16.93927
455.238	17.34078
455.445	15.29062
455.651	16.49204
455.857	14.71783
456.064	16.02494
456.27	16.02093
456.476	16.11297
456.682	15.13427
456.889	16.6053
457.095	16.78234
457.301	18.54495
457.507	16.52729
457.714	16.6372
457.92	16.39111
458.126	15.99694
458.332	16.53658
458.538	16.21271
458.744	16.58743
458.951	16.42163
459.157	18.19192
459.363	16.82079
459.569	16.50429
459.775	17.22274
459.981	15.97939
460.187	16.36362
460.393	16.91647
460.599	17.35717
460.805	16.50397
461.011	16.15221
461.217	17.02183
461.423	17.17139
461.629	15.96814
461.835	16.86685
462.041	16.12364
462.247	17.64303
462.453	16.10722
462.658	15.99906
462.864	17.00846
463.07	16.48443
463.276	16.73958
463.482	16.48782
463.688	17.78205
463.893	16.09332
464.099	16.32664
464.305	18.04027
464.511	16.02525
464.716	16.36907
464.922	17.04307
465.128	15.70337
465.333	18.15256
465.539	16.96022
465.745	16.57515
465.95	16.44711
466.156	19.07564
466.362	17.53815
466.567	16.34629
466.773	16.12403
466.978	17.87399
467.184	15.66685
467.389	14.64111
467.595	16.93681
467.8	15.46126
468.006	17.37634
468.211	17.57701
468.417	15.42202
468.622	16.93517
468.828	17.02705
469.033	16.67882
469.239	19.09312
469.444	15.87707
469.649	17.24351
469.855	16.64778
470.06	16.74788
470.266	15.63008
470.471	17.06109
470.676	16.67483
470.881	14.78585
471.087	17.86787
471.292	18.0129
471.497	15.34262
471.703	16.19686
471.908	15.77755
472.113	16.63111
472.318	17.19511
472.523	15.3917
472.729	16.65274
472.934	16.75581
473.139	15.92894
473.344	16.78792
473.549	17.37862
473.754	15.41472
473.959	18.18732
474.164	15.41821
474.369	16.0714
474.575	17.04754
474.78	16.28393
474.985	15.67862
475.19	14.63063
475.395	15.56593
475.6	16.08848
475.804	17.61091
476.009	16.31846
476.214	16.33777
476.419	15.89254
476.624	14.61652
476.829	15.57929
477.034	16.78157
477.239	15.41186
477.444	16.37623
477.648	16.6807
477.853	16.68774
478.058	15.75966
478.263	15.48061
478.468	15.11774
478.672	15.11773
478.877	17.17783
479.082	17.71637
479.287	16.36856
479.491	16.02309
479.696	15.12021
479.901	16.78181
480.105	16.61226
480.31	15.4673
480.515	15.94598
480.719	18.17374
480.924	15.52808
481.128	15.06843
481.333	16.13976
481.538	16.24001
481.742	15.70992
481.947	16.32221
482.151	16.36554
482.356	15.96033
482.56	17.44851
482.765	19.62233
482.969	23.3563
483.174	26.44767
483.378	30.16175
483.582	31.07745
483.787	32.93034
483.991	33.29838
484.196	33.18655
484.4	32.2057
484.604	31.73969
484.809	28.6096
485.013	26.6072
485.217	23.71829
485.422	21.09775
485.626	19.08155
485.83	18.14702
486.034	17.9271
486.239	18.50051
486.443	19.09376
486.647	19.86892
486.851	21.29434
487.055	22.94384
487.26	22.92542
487.464	24.00305
487.668	23.46722
487.872	23.73946
488.076	23.84846
488.28	22.50875
488.484	20.93985
488.688	20.02743
488.892	18.91195
489.096	17.44553
489.3	15.92394
489.504	15.06736
489.708	15.44049
489.912	15.49871
490.116	15.49896
490.32	14.87347
490.524	15.61277
490.728	16.25118
490.932	17.22226
491.136	18.31819
491.34	19.53537
491.544	19.88666
491.748	19.67409
491.951	19.48231
492.155	18.70853
492.359	17.9784
492.563	16.04346
492.767	14.95654
492.97	14.27643
493.174	14.02016
493.378	14.32181
493.582	14.00344
493.785	14.55627
493.989	14.95163
494.193	14.76308
494.396	14.60246
494.6	15.32576
494.804	14.72037
495.007	14.30064
495.211	14.43971
495.414	14.44507
495.618	14.93424
495.822	15.8036
496.025	14.91294
496.229	15.51971
496.432	14.17589
496.636	14.64399
496.839	14.5013
497.043	15.79604
497.246	14.67246
497.45	14.0788
497.653	14.33183
497.856	14.63469
498.06	13.64669
498.263	14.09287
498.467	13.97925
498.67	15.17968
498.873	14.82147
499.077	13.88646
499.28	14.00425
499.483	14.63845
499.686	14.91776
499.89	14.52327
500.093	14.72704
500.296	13.48913
500.499	15.47382
500.703	14.09831
500.906	14.36051
501.109	15.79094
501.312	14.30475
501.515	14.02993
501.719	14.3961
501.922	15.27477
502.125	14.27273
502.328	13.92148
502.531	13.03705
502.734	14.03958
502.937	12.3891
503.14	14.12876
503.343	13.12808
503.546	13.55831
503.749	13.40631
503.952	14.38133
504.155	13.07963
504.358	14.39381
504.561	13.93994
504.764	12.57369
504.967	13.92699
505.17	13.77034
505.373	15.13343
505.576	13.65962
505.778	14.31792
505.981	13.00779
506.184	14.74742
506.387	12.28443
506.59	15.22825
506.793	14.74095
506.995	14.17575
507.198	11.95761
507.401	13.88018
507.604	14.15645
507.806	12.81582
508.009	13.05823
508.212	14.20391
508.414	13.17409
508.617	12.97399
508.82	13.50645
509.022	14.65088
509.225	13.79355
509.427	12.26297
509.63	14.63389
509.833	13.37144
510.035	13.04754
510.238	12.1359
510.44	14.32236
510.643	11.73091
510.845	15.32567
511.048	13.64054
511.25	12.96265
511.453	13.33857
511.655	13.64985
511.858	13.00684
512.06	14.15111
512.262	13.26922
512.465	14.10564
512.667	12.7974
512.869	12.18414
513.072	13.49557
513.274	13.84661
513.476	13.575
513.679	13.88157
513.881	12.09516
514.083	14.48488
514.286	12.48798
514.488	12.5259
514.69	12.21665
514.892	11.76555
515.094	13.51494
515.297	12.40806
515.499	13.0761
515.701	12.28529
515.903	14.5564
516.105	14.46936
516.307	13.74219
516.509	11.45369
516.711	11.90423
516.913	13.06703
517.116	13.14796
517.318	12.67005
517.52	14.1062
517.722	13.68448
517.924	12.11432
518.126	13.43475
518.328	12.38909
518.529	13.28467
518.731	14.36028
518.933	12.46976
519.135	12.66846
519.337	13.68709
519.539	13.19907
519.741	11.33938
519.943	12.62205
520.145	12.22115
520.346	13.02594
520.548	12.43927
520.75	12.97098
520.952	12.3983
521.153	12.87134
521.355	13.02782
521.557	11.67513
521.759	12.72119
521.96	12.61982
522.162	11.66364
522.364	13.57869
522.565	11.92069
522.767	13.30741
522.969	13.82091
523.17	13.04312
523.372	13.09317
523.573	12.166
523.775	12.70758
523.977	11.88522
524.178	14.18373
524.38	12.31361
524.581	13.47707
524.783	12.67193
524.984	13.4141
525.186	12.92326
525.387	13.28393
525.589	12.87275
525.79	12.34527
525.991	12.06713
526.193	12.88344
526.394	11.54484
526.596	12.75893
526.797	12.60314
526.998	12.29229
527.2	11.71043
527.401	13.21004
527.602	13.93996
527.803	16.56176
528.005	17.51513
528.206	18.86393
528.407	19.73515
528.608	19.60057
528.81	19.76784
529.011	18.82459
529.212	19.51925
529.413	17.95138
529.614	16.55748
529.815	15.59071
530.017	14.04738
530.218	12.41777
530.419	12.13288
530.62	12.54221
530.821	12.72611
531.022	11.72244
531.223	13.06507
531.424	13.09505
531.625	13.02488
531.826	12.83236
532.027	12.95774
532.228	13.88615
532.429	13.07803
532.63	12.82198
532.831	13.36562
533.032	13.47887
533.233	14.09109
533.433	13.68941
533.634	13.91639
533.835	12.91043
534.036	12.31274
534.237	12.35378
534.438	12.36569
534.638	11.78454
534.839	12.10625
535.04	12.94534
535.241	12.32857
535.441	14.16614
535.642	13.23099
535.843	12.25492
536.043	12.19528
536.244	12.43012
536.445	12.42941
536.645	13.52796
536.846	12.90778
537.047	13.57944
537.247	12.17518
537.448	12.46355
537.648	12.73378
537.849	12.67208
538.049	12.4922
538.25	13.2355
538.451	13.16584
538.651	11.96064
538.851	13.22857
539.052	14.11989
539.252	13.8862
539.453	13.02819
539.653	13.37251
539.854	13.30771
540.054	13.27515
540.254	14.20469
540.455	14.12651
540.655	13.19356
540.855	14.24415
541.056	15.26827
541.256	14.99894
541.456	15.9891
541.657	15.1997
541.857	15.80294
542.057	14.10939
542.257	13.45065
542.458	13.77058
542.658	13.73933
542.858	12.61769
543.058	14.0523
543.258	13.66003
543.458	12.56668
543.659	12.34057
543.859	13.85997
544.059	13.98778
544.259	13.19386
544.459	14.07594
544.659	13.06027
544.859	14.00865
545.059	13.17631
545.259	14.28944
545.459	13.85275
545.659	14.64281
545.859	13.95264
546.059	14.23716
546.259	13.09863
546.459	12.66452
546.659	13.04556
546.859	14.48204
547.059	14.2019
547.258	14.3915
547.458	14.16965
547.658	12.78682
547.858	12.70338
548.058	14.029
548.258	13.45933
548.457	12.99068
548.657	16.2285
548.857	13.64543
549.057	14.61675
549.256	14.61406
549.456	13.69001
549.656	12.22458
549.855	15.86328
550.055	13.96964
550.255	16.42132
550.454	14.77159
550.654	15.51446
550.853	16.03115
551.053	15.60519
551.253	15.0846
551.452	15.05469
551.652	13.70455
551.851	13.19461
552.051	14.58839
552.25	14.44204
552.45	14.26371
552.649	14.71184
552.849	13.93189
553.048	14.7805
553.248	15.57353
553.447	13.92096
553.646	15.76586
553.846	16.33361
554.045	15.77029
554.244	13.47582
554.444	17.08367
554.643	14.21904
554.842	16.74486
555.042	17.63123
555.241	14.42388
555.44	14.01648
555.64	15.79919
555.839	17.67387
556.038	16.20526
556.237	14.71148
556.436	15.41925
556.636	16.01264
556.835	14.49102
557.034	17.52109
557.233	15.54284
557.432	14.01436
557.631	16.99616
557.83	15.52095
558.029	15.04205
558.228	15.28295
558.427	14.43975
558.626	16.24488
558.825	14.85949
559.024	15.80934
559.223	18.07765
559.422	15.7334
559.621	16.41965
559.82	13.12922
560.019	16.21671
560.218	15.88355
560.417	13.31624
560.616	15.96278
560.815	20.4405
561.014	14.65535
561.212	17.96421
561.411	16.84851
561.61	14.56743
561.809	16.37485
562.008	18.33824
562.206	16.38577
562.405	17.22874
562.604	16.29982
562.803	16.9411
563.001	16.07391
563.2	15.13152
563.399	17.26597
563.597	15.40778
563.796	16.8335
563.995	15.67458
564.193	17.93052
564.392	16.6908
564.59	19.95253
564.789	15.06483
564.988	16.78938
565.186	17.6778
565.385	17.51343
565.583	17.35188
565.782	17.66304
565.98	17.16657
566.179	17.30669
566.377	16.34302
566.575	16.63242
566.774	19.1166
566.972	18.37623
567.171	20.13199
567.369	18.80527
567.567	17.74369
567.766	18.13371
567.964	15.11534
568.162	18.21178
568.361	19.04343
568.559	17.90351
568.757	18.89784
568.956	18.09442
569.154	18.10429
569.352	19.05453
569.55	18.01085
569.748	18.34384
569.947	17.30079
570.145	17.38681
570.343	17.06657
570.541	19.70107
570.739	17.26939
570.937	18.95148
571.135	19.32655
571.333	20.90643
571.532	20.67687
571.73	19.25788
571.928	20.25568
572.126	19.29357
572.324	18.36597
572.522	20.40594
572.72	22.11633
572.918	18.82711
573.116	19.09976
573.313	18.7718
573.511	18.82035
573.709	18.48458
573.907	20.04833
574.105	18.59984
574.303	17.42745
574.501	17.579
574.699	19.76463
574.896	19.83575
575.094	20.12499
575.292	17.86158
575.49	20.454
575.688	19.13288
575.885	20.94637
576.083	21.72614
576.281	20.17538
576.478	18.82717
576.676	20.16239
576.874	18.06565
577.071	19.42048
577.269	22.90596
577.467	19.8325
577.664	19.44124
577.862	20.93261
578.059	18.73617
578.257	21.12062
578.455	19.57652
578.652	19.79687
578.85	17.52926
579.047	20.08795
579.245	19.75626
579.442	19.87994
579.64	20.18185
579.837	17.72694
580.034	24.02039
580.232	19.63481
580.429	18.7203
580.627	21.07891
580.824	22.68457
581.021	21.2522
581.219	19.70739
581.416	19.22343
581.613	22.9747
581.811	22.47264
582.008	19.63907
582.205	21.97445
582.402	20.97619
582.6	23.74837
582.797	21.21651
582.994	21.46617
583.191	22.0978
583.388	20.64247
583.586	22.64858
583.783	22.35339
583.98	19.59612
584.177	21.39953
584.374	17.11902
584.571	20.97967
584.768	20.61576
584.965	20.51056
585.162	22.16752
585.359	24.0674
585.556	21.14774
585.753	21.86973
585.95	19.33407
586.147	20.27779
586.344	22.36148
586.541	20.76263
586.738	19.53369
586.935	21.15549
587.132	20.39547
587.329	23.27533
587.526	21.5798
587.722	29.09906
587.919	19.59299
588.116	22.64066
588.313	23.93256
588.51	25.46161
588.706	21.53019
588.903	22.60592
589.1	23.57177
589.297	26.29471
589.493	22.02888
589.69	22.90344
589.887	21.06485
590.083	20.45292
590.28	21.16907
590.477	23.61301
590.673	23.452
590.87	24.23878
591.067	21.66098
591.263	22.79781
591.46	22.74809
591.656	21.93792
591.853	24.52284
592.049	20.852
592.246	21.59771
592.442	23.96562
592.639	24.45651
592.835	20.87004
593.032	23.02334
593.228	20.6403
593.425	20.66685
593.621	20.29814
593.817	23.06969
594.014	21.1647
594.21	23.06273
594.406	24.41213
594.603	23.76517
594.799	21.92911
594.995	19.51949
595.192	24.65121
595.388	22.23166
595.584	22.58427
595.78	20.90866
595.977	26.17624
596.173	26.03788
596.369	23.11681
596.565	22.02161
596.761	21.35628
596.957	25.15877
597.154	21.95363
597.35	22.35697
597.546	21.59357
597.742	23.66976
597.938	23.02588
598.134	21.20184
598.33	22.68354
598.526	24.92171
598.722	23.33541
598.918	25.59444
599.114	23.86587
599.31	21.57413
599.506	23.18399
599.702	21.8531
599.898	23.15046
600.094	24.65103
600.29	24.50395
600.485	24.8158
600.681	22.23614
600.877	26.58714
601.073	23.74789
601.269	26.44965
601.465	25.93842
601.66	22.30016
601.856	20.4943
602.052	26.46814
602.248	23.42283
602.443	20.9724
602.639	22.26932
602.835	22.47297
603.03	22.52914
603.226	25.5045
603.422	22.73005
603.617	23.45846
603.813	23.39985
604.009	23.06366
604.204	25.30963
604.4	21.3509
604.595	25.01189
604.791	21.99534
604.986	24.27475
605.182	22.48057
605.377	22.89945
605.573	22.2734
605.768	23.11916
605.964	24.02121
606.159	24.18567
606.355	25.50368
606.55	22.73476
606.746	25.30674
606.941	23.29483
607.136	27.43914
607.332	28.91357
607.527	21.9843
607.722	24.47125
607.918	24.46143
608.113	23.20794
608.308	25.83388
608.503	25.6187
608.699	25.21929
608.894	25.45378
609.089	23.32354
609.284	24.82962
609.479	23.65445
609.675	25.43908
609.87	23.71745
610.065	25.37974
610.26	25.6057
610.455	25.41232
610.65	23.39874
610.845	24.06642
611.04	25.8505
611.235	24.01753
611.43	23.54637
611.625	21.81145
611.82	26.88129
612.015	22.62049
612.21	26.78558
612.405	21.33065
612.6	27.51762
612.795	26.3837
612.99	25.654
613.185	22.45027
613.38	22.88358
613.575	24.60194
613.77	29.86925
613.965	21.86201
614.159	22.96347
614.354	27.21009
614.549	26.60049
614.744	25.9875
614.938	22.57858
615.133	21.81388
615.328	27.18622
615.523	26.9933
615.717	30.9246
615.912	23.46579
616.107	25.36188
616.301	23.85203
616.496	23.73943
616.691	28.21171
616.885	26.37847
617.08	30.81034
617.274	27.22544
617.469	29.60327
617.664	26.43729
617.858	23.8987
618.053	25.92264
618.247	24.24608
618.442	20.86169
618.636	27.56628
618.831	23.70153
619.025	23.80089
619.219	30.25213
619.414	18.52707
619.608	25.0028
619.803	23.86231
619.997	29.69347
620.191	27.60236
620.386	26.01321
620.58	25.55479
620.774	21.71139
620.969	22.31722
621.163	25.90049
621.357	22.6512
621.551	24.07162
621.746	25.54577
621.94	24.66159
622.134	33.12546
622.328	29.58052
622.522	22.02723
622.716	27.47373
622.911	28.05477
623.105	27.55184
623.299	26.52192
623.493	32.68617
623.687	23.97262
623.881	24.20009
624.075	26.83766
624.269	28.35963
624.463	21.73975
624.657	22.5996
624.851	26.862
625.045	27.23664
625.239	28.42209
625.433	25.47296
625.627	29.34737
625.821	24.83108
626.015	24.65808
626.209	26.49099
626.403	23.28447
626.596	26.85025
626.79	27.54012
626.984	23.23627
627.178	26.89827
627.372	26.85236
627.565	27.32428
627.759	22.23399
627.953	23.43883
628.147	26.56868
628.34	26.88872
628.534	30.47393
628.728	24.95264
628.921	27.81724
629.115	26.74076
629.309	28.23074
629.502	28.24977
629.696	26.52435
629.89	25.7058
630.083	26.81788
630.277	27.27683
630.47	30.25999
630.664	25.24913
630.857	22.55301
631.051	27.16924
631.244	29.04098
631.438	28.29323
631.631	24.85491
631.825	29.2283
632.018	27.95096
632.212	30.85456
632.405	29.39493
632.598	24.63915
632.792	27.25842
632.985	21.15699
633.178	26.30917
633.372	26.49248
633.565	26.50262
633.758	29.93917
633.952	24.68669
634.145	24.3727
634.338	25.84923
634.531	25.42249
634.724	25.28014
634.918	26.50259
635.111	25.6283
635.304	25.75392
635.497	31.84016
635.69	26.89338
635.883	29.65531
636.077	23.85909
636.27	27.52544
636.463	26.69827
636.656	27.75262
636.849	25.92179
637.042	27.93906
637.235	30.56114
637.428	28.65808
637.621	27.22649
637.814	29.99114
638.007	30.62537
638.2	31.0212
638.393	32.72255
638.586	23.424
638.778	25.73861
638.971	26.79697
639.164	31.97566
639.357	28.08909
639.55	31.0414
639.743	29.73781
639.935	29.57473
640.128	32.23199
640.321	29.53694
640.514	27.9343
640.707	34.33353
640.899	28.82233
641.092	23.30538
641.285	48.22525
641.477	21.49573
641.67	34.78316
641.863	31.48698
642.055	28.70167
642.248	27.26199
642.441	26.72504
642.633	29.12025
642.826	32.38309
643.018	31.84668
643.211	33.71596
643.403	31.97052
643.596	34.93868
643.788	33.56678
643.981	27.21185
644.173	30.98946
644.366	27.8542
644.558	23.00978
644.751	30.77706
644.943	23.93776
645.135	33.65892
645.328	33.87762
645.52	30.35903
645.712	31.6163
645.905	38.0252
646.097	25.21379
646.289	28.83391
646.482	35.27815
646.674	26.81954
646.866	32.5178
647.058	30.09172
647.251	25.22574
647.443	26.48851
647.635	28.39146
647.827	24.78035
648.019	26.07486
648.211	28.61027
648.404	28.84049
648.596	33.72992
648.788	29.28013
648.98	29.69766
649.172	29.92111
649.364	30.1499
649.556	23.45201
649.748	38.67105
649.94	25.71378
650.132	30.47264
650.324	25.9787
650.516	26.88824
650.708	33.10911
650.9	24.99514
651.092	27.88437
651.284	24.52376
651.476	26.52597
651.667	31.05234
651.859	33.40559
652.051	29.36752
652.243	29.18448
652.435	27.09662
652.627	30.70949
652.818	30.71963
653.01	24.01402
653.202	25.91147
653.394	27.66081
653.585	31.32115
653.777	44.34661
653.969	34
654.16	33.15612
654.352	26.04062
654.544	29.15917
654.735	32.90575
654.927	30.51919
655.118	35.05935
655.31	32.2811
655.502	33.00163
655.693	28.68729
655.885	32.09026
656.076	35.16079
656.268	30.58405
656.459	34.4376
656.651	34.64242
656.842	28.10075
657.034	27.40007
657.225	32.66743
657.416	35.05639
657.608	34.7469
657.799	29.54901
657.99	34.30158
658.182	28.42628
658.373	28.49098
658.564	32.72615
658.756	30.31102
658.947	29.88551
659.138	27.07941
659.33	28.08595
659.521	27.1191
659.712	29.19022
659.903	28.34258
660.094	27.41143
660.286	24.40934
660.477	35.25684
660.668	31.28391
660.859	29.41568
661.05	24.78183
661.241	31.86148
661.432	31.73441
661.623	28.35577
661.814	27.69089
662.006	24.42725
662.197	31.24697
662.388	33.59915
662.579	31.62375
662.77	40.96324
662.96	39.89526
663.151	33.65221
663.342	24.47158
663.533	32.31547
663.724	30.45488
663.915	37.30716
664.106	30.12969
664.297	37.70978
664.488	33.34425
664.678	28.97496
664.869	34.42317
665.06	35.03755
665.251	32.90798
665.442	33.77225
665.632	27.53528
665.823	38.52105
666.014	20.48636
666.204	34.29663
666.395	37.05214
666.586	42.9025
666.776	35.32004
666.967	39.09047
667.158	32.80887
667.348	37.54135
667.539	27.74524
667.729	35.95463
667.92	29.03344
668.111	36.17637
668.301	34.57585
668.492	31.02447
668.682	32.29669
668.873	31.29647
669.063	27.60457
669.253	32.70645
669.444	35.18621
669.634	31.40754
669.825	39.40049
670.015	37.01483
670.206	29.12197
670.396	39.93217
670.586	31.36516
670.777	34.35076
670.967	23.83618
671.157	31.4651
671.347	29.75545
671.538	38.31383
671.728	33.78491
671.918	40.79296
672.108	38.05565
672.299	32.53776
672.489	34.47636
672.679	29.98093
672.869	34.17068
673.059	40.21777
673.249	34.42709
673.44	29.23341
673.63	32.26792
673.82	36.83928
674.01	29.4762
674.2	34.58334
674.39	45.45808
674.58	35.65055
674.77	33.82917
674.96	32.38158
675.15	51.37029
675.34	38.88993
675.53	33.44551
675.72	31.92714
675.91	27.95046
676.099	41.53134
676.289	42.45768
676.479	37.98873
676.669	31.97871
676.859	36.28453
677.049	29.10894
677.238	33.75837
677.428	42.47138
677.618	35.3009
677.808	38.17181
677.997	36.53004
678.187	29.38628
678.377	33.70829
678.567	32.60298
678.756	31.68345
678.946	32.88104
679.136	28.02454
679.325	30.64541
679.515	30.03683
679.704	28.15032
679.894	35.22736
680.084	34.09954
680.273	37.52738
680.463	30.31622
680.652	30.0247
680.842	32.35629
681.031	36.78403
681.221	29.39522
681.41	36.00899
681.6	32.7052
681.789	36.6185
681.978	38.51274
682.168	33.91909
682.357	34.69489
682.547	36.08244
682.736	33.44181
682.925	38.67998
683.115	38.6963
683.304	37.52261
683.493	36.10036
683.682	37.37121
683.872	35.83802
684.061	40.52263
684.25	38.09017
684.439	43.9149
684.629	38.42956
684.818	51.057
685.007	34.31589
685.196	34.0529
685.385	42.81572
685.574	37.10855
685.763	37.66495
685.952	36.52733
686.142	29.96407
686.331	42.65046
686.52	27.54896
686.709	42.85459
686.898	42.29294
687.087	38.88846
687.276	44.32225
687.465	39.51719
687.654	34.96921
687.842	43.47865
688.031	30.17108
688.22	41.78635
688.409	37.00666
688.598	37.11243
688.787	48.86979
688.976	37.55466
689.165	45.67139
689.353	34.70405
689.542	38.92793
689.731	40.09742
689.92	46.76825
690.108	41.73682
690.297	34.39286
690.486	37.3637
690.675	41.83541
690.863	46.7734
691.052	46.43083
691.241	40.3184
691.429	38.42588
691.618	47.0499
691.806	31.98426
691.995	36.43056
692.184	37.44886
692.372	36.55125
692.561	39.30292
692.749	38.56428
692.938	52.57085
693.126	41.9477
693.315	36.14783
693.503	42.32744
693.692	42.72493
693.88	45.4051
694.068	51.85966
694.257	38.99633
694.445	42.33886
694.634	28.69016
694.822	45.34881
695.01	45.96687
695.199	47.42067
695.387	49.03281
695.575	46.50254
695.763	40.0235
695.952	36.77033
696.14	32.14983
696.328	37.04602
696.516	39.6816
696.705	41.5246
696.893	40.63719
697.081	30.37233
697.269	43.49258
697.457	34.04357
697.645	33.00341
697.833	43.26395
698.021	34.74807
698.21	36.07154
698.398	37.76964
698.586	32.33236
698.774	30.95046
698.962	35.57763
699.15	32.03658
699.338	29.32484
699.526	38.3897
699.714	32.93624
699.901	34.21981
700.089	41.43874
700.277	32.84109
700.465	36.58764
700.653	41.88407
700.841	40.69931
701.029	33.55978
701.217	44.79431
701.404	39.5701
701.592	48.69217
701.78	50.98278
701.968	38.76529
702.155	37.64392
702.343	33.37697
702.531	49.06714
702.718	42.81428
702.906	38.76044
703.094	37.37778
703.281	49.42717
703.469	41.78374
703.657	47.91168
703.844	62.64426
704.032	52.20793
704.219	38.6663
704.407	44.8214
704.595	50.98717
704.782	42.9098
704.97	40.21174
705.157	39.51676
705.345	53.21206
705.532	59.538
705.719	45.71727
705.907	53.86616
706.094	43.76603
706.282	54.90851
706.469	41.5602
706.656	45.20437
706.844	43.28812
707.031	50.23042
707.218	45.41273
707.406	55.0525
707.593	47.96579
707.78	48.93569
707.968	43.97304
708.155	39.43802
708.342	48.31327
708.529	46.48082
708.716	45.27274
708.904	57.20103
709.091	49.1628
709.278	37.11644
709.465	59.69134
709.652	57.9935
709.839	54.49472
710.026	46.63506
710.213	34.1807
710.4	46.8063
710.587	50.0939
710.774	51.74694
710.961	51.35476
711.148	45.44197
711.335	52.05182
711.522	43.68085
711.709	47.41939
711.896	61.34642
712.083	52.79018
712.27	39.29431
712.457	46.91533
712.644	35.20626
712.831	60.81214
713.017	46.9871
713.204	51.80388
713.391	43.43318
713.578	55.1485
713.765	55.29908
713.951	50.13102
714.138	70.28751
714.325	52.06184
714.512	47.39684
714.698	42.28681
714.885	59.13238
715.072	49.18272
715.258	49.21346
715.445	43.18624
715.631	57.13652
715.818	30.476
716.005	42.31751
716.191	51.32663
716.378	44.82323
716.564	54.26269
716.751	40.82592
716.937	44.1297
717.124	56.01699
717.31	43.27656
717.497	59.28643
717.683	43.16327
717.869	68.20025
718.056	45.40625
718.242	52.34078
718.429	48.82487
718.615	40.47862
718.801	49.82714
718.988	56.70738
719.174	53.77324
719.36	49.17612
719.547	61.48312
719.733	53.16042
719.919	55.11492
720.105	57.22225
720.291	50.63943
720.478	52.19841
720.664	50.59386
720.85	48.82314
721.036	77.21616
721.222	64.35294
721.408	51.57077
721.595	71.93775
721.781	68.77056
721.967	62.53422
722.153	69.52146
722.339	59.50318
722.525	57.2573
722.711	44.85603
722.897	41.82195
723.083	49.63537
723.269	63.94886
723.455	75.9562
723.641	80.43599
723.827	55.19885
724.012	58.36286
724.198	50.48994
724.384	66.45175
724.57	59.26492
724.756	42.89139
724.942	38.5484
725.127	62.86246
725.313	68.55509
725.499	69.31104
725.685	72.25815
725.87	59.04604
726.056	45.81117
726.242	69.5405
726.428	42.35535
726.613	63.40168
726.799	52.51613
726.985	45.75062
727.17	40.38911
727.356	68.06808
727.541	45.74993
727.727	52.82361
727.913	61.85899
728.098	49.33862
728.284	61.53094
728.469	43.07644
728.655	46.75679
728.84	61.12366
729.026	62.3386
729.211	62.06952
729.397	58.57347
729.582	60.22517
729.767	54.97947
729.953	57.66564
730.138	64.67338
730.323	35.21361
730.509	45.3171
730.694	71.12624
730.879	58.34346
731.065	55.61933
731.25	76.6093
731.435	62.39237
731.621	40.47195
731.806	49.99421
731.991	57.77205
732.176	43.599
732.361	68.34587
732.547	57.08917
732.732	41.87443
732.917	79.24901
733.102	44.01369
733.287	47.15263
733.472	54.77194
733.657	55.2606
733.842	41.49391
734.027	50.93576
734.212	53.87738
734.397	48.35603
734.582	57.45961
734.767	64.79202
734.952	70.86442
735.137	32.09448
735.322	70.7548
735.507	62.40709
735.692	59.24689
735.877	81.85014
736.062	73.82447
736.247	61.45902
736.431	57.22895
736.616	71.69231
736.801	61.68379
736.986	57.48723
737.171	50.74573
737.355	47.15548
737.54	70.89545
737.725	58.90207
737.909	89.66801
738.094	51.56803
738.279	68.86065
738.463	55.72115
738.648	66.38813
738.833	62.06995
739.017	78.10982
739.202	54.4229
739.386	58.87686
739.571	41.94795
739.756	66.05111
739.94	57.65828
740.125	68.57238
740.309	50.46223
740.494	66.74783
740.678	60.00166
740.863	64.43058
741.047	58.50534
741.231	72.56776
741.416	51.15958
741.6	78.05396
741.785	52.075
741.969	72.41414
742.153	73.27923
742.338	39.88896
742.522	62.17087
742.706	73.09764
742.89	49.08812
743.075	63.08212
743.259	78.74149
743.443	73.15677
743.627	77.86421
743.812	91.16389
743.996	43.82246
744.18	60.75986
744.364	56.58798
744.548	96.89857
744.732	60.9853
744.916	74.70773
745.1	69.17924
745.285	61.29908
745.469	70.74359
745.653	87.73153
745.837	47.98549
746.021	97.27857
746.205	80.97116
746.389	63.6904
746.573	60.49217
746.757	85.43325
746.94	59.50723
747.124	80.20647
747.308	48.57615
747.492	84.34581
747.676	55.71942
747.86	95.25009
748.044	57.43866
748.227	43.34773
748.411	112.87672
748.595	67.20653
748.779	51.54707
748.963	70.19093
749.146	66.18123
749.33	55.72072
749.514	49.8607
749.697	79.26559
749.881	56.61309
750.065	52.32012
750.248	65.48872
750.432	96.54049
750.616	64.3865
750.799	50.46801
750.983	93.68197
751.166	102.97202
751.35	48.36461
751.533	74.36534
751.717	81.08633
751.9	87.63541
752.084	59.74051
752.267	50.48242
752.451	55.56604
752.634	65.96419
752.818	76.1183
753.001	76.22476
753.184	79.50418
753.368	73.08845
753.551	25.98791
753.734	55.12484
753.918	90.38014
754.101	55.76779
754.284	75.60936
754.467	59.27786
754.651	56.57561
754.834	52.46799
755.017	81.04298
755.2	80.22181
755.384	52.2277
755.567	76.63331
755.75	81.28547
755.933	62.06092
756.116	69.09543
756.299	58.4285
756.482	53.10376
756.665	76.31168
756.848	67.02724
757.032	72.34048
757.215	46.02474
757.398	58.24873
757.581	55.20375
757.764	105.65016
757.947	61.55093
758.129	84.64873
758.312	31.01941
758.495	64.93269
758.678	65.14513
758.861	62.5043
759.044	96.16088
759.227	54.76704
759.41	54.70413
759.592	75.58683
759.775	65.72355
759.958	80.10913
760.141	51.36115
760.324	101.58265
760.506	89.5034
760.689	80.99952
760.872	101.98857
761.054	74.25019
761.237	63.99616
761.42	72.90306
761.602	81.94043
761.785	72.12865
761.968	83.04453
762.15	96.22027
762.333	63.30376
762.515	73.98339
762.698	59.41484
762.88	74.98095
763.063	66.8477
763.245	72.55277
763.428	50.8881
763.61	54.2427
763.793	45.31517
763.975	62.64415
764.158	54.42551
764.34	52.74721
764.522	46.94816
764.705	56.95019
764.887	73.62268
765.069	41.58267
765.252	71.71911
765.434	72.715
765.616	64.37907
765.799	58.05541
765.981	76.32822
766.163	56.65785
766.345	80.80778
766.528	59.01082
766.71	34.6593
766.892	70.81558
767.074	85.32924
767.256	63.74321
767.438	97.0235
767.62	71.38593
767.802	103.14889
767.985	80.98833
768.167	104.28978
768.349	64.03753
768.531	80.61987
768.713	77.28365
768.895	85.30331
769.077	78.52896
769.259	113.73431
769.441	164.97948
769.623	89.72645
769.804	101.85131
769.986	102.00894
770.168	117.65471
770.35	138.54798
770.532	103.72826
770.714	112.01186
770.896	119.88223
771.077	57.564
771.259	120.34566
771.441	100.1793
771.623	128.93738
771.804	153.91164
771.986	56.60904
772.168	82.18888
772.35	124.72711
772.531	162.00785
772.713	96.52679
772.894	132.51842
773.076	97.70269
773.258	89.20908
773.439	124.2753
773.621	141.31475
773.802	70.48238
773.984	83.34631
774.166	106.49031
774.347	133.41522
774.529	128.16191
774.71	51.92947
774.891	92.68376
775.073	86.99193
775.254	135.41382
775.436	86.13672
775.617	156.07341
775.799	87.43081
775.98	141.95957
776.161	146.83446
776.343	145.93548
776.524	97.98664
776.705	87.82372
776.886	54.65979
777.068	105.36931
777.249	178.53761
777.43	164.04363
777.611	72.0879
777.793	92.39123
777.974	140.56517
778.155	86.46694
778.336	75.86374
778.517	164.77949
778.698	80.9421
778.879	52.04311
779.061	36.13712
779.242	107.24815
779.423	112.60827
779.604	86.4385
779.785	95.02084
779.966	103.40855
780.147	124.74535
780.328	134.04331
780.509	185.18791
780.69	122.59432
780.871	80.67729
781.051	65.30831
781.232	104.63752
781.413	100.669
781.594	90.94713
781.775	88.45544
781.956	82.80717
782.137	52.94697
782.317	80.94519
782.498	107.96639
782.679	99.82144
782.86	104.90048
783.04	84.73928
783.221	111.17554
783.402	163.42256
783.583	103.11668
783.763	125.7405
783.944	89.80472
784.124	69.62875
784.305	156.19499
784.486	114.12323
784.666	101.07969
784.847	60.42971
785.027	180.05105
785.208	80.54744
785.388	81.93695
785.569	85.1867
785.749	92.61703
785.93	86.06604
786.11	63.58981
786.291	114.34149
786.471	105.99695
786.652	125.13347
786.832	96.20053
787.012	109.00356
787.193	69.11123
787.373	103.36259
787.553	90.73663
787.734	106.04817
787.914	90.83746
788.094	114.91446
788.275	110.49915
788.455	90.3637
788.635	65.67166
788.815	102.28353
788.995	72.00809
789.176	62.05612
789.356	75.44236
789.536	87.26284
789.716	112.62641
789.896	78.13253
790.076	84.63199
790.256	101.58761
790.436	44.81837
790.616	76.84936
790.796	105.18334
790.976	87.70211
791.156	77.50655
791.336	116.45056
791.516	111.61844
791.696	88.87187
791.876	62.95117
792.056	99.60332
792.236	122.41633
792.416	121.90636
792.596	109.05073
792.776	112.64996
792.956	113.3609
793.135	145.64361
793.315	75.67354
793.495	138.35039
793.675	115.26189
793.854	125.29169
794.034	122.99163
794.214	71.14317
794.394	126.68217
794.573	135.82617
794.753	100.4203
794.933	77.10838
795.112	108.36401
795.292	127.8363
795.472	155.16046
795.651	66.94355
795.831	98.72335
796.01	92.71394
796.19	91.15151
796.369	96.59182
796.549	117.06312
796.728	93.11704
796.908	62.23079
797.087	72.86992
797.267	86.76737
797.446	67.42071
797.626	117.72361
797.805	113.02536
797.984	76.38349
798.164	116.21056
798.343	77.11511
798.522	104.85083
798.702	99.95077
798.881	69.11853
799.06	91.75622
799.239	51.58054
799.419	75.4089
799.598	144.87271
799.777	113.65902
799.956	136.03415
800.136	86.5477
800.315	75.0429
800.494	114.25833
800.673	130.13415
800.852	117.18397
801.031	123.81999
801.21	112.38601
801.389	91.38079
801.568	101.4583
801.747	160.57172
801.926	104.96727
802.105	154.56709
802.284	88.17118
802.463	144.55704
802.642	109.96659
802.821	109.88101
803	145.37466
803.179	129.31156
803.358	138.31828
803.537	81.89585
803.716	100.8841
803.895	82.90457
804.073	94.33309
804.252	81.92243
804.431	114.29673
804.61	100.82083
804.789	138.33267
804.967	89.47421
805.146	82.04368
805.325	164.37725
805.503	111.06509
805.682	65.56126
805.861	183.4364
806.039	138.64419
806.218	89.24989
806.397	107.16497
806.575	102.02166
806.754	114.05157
806.932	73.80489
807.111	151.89019
807.289	129.50326
807.468	101.81855
807.646	132.89965
807.825	118.47657
808.003	105.18403
808.182	125.19724
808.36	109.49992
808.539	81.66915
808.717	153.88709
808.895	80.0877
809.074	112.65759
809.252	104.28358
809.43	125.44694
809.609	142.31723
809.787	159.55746
809.965	99.44328
810.144	111.42948
810.322	104.00831
810.5	118.11196
810.678	100.28474
810.856	179.15573
811.035	140.81877
811.213	131.20745
811.391	150.37118
811.569	114.50423
811.747	216.94163
811.925	148.61824
812.103	85.9591
812.281	104.85938
812.459	163.89055
812.637	171.13307
812.816	142.49398
812.994	170.29021
813.171	148.71062
813.349	126.09873
813.527	152.08552
813.705	150.46933
813.883	197.47369
814.061	147.86047
814.239	172.28968
814.417	191.13556
814.595	123.9316
814.773	124.68287
814.95	116.45334
815.128	124.92817
815.306	98.59028
815.484	107.39204
815.662	88.50582
815.839	80.92307
816.017	89.64072
816.195	159.02965
816.372	105.50868
816.55	138.99611
816.728	162.91028
816.905	98.40616
817.083	169.13422
817.261	107.9022
817.438	188.92091
817.616	182.09658
817.793	99.78713
817.971	139.22668
818.148	144.96321
818.326	161.04104
818.503	120.47524
818.681	160.93151
818.858	98.19348
819.036	111.31127
819.213	119.18248
819.391	92.47505
819.568	85.97596
819.745	83.09842
819.923	133.14031
820.1	93.85624
820.277	81.54509
820.455	96.97929
820.632	97.17447
820.809	96.59532
820.986	71.86744
821.164	57.39786
821.341	54.23341
821.518	67.26158
821.695	53.64558
821.872	51.43084
822.05	46.08524
822.227	38.97833
822.404	39.81197
822.581	42.02068
822.758	38.10403
822.935	37.37208
823.112	41.35158
823.289	35.15685
823.466	40.1014
823.643	37.54973
823.82	42.19519
823.997	39.75222
824.174	44.72336
824.351	55.31898
824.528	54.09942
824.705	51.3907
824.882	57.11104
825.059	71.25809
825.236	52.02836
825.412	57.05199
825.589	67.49121
825.766	89.55829
825.943	62.66456
826.12	72.00446
826.296	53.06506
826.473	63.1556
826.65	64.40311
826.827	75.34894
827.003	54.08979
827.18	57.69983
827.357	64.0243
827.533	57.26319
827.71	36.44687
827.887	49.26366
828.063	55.52158
828.24	50.62139
828.416	62.33386
828.593	52.99471
828.769	70.60107
828.946	77.68642
829.122	79.33359
829.299	76.2176
829.475	51.73888
829.652	80.49806
829.828	124.63174
830.005	81.59373
830.181	115.61824
830.357	84.83186
830.534	120.91421
830.71	94.06183
830.886	120.19114
831.063	117.60533
831.239	150.88714
831.415	70.79759
831.592	152.429
831.768	100.90041
831.944	85.51431
832.12	151.68707
832.296	141.02502
832.473	128.01922
832.649	93.98371
832.825	120.93697
833.001	77.00666
833.177	108.16224
833.353	97.64675
833.529	59.63797
833.705	79.18412
833.881	60.96254
834.058	60.97218
834.234	62.65992
834.41	61.43573
834.586	51.79225
834.761	61.04753
834.937	64.97437
835.113	64.00704
835.289	59.62882
835.465	70.88541
835.641	64.10754
835.817	71.81149
835.993	119.78938
836.169	67.33291
836.344	91.53218
836.52	108.12137
836.696	103.86599
836.872	82.91201
837.048	206.58908
837.223	89.66902
837.399	173.86221
837.575	140.8986
837.75	135.05887
837.926	170.87372
838.102	289.5571
838.277	219.54456
838.453	284.90109
838.628	254.70865
838.804	126.97325
838.98	261.61744
839.155	142.47756
839.331	184.65525
839.506	140.4099
839.682	133.81911
839.857	168.13068
840.033	189.58827
840.208	101.59261
840.384	59.43317
840.559	101.85044
840.734	150.18025
840.91	214.16374
841.085	128.11793
841.26	123.34898
841.436	109.05326
841.611	118.10687
841.786	164.05499
841.962	220.26621
842.137	134.8242
842.312	89.65289
842.487	119.19938
842.663	103.52345
842.838	128.65307
843.013	423.53756
843.188	217.31715
843.363	157.7848
843.538	375.65626
843.714	352.61432
843.889	373.73535
844.064	383.5368
844.239	329.13389
844.414	422.63131
844.589	260.56069
844.764	515.96383
844.939	460.00532
845.114	544.93415
845.289	564.38572
845.464	571.25041
845.639	439.0838
845.814	229.89276
845.989	275.62425
846.163	304.1099
846.338	345.88511
846.513	515.59551
846.688	328.90534
846.863	287.79724
847.038	265.13843
847.212	345.63724
847.387	341.44744
847.562	333.47636
847.737	453.05473
847.911	166.02973
848.086	199.08038
848.261	565.9085
848.435	287.22334
848.61	466.69573
848.785	206.57434
848.959	454.06964
849.134	639.092
849.308	766.71397
849.483	361.14685
849.658	558.58485
849.832	269.37574
850.007	241.19415
850.181	1014.74578
850.356	268.4508
850.53	792.01508
850.705	208.55979
850.879	140.69621
851.053	290.08302
851.228	286.44079
851.402	432.27163
851.577	493.56063
851.751	737.75992
851.925	327.3087
852.099	177.08295
852.274	207.11581
852.448	300.58723
852.622	456.95494
852.797	314.57452
852.971	338.31319
853.145	326.97151
853.319	1089.60545
853.493	514.34535
853.668	268.63022
853.842	736.48441
854.016	547.16606
854.19	679.71598
854.364	361.01532
854.538	380.66484
854.712	574.32698
854.886	314.63124
855.06	281.85831
855.234	118.22706
855.408	656.92397
855.582	588.92299
855.756	549.70708
855.93	680.84696
856.104	362.19703
856.278	531.70494
856.452	349.07462
856.626	446.54886
856.8	984.13892
856.973	427.04926
857.147	426.4022
857.321	476.39452
857.495	574.66228
857.669	369.04839
857.842	289.25372
858.016	530.68581
858.19	226.91368
858.364	1336.94108
858.537	309.708
858.711	352.84889
858.885	304.96631
859.058	281.23704
859.232	141.68121
859.405	178.75844
859.579	501.03322
859.753	426.35594
859.926	284.62673
860.1	160.51723
860.273	334.34195
860.447	602.00837
860.62	322.71742
860.794	740.22097
860.967	363.19583
861.141	667.06976
861.314	1069.03117
861.487	482.97183
861.661	649.17511
861.834	706.96679
862.008	501.29102
862.181	378.1586
862.354	382.40761
862.528	418.13804
862.701	330.8464
862.874	202.08595
863.047	299.86433
863.221	313.01822
863.394	154.1458
863.567	586.56703
863.74	125.59624
863.913	494.6011
864.087	479.28367
864.26	598.23421
864.433	307.96001
864.606	951.6415
864.779	327.68061
864.952	171.20493
865.125	269.80951
865.298	334.06644
865.471	334.09744
865.644	822.91072
865.817	561.45334
865.99	540.84474
866.163	747.71098
866.336	313.12915
866.509	293.16396
866.682	294.22555
866.855	633.62307
867.028	190.08449
867.2	451.41876
867.373	128.32087
867.546	366.15942
867.719	847.8703
867.892	464.50222
868.064	295.71137
868.237	397.75033
868.41	411.17542
868.583	202.60848
868.755	229.6154
868.928	306.95122
869.101	947.97301
869.273	545.93058
869.446	440.11593
869.619	654.80775
869.791	344.85512
869.964	547.28955
870.136	520.70704
870.309	453.0571
870.481	355.5397
870.654	191.6019
870.826	443.27732
870.999	270.33569
871.171	434.75779
871.344	266.0859
871.516	331.72819
871.689	228.20887
871.861	449.33278
872.033	250.3171
872.206	294.05972
872.378	486.16524
872.55	301.38547
872.723	202.33774
872.895	328.51346
873.067	538.92434
873.24	541.22078
873.412	288.77176
873.584	319.66436
873.756	302.42427
873.928	350.61146
874.101	387.22845
874.273	435.20251
874.445	142.48345
874.617	182.36386
874.789	347.63015
874.961	304.88542
875.133	416.44232
875.305	338.07526
875.477	221.54919
875.649	173.44866
875.821	200.15772
875.993	616.72462
876.165	210.9509
876.337	361.96355
876.509	309.11922
876.681	350.97565
876.853	396.54797
877.025	395.40887
877.197	230.9786
877.369	213.47595
877.541	473.28863
877.712	135.48562
877.884	211.78364
878.056	398.05346
878.228	215.20718
878.4	417.46002
878.571	221.49017
878.743	149.68788
878.915	337.81329
879.086	215.66003
879.258	243.106
879.43	221.09136
879.601	200.46514
879.773	212.20827
879.945	64.70795
880.116	93.36869
880.288	62.73473
880.459	67.47071
880.631	54.98691
880.802	62.31054
880.974	57.6426
881.145	45.90642
881.317	54.45669
881.488	43.64948
881.66	47.12047
881.831	43.74504
882.002	52.80488
882.174	41.45532
882.345	50.09695
882.517	32.51688
882.688	56.05704
882.859	45.42538
883.03	67.95043
883.202	65.47932
883.373	57.30054
883.544	58.30879
883.715	87.04323
883.887	80.62781
884.058	69.49483
884.229	95.14833
884.4	98.22305
884.571	114.30188
884.742	98.24017
884.914	105.80177
885.085	151.73513
885.256	206.30572
885.427	177.78962
885.598	182.99075
885.769	202.38092
885.94	204.647
886.111	135.09597
886.282	253.84107
886.453	185.2983
886.624	139.07983
886.795	248.3782
886.966	202.09234
887.136	259.4994
887.307	206.65441
887.478	403.6693
887.649	329.2875
887.82	345.55046
887.991	263.52904
888.161	350.56654
888.332	327.13207
888.503	158.35034
888.674	515.43121
888.844	623.94038
889.015	403.59332
889.186	184.92386
889.356	565.22022
889.527	174.0368
889.698	1113.35056
889.868	291.18809
890.039	367.41122
890.209	318.28379
890.38	422.49327
890.551	339.66585
890.721	476.07706
890.892	471.46927
891.062	293.43468
891.233	335.16263
891.403	320.25045
891.574	227.37116
891.744	310.05809
891.914	370.70369
892.085	330.07708
892.255	121.51835
892.425	612.10258
892.596	419.21297
892.766	428.89367
892.936	490.38098
893.107	414.6521
893.277	220.98477
893.447	172.39939
893.618	131.55288
893.788	278.24254
893.958	148.93701
894.128	153.42324
894.298	174.85197
894.468	212.46876
894.639	110.01339
894.809	77.24374
894.979	117.34569
895.149	132.89228
895.319	104.79568
895.489	141.77235
895.659	178.76028
895.829	116.35407
895.999	119.01113
896.169	94.19658
896.339	119.33164
896.509	239.1849
896.679	252.14669
896.849	261.34791
897.019	385.78942
897.189	300.06062
897.358	263.31095
897.528	388.87966
897.698	147.8641
897.868	341.74503
898.038	942.17942
898.208	762.60478
898.377	167.28377
898.547	838.11511
898.717	1047.06988
898.886	434.52431
899.056	623.85489
899.226	1504.9635
899.395	493.53447
899.565	875.19865
899.735	470.80995
899.904	1104.70503
900.074	1019.07596
900.244	297.85221
900.413	1238.65122
900.583	276.35837
900.752	440.65902
900.922	2175.24304
901.091	86.3182
901.261	686.81842
901.43	688.03319
901.599	612.52792
901.769	7179.28965
901.938	766.18028
902.108	825.12043
902.277	1624.1658
902.446	248.73533
902.616	257.47977
902.785	358.08433
902.954	706.25801
903.124	506.90558
903.293	334.60517
903.462	190.35196
903.631	267.35968
903.801	202.89547
903.97	109.13817
904.139	170.04342
904.308	127.75135
904.477	105.4087
904.646	66.81592
904.816	81.7322
904.985	138.71028
905.154	207.75465
