Data from WindowProjectSample3_Transmission__3__00003.txt Node

Date: Sun May 04 09:40:44 EDT 2025
User: jessi
Spectrometer: SR400872
Trigger mode: 0
Integration Time (sec): 5.000070E-1
Scans to average: 20
Electric dark correction enabled: true
Nonlinearity correction enabled: true
Boxcar width: 0
XAxis mode: Wavelengths
Number of Pixels in Spectrum: 3648
>>>>>Begin Spectral Data<<<<<
184.909	-5658.20302
185.132	10788.59494
185.355	-8235.58902
185.578	-55226.28184
185.801	4079.19022
186.024	-136123.37745
186.247	-782.5402
186.47	1325.81842
186.693	862.83947
186.916	-588.67405
187.139	-2495157.58961
187.362	-2890.20367
187.585	7604.98283
187.808	1918.16685
188.031	-265.14041
188.254	4756.7908
188.476	-1597.97547
188.699	2470.64188
188.922	539.48852
189.145	-6038.31944
189.368	-3970.54245
189.591	1850.4147
189.813	-140940.78119
190.036	9080.91046
190.259	1438.21453
190.482	5658.95427
190.705	17015.08936
190.927	17536.35567
191.15	-4205.67361
191.373	2081.4441
191.595	1545.81325
191.818	17960.1664
192.041	904.40599
192.263	-7993.42157
192.486	-1797.53977
192.709	2964.79622
192.931	-3414.03403
193.154	13487.65207
193.377	2592.12982
193.599	27401.23142
193.822	2232.52125
194.044	2064.97807
194.267	1014.6611
194.489	-150.22369
194.712	3668.74692
194.934	33471.01939
195.157	-538.78185
195.379	11771.26903
195.602	1810.2546
195.824	4650.17753
196.047	6363.13233
196.269	14180.48067
196.492	-11348.29061
196.714	4087.91394
196.936	7022.89186
197.159	10706.88356
197.381	4360.0377
197.604	1737869.15602
197.826	1978.10498
198.048	2149.28479
198.271	9746.25278
198.493	1996.52926
198.715	2799.80274
198.938	7457.29208
199.16	3201.47422
199.382	9849.70178
199.604	9611.86482
199.827	1817.21038
200.049	3047.2892
200.271	20450.50769
200.493	1883.19022
200.715	7365.32019
200.938	7896.1239
201.16	-3814.96167
201.382	31592.45615
201.604	4113.48266
201.826	8459.45057
202.048	4515.41209
202.27	1906.91195
202.492	5785.46479
202.715	20377.81685
202.937	4053.96324
203.159	1524.04603
203.381	2041.85896
203.603	2885.9527
203.825	-1444.50873
204.047	-22612.7758
204.269	3529.57787
204.491	7152.89753
204.713	-1722614.226
204.935	2316.04758
205.156	3994.74133
205.378	1680.71097
205.6	36022.94851
205.822	4708.71186
206.044	3438.38286
206.266	5972.29127
206.488	1559.91865
206.71	9414.63295
206.932	1447.54364
207.153	29934.03083
207.375	16171.75118
207.597	12362.34433
207.819	40379.10055
208.041	-46692.06314
208.262	1053.41571
208.484	12857.16997
208.706	3828.84307
208.927	2282.16676
209.149	919.43034
209.371	3672.83846
209.593	815.15557
209.814	9572.7051
210.036	-405154.6091
210.258	1595.88885
210.479	2426.56646
210.701	3411.94088
210.922	-5415.68825
211.144	-3271.34522
211.366	5226.28669
211.587	2500.73366
211.809	5732.17176
212.03	-67722.45077
212.252	495.22407
212.473	972.84466
212.695	769.94553
212.916	1249.71068
213.138	574.86031
213.359	5031.5395
213.581	3040.71499
213.802	828.63922
214.024	7805.9637
214.245	-13554.00808
214.466	395.39495
214.688	3810.55657
214.909	11000.03966
215.131	4332.48697
215.352	2630.48516
215.573	11815.02883
215.795	2181.96263
216.016	2011.48768
216.237	-792050.18326
216.459	2101.99448
216.68	5738.81841
216.901	3167.43796
217.122	681.26256
217.344	3164.73687
217.565	7306.65743
217.786	3659.51393
218.007	839.25426
218.228	2426.29054
218.45	-15922.69581
218.671	43304.0175
218.892	19384.13154
219.113	1625.35452
219.334	5882.61036
219.555	-8240.72214
219.776	1835.82426
219.997	3970.83162
220.219	1227.09538
220.44	1608.24873
220.661	1557.49728
220.882	6098.23709
221.103	1455.39455
221.324	7985.61771
221.545	3185.64216
221.766	3022.4396
221.987	1687.34066
222.208	955.94229
222.429	2298.50287
222.65	216.89634
222.87	810.64342
223.091	1740.40411
223.312	1060.69687
223.533	2166.54993
223.754	1592.10783
223.975	1739.87871
224.196	1051.00809
224.417	5295.32726
224.637	674.66709
224.858	57.58112
225.079	1221.79836
225.3	635.43438
225.521	2281.87414
225.741	632.50353
225.962	617.05686
226.183	162.90507
226.404	1040.73219
226.624	559.58529
226.845	640.34274
227.066	459.23382
227.286	306.40013
227.507	191.85596
227.728	156.52528
227.948	271.98604
228.169	93.94198
228.389	104.1967
228.61	59.19599
228.831	79.81814
229.051	8.14116
229.272	51.72633
229.492	72.45978
229.713	21.94716
229.933	52.13856
230.154	45.15159
230.374	76.30925
230.595	57.37356
230.815	35.16877
231.036	62.05699
231.256	-12.35826
231.477	98.06159
231.697	60.54053
231.917	62.58215
232.138	90.90645
232.358	166.84156
232.579	150.9044
232.799	25.52292
233.019	136.74977
233.24	158.92901
233.46	62.17089
233.68	87.95167
233.901	62.76015
234.121	40.14146
234.341	19.5271
234.561	-1.75078
234.782	31.87654
235.002	97.42435
235.222	-0.41955
235.442	92.55467
235.662	46.85365
235.883	87.34616
236.103	75.03073
236.323	54.76219
236.543	42.15895
236.763	61.00152
236.983	60.71505
237.203	63.71276
237.423	90.71447
237.643	127.07144
237.864	111.25314
238.084	31.5717
238.304	38.37537
238.524	67.3596
238.744	58.13082
238.964	98.01203
239.184	81.4329
239.404	95.40643
239.624	53.54717
239.843	84.48498
240.063	49.90493
240.283	31.78519
240.503	36.01149
240.723	36.26536
240.943	23.57409
241.163	27.62296
241.383	20.1502
241.603	10.16497
241.822	12.42241
242.042	9.41579
242.262	12.50811
242.482	13.44531
242.702	15.47277
242.921	4.74333
243.141	10.61333
243.361	9.74715
243.581	13.66514
243.8	12.00417
244.02	8.9449
244.24	14.62282
244.459	13.749
244.679	28.21873
244.899	19.4028
245.118	20.59487
245.338	19.28646
245.558	20.61638
245.777	12.42715
245.997	14.70679
246.216	14.31507
246.436	8.25549
246.655	6.18115
246.875	4.41394
247.094	8.71173
247.314	3.59826
247.533	5.64565
247.753	6.26844
247.972	5.51623
248.192	1.66129
248.411	3.23391
248.631	5.57909
248.85	7.21069
249.07	6.62612
249.289	9.56523
249.508	7.37043
249.728	11.18728
249.947	11.47434
250.166	14.31095
250.386	8.0008
250.605	10.68262
250.824	17.87745
251.044	12.12317
251.263	36.02902
251.482	21.0829
251.701	17.84488
251.921	0.09172
252.14	6.07691
252.359	6.64568
252.578	14.71346
252.798	6.06803
253.017	13.86395
253.236	6.83026
253.455	9.42648
253.674	17.84005
253.893	8.98459
254.112	12.95692
254.331	18.27287
254.551	14.83245
254.77	8.96948
254.989	21.61535
255.208	16.38184
255.427	22.71971
255.646	21.70756
255.865	30.71924
256.084	13.90936
256.303	17.4236
256.522	20.7357
256.741	4.63447
256.96	4.52166
257.179	12.72644
257.397	16.56042
257.616	9.68693
257.835	9.81643
258.054	22.37861
258.273	15.96676
258.492	15.68435
258.711	9.64016
258.93	4.99199
259.148	6.6622
259.367	6.18104
259.586	8.24684
259.805	3.40182
260.023	7.1771
260.242	5.3795
260.461	4.10912
260.68	2.31548
260.898	6.41727
261.117	2.23357
261.336	1.46613
261.554	5.93414
261.773	5.90879
261.992	1.48341
262.21	5.54627
262.429	6.70175
262.648	10.34774
262.866	12.24905
263.085	9.13679
263.303	7.41627
263.522	13.48233
263.74	13.66793
263.959	22.68336
264.178	12.27788
264.396	10.31581
264.615	7.3221
264.833	17.4277
265.051	14.65338
265.27	16.11898
265.488	16.15294
265.707	9.62218
265.925	15.84601
266.144	7.71554
266.362	8.76301
266.58	8.39815
266.799	7.41461
267.017	8.95335
267.235	7.47886
267.454	5.22617
267.672	2.92908
267.89	6.4793
268.109	6.97441
268.327	7.01098
268.545	1.57271
268.763	5.90139
268.982	3.0759
269.2	7.28938
269.418	4.63062
269.636	3.90541
269.854	7.01613
270.073	5.20547
270.291	3.25873
270.509	3.31037
270.727	6.7956
270.945	10.48157
271.163	10.88656
271.381	2.91565
271.599	4.66545
271.817	7.86715
272.036	2.61522
272.254	4.89263
272.472	3.67687
272.69	3.6158
272.908	3.91464
273.126	6.27588
273.344	7.92121
273.562	2.89453
273.779	4.32805
273.997	6.39501
274.215	6.33913
274.433	4.79468
274.651	7.12871
274.869	7.16049
275.087	4.48133
275.305	6.41452
275.523	4.26201
275.74	4.92937
275.958	8.38962
276.176	12.27563
276.394	3.88621
276.612	5.34162
276.829	5.12089
277.047	4.94971
277.265	4.67613
277.483	5.73169
277.7	6.21321
277.918	5.50518
278.136	9.38993
278.353	4.76864
278.571	2.81359
278.789	7.04603
279.006	1.66035
279.224	4.18175
279.442	7.43716
279.659	5.69599
279.877	3.62764
280.094	7.95895
280.312	1.92776
280.529	5.56135
280.747	1.7473
280.964	4.21986
281.182	8.70121
281.399	4.32099
281.617	5.54929
281.834	4.02317
282.052	3.04917
282.269	4.91002
282.487	3.9406
282.704	3.4894
282.921	3.3177
283.139	5.16126
283.356	6.28703
283.574	5.86658
283.791	2.95732
284.008	8.08472
284.226	4.81929
284.443	5.06356
284.66	6.16165
284.877	5.2414
285.095	3.22376
285.312	2.37268
285.529	1.57989
285.746	1.41174
285.964	3.19475
286.181	2.22618
286.398	3.07344
286.615	4.19997
286.832	3.86251
287.05	1.16281
287.267	2.8817
287.484	2.83117
287.701	4.2481
287.918	3.93721
288.135	4.21844
288.352	1.86058
288.569	2.57365
288.786	3.69629
289.003	2.96372
289.22	4.38394
289.437	2.55187
289.654	4.43956
289.871	4.4568
290.088	4.45743
290.305	3.51626
290.522	2.82981
290.739	3.16779
290.956	4.73019
291.173	5.5385
291.39	5.22232
291.607	3.69796
291.824	3.08281
292.04	2.08871
292.257	4.72575
292.474	5.0476
292.691	3.32978
292.908	1.80109
293.125	2.53367
293.341	1.92655
293.558	7.61953
293.775	3.05175
293.992	3.37034
294.208	1.52036
294.425	2.43854
294.642	3.15734
294.858	4.46716
295.075	1.31186
295.292	3.09754
295.508	3.7905
295.725	5.57722
295.942	3.04781
296.158	2.10785
296.375	3.35765
296.591	2.59946
296.808	2.71194
297.024	3.25322
297.241	3.60019
297.458	3.80051
297.674	0.82648
297.891	3.16574
298.107	2.74843
298.323	1.93763
298.54	4.61313
298.756	2.55815
298.973	1.46797
299.189	5.0483
299.406	2.49893
299.622	4.77104
299.838	4.8153
300.055	4.36507
300.271	1.54775
300.487	2.12352
300.704	2.48535
300.92	1.66971
301.136	6.40051
301.353	4.84927
301.569	3.42816
301.785	3.99681
302.001	4.53887
302.218	4.14194
302.434	4.13391
302.65	1.8744
302.866	3.07995
303.083	6.4413
303.299	6.39575
303.515	3.54326
303.731	3.9944
303.947	1.72445
304.163	2.76286
304.379	3.79796
304.595	4.12942
304.812	2.6464
305.028	2.58031
305.244	3.12815
305.46	4.41945
305.676	4.65361
305.892	5.51199
306.108	4.2601
306.324	3.1506
306.54	6.46512
306.756	4.2086
306.972	4.37164
307.187	3.30221
307.403	5.73192
307.619	3.08229
307.835	5.23097
308.051	5.3648
308.267	2.13301
308.483	5.07263
308.699	4.16887
308.914	3.78395
309.13	3.51586
309.346	1.63541
309.562	2.20096
309.778	1.6167
309.993	4.3124
310.209	3.33803
310.425	1.90214
310.641	3.22236
310.856	2.04228
311.072	2.09417
311.288	3.32562
311.503	3.72266
311.719	1.44018
311.935	1.21488
312.15	3.95139
312.366	3.74118
312.581	4.23429
312.797	3.52478
313.013	4.61583
313.228	2.70516
313.444	3.50345
313.659	2.47616
313.875	4.3366
314.09	3.45391
314.306	5.40805
314.521	4.69861
314.737	4.59361
314.952	3.83645
315.168	3.83625
315.383	4.17951
315.599	3.27255
315.814	3.17771
316.029	4.78334
316.245	2.13889
316.46	1.47481
316.675	5.31828
316.891	6.27144
317.106	7.61602
317.321	4.26452
317.537	4.31278
317.752	4.76247
317.967	4.93177
318.183	2.64811
318.398	3.26674
318.613	5.11862
318.828	5.43339
319.043	4.85299
319.259	3.3746
319.474	4.22475
319.689	5.44895
319.904	1.23845
320.119	4.8955
320.334	4.0551
320.549	3.53059
320.765	5.41551
320.98	4.15915
321.195	4.66392
321.41	3.62783
321.625	4.92499
321.84	6.22303
322.055	5.94216
322.27	2.63936
322.485	2.43566
322.7	4.24808
322.915	5.10984
323.13	2.75672
323.345	5.73385
323.56	4.87125
323.775	4.69688
323.989	4.36392
324.204	4.07584
324.419	4.92315
324.634	2.07572
324.849	3.48753
325.064	6.90212
325.279	4.96115
325.493	4.19727
325.708	5.11063
325.923	2.80235
326.138	3.02276
326.352	5.89875
326.567	5.10259
326.782	3.20663
326.997	2.92135
327.211	4.72792
327.426	4.301
327.641	3.46261
327.855	1.70599
328.07	4.43853
328.285	6.20984
328.499	3.52042
328.714	4.36385
328.928	4.79447
329.143	3.90049
329.358	5.43177
329.572	5.53646
329.787	5.76513
330.001	7.42331
330.216	2.12587
330.43	6.42628
330.645	6.01294
330.859	5.10484
331.074	2.79591
331.288	4.16644
331.503	5.94711
331.717	2.45411
331.931	3.94108
332.146	4.18635
332.36	6.67543
332.575	4.59469
332.789	4.30422
333.003	3.84852
333.218	4.52846
333.432	3.25268
333.646	4.97881
333.86	6.1731
334.075	6.30782
334.289	3.11024
334.503	2.54145
334.717	4.98494
334.932	4.40837
335.146	5.54675
335.36	3.44653
335.574	5.09995
335.788	4.94588
336.003	5.73182
336.217	5.40023
336.431	4.98987
336.645	3.41251
336.859	2.62919
337.073	3.82943
337.287	4.35386
337.501	2.50096
337.715	4.27779
337.929	4.59881
338.143	2.31636
338.357	3.54779
338.571	2.85104
338.785	4.75836
338.999	3.22595
339.213	3.31209
339.427	2.34509
339.641	5.64917
339.855	3.58125
340.069	3.19186
340.283	5.41278
340.497	6.26576
340.711	4.48224
340.924	3.78235
341.138	2.72179
341.352	2.21054
341.566	4.1384
341.78	1.98473
341.993	3.2065
342.207	2.69612
342.421	4.1945
342.635	3.77041
342.848	3.17038
343.062	1.12569
343.276	3.21231
343.49	6.46513
343.703	3.13577
343.917	4.91081
344.131	5.05463
344.344	3.00369
344.558	3.3269
344.771	2.56137
344.985	5.48743
345.199	5.98675
345.412	4.33479
345.626	4.5527
345.839	1.76484
346.053	2.44776
346.266	2.74483
346.48	4.88025
346.693	4.36682
346.907	4.52804
347.12	2.6325
347.334	4.24125
347.547	4.34735
347.76	3.77005
347.974	5.47371
348.187	4.43621
348.401	3.38058
348.614	3.02512
348.827	3.55337
349.041	4.63308
349.254	1.92282
349.467	3.58226
349.681	2.5153
349.894	3.06991
350.107	5.16097
350.32	6.13037
350.534	1.95002
350.747	3.63672
350.96	2.87195
351.173	3.12124
351.386	3.2147
351.6	3.40182
351.813	3.16588
352.026	3.83979
352.239	2.35573
352.452	3.53344
352.665	5.09896
352.878	3.49017
353.092	6.50375
353.305	4.58267
353.518	3.99149
353.731	2.71129
353.944	4.91928
354.157	3.29749
354.37	3.00111
354.583	2.49613
354.796	2.09952
355.009	5.11952
355.222	3.85514
355.435	3.70512
355.647	4.98258
355.86	2.85681
356.073	3.70862
356.286	3.26467
356.499	4.73298
356.712	4.39111
356.925	4.3324
357.138	4.87056
357.35	2.55552
357.563	3.32898
357.776	3.78066
357.989	3.56352
358.201	4.40945
358.414	4.13747
358.627	5.1405
358.84	3.48015
359.052	2.4395
359.265	2.61772
359.478	4.82427
359.69	0.9274
359.903	4.55844
360.116	4.68887
360.328	1.92335
360.541	4.56517
360.753	2.83939
360.966	3.19822
361.179	3.38407
361.391	3.14768
361.604	2.64004
361.816	3.16297
362.029	3.0574
362.241	2.67434
362.454	3.17774
362.666	2.66146
362.879	3.8735
363.091	3.35222
363.304	2.99996
363.516	3.50651
363.728	2.32049
363.941	4.29825
364.153	3.41053
364.366	1.4973
364.578	2.55749
364.79	4.25152
365.003	3.74417
365.215	3.27829
365.427	4.15652
365.639	5.00103
365.852	3.98592
366.064	5.68013
366.276	3.38565
366.488	4.24911
366.701	3.31134
366.913	3.59197
367.125	3.01363
367.337	3.10833
367.549	3.17705
367.762	3.83819
367.974	3.70995
368.186	3.24523
368.398	4.90255
368.61	4.38987
368.822	4.60934
369.034	3.71683
369.246	4.67639
369.458	6.8053
369.67	2.71045
369.882	5.95291
370.094	1.6325
370.306	5.53337
370.518	3.39963
370.73	3.40259
370.942	3.10756
371.154	3.70725
371.366	3.3114
371.578	4.43619
371.79	3.28752
372.002	5.1884
372.214	5.94206
372.425	4.05284
372.637	5.48825
372.849	4.39834
373.061	1.80671
373.273	4.46162
373.484	4.54398
373.696	4.98842
373.908	1.41565
374.12	5.09767
374.331	4.55196
374.543	3.0503
374.755	2.81221
374.967	3.99413
375.178	4.96034
375.39	3.75355
375.602	4.07634
375.813	2.51179
376.025	2.8809
376.236	4.05673
376.448	4.18266
376.66	3.73002
376.871	3.74497
377.083	4.97414
377.294	5.53509
377.506	3.56797
377.717	5.52996
377.929	4.34034
378.14	3.44946
378.352	4.67343
378.563	4.73509
378.775	5.67702
378.986	3.41056
379.197	4.55085
379.409	3.57331
379.62	4.9218
379.832	4.28321
380.043	3.96633
380.254	4.43871
380.466	3.01477
380.677	7.18313
380.888	6.65709
381.1	6.95555
381.311	7.06383
381.522	4.37566
381.733	7.41033
381.945	4.01198
382.156	4.34042
382.367	3.96148
382.578	7.46762
382.789	7.39699
383.001	3.80221
383.212	6.05334
383.423	6.31348
383.634	5.73419
383.845	5.18677
384.056	4.2054
384.267	4.53204
384.478	4.3755
384.69	3.40002
384.901	5.12908
385.112	4.93253
385.323	6.36071
385.534	5.00159
385.745	4.90162
385.956	5.05237
386.167	3.5965
386.378	5.14895
386.588	3.56857
386.799	3.67673
387.01	2.98315
387.221	5.50157
387.432	4.62082
387.643	6.58557
387.854	4.42618
388.065	4.35188
388.275	4.4904
388.486	4.24952
388.697	4.66919
388.908	4.29448
389.119	5.92633
389.329	6.42156
389.54	4.73164
389.751	5.10706
389.962	5.90288
390.172	4.99491
390.383	4.35608
390.594	4.04165
390.804	4.1346
391.015	4.36871
391.226	4.84437
391.436	5.33121
391.647	5.16585
391.858	5.45242
392.068	3.30049
392.279	3.89623
392.489	5.10554
392.7	5.80801
392.91	3.85515
393.121	4.11966
393.331	5.27741
393.542	6.05545
393.752	5.68452
393.963	5.19505
394.173	5.01662
394.384	5.59772
394.594	4.93572
394.804	3.80262
395.015	4.98167
395.225	5.56596
395.436	3.7775
395.646	5.54298
395.856	4.44981
396.067	3.54374
396.277	6.02996
396.487	5.48521
396.697	5.30678
396.908	5.89449
397.118	5.6919
397.328	5.28073
397.538	5.97899
397.749	4.32446
397.959	6.00374
398.169	5.68125
398.379	3.69657
398.589	5.68474
398.8	5.22419
399.01	5.15172
399.22	4.82441
399.43	7.44429
399.64	4.90524
399.85	5.72981
400.06	5.10612
400.27	4.39992
400.48	5.18961
400.69	6.44648
400.9	4.79255
401.11	4.33988
401.32	5.87938
401.53	4.56671
401.74	6.76915
401.95	5.98935
402.16	4.57377
402.37	5.64485
402.58	4.74025
402.79	5.75713
403	6.09221
403.209	4.65053
403.419	6.11512
403.629	4.69285
403.839	6.09183
404.049	6.14001
404.258	4.79127
404.468	4.51056
404.678	5.95398
404.888	6.13154
405.097	4.84982
405.307	5.33067
405.517	5.94287
405.727	5.78509
405.936	4.97363
406.146	5.64178
406.356	6.60109
406.565	5.30157
406.775	4.93257
406.984	5.11523
407.194	7.2195
407.404	5.41048
407.613	5.86844
407.823	6.15985
408.032	6.61246
408.242	6.58605
408.451	5.14257
408.661	5.46993
408.87	7.1808
409.08	4.96496
409.289	5.84288
409.499	5.79501
409.708	5.48817
409.918	3.54971
410.127	5.66662
410.336	7.12365
410.546	6.28627
410.755	5.16989
410.964	5.2158
411.174	4.78004
411.383	6.01828
411.592	6.00724
411.802	4.60884
412.011	6.3784
412.22	5.50158
412.429	7.12347
412.639	6.91441
412.848	6.65541
413.057	7.12404
413.266	6.74534
413.475	5.63691
413.685	6.4298
413.894	6.57564
414.103	6.83024
414.312	6.4304
414.521	5.61288
414.73	5.94225
414.939	7.66649
415.148	6.2061
415.357	6.09271
415.566	5.54597
415.776	5.48695
415.985	5.34329
416.194	6.58136
416.403	7.40952
416.611	4.69313
416.82	5.33692
417.029	5.93297
417.238	5.25726
417.447	5.14115
417.656	5.46466
417.865	5.20889
418.074	5.63499
418.283	5.88697
418.492	6.68536
418.7	6.52037
418.909	7.3069
419.118	6.09023
419.327	6.32471
419.536	6.06428
419.744	5.558
419.953	6.85442
420.162	6.71174
420.371	5.71637
420.579	6.02657
420.788	7.03743
420.997	7.11024
421.205	7.15258
421.414	6.89535
421.623	6.91777
421.831	6.45897
422.04	7.23198
422.249	6.14736
422.457	6.6961
422.666	6.05456
422.874	7.05862
423.083	7.14757
423.291	6.99318
423.5	6.67658
423.708	7.05703
423.917	7.62006
424.125	7.01917
424.334	6.66245
424.542	8.7185
424.751	7.87208
424.959	7.45759
425.167	7.79427
425.376	7.46
425.584	6.55036
425.793	6.97898
426.001	6.04968
426.209	7.20608
426.418	6.09513
426.626	6.22162
426.834	5.89766
427.042	6.65351
427.251	6.04115
427.459	7.24949
427.667	6.72346
427.875	5.43672
428.084	6.0978
428.292	7.53736
428.5	6.97492
428.708	5.70912
428.916	5.78418
429.124	6.51432
429.333	6.15495
429.541	6.29467
429.749	6.49587
429.957	6.47511
430.165	8.49627
430.373	5.38835
430.581	6.60878
430.789	7.7474
430.997	6.27023
431.205	5.92357
431.413	6.67738
431.621	6.29628
431.829	7.12271
432.037	6.26911
432.245	6.78414
432.453	6.8574
432.661	6.40584
432.869	8.17402
433.076	5.85901
433.284	6.45991
433.492	7.21564
433.7	7.65641
433.908	6.41749
434.116	6.72458
434.323	6.87259
434.531	6.67637
434.739	7.19258
434.947	7.53066
435.154	7.39193
435.362	6.80888
435.57	6.45207
435.778	6.31297
435.985	7.07883
436.193	6.30761
436.401	7.69346
436.608	6.78964
436.816	6.3235
437.023	8.18885
437.231	8.21474
437.439	6.88505
437.646	7.25694
437.854	7.15614
438.061	7.3296
438.269	6.64774
438.476	7.40516
438.684	6.98267
438.891	6.61106
439.099	6.36318
439.306	5.81284
439.514	6.0955
439.721	7.21431
439.929	6.41601
440.136	7.20516
440.343	7.08421
440.551	6.65795
440.758	8.41639
440.965	7.41625
441.173	7.00853
441.38	6.5811
441.587	7.19803
441.795	6.70956
442.002	7.27032
442.209	7.21046
442.416	7.49703
442.624	7.49832
442.831	7.32447
443.038	6.61363
443.245	6.30395
443.452	6.67124
443.66	7.62722
443.867	6.51563
444.074	6.57559
444.281	6.42682
444.488	6.78558
444.695	6.85898
444.902	6.54883
445.109	7.46818
445.316	6.66122
445.523	6.6301
445.73	6.41523
445.937	7.29454
446.144	7.6662
446.351	7.89737
446.558	6.70276
446.765	8.31043
446.972	8.05889
447.179	7.264
447.386	8.17923
447.593	6.86224
447.8	8.00382
448.007	6.96835
448.214	7.14117
448.42	6.69309
448.627	8.03875
448.834	7.12692
449.041	6.84951
449.248	6.90064
449.454	7.81701
449.661	8.8616
449.868	6.86016
450.075	6.68072
450.281	5.52914
450.488	6.20012
450.695	6.28491
450.901	6.44507
451.108	6.68737
451.315	7.86596
451.521	6.80377
451.728	7.87561
451.935	6.33461
452.141	6.90657
452.348	7.00314
452.554	6.97109
452.761	6.72008
452.967	8.32406
453.174	7.20087
453.38	7.23548
453.587	6.11154
453.793	7.23136
454	7.86229
454.206	8.80584
454.413	7.99508
454.619	7.53085
454.825	6.43799
455.032	7.6404
455.238	7.88672
455.445	6.20888
455.651	7.26503
455.857	5.61905
456.064	6.93466
456.27	7.01738
456.476	6.93101
456.682	6.03822
456.889	7.35906
457.095	7.67886
457.301	9.04266
457.507	7.16462
457.714	7.22267
457.92	7.06864
458.126	6.48013
458.332	6.94417
458.538	6.59385
458.744	6.80457
458.951	6.78192
459.157	8.30742
459.363	7.12961
459.569	6.99143
459.775	7.74361
459.981	6.88691
460.187	7.28176
460.393	7.72187
460.599	8.29405
460.805	7.28003
461.011	7.50161
461.217	8.32778
461.423	8.42437
461.629	7.23222
461.835	7.98095
462.041	7.19377
462.247	8.83603
462.453	7.03057
462.658	7.32213
462.864	8.01483
463.07	7.51429
463.276	7.57249
463.482	7.46623
463.688	8.61562
463.893	6.84822
464.099	7.09321
464.305	8.64359
464.511	6.97437
464.716	7.34417
464.922	8.01945
465.128	6.74621
465.333	8.86979
465.539	7.91784
465.745	7.31142
465.95	7.58419
466.156	9.84714
466.362	8.4665
466.567	7.40825
466.773	6.90271
466.978	8.77997
467.184	6.65537
467.389	5.67262
467.595	7.96021
467.8	6.72243
468.006	8.71888
468.211	8.50292
468.417	6.60865
468.622	7.90409
468.828	8.03795
469.033	7.76668
469.239	9.92415
469.444	7.19114
469.649	8.36991
469.855	7.42814
470.06	7.70861
470.266	6.65515
470.471	8.04822
470.676	7.85871
470.881	6.24798
471.087	8.14367
471.292	9.29772
471.497	6.45911
471.703	7.47302
471.908	7.07235
472.113	7.62903
472.318	8.31596
472.523	6.72927
472.729	7.83772
472.934	7.91934
473.139	7.27623
473.344	7.92924
473.549	8.69338
473.754	6.87776
473.959	9.3898
474.164	6.95571
474.369	7.58095
474.575	8.2516
474.78	7.73637
474.985	7.22452
475.19	6.12578
475.395	6.93003
475.6	7.5394
475.804	8.58839
476.009	7.63714
476.214	7.59827
476.419	7.24003
476.624	6.20635
476.829	6.83853
477.034	8.0512
477.239	6.86575
477.444	7.75807
477.648	7.93955
477.853	8.21117
478.058	7.35292
478.263	6.97301
478.468	6.75445
478.672	6.8459
478.877	8.70415
479.082	9.07718
479.287	7.98756
479.491	7.63271
479.696	6.61218
479.901	8.30204
480.105	8.15516
480.31	6.9732
480.515	7.4783
480.719	9.34014
480.924	7.07444
481.128	6.61264
481.333	7.58907
481.538	7.60733
481.742	7.11286
481.947	7.63534
482.151	7.99854
482.356	8.42849
482.56	10.11592
482.765	11.09868
482.969	13.30172
483.174	15.10123
483.378	17.2094
483.582	17.39253
483.787	18.69692
483.991	18.67367
484.196	18.85265
484.4	18.21811
484.604	18.4268
484.809	16.16127
485.013	15.20007
485.217	13.50813
485.422	12.00831
485.626	11.00365
485.83	10.59557
486.034	10.38681
486.239	10.90483
486.443	11.26446
486.647	11.41775
486.851	12.57882
487.055	13.59295
487.26	13.05459
487.464	13.94462
487.668	13.21087
487.872	13.26812
488.076	13.74207
488.28	12.92015
488.484	11.97122
488.688	11.66027
488.892	11.23539
489.096	10.42023
489.3	9.43738
489.504	8.83423
489.708	8.82365
489.912	8.65918
490.116	8.58797
490.32	8.09219
490.524	9.31329
490.728	9.9495
490.932	10.29626
491.136	10.7252
491.34	11.95179
491.544	12.08089
491.748	11.55557
491.951	11.59782
492.155	11.07285
492.359	10.88195
492.563	9.56054
492.767	8.81557
492.97	8.09735
493.174	7.60649
493.378	7.97297
493.582	7.39145
493.785	7.96874
493.989	8.12987
494.193	8.08204
494.396	7.57758
494.6	8.42944
494.804	7.84238
495.007	7.42858
495.211	7.37321
495.414	7.64299
495.618	7.85452
495.822	8.65481
496.025	7.7258
496.229	8.34188
496.432	7.25016
496.636	7.74549
496.839	7.60167
497.043	8.97296
497.246	7.91762
497.45	7.49427
497.653	7.67966
497.856	8.01136
498.06	6.96517
498.263	7.67599
498.467	7.37487
498.67	8.57806
498.873	8.22533
499.077	7.50909
499.28	7.55419
499.483	8.03183
499.686	8.40216
499.89	8.10307
500.093	8.39854
500.296	7.28267
500.499	9.14133
500.703	7.7923
500.906	7.96194
501.109	9.26873
501.312	7.91313
501.515	7.60264
501.719	8.16934
501.922	9.1313
502.125	8.11655
502.328	7.85782
502.531	6.9763
502.734	7.77687
502.937	6.3787
503.14	7.96262
503.343	6.93892
503.546	7.54083
503.749	7.19681
503.952	8.13291
504.155	7.10145
504.358	8.29259
504.561	7.81938
504.764	6.84207
504.967	7.90895
505.17	7.84956
505.373	9.1579
505.576	7.88521
505.778	8.3553
505.981	7.19573
506.184	8.83215
506.387	6.4573
506.59	9.28462
506.793	8.80382
506.995	8.1929
507.198	6.33203
507.401	7.98252
507.604	8.1912
507.806	7.08115
508.009	7.29413
508.212	8.25627
508.414	7.29984
508.617	7.15984
508.82	7.76613
509.022	8.87649
509.225	8.13245
509.427	6.73083
509.63	8.90079
509.833	7.81075
510.035	7.67363
510.238	6.63099
510.44	8.87852
510.643	6.20194
510.845	9.61705
511.048	8.19186
511.25	7.51744
511.453	7.79777
511.655	8.11475
511.858	7.54106
512.06	8.63509
512.262	7.88942
512.465	8.55726
512.667	7.45979
512.869	6.84754
513.072	8.24156
513.274	8.43866
513.476	8.3992
513.679	8.50642
513.881	6.99497
514.083	9.29379
514.286	7.38194
514.488	7.44872
514.69	7.11805
514.892	6.67883
515.094	8.44131
515.297	7.4587
515.499	7.92229
515.701	7.10481
515.903	9.26349
516.105	9.11682
516.307	8.45028
516.509	6.31342
516.711	6.79349
516.913	7.8938
517.116	7.6547
517.318	7.37566
517.52	8.59944
517.722	8.12551
517.924	6.84978
518.126	8.05277
518.328	7.28778
518.529	8.15649
518.731	9.16344
518.933	7.44443
519.135	7.7883
519.337	8.76419
519.539	8.29018
519.741	6.674
519.943	7.77683
520.145	7.63683
520.346	8.40739
520.548	7.71478
520.75	8.23739
520.952	7.67407
521.153	8.27019
521.355	8.28856
521.557	7.0065
521.759	8.03504
521.96	7.80353
522.162	7.05683
522.364	8.65682
522.565	7.20735
522.767	8.33524
522.969	8.81249
523.17	8.21245
523.372	8.1576
523.573	7.31528
523.775	7.69662
523.977	7.04851
524.178	9.10214
524.38	7.22879
524.581	8.42559
524.783	7.48279
524.984	8.14501
525.186	7.72064
525.387	8.19443
525.589	7.81472
525.79	7.53212
525.991	7.25011
526.193	7.99567
526.394	6.91485
526.596	8.02098
526.797	7.89384
526.998	7.47125
527.2	7.48894
527.401	9.52314
527.602	10.18029
527.803	12.30575
528.005	12.65177
528.206	13.5795
528.407	14.20382
528.608	13.91509
528.81	14.03999
529.011	13.29856
529.212	14.10974
529.413	12.87751
529.614	11.79836
529.815	11.166
530.017	10.26521
530.218	8.98085
530.419	7.9595
530.62	8.35793
530.821	8.40341
531.022	7.30743
531.223	8.54136
531.424	8.4965
531.625	8.22515
531.826	8.09824
532.027	7.90664
532.228	9.04493
532.429	8.86407
532.63	8.94311
532.831	9.63038
533.032	9.69403
533.233	10.2921
533.433	9.8823
533.634	10.05573
533.835	9.24473
534.036	8.62211
534.237	8.373
534.438	7.87283
534.638	7.53911
534.839	7.77551
535.04	8.47589
535.241	7.76191
535.441	9.1711
535.642	8.25962
535.843	7.19305
536.043	7.30139
536.244	7.33293
536.445	7.64141
536.645	8.50802
536.846	8.06302
537.047	8.77684
537.247	7.4355
537.448	7.81557
537.648	8.15044
537.849	7.97891
538.049	8.05099
538.25	8.70835
538.451	8.31387
538.651	7.33882
538.851	8.36924
539.052	9.00477
539.252	8.65936
539.453	7.84017
539.653	8.0506
539.854	7.76689
540.054	7.70029
540.254	8.35915
540.455	9.11011
540.655	8.75339
540.855	9.93222
541.056	10.76362
541.256	10.14712
541.456	11.25565
541.657	10.3967
541.857	11.24368
542.057	9.48504
542.257	9.17772
542.458	9.54033
542.658	9.22352
542.858	7.57919
543.058	8.95153
543.258	8.56504
543.458	7.3473
543.659	7.18268
543.859	8.63018
544.059	8.52667
544.259	7.95259
544.459	8.94603
544.659	7.68134
544.859	8.42654
545.059	7.64396
545.259	8.63869
545.459	8.19492
545.659	8.69004
545.859	8.08395
546.059	8.14566
546.259	7.39113
546.459	6.84458
546.659	7.1593
546.859	8.49757
547.059	8.39346
547.258	8.51019
547.458	8.38467
547.658	7.1568
547.858	7.14036
548.058	8.46123
548.258	7.93859
548.457	7.31543
548.657	10.59047
548.857	7.83182
549.057	8.91961
549.256	8.67737
549.456	8.05514
549.656	6.33773
549.855	10.04069
550.055	8.01111
550.255	10.05108
550.454	8.5769
550.654	9.18912
550.853	9.61715
551.053	9.28904
551.253	8.51774
551.452	8.64556
551.652	7.15606
551.851	6.82579
552.051	7.81916
552.25	7.69059
552.45	7.34186
552.649	7.81389
552.849	7.41414
553.048	8.17998
553.248	8.71792
553.447	7.302
553.646	9.07279
553.846	9.97082
554.045	9.38094
554.244	7.05086
554.444	9.99759
554.643	7.48171
554.842	9.84879
555.042	10.49513
555.241	7.57306
555.44	7.16007
555.64	8.74372
555.839	10.28003
556.038	8.93472
556.237	7.80018
556.436	8.06122
556.636	8.66666
556.835	7.37825
557.034	9.98277
557.233	8.28685
557.432	6.95575
557.631	9.62511
557.83	8.2624
558.029	7.7658
558.228	7.9197
558.427	7.22341
558.626	8.73468
558.825	7.229
559.024	8.59017
559.223	10.36863
559.422	8.3196
559.621	8.96663
559.82	5.75335
560.019	8.36228
560.218	7.76283
560.417	5.35638
560.616	7.68446
560.815	11.93273
561.014	6.73001
561.212	9.66815
561.411	8.38817
561.61	6.38035
561.809	7.84282
562.008	10.02232
562.206	8.01324
562.405	9.06026
562.604	8.0308
562.803	8.57687
563.001	8.19613
563.2	6.65531
563.399	9.05851
563.597	6.96421
563.796	8.32361
563.995	6.94809
564.193	8.85392
564.392	7.6258
564.59	10.69088
564.789	6.0715
564.988	7.55633
565.186	8.24041
565.385	7.76831
565.583	7.58373
565.782	7.90891
565.98	7.58133
566.179	7.9448
566.377	6.79055
566.575	7.1717
566.774	9.12706
566.972	8.94962
567.171	10.34715
567.369	9.75835
567.567	8.43201
567.766	8.4747
567.964	5.81242
568.162	8.94072
568.361	9.52477
568.559	8.02856
568.757	8.72254
568.956	8.29957
569.154	8.04219
569.352	9.19567
569.55	8.05145
569.748	8.07856
569.947	7.25075
570.145	7.16035
570.343	6.85129
570.541	9.34914
570.739	6.73006
570.937	8.06497
571.135	8.27991
571.333	10.0083
571.532	9.84662
571.73	8.18728
571.928	9.13596
572.126	8.46489
572.324	7.45168
572.522	9.51466
572.72	10.98608
572.918	8.07014
573.116	8.48476
573.313	7.99457
573.511	7.95313
573.709	7.52489
573.907	8.88129
574.105	7.77378
574.303	6.11847
574.501	6.43806
574.699	8.34908
574.896	8.3579
575.094	8.59953
575.292	6.61489
575.49	9.15715
575.688	8.1003
575.885	9.81729
576.083	10.46252
576.281	8.54615
576.478	7.40628
576.676	8.97302
576.874	6.94391
577.071	7.8624
577.269	11.34564
577.467	8.25876
577.664	8.24805
577.862	9.39158
578.059	7.26187
578.257	9.28889
578.455	8.28712
578.652	8.46939
578.85	6.27562
579.047	8.56975
579.245	8.25774
579.442	8.25292
579.64	8.41753
579.837	5.93955
580.034	11.91827
580.232	7.88089
580.429	7.28698
580.627	9.2695
580.824	10.15578
581.021	9.21052
581.219	8.06038
581.416	7.54367
581.613	10.06282
581.811	10.31726
582.008	7.25622
582.205	9.67867
582.402	8.97971
582.6	10.48599
582.797	8.88543
582.994	9.4478
583.191	9.80042
583.388	8.88662
583.586	9.83997
583.783	10.32872
583.98	7.7318
584.177	8.82933
584.374	4.8864
584.571	8.62917
584.768	8.63121
584.965	8.27123
585.162	9.81634
585.359	11.09085
585.556	8.78693
585.753	9.32199
585.95	6.90886
586.147	7.6075
586.344	9.4304
586.541	8.71203
586.738	7.22201
586.935	8.32929
587.132	7.69046
587.329	10.29451
587.526	8.51773
587.722	15.54222
587.919	6.7395
588.116	9.47573
588.313	10.72016
588.51	11.80229
588.706	8.43665
588.903	9.40757
589.1	9.62626
589.297	12.67864
589.493	8.71632
589.69	9.4505
589.887	7.7131
590.083	7.05173
590.28	7.55719
590.477	10.09777
590.673	9.6691
590.87	10.73119
591.067	8.24411
591.263	9.66483
591.46	9.49068
591.656	8.67839
591.853	10.65652
592.049	7.72526
592.246	7.97983
592.442	10.74897
592.639	10.6932
592.835	7.38718
593.032	9.36194
593.228	6.7999
593.425	6.93765
593.621	6.38991
593.817	9.13933
594.014	7.81475
594.21	8.85203
594.406	9.98171
594.603	9.32264
594.799	8.00676
594.995	5.39917
595.192	9.99455
595.388	7.92068
595.584	7.91044
595.78	6.36085
595.977	11.44288
596.173	10.63086
596.369	7.9585
596.565	7.07756
596.761	6.42355
596.957	9.83942
597.154	7.07511
597.35	7.62886
597.546	7.16216
597.742	9.02077
597.938	8.93276
598.134	7.29575
598.33	8.9379
598.526	10.93241
598.722	9.67124
598.918	11.57216
599.114	9.8944
599.31	7.73594
599.506	9.11178
599.702	7.72022
599.898	9.4569
600.094	10.46864
600.29	10.30595
600.485	10.03364
600.681	8.48556
600.877	11.85649
601.073	9.343
601.269	12.04081
601.465	10.95659
601.66	7.71784
601.856	6.27769
602.052	11.51005
602.248	8.01432
602.443	5.8202
602.639	6.77958
602.835	7.37903
603.03	7.10326
603.226	9.7376
603.422	7.06904
603.617	7.98407
603.813	7.6476
604.009	7.16369
604.204	9.8103
604.4	6.19216
604.595	9.32421
604.791	6.92009
604.986	8.44469
605.182	6.93114
605.377	7.611
605.573	7.65714
605.768	8.56598
605.964	9.39438
606.159	9.81991
606.355	10.73283
606.55	8.42102
606.746	10.45642
606.941	8.9872
607.136	11.97459
607.332	13.47212
607.527	6.95067
607.722	9.4142
607.918	8.78566
608.113	7.34943
608.308	9.68866
608.503	9.59022
608.699	9.07631
608.894	9.08153
609.089	7.45963
609.284	8.86539
609.479	7.78385
609.675	9.18704
609.87	8.00868
610.065	9.36373
610.26	10.0376
610.455	9.81223
610.65	8.46884
610.845	9.09443
611.04	10.42293
611.235	8.859
611.43	8.25573
611.625	7.05291
611.82	11.47611
612.015	7.78853
612.21	11.78782
612.405	6.85434
612.6	12.98522
612.795	11.6148
612.99	11.06879
613.185	7.32203
613.38	8.11763
613.575	9.99531
613.77	14.38
613.965	6.77524
614.159	7.87882
614.354	11.953
614.549	11.6338
614.744	10.92602
614.938	7.60929
615.133	7.27302
615.328	11.85154
615.523	11.94019
615.717	15.20512
615.912	8.69017
616.107	9.88709
616.301	9.06864
616.496	8.11301
616.691	12.92709
616.885	11.19362
617.08	14.6504
617.274	12.16853
617.469	14.01034
617.664	11.24747
617.858	8.53419
618.053	10.1877
618.247	9.28742
618.442	5.66314
618.636	12.33833
618.831	9.08627
619.025	8.75267
619.219	14.96819
619.414	3.68927
619.608	9.91594
619.803	8.04129
619.997	13.8752
620.191	12.14323
620.386	10.90869
620.58	10.22214
620.774	6.73739
620.969	6.66666
621.163	10.22018
621.357	7.74857
621.551	9.24373
621.746	10.21792
621.94	10.04179
622.134	17.2418
622.328	14.41424
622.522	7.35487
622.716	12.21514
622.911	12.27973
623.105	11.59421
623.299	10.74901
623.493	16.84605
623.687	8.44247
623.881	9.23539
624.075	11.41222
624.269	12.37634
624.463	6.65174
624.657	6.70069
624.851	11.37438
625.045	11.7394
625.239	11.89202
625.433	8.64334
625.627	12.88295
625.821	8.63673
626.015	8.09522
626.209	9.48563
626.403	6.763
626.596	10.21517
626.79	10.84625
626.984	7.27799
627.178	10.44265
627.372	10.47672
627.565	11.23815
627.759	6.57666
627.953	7.15385
628.147	10.72608
628.34	11.04081
628.534	14.11003
628.728	9.49827
628.921	12.03299
629.115	11.63977
629.309	12.22412
629.502	12.17557
629.696	10.93419
629.89	10.14742
630.083	10.55012
630.277	11.43464
630.47	14.30387
630.664	9.9774
630.857	7.20566
631.051	12.2122
631.244	13.15218
631.438	12.39317
631.631	8.64192
631.825	13.46737
632.018	12.07063
632.212	14.73956
632.405	13.42594
632.598	9.12919
632.792	10.86863
632.985	5.61587
633.178	9.24916
633.372	10.25676
633.565	10.31746
633.758	13.11292
633.952	8.75788
634.145	8.40351
634.338	10.4484
634.531	9.61006
634.724	8.92973
634.918	10.93721
635.111	9.96407
635.304	9.35455
635.497	15.72763
635.69	11.37642
635.883	13.57821
636.077	8.17277
636.27	11.96734
636.463	11.25605
636.656	11.94517
636.849	9.8724
637.042	11.82177
637.235	15.29069
637.428	13.00416
637.621	12.29991
637.814	15.13082
638.007	15.21388
638.2	15.0985
638.393	16.30244
638.586	8.91343
638.778	9.91941
638.971	11.9556
639.164	15.67397
639.357	12.96202
639.55	15.36845
639.743	14.02726
639.935	13.57077
640.128	16.75841
640.321	13.68575
640.514	12.44364
640.707	18.67113
640.899	13.50664
641.092	7.98374
641.285	32.48282
641.477	6.89395
641.67	17.88853
641.863	15.8122
642.055	13.31273
642.248	12.86361
642.441	11.19949
642.633	13.78763
642.826	16.64127
643.018	16.19345
643.211	17.39249
643.403	17.02803
643.596	18.29114
643.788	18.5947
643.981	11.44498
644.173	14.80457
644.366	11.56263
644.558	8.63694
644.751	15.24371
644.943	8.88218
645.135	17.86679
645.328	18.3234
645.52	14.79952
645.712	15.52587
645.905	22.76536
646.097	10.29197
646.289	13.98968
646.482	18.67961
646.674	11.24815
646.866	15.93823
647.058	14.53321
647.251	10.24715
647.443	11.84251
647.635	12.50258
647.827	10.15956
648.019	10.79225
648.211	13.1306
648.404	13.79864
648.596	17.45842
648.788	13.88066
648.98	14.33743
649.172	14.79339
649.364	14.58254
649.556	8.20784
649.748	20.40167
649.94	10.64634
650.132	14.8921
650.324	10.8386
650.516	11.18952
650.708	16.39851
650.9	9.58349
651.092	11.68288
651.284	8.62294
651.476	10.2805
651.667	14.68271
651.859	17.24912
652.051	13.24151
652.243	13.49861
652.435	11.96529
652.627	14.33854
652.818	14.83318
653.01	8.82127
653.202	10.82862
653.394	12.69971
653.585	15.20588
653.777	26.83021
653.969	17.4908
654.16	17.24985
654.352	11.00737
654.544	13.33021
654.735	17.05923
654.927	14.22189
655.118	18.5039
655.31	16.56728
655.502	16.4939
655.693	12.28697
655.885	15.78493
656.076	18.26478
656.268	14.78535
656.459	17.89116
656.651	17.82794
656.842	11.95143
657.034	11.40813
657.225	16.24897
657.416	17.95164
657.608	17.43187
657.799	13.11624
657.99	15.87958
658.182	10.57223
658.373	11.05095
658.564	15.41443
658.756	13.22745
658.947	12.36629
659.138	9.9134
659.33	10.84921
659.521	10.6347
659.712	12.23147
659.903	12.04697
660.094	10.97478
660.286	8.42158
660.477	19.20878
660.668	14.8032
660.859	13.66202
661.05	9.25175
661.241	15.78422
661.432	15.8288
661.623	13.26836
661.814	12.39381
662.006	9.05677
662.197	15.50818
662.388	18.22886
662.579	15.27446
662.77	24.1625
662.96	24.27781
663.151	17.96597
663.342	9.15178
663.533	16.36408
663.724	14.94981
663.915	21.07929
664.106	15.13054
664.297	21.4141
664.488	17.43724
664.678	13.56966
664.869	17.24898
665.06	18.15003
665.251	16.31706
665.442	17.03397
665.632	12.09609
665.823	21.94591
666.014	5.84092
666.204	17.64085
666.395	20.91018
666.586	26.52502
666.776	18.61564
666.967	22.00993
667.158	15.57814
667.348	21.23055
667.539	11.59313
667.729	18.95346
667.92	12.87353
668.111	18.83826
668.301	17.82768
668.492	13.93407
668.682	14.82444
668.873	14.41561
669.063	11.6923
669.253	15.79418
669.444	19.71042
669.634	15.49009
669.825	22.2938
670.015	19.08599
670.206	12.91656
670.396	24.07171
670.586	15.49941
670.777	18.07305
670.967	8.03817
671.157	15.79834
671.347	13.73406
671.538	22.0663
671.728	17.79293
671.918	23.46857
672.108	20.19037
672.299	16.53516
672.489	17.73364
672.679	14.41972
672.869	18.06091
673.059	23.37351
673.249	18.24557
673.44	13.86075
673.63	16.07323
673.82	20.45504
674.01	13.34747
674.2	18.84227
674.39	28.78037
674.58	19.21987
674.77	17.66346
674.96	17.36508
675.15	33.28966
675.34	21.33553
675.53	17.11733
675.72	14.86649
675.91	12.11811
676.099	24.94763
676.289	26.32781
676.479	21.54133
676.669	15.59084
676.859	19.59683
677.049	13.05702
677.238	17.4729
677.428	23.88381
677.618	18.54694
677.808	22.47478
677.997	18.38203
678.187	12.57921
678.377	16.62211
678.567	15.1625
678.756	14.8573
678.946	15.53212
679.136	10.73975
679.325	12.80869
679.515	12.8229
679.704	10.96322
679.894	18.05129
680.084	16.39767
680.273	20.83884
680.463	11.97763
680.652	12.59487
680.842	15.5222
681.031	19.24469
681.221	12.45159
681.41	18.25918
681.6	15.89312
681.789	19.07896
681.978	22.33428
682.168	17.93682
682.357	18.54748
682.547	20.21032
682.736	18.49908
682.925	22.81177
683.115	23.20535
683.304	21.80028
683.493	19.53182
683.682	20.26873
683.872	19.9904
684.061	23.77225
684.25	21.41415
684.439	26.76523
684.629	21.1571
684.818	33.32609
685.007	18.14614
685.196	17.17521
685.385	26.00226
685.574	21.08257
685.763	20.58298
685.952	19.80072
686.142	13.81564
686.331	25.59001
686.52	11.28228
686.709	26.25821
686.898	26.21367
687.087	22.28775
687.276	26.77722
687.465	23.99353
687.654	17.77089
687.842	26.49666
688.031	13.2123
688.22	25.40894
688.409	20.2717
688.598	20.34996
688.787	31.28782
688.976	20.1932
689.165	28.76222
689.353	18.4754
689.542	22.22327
689.731	24.44083
689.92	30.44978
690.108	24.52235
690.297	18.67286
690.486	21.44993
690.675	24.77983
690.863	29.30053
691.052	28.63223
691.241	22.78639
691.429	23.12192
691.618	28.08793
691.806	15.17986
691.995	20.72392
692.184	21.29082
692.372	19.0744
692.561	21.52074
692.749	21.64042
692.938	34.56036
693.126	24.96676
693.315	19.61988
693.503	25.41703
693.692	26.04619
693.88	27.34198
694.068	34.04272
694.257	22.21069
694.445	24.25344
694.634	13.10356
694.822	28.22557
695.01	29.05929
695.199	29.99604
695.387	30.83212
695.575	29.18325
695.763	22.63027
695.952	20.72261
696.14	15.34063
696.328	18.99714
696.516	22.53958
696.705	23.37046
696.893	22.71331
697.081	12.53479
697.269	24.15173
697.457	15.39243
697.645	14.00388
697.833	23.06373
698.021	14.98285
698.21	17.07684
698.398	17.79423
698.586	13.10425
698.774	11.96285
698.962	17.17196
699.15	13.78046
699.338	11.83587
699.526	20.76959
699.714	16.03374
699.901	17.29936
700.089	24.8961
700.277	16.87863
700.465	19.85827
700.653	24.85797
700.841	23.26799
701.029	17.64479
701.217	28.65126
701.404	23.19082
701.592	29.55982
701.78	33.76519
701.968	20.57668
702.155	21.61479
702.343	15.71566
702.531	30.05825
702.718	25.79208
702.906	22.23232
703.094	20.32607
703.281	30.81617
703.469	22.15683
703.657	30.11319
703.844	43.13066
704.032	34.72676
704.219	20.17887
704.407	26.92346
704.595	32.34005
704.782	25.64653
704.97	22.07829
705.157	21.77515
705.345	35.05515
705.532	41.36626
705.719	27.4615
705.907	33.70349
706.094	25.64908
706.282	36.25238
706.469	24.65028
706.656	25.88376
706.844	23.63546
707.031	30.84594
707.218	27.15185
707.406	35.4821
707.593	30.65418
707.78	30.43833
707.968	24.84672
708.155	20.03411
708.342	29.90728
708.529	30.04667
708.716	26.24835
708.904	37.02489
709.091	30.43977
709.278	20.10965
709.465	38.05498
709.652	38.04815
709.839	35.15135
710.026	28.52596
710.213	16.40326
710.4	28.97932
710.587	30.8969
710.774	33.37321
710.961	34.54907
711.148	26.67373
711.335	35.05648
711.522	26.69202
711.709	29.08874
711.896	40.99416
712.083	33.17929
712.27	22.76384
712.457	28.48494
712.644	19.20608
712.831	41.00869
713.017	29.04428
713.204	32.41933
713.391	24.1407
713.578	35.9753
713.765	37.4093
713.951	31.5408
714.138	49.75266
714.325	33.09541
714.512	28.66977
714.698	24.20106
714.885	37.97791
715.072	29.9431
715.258	29.59055
715.445	25.58294
715.631	37.42102
715.818	12.5
716.005	24.66328
716.191	31.9147
716.378	27.65055
716.564	35.1512
716.751	24.16569
716.937	26.53775
717.124	37.76344
717.31	25.5427
717.497	41.27256
717.683	25.80384
717.869	48.41295
718.056	27.13853
718.242	35.26967
718.429	30.71416
718.615	22.66452
718.801	31.60899
718.988	39.7593
719.174	36.37672
719.36	30.75911
719.547	41.854
719.733	34.14719
719.919	35.10514
720.105	38.16963
720.291	31.22422
720.478	33.96806
720.664	31.38833
720.85	29.51288
721.036	56.22969
721.222	44.35874
721.408	32.01282
721.595	50.20358
721.781	46.94364
721.967	41.86989
722.153	46.42062
722.339	38.9563
722.525	37.77105
722.711	27.21391
722.897	23.43194
723.083	31.04314
723.269	42.5966
723.455	56.0276
723.641	59.84042
723.827	37.43287
724.012	38.66103
724.198	32.09613
724.384	45.81794
724.57	38.20308
724.756	22.8803
724.942	19.83729
725.127	42.99432
725.313	46.24403
725.499	47.10469
725.685	50.88887
725.87	38.98175
726.056	28.21763
726.242	46.63025
726.428	22.91602
726.613	43.38376
726.799	33.94999
726.985	25.81835
727.17	23.00448
727.356	51.06577
727.541	28.35818
727.727	34.78866
727.913	40.5604
728.098	30.43478
728.284	40.5915
728.469	24.07219
728.655	29.33229
728.84	42.14467
729.026	41.73977
729.211	42.44603
729.397	37.22232
729.582	42.09562
729.767	34.27572
729.953	37.85417
730.138	45.042
730.323	17.36233
730.509	25.52152
730.694	48.69863
730.879	39.55138
731.065	36.60558
731.25	53.99758
731.435	40.2432
731.621	22.295
731.806	29.30882
731.991	37.64519
732.176	22.46974
732.361	46.15217
732.547	37.4042
732.732	23.49321
732.917	55.71508
733.102	25.75376
733.287	29.55595
733.472	35.48302
733.657	37.46954
733.842	23.87446
734.027	32.5609
734.212	35.26949
734.397	30.60322
734.582	37.68962
734.767	46.36383
734.952	52.52452
735.137	16.03887
735.322	52.26874
735.507	42.26111
735.692	40.40903
735.877	59.75955
736.062	56.23674
736.247	42.72388
736.431	38.64932
736.616	50.27372
736.801	43.10689
736.986	37.92065
737.171	31.35813
737.355	24.52863
737.54	50.59526
737.725	39.41886
737.909	66.2013
738.094	33.32955
738.279	46.21017
738.463	36.65312
738.648	44.18705
738.833	42.30323
739.017	57.81511
739.202	36.42071
739.386	38.16397
739.571	30.15114
739.756	45.25573
739.94	39.8426
740.125	49.21887
740.309	32.39917
740.494	48.30668
740.678	40.91494
740.863	44.71696
741.047	41.61348
741.231	53.91834
741.416	32.46655
741.6	57.55174
741.785	35.65382
741.969	48.39556
742.153	53.39092
742.338	19.41608
742.522	39.55398
742.706	49.73357
742.89	28.44751
743.075	43.1677
743.259	57.98369
743.443	51.81778
743.627	54.3523
743.812	66.18122
743.996	25.74441
744.18	39.03448
744.364	37.38667
744.548	69.84071
744.732	41.77373
744.916	51.43306
745.1	46.94219
745.285	40.48243
745.469	47.04691
745.653	64.08863
745.837	28.62292
746.021	69.33378
746.205	56.51073
746.389	45.42156
746.573	38.19982
746.757	61.04655
746.94	36.33423
747.124	56.54793
747.308	30.78514
747.492	56.74836
747.676	36.30776
747.86	70.01701
748.044	36.92563
748.227	24.24891
748.411	84.85381
748.595	46.64756
748.779	33.44467
748.963	49.70427
749.146	44.43757
749.33	32.97086
749.514	31.27804
749.697	58.14909
749.881	36.70517
750.065	32.58468
750.248	44.45319
750.432	72.50844
750.616	43.84895
750.799	30.2087
750.983	68.39617
751.166	77.48954
751.35	27.09166
751.533	58.61415
751.717	60.86812
751.9	63.98327
752.084	39.91999
752.267	33.2965
752.451	37.34536
752.634	46.66293
752.818	49.67888
753.001	54.59861
753.184	57.30874
753.368	49.2518
753.551	10.81681
753.734	36.74199
753.918	69.70479
754.101	36.72703
754.284	52.9026
754.467	39.583
754.651	36.04196
754.834	36.61593
755.017	60.20781
755.2	56.87181
755.384	31.55401
755.567	54.08174
755.75	59.82455
755.933	41.77354
756.116	47.47321
756.299	40.00441
756.482	34.80186
756.665	52.80083
756.848	46.21068
757.032	50.96593
757.215	30.33792
757.398	36.00491
757.581	35.3172
757.764	80.54534
757.947	45.00276
758.129	61.69304
758.312	12.66814
758.495	43.83843
758.678	43.50438
758.861	42.71489
759.044	71.328
759.227	35.33985
759.41	35.79453
759.592	54.77272
759.775	44.23538
759.958	59.74468
760.141	32.25823
760.324	75.80001
760.506	65.27752
760.689	57.28535
760.872	77.29607
761.054	54.28131
761.237	43.65414
761.42	52.19307
761.602	57.60954
761.785	52.23729
761.968	57.7525
762.15	68.759
762.333	43.40538
762.515	48.37836
762.698	37.38218
762.88	50.58048
763.063	45.92407
763.245	51.69766
763.428	30.33831
763.61	35.03924
763.793	26.43429
763.975	43.87529
764.158	36.84853
764.34	35.11487
764.522	29.65175
764.705	39.14167
764.887	59.48402
765.069	26.35059
765.252	52.53583
765.434	56.96881
765.616	46.80014
765.799	39.29055
765.981	55.65577
766.163	36.01283
766.345	59.82044
766.528	38.34087
766.71	18.88465
766.892	49.2114
767.074	63.95501
767.256	45.64285
767.438	71.16369
767.62	53.20931
767.802	80.5448
767.985	58.40867
768.167	77.63128
768.349	41.23247
768.531	57.80906
768.713	54.36389
768.895	63.69639
769.077	56.97188
769.259	86.54941
769.441	124.04308
769.623	65.62809
769.804	75.52621
769.986	72.12651
770.168	89.53582
770.35	108.79863
770.532	76.32155
770.714	85.46227
770.896	87.85693
771.077	38.05181
771.259	89.22739
771.441	76.40462
771.623	96.64847
771.804	117.9788
771.986	37.64199
772.168	59.01148
772.35	92.83187
772.531	118.9715
772.713	67.7874
772.894	98.09877
773.076	69.30782
773.258	62.40681
773.439	97.82928
773.621	109.47504
773.802	48.86294
773.984	61.71594
774.166	77.07015
774.347	103.7275
774.529	94.02068
774.71	31.63618
774.891	67.61952
775.073	62.6299
775.254	104.32694
775.436	61.11704
775.617	116.70141
775.799	62.39593
775.98	106.25542
776.161	112.43551
776.343	113.40094
776.524	71.11645
776.705	62.65779
776.886	35.15163
777.068	81.09488
777.249	136.53208
777.43	123.47117
777.611	50.25442
777.793	66.37218
777.974	111.24686
778.155	62.73674
778.336	56.82945
778.517	124.95335
778.698	59.13415
778.879	32.55029
779.061	16.36823
779.242	83.92368
779.423	83.03574
779.604	69.00769
779.785	72.24953
779.966	76.0424
780.147	96.32195
780.328	99.72477
780.509	138.11521
780.69	89.66168
780.871	58.30069
781.051	43.62507
781.232	79.25727
781.413	78.61135
781.594	67.36001
781.775	60.94397
781.956	56.5027
782.137	34.51445
782.317	56.66442
782.498	80.94215
782.679	78.16625
782.86	76.20169
783.04	59.6648
783.221	82.62477
783.402	121.12573
783.583	80.02029
783.763	90.00552
783.944	64.01016
784.124	40.53552
784.305	114.23067
784.486	86.2996
784.666	73.16241
784.847	42.1476
785.027	139.76234
785.208	58.08635
785.388	58.91089
785.569	59.64486
785.749	67.61559
785.93	60.21395
786.11	39.03993
786.291	85.70449
786.471	78.72566
786.652	90.01858
786.832	71.42074
787.012	80.86893
787.193	48.19233
787.373	74.47162
787.553	63.82655
787.734	79.82355
787.914	62.73488
788.094	84.84915
788.275	78.34932
788.455	64.30991
788.635	47.09818
788.815	78.67446
788.995	48.0318
789.176	40.36813
789.356	55.48385
789.536	66.33976
789.716	83.87351
789.896	57.49024
790.076	62.45013
790.256	77.8695
790.436	26.75433
790.616	55.0871
790.796	78.482
790.976	62.37105
791.156	58.57366
791.336	90.32342
791.516	81.95235
791.696	67.2274
791.876	39.7432
792.056	76.73159
792.236	95.27638
792.416	90.49502
792.596	83.53851
792.776	84.54511
792.956	87.60037
793.135	108.11539
793.315	48.90091
793.495	102.81877
793.675	88.86906
793.854	91.22077
794.034	94.73286
794.214	48.26747
794.394	89.31673
794.573	100.35113
794.753	74.94717
794.933	54.37467
795.112	76.3184
795.292	91.33084
795.472	116.71561
795.651	42.51803
795.831	72.25321
796.01	65.39356
796.19	66.29808
796.369	69.55057
796.549	83.0883
796.728	70.815
796.908	42.80109
797.087	49.8273
797.267	63.77915
797.446	49.26472
797.626	82.86627
797.805	82.43598
797.984	53.86381
798.164	88.72872
798.343	50.07739
798.522	78.21186
798.702	76.04796
798.881	45.63256
799.06	71.56472
799.239	32.07572
799.419	54.85887
799.598	109.7904
799.777	85.86803
799.956	101.33532
800.136	65.0766
800.315	58.73958
800.494	82.33712
800.673	96.84228
800.852	89.69619
801.031	101.52467
801.21	89.98345
801.389	64.32314
801.568	77.42671
801.747	117.57728
801.926	76.29179
802.105	111.99236
802.284	64.32918
802.463	112.46319
802.642	78.89347
802.821	80.27708
803	109.22107
803.179	95.63588
803.358	106.76119
803.537	56.61858
803.716	78.42213
803.895	61.58302
804.073	72.71496
804.252	59.54569
804.431	83.6198
804.61	71.4571
804.789	100.2189
804.967	63.66893
805.146	59.49007
805.325	122.40368
805.503	85.80594
805.682	39.94468
805.861	142.17647
806.039	105.37149
806.218	60.28061
806.397	81.19657
806.575	76.34733
806.754	82.71265
806.932	52.32582
807.111	112.12656
807.289	97.82007
807.468	76.17591
807.646	103.11126
807.825	87.39449
808.003	83.48507
808.182	99.67867
808.36	77.91005
808.539	61.46708
808.717	114.08113
808.895	59.32283
809.074	83.51454
809.252	71.50833
809.43	96.49189
809.609	103.26865
809.787	115.95341
809.965	74.23434
810.144	77.40526
810.322	72.07898
810.5	91.55796
810.678	73.55938
810.856	138.65414
811.035	107.96584
811.213	97.54584
811.391	113.20672
811.569	87.56244
811.747	157.49571
811.925	109.10764
812.103	64.32263
812.281	72.9852
812.459	130.93673
812.637	129.85936
812.816	102.85243
812.994	131.69867
813.171	113.68758
813.349	94.27759
813.527	113.28961
813.705	125.52103
813.883	150.94905
814.061	112.03351
814.239	133.86682
814.417	143.48164
814.595	92.60095
814.773	95.43846
814.95	92.32786
815.128	95.49566
815.306	81.7131
815.484	75.17016
815.662	60.62941
815.839	55.48872
816.017	66.28263
816.195	109.34126
816.372	72.63616
816.55	100.67658
816.728	125.90282
816.905	77.83082
817.083	130.13199
817.261	82.92786
817.438	146.42149
817.616	136.70124
817.793	68.33419
817.971	105.80753
818.148	101.2455
818.326	120.91372
818.503	92.44495
818.681	117.54486
818.858	71.34659
819.036	82.34859
819.213	86.78766
819.391	64.04056
819.568	58.97529
819.745	54.19657
819.923	101.34387
820.1	65.27384
820.277	57.04831
820.455	66.06228
820.632	68.97747
820.809	70.91024
820.986	45.32946
821.164	35.47645
821.341	29.42624
821.518	41.85788
821.695	28.86277
821.872	26.18204
822.05	22.13806
822.227	16.51885
822.404	17.93498
822.581	22.50098
822.758	18.08051
822.935	18.32159
823.112	22.09658
823.289	17.071
823.466	23.0446
823.643	21.42977
823.82	28.11816
823.997	26.11093
824.174	32.40198
824.351	44.80209
824.528	43.25052
824.705	38.88474
824.882	44.49605
825.059	57.6678
825.236	38.392
825.412	40.80259
825.589	50.50551
825.766	70.17809
825.943	43.53496
826.12	50.63389
826.296	31.79651
826.473	42.0889
826.65	40.14513
826.827	49.71072
827.003	31.5955
827.18	36.59798
827.357	41.77483
827.533	37.13377
827.71	20.10642
827.887	32.60843
828.063	39.85855
828.24	33.42035
828.416	48.77086
828.593	39.91248
828.769	60.00888
828.946	69.734
829.122	71.60069
829.299	67.73877
829.475	39.11302
829.652	67.7136
829.828	111.62334
830.005	68.34569
830.181	95.96793
830.357	67.23101
830.534	99.02332
830.71	75.54094
830.886	95.675
831.063	88.95206
831.239	112.14905
831.415	52.41253
831.592	115.23911
831.768	75.57033
831.944	60.00458
832.12	112.60868
832.296	104.00328
832.473	89.78854
832.649	65.11515
832.825	87.04311
833.001	49.57477
833.177	73.42847
833.353	65.26732
833.529	37.67772
833.705	53.71416
833.881	38.99441
834.058	38.86061
834.234	42.53898
834.41	42.85036
834.586	33.14613
834.761	42.80599
834.937	49.65152
835.113	51.75313
835.289	46.66537
835.465	60.33346
835.641	50.70626
835.817	60.93821
835.993	103.78358
836.169	52.7356
836.344	80.01039
836.52	89.81969
836.696	88.61167
836.872	61.39631
837.048	175.91469
837.223	74.26893
837.399	149.34744
837.575	112.62484
837.75	105.41604
837.926	136.58368
838.102	213.27838
838.277	172.60471
838.453	209.97084
838.628	203.6687
838.804	92.3651
838.98	203.75415
839.155	99.26078
839.331	132.69515
839.506	93.20003
839.682	96.86146
839.857	114.52491
840.033	136.89268
840.208	70.66901
840.384	33.62946
840.559	77.32628
840.734	111.57202
840.91	155.72436
841.085	96.72982
841.26	105.29227
841.436	86.08952
841.611	94.06218
841.786	143.92747
841.962	182.40014
842.137	112.46095
842.312	78.67635
842.487	102.10683
842.663	82.57685
842.838	95.60768
843.013	290.24764
843.188	153.84182
843.363	129.01244
843.538	273.35067
843.714	266.08065
843.889	265.73582
844.064	263.97278
844.239	227.48309
844.414	271.64426
844.589	190.0815
844.764	316.03008
844.939	290.59339
845.114	386.42109
845.289	325.78335
845.464	369.06565
845.639	290.85129
845.814	169.43853
845.989	184.63924
846.163	193.70753
846.338	242.79395
846.513	333.44007
846.688	217.67743
846.863	224.2697
847.038	187.76791
847.212	222.69676
847.387	239.82646
847.562	240.061
847.737	256.64707
847.911	113.62038
848.086	148.55511
848.261	398.38447
848.435	212.12594
848.61	315.02066
848.785	144.39371
848.959	276.89161
849.134	388.55729
849.308	509.19157
849.483	227.98387
849.658	342.52757
849.832	210.58742
850.007	183.66721
850.181	414.23547
850.356	184.93117
850.53	381.73103
850.705	142.65711
850.879	102.41802
851.053	240.65668
851.228	189.19968
851.402	277.75858
851.577	342.70686
851.751	329.55339
851.925	250.10556
852.099	110.26121
852.274	180.80549
852.448	227.51767
852.622	252.85435
852.797	230.36046
852.971	220.944
853.145	263.29882
853.319	460.91113
853.493	356.03055
853.668	204.61627
853.842	395.70915
854.016	313.89684
854.19	421.06474
854.364	271.96546
854.538	271.13749
854.712	349.27912
854.886	245.88733
855.06	211.41284
855.234	75.98617
855.408	391.08997
855.582	338.85096
855.756	322.8829
855.93	401.84548
856.104	267.37077
856.278	319.18773
856.452	237.77652
856.626	287.34825
856.8	446.91304
856.973	299.21168
857.147	264.2282
857.321	277.78567
857.495	338.45355
857.669	247.00038
857.842	218.53462
858.016	376.95848
858.19	163.25243
858.364	581.54947
858.537	217.11722
858.711	256.30774
858.885	201.14112
859.058	189.70271
859.232	121.32097
859.405	131.80371
859.579	332.46603
859.753	266.21627
859.926	178.17371
860.1	131.90116
860.273	223.13229
860.447	412.86474
860.62	219.30914
860.794	445.17438
860.967	258.61787
861.141	354.68157
861.314	473.66816
861.487	296.50863
861.661	369.07963
861.834	421.51974
862.008	322.28741
862.181	271.41338
862.354	269.95003
862.528	313.59731
862.701	177.21609
862.874	142.93846
863.047	207.68515
863.221	216.09078
863.394	106.36676
863.567	341.5723
863.74	82.10304
863.913	347.79099
864.087	280.6614
864.26	308.99911
864.433	228.615
864.606	473.35809
864.779	248.00878
864.952	122.8565
865.125	200.00552
865.298	236.14794
865.471	249.15187
865.644	405.65772
865.817	354.31551
865.99	312.56067
866.163	386.76547
866.336	204.72042
866.509	241.7665
866.682	191.18791
866.855	330.93049
867.028	148.29447
867.2	291.10718
867.373	110.54884
867.546	255.999
867.719	431.6629
867.892	258.13498
868.064	168.22278
868.237	267.22047
868.41	293.12527
868.583	128.92934
868.755	148.55379
868.928	209.31579
869.101	450.97161
869.273	325.91251
869.446	278.88146
869.619	352.75266
869.791	225.62786
869.964	343.58309
870.136	308.63196
870.309	264.93478
870.481	264.08227
870.654	136.08138
870.826	247.5249
870.999	215.24997
871.171	304.21346
871.344	194.71876
871.516	236.70236
871.689	167.76644
871.861	261.38922
872.033	182.55163
872.206	223.63514
872.378	319.41094
872.55	212.71976
872.723	133.73514
872.895	193.41971
873.067	342.43496
873.24	312.58768
873.412	184.59937
873.584	227.36339
873.756	206.83508
873.928	270.98572
874.101	257.56902
874.273	257.41744
874.445	100.83914
874.617	146.535
874.789	243.19027
874.961	212.34853
875.133	268.54851
875.305	232.85219
875.477	147.54241
875.649	119.85715
875.821	162.69528
875.993	353.48175
876.165	150.96456
876.337	243.19188
876.509	230.81144
876.681	247.60961
876.853	260.91644
877.025	244.917
877.197	176.38178
877.369	142.67952
877.541	287.51916
877.712	78.9281
877.884	140.00628
878.056	247.33839
878.228	136.69165
878.4	261.75376
878.571	139.12371
878.743	99.00856
878.915	207.1243
879.086	131.92653
879.258	163.44606
879.43	139.67446
879.601	119.06881
879.773	128.68249
879.945	34.92604
880.116	51.81161
880.288	33.42664
880.459	36.64712
880.631	25.84805
880.802	32.08593
880.974	30.10416
881.145	20.4725
881.317	27.20383
881.488	20.53015
881.66	23.20414
881.831	20.7808
882.002	30.97615
882.174	21.74225
882.345	30.39333
882.517	15.26749
882.688	40.3443
882.859	32.27604
883.03	56.39892
883.202	54.97587
883.373	48.36058
883.544	48.86481
883.715	82.09802
883.887	69.65704
884.058	60.26085
884.229	85.28633
884.4	85.5265
884.571	96.28595
884.742	77.91282
884.914	88.03355
885.085	125.64318
885.256	165.65911
885.427	131.57266
885.598	153.17094
885.769	157.03883
885.94	156.5726
886.111	103.12768
886.282	183.96826
886.453	141.08808
886.624	107.89272
886.795	195.60106
886.966	145.24331
887.136	195.25396
887.307	156.41779
887.478	257.62327
887.649	223.63581
887.82	218.56797
887.991	189.31087
888.161	257.03577
888.332	226.73474
888.503	132.26528
888.674	310.08186
888.844	343.76281
889.015	258.03621
889.186	131.79534
889.356	326.6395
889.527	116.37238
889.698	481.8163
889.868	171.88561
890.039	256.69937
890.209	193.47681
890.38	262.85749
890.551	217.93534
890.721	324.31325
890.892	281.81921
891.062	195.49506
891.233	256.47657
891.403	182.78289
891.574	154.33708
891.744	207.39525
891.914	216.29979
892.085	214.64578
892.255	73.53715
892.425	299.42247
892.596	226.85752
892.766	242.59393
892.936	272.50032
893.107	253.34991
893.277	143.25001
893.447	118.10217
893.618	81.24225
893.788	162.7487
893.958	94.78986
894.128	87.33978
894.298	96.68712
894.468	126.84595
894.639	64.70492
894.809	41.4608
894.979	67.03356
895.149	83.18659
895.319	70.18628
895.489	98.73048
895.659	125.98229
895.829	85.336
895.999	91.54146
896.169	79.48852
896.339	98.74915
896.509	195.98645
896.679	203.11082
896.849	215.93066
897.019	280.3797
897.189	201.88518
897.358	185.57996
897.528	276.94318
897.698	102.66414
897.868	239.41367
898.038	407.73005
898.208	373.17826
898.377	116.17377
898.547	349.58377
898.717	489.27156
898.886	253.38337
899.056	407.59713
899.226	479.64174
899.395	326.91787
899.565	450.56909
899.735	329.70368
899.904	479.67949
900.074	402.78551
900.244	179.52568
900.413	623.57933
900.583	143.40678
900.752	299.09714
900.922	410.15794
901.091	36.71164
901.261	348.04606
901.43	360.6681
901.599	327.70469
901.769	699.10697
901.938	476.40227
902.108	363.83118
902.277	468.22895
902.446	131.40593
902.616	159.16794
902.785	209.18568
902.954	375.18489
903.124	220.07418
903.293	172.81032
903.462	101.28208
903.631	143.79545
903.801	105.35758
903.97	57.88269
904.139	97.66109
904.308	75.79887
904.477	65.6189
904.646	41.76371
904.816	61.91543
904.985	96.77326
905.154	149.59061
