Data from WindowProjectSample_Transmission__23__00023__020378954376439973.txt Node

Date: Mon May 05 17:20:05 EDT 2025
User: jessi
Spectrometer: SR400872
Trigger mode: 0
Integration Time (sec): 5.000010E-1
Scans to average: 20
Electric dark correction enabled: true
Nonlinearity correction enabled: true
Boxcar width: 0
XAxis mode: Wavelengths
Number of Pixels in Spectrum: 3648
>>>>>Begin Spectral Data<<<<<
184.909	20683.26323
185.132	-5106.9802
185.355	-2998.45779
185.578	-17487.335
185.801	1044.36283
186.024	10100.48473
186.247	-1932.93477
186.47	1127.04896
186.693	314.59263
186.916	318.65532
187.139	-3702.0109
187.362	3368.64108
187.585	4357.93064
187.808	3303.30682
188.031	59.14103
188.254	-60533.10671
188.476	-543.84582
188.699	6172.36523
188.922	660.62221
189.145	-14634.03993
189.368	-603.82655
189.591	-1473.58658
189.813	3036.40578
190.036	-49156.75215
190.259	-793.1227
190.482	-4527.25077
190.705	7034.08109
190.927	-2570.18715
191.15	13253.28744
191.373	3215.57115
191.595	-8714.34123
191.818	-4139.34661
192.041	-6128.91074
192.263	-3453.47018
192.486	-858.50873
192.709	-3931.93773
192.931	7574.99536
193.154	-27489.72744
193.377	-2659.23046
193.599	-2519.67954
193.822	-9083.89264
194.044	-1895.57296
194.267	1127.80201
194.489	145.42068
194.712	-41675.89978
194.934	-31197.55838
195.157	1183.30544
195.379	1431.34726
195.602	-6956.70994
195.824	-1291.33849
196.047	-9240.46376
196.269	2648.60355
196.492	-6349.82236
196.714	28613.60762
196.936	-8598.49502
197.159	-1183.2102
197.381	1102.48747
197.604	505.78866
197.826	12271.50594
198.048	-11068.91526
198.271	-2761.17732
198.493	7257.59563
198.715	2278.34851
198.938	-465.8358
199.16	7028.95789
199.382	-98041.46303
199.604	2486.20251
199.827	-1083.00115
200.049	-3037.06391
200.271	13697.50491
200.493	1260.3214
200.715	-37522.89295
200.938	-5858.49915
201.16	-4202.28329
201.382	19962.08182
201.604	2346.46586
201.826	2301.44362
202.048	-1904.35736
202.27	-1895.27996
202.492	-35699.75365
202.715	2840.59956
202.937	-4415.01191
203.159	-5937.00679
203.381	1511.91716
203.603	6740.52211
203.825	6651.35617
204.047	2220.83732
204.269	-2726.787
204.491	2268.39411
204.713	5793.3311
204.935	-472156.58997
205.156	1173.591
205.378	-2916.7334
205.6	1598.28192
205.822	153156.56221
206.044	-893.02777
206.266	1576.89168
206.488	4829.34116
206.71	-5110.06439
206.932	1048.36861
207.153	11794.90484
207.375	-6916.02104
207.597	-36173.00074
207.819	-2854.42928
208.041	2422.93531
208.262	472.44001
208.484	671.22061
208.706	-794.44416
208.927	-828.08359
209.149	522.10405
209.371	-2907.06507
209.593	-305.81024
209.814	-776.39415
210.036	617.34436
210.258	-622.42647
210.479	1773.50765
210.701	1649.7275
210.922	3223.89208
211.144	-3682.88461
211.366	2041.4498
211.587	7523.83437
211.809	-8290.07815
212.03	2350.32768
212.252	511.88836
212.473	2072.47556
212.695	-6476.16491
212.916	2968.36777
213.138	-659.89845
213.359	3624.64873
213.581	5404.92508
213.802	-782.39474
214.024	1099.26544
214.245	2094.1753
214.466	2306.30581
214.688	-3263.88388
214.909	-1210.98275
215.131	-1706.93295
215.352	-3061.39616
215.573	14378.90032
215.795	5025.45321
216.016	5442.551
216.237	788.17873
216.459	3563.04802
216.68	1671.14845
216.901	4965.75498
217.122	-3155.40017
217.344	-11897.08038
217.565	3437.90947
217.786	8573.3988
218.007	15613.02067
218.228	-862.33693
218.45	6094.62753
218.671	830.981
218.892	37819.0328
219.113	1575.4044
219.334	-226.62574
219.555	10304.67527
219.776	3196.11746
219.997	22122.21222
220.219	2757.31221
220.44	-10945.89853
220.661	440.34552
220.882	1507.4492
221.103	-1100.91929
221.324	2281.03559
221.545	2236.94625
221.766	-8607.11395
221.987	980.69144
222.208	1645.73458
222.429	4254.09816
222.65	240.88013
222.87	19279.51884
223.091	668.32016
223.312	557.53681
223.533	1336.15605
223.754	1466.03306
223.975	1346.67018
224.196	1916.29762
224.417	1277.27135
224.637	597.496
224.858	53.76065
225.079	1162.22854
225.3	711.84338
225.521	3752.27604
225.741	458.63778
225.962	494.83956
226.183	128.90909
226.404	676.646
226.624	403.9247
226.845	643.76854
227.066	405.40459
227.286	252.66864
227.507	116.72978
227.728	107.87188
227.948	233.32917
228.169	70.64511
228.389	80.56415
228.61	47.84788
228.831	61.89845
229.051	0.9676
229.272	37.5518
229.492	55.2131
229.713	13.0062
229.933	36.79506
230.154	31.35802
230.374	52.69841
230.595	37.11232
230.815	25.16717
231.036	38.7123
231.256	-9.45596
231.477	69.1357
231.697	34.41026
231.917	40.48854
232.138	56.07598
232.358	111.8876
232.579	102.29979
232.799	18.57943
233.019	96.02591
233.24	109.92963
233.46	38.74483
233.68	65.92172
233.901	42.79922
234.121	28.78469
234.341	12.74915
234.561	-2.96738
234.782	19.08917
235.002	66.3166
235.222	-2.71969
235.442	65.75434
235.662	33.27051
235.883	60.81644
236.103	47.60169
236.323	36.42136
236.543	28.59019
236.763	41.43372
236.983	44.14814
237.203	39.94279
237.423	58.4158
237.643	86.53908
237.864	70.65276
238.084	19.53814
238.304	26.70425
238.524	40.2969
238.744	39.39791
238.964	74.17603
239.184	59.40516
239.404	64.65458
239.624	34.06994
239.843	58.53628
240.063	34.18741
240.283	21.10398
240.503	24.29991
240.723	24.90636
240.943	13.80897
241.163	20.34498
241.383	13.44062
241.603	7.51658
241.822	9.51092
242.042	6.54332
242.262	7.97329
242.482	9.4231
242.702	10.50765
242.921	2.99566
243.141	6.51063
243.361	6.1113
243.581	8.96249
243.8	7.09615
244.02	4.96905
244.24	9.13241
244.459	8.48054
244.679	17.87096
244.899	11.12125
245.118	12.75488
245.338	11.76454
245.558	13.18444
245.777	8.70113
245.997	10.53801
246.216	10.97297
246.436	6.44293
246.655	4.58672
246.875	3.12599
247.094	6.08954
247.314	2.211
247.533	3.57669
247.753	4.47899
247.972	3.44619
248.192	0.95851
248.411	1.81577
248.631	3.50505
248.85	4.81364
249.07	3.73538
249.289	6.01665
249.508	4.74729
249.728	7.66683
249.947	6.6603
250.166	9.15526
250.386	4.10676
250.605	6.59274
250.824	11.1552
251.044	7.50269
251.263	28.05232
251.482	14.6009
251.701	11.53197
251.921	-0.19619
252.14	3.25769
252.359	3.90269
252.578	9.63192
252.798	3.47852
253.017	8.7387
253.236	4.1112
253.455	5.90065
253.674	10.48817
253.893	4.96463
254.112	7.04707
254.331	10.72188
254.551	8.42606
254.77	3.51511
254.989	13.44086
255.208	9.88205
255.427	15.65547
255.646	11.39964
255.865	20.84077
256.084	8.88781
256.303	11.10594
256.522	14.15363
256.741	2.34656
256.96	3.04246
257.179	8.24374
257.397	10.49637
257.616	6.1663
257.835	5.84541
258.054	14.93181
258.273	10.41953
258.492	11.15318
258.711	6.56383
258.93	2.96191
259.148	4.95838
259.367	4.31892
259.586	5.5603
259.805	2.42073
260.023	5.15858
260.242	3.88471
260.461	2.85027
260.68	1.38765
260.898	4.32222
261.117	1.39079
261.336	0.9038
261.554	3.42896
261.773	3.32781
261.992	0.77365
262.21	3.16437
262.429	3.43646
262.648	7.24513
262.866	8.35027
263.085	5.82447
263.303	5.00444
263.522	8.38944
263.74	8.9505
263.959	15.05448
264.178	7.05648
264.396	6.58813
264.615	4.5479
264.833	10.46575
265.051	8.67717
265.27	11.11362
265.488	10.74278
265.707	6.04994
265.925	11.11552
266.144	4.41036
266.362	5.41538
266.58	5.33652
266.799	4.80879
267.017	6.11923
267.235	5.24546
267.454	3.02542
267.672	1.69609
267.89	4.08221
268.109	4.24038
268.327	4.14824
268.545	0.76721
268.763	4.06619
268.982	1.21403
269.2	4.10949
269.418	3.01369
269.636	1.87356
269.854	4.5126
270.073	3.07355
270.291	1.99756
270.509	1.83693
270.727	4.1986
270.945	7.08352
271.163	7.09968
271.381	1.35588
271.599	3.2316
271.817	5.1925
272.036	1.69947
272.254	3.22909
272.472	2.33556
272.69	2.50836
272.908	2.41239
273.126	4.40955
273.344	5.35548
273.562	1.87032
273.779	2.59828
273.997	3.95731
274.215	4.03306
274.433	3.0238
274.651	4.39389
274.869	4.66041
275.087	2.79269
275.305	4.0277
275.523	2.38944
275.74	2.9093
275.958	5.35477
276.176	8.09536
276.394	2.73011
276.612	3.27875
276.829	3.19188
277.047	2.71254
277.265	2.90202
277.483	3.55398
277.7	4.16234
277.918	3.25908
278.136	6.1646
278.353	2.95237
278.571	1.71552
278.789	4.167
279.006	0.57681
279.224	2.84928
279.442	5.13844
279.659	3.58148
279.877	2.36821
280.094	5.85032
280.312	1.08143
280.529	3.35982
280.747	1.00919
280.964	2.55255
281.182	5.85715
281.399	2.76521
281.617	3.85096
281.834	2.57269
282.052	1.90307
282.269	3.24804
282.487	2.30814
282.704	2.02355
282.921	2.14686
283.139	3.31579
283.356	4.07869
283.574	3.7775
283.791	1.81729
284.008	5.5355
284.226	3.16348
284.443	3.17744
284.66	4.51068
284.877	3.54958
285.095	2.03956
285.312	1.60199
285.529	0.76882
285.746	0.74212
285.964	2.05529
286.181	1.33506
286.398	1.88674
286.615	2.64117
286.832	2.60167
287.05	0.63011
287.267	1.81676
287.484	2.08018
287.701	2.60644
287.918	2.67923
288.135	2.6942
288.352	1.21246
288.569	1.43982
288.786	2.45176
289.003	1.94781
289.22	3.0115
289.437	1.51213
289.654	2.83856
289.871	3.08243
290.088	2.9093
290.305	2.25729
290.522	1.74665
290.739	2.02686
290.956	3.08333
291.173	3.42084
291.39	3.42517
291.607	2.3639
291.824	1.94432
292.04	1.41209
292.257	2.92478
292.474	3.3875
292.691	2.02916
292.908	0.99624
293.125	1.81302
293.341	1.36216
293.558	5.19724
293.775	2.40621
293.992	2.47669
294.208	1.40223
294.425	2.2481
294.642	2.85216
294.858	3.50015
295.075	1.85301
295.292	3.20971
295.508	3.96385
295.725	5.86211
295.942	4.0908
296.158	3.92061
296.375	5.19312
296.591	4.87411
296.808	5.67703
297.024	6.41999
297.241	6.88992
297.458	7.41126
297.674	5.78609
297.891	7.40297
298.107	7.76767
298.323	7.20329
298.54	9.81272
298.756	8.10671
298.973	7.69372
299.189	10.55771
299.406	9.03853
299.622	10.36596
299.838	10.86753
300.055	10.74665
300.271	9.64469
300.487	9.84022
300.704	10.55618
300.92	10.23469
301.136	13.90729
301.353	12.22563
301.569	11.76113
301.785	12.28634
302.001	13.02756
302.218	12.75139
302.434	13.52224
302.65	11.82555
302.866	12.76332
303.083	15.28856
303.299	15.64109
303.515	13.72217
303.731	14.55137
303.947	12.81956
304.163	13.95069
304.379	14.54694
304.595	15.02686
304.812	14.15234
305.028	14.33162
305.244	14.54735
305.46	15.49897
305.676	16.0507
305.892	16.77812
306.108	15.98853
306.324	15.37615
306.54	17.15545
306.756	16.15019
306.972	15.78007
307.187	16.14302
307.403	16.88836
307.619	15.63867
307.835	17.08636
308.051	17.84788
308.267	15.44543
308.483	18.1795
308.699	17.37496
308.914	17.25055
309.13	16.92775
309.346	16.46466
309.562	16.79578
309.778	16.61163
309.993	18.14653
310.209	18.41611
310.425	17.25259
310.641	18.4269
310.856	17.70163
311.072	17.75122
311.288	18.44748
311.503	19.02115
311.719	17.44864
311.935	17.5749
312.15	19.50277
312.366	19.30237
312.581	19.58148
312.797	19.38105
313.013	20.19796
313.228	18.76354
313.444	18.94761
313.659	18.55841
313.875	19.35497
314.09	18.94327
314.306	20.12898
314.521	19.90912
314.737	19.82897
314.952	19.36282
315.168	19.30514
315.383	19.78084
315.599	19.02985
315.814	19.26704
316.029	20.13497
316.245	18.90692
316.46	17.97592
316.675	20.70336
316.891	21.06631
317.106	22.34764
317.321	19.59414
317.537	20.18619
317.752	20.6353
317.967	20.80421
318.183	18.97321
318.398	19.84091
318.613	20.54946
318.828	21.42862
319.043	20.62827
319.259	19.77465
319.474	20.33863
319.689	21.38431
319.904	18.77516
320.119	21.40995
320.334	20.33125
320.549	20.44851
320.765	21.36084
320.98	20.87659
321.195	20.55603
321.41	20.49962
321.625	21.02567
321.84	22.00945
322.055	21.77541
322.27	20.06918
322.485	19.61005
322.7	21.29996
322.915	21.48882
323.13	20.5723
323.345	22.51218
323.56	22.29728
323.775	21.74763
323.989	21.83267
324.204	21.68549
324.419	22.63707
324.634	20.68405
324.849	21.60631
325.064	24.84085
325.279	22.84602
325.493	22.06921
325.708	22.75665
325.923	21.38655
326.138	21.76014
326.352	23.18212
326.567	22.85505
326.782	21.52262
326.997	21.9164
327.211	22.62086
327.426	22.39421
327.641	21.84874
327.855	21.06624
328.07	22.61643
328.285	23.95116
328.499	21.74282
328.714	22.44376
328.928	22.30916
329.143	22.32889
329.358	23.23048
329.572	23.23513
329.787	23.5884
330.001	24.55813
330.216	21.04043
330.43	24.56133
330.645	23.41046
330.859	23.31829
331.074	21.43437
331.288	22.64365
331.503	23.95468
331.717	21.68716
331.931	22.89238
332.146	23.32149
332.36	24.48639
332.575	23.22497
332.789	23.01732
333.003	23.36707
333.218	23.51495
333.432	22.76004
333.646	24.13109
333.86	24.9838
334.075	24.44625
334.289	22.80866
334.503	21.90548
334.717	23.89632
334.932	23.55399
335.146	24.12671
335.36	22.49008
335.574	24.19682
335.788	23.69391
336.003	24.31304
336.217	24.43529
336.431	24.02484
336.645	23.11862
336.859	22.59367
337.073	23.57079
337.287	24.0988
337.501	22.44745
337.715	24.47099
337.929	24.55213
338.143	23.22833
338.357	23.9359
338.571	24.02227
338.785	25.12036
338.999	24.07776
339.213	23.87805
339.427	23.43708
339.641	25.607
339.855	24.0992
340.069	23.7726
340.283	25.23963
340.497	25.88465
340.711	25.08385
340.924	24.57316
341.138	23.74267
341.352	23.22874
341.566	24.67688
341.78	23.61725
341.993	24.39815
342.207	24.18225
342.421	25.03713
342.635	24.66167
342.848	24.73823
343.062	22.91799
343.276	24.51737
343.49	26.44134
343.703	24.39852
343.917	25.88
344.131	25.99579
344.344	24.22371
344.558	24.95006
344.771	24.11753
344.985	26.56686
345.199	26.67324
345.412	25.79205
345.626	25.8898
345.839	24.24578
346.053	24.64539
346.266	24.9098
346.48	26.01504
346.693	25.84759
346.907	25.81122
347.12	24.85276
347.334	25.86234
347.547	25.92573
347.76	25.93938
347.974	26.52155
348.187	25.94481
348.401	25.64514
348.614	24.82633
348.827	25.62771
349.041	26.15321
349.254	24.45715
349.467	25.21689
349.681	25.21699
349.894	24.98008
350.107	27.02363
350.32	27.47543
350.534	25.07061
350.747	25.83749
350.96	25.45009
351.173	25.66925
351.386	26.07406
351.6	25.69022
351.813	25.8141
352.026	26.02543
352.239	25.53247
352.452	25.79873
352.665	27.41065
352.878	26.23425
353.092	28.0465
353.305	26.95678
353.518	26.8164
353.731	25.66643
353.944	27.51809
354.157	26.27633
354.37	26.39172
354.583	25.79076
354.796	25.67664
355.009	27.51491
355.222	27.29589
355.435	26.92756
355.647	27.83873
355.86	26.57384
356.073	27.07481
356.286	26.71904
356.499	27.90557
356.712	27.7527
356.925	27.74632
357.138	27.95025
357.35	26.85957
357.563	27.11262
357.776	27.74148
357.989	27.46673
358.201	28.04728
358.414	28.01698
358.627	28.81757
358.84	27.78969
359.052	27.02414
359.265	27.41753
359.478	28.52032
359.69	26.17513
359.903	28.4671
360.116	28.62497
360.328	26.90149
360.541	28.47928
360.753	27.51235
360.966	27.96716
361.179	27.91947
361.391	27.90655
361.604	27.77998
361.816	28.07186
362.029	28.20586
362.241	27.95566
362.454	28.2855
362.666	27.98744
362.879	29.19731
363.091	28.45281
363.304	28.39856
363.516	28.66897
363.728	28.10579
363.941	29.13171
364.153	28.98065
364.366	27.26938
364.578	27.97155
364.79	28.79907
365.003	28.81702
365.215	28.40358
365.427	29.33493
365.639	29.45484
365.852	28.90578
366.064	30.43824
366.276	28.99738
366.488	29.07099
366.701	28.6177
366.913	28.63305
367.125	28.96436
367.337	28.45837
367.549	28.7289
367.762	29.0836
367.974	29.1114
368.186	29.26068
368.398	29.9761
368.61	29.53538
368.822	29.84509
369.034	28.98105
369.246	30.04186
369.458	31.67085
369.67	28.83334
369.882	30.6264
370.094	28.11634
370.306	30.42079
370.518	29.31038
370.73	29.19905
370.942	29.23317
371.154	29.72834
371.366	29.62701
371.578	30.05596
371.79	29.57024
372.002	30.68714
372.214	31.54013
372.425	29.91872
372.637	31.25051
372.849	30.27824
373.061	28.84621
373.273	30.38995
373.484	30.35792
373.696	30.70723
373.908	28.88504
374.12	30.88957
374.331	30.66016
374.543	29.78445
374.755	29.74833
374.967	30.28377
375.178	31.16272
375.39	30.09524
375.602	30.75093
375.813	29.38557
376.025	30.14531
376.236	30.63375
376.448	30.97053
376.66	30.44965
376.871	30.7083
377.083	31.46518
377.294	32.1492
377.506	30.54022
377.717	31.88429
377.929	31.16919
378.14	30.9489
378.352	31.45303
378.563	31.77414
378.775	32.26626
378.986	30.62973
379.197	31.16826
379.409	30.58603
379.62	31.58873
379.832	31.40307
380.043	30.91797
380.254	31.50728
380.466	30.59744
380.677	33.49695
380.888	32.70649
381.1	33.3025
381.311	33.33684
381.522	31.88602
381.733	33.59055
381.945	31.62683
382.156	31.6011
382.367	31.37946
382.578	33.64821
382.789	33.72988
383.001	31.40567
383.212	32.9296
383.423	32.93868
383.634	32.73702
383.845	32.54723
384.056	31.76894
384.267	32.23499
384.478	32.27885
384.69	31.55452
384.901	32.52737
385.112	32.28369
385.323	33.43344
385.534	32.48239
385.745	32.61966
385.956	32.59507
386.167	31.91611
386.378	32.78258
386.588	31.8934
386.799	31.95404
387.01	31.56611
387.221	33.28633
387.432	32.71804
387.643	33.85054
387.854	32.46843
388.065	32.61104
388.275	32.63459
388.486	32.39344
388.697	32.60253
388.908	32.57085
389.119	33.69217
389.329	33.80996
389.54	33.18824
389.751	33.00502
389.962	33.73776
390.172	33.09707
390.383	33.03996
390.594	32.65493
390.804	32.63546
391.015	32.87362
391.226	33.35456
391.436	33.56317
391.647	33.4274
391.858	33.70132
392.068	32.46236
392.279	32.83692
392.489	33.59706
392.7	34.19007
392.91	33.05421
393.121	33.04748
393.331	33.92608
393.542	34.22397
393.752	33.98008
393.963	33.84214
394.173	33.69447
394.384	33.91654
394.594	33.78228
394.804	33.0863
395.015	33.9089
395.225	34.26582
395.436	33.38462
395.646	34.25329
395.856	33.72171
396.067	33.03521
396.277	34.50256
396.487	34.34743
396.697	34.31311
396.908	34.32061
397.118	34.29048
397.328	34.11356
397.538	34.55089
397.749	33.70166
397.959	34.53398
398.169	34.21782
398.379	33.21918
398.589	34.4515
398.8	34.30274
399.01	34.43359
399.22	34.07373
399.43	35.59747
399.64	34.31142
399.85	34.5793
400.06	34.37489
400.27	33.74922
400.48	34.25838
400.69	35.25214
400.9	34.07195
401.11	33.85952
401.32	34.94194
401.53	34.15872
401.74	35.35726
401.95	34.60606
402.16	34.2871
402.37	34.72313
402.58	34.25086
402.79	34.77271
403	34.9048
403.209	34.05523
403.419	35.23266
403.629	34.11301
403.839	35.13103
404.049	35.13767
404.258	34.54208
404.468	34.33569
404.678	35.17846
404.888	35.65899
405.097	34.6028
405.307	34.8489
405.517	35.44968
405.727	35.48372
405.936	34.77091
406.146	35.24114
406.356	35.76012
406.565	35.16218
406.775	34.97759
406.984	34.89285
407.194	36.20695
407.404	35.02565
407.613	35.56535
407.823	35.59553
408.032	36.02095
408.242	35.78843
408.451	34.93959
408.661	35.09637
408.87	36.14711
409.08	34.73512
409.289	35.45763
409.499	35.58081
409.708	35.17017
409.918	34.15821
410.127	35.45518
410.336	36.24838
410.546	35.91452
410.755	35.34106
410.964	35.38409
411.174	35.12004
411.383	35.93154
411.592	35.97973
411.802	35.14668
412.011	36.103
412.22	35.46854
412.429	36.73447
412.639	36.57421
412.848	36.19198
413.057	36.68574
413.266	36.46471
413.475	35.75523
413.685	36.06477
413.894	36.4487
414.103	36.48332
414.312	36.18252
414.521	35.67855
414.73	35.86585
414.939	37.15272
415.148	36.34797
415.357	36.16305
415.566	35.90507
415.776	35.78272
415.985	35.98036
416.194	36.49556
416.403	37.41366
416.611	35.49147
416.82	35.78948
417.029	36.43183
417.238	35.88049
417.447	36.019
417.656	36.20987
417.865	35.99156
418.074	36.29689
418.283	36.52738
418.492	37.16956
418.7	36.88119
418.909	38.78896
419.118	37.92522
419.327	38.5116
419.536	39.04087
419.744	40.06304
419.953	42.0119
420.162	43.2408
420.371	43.81306
420.579	45.90856
420.788	46.96712
420.997	47.01063
421.205	49.07454
421.414	48.434
421.623	49.15781
421.831	48.79336
422.04	49.18228
422.249	47.6039
422.457	47.25175
422.666	45.39959
422.874	46.19202
423.083	46.17725
423.291	46.34128
423.5	46.83864
423.708	48.13754
423.917	48.88543
424.125	48.50791
424.334	48.83966
424.542	50.80689
424.751	50.73477
424.959	49.99618
425.167	48.99197
425.376	48.98418
425.584	45.61632
425.793	44.61446
426.001	42.84391
426.209	41.09448
426.418	39.09195
426.626	37.7607
426.834	37.52825
427.042	37.87619
427.251	37.50372
427.459	38.41054
427.667	37.81634
427.875	37.3212
428.084	37.3866
428.292	38.48831
428.5	38.27554
428.708	37.40344
428.916	37.34189
429.124	38.05538
429.333	37.7166
429.541	37.93652
429.749	38.06909
429.957	37.93147
430.165	39.49187
430.373	37.46189
430.581	38.15752
430.789	38.9412
430.997	37.88886
431.205	37.65108
431.413	38.22578
431.621	37.93118
431.829	38.4035
432.037	37.98599
432.245	38.49537
432.453	38.52741
432.661	38.15876
432.869	39.41306
433.076	37.94875
433.284	38.43661
433.492	38.83803
433.7	39.35344
433.908	38.42287
434.116	38.75722
434.323	38.9899
434.531	38.66002
434.739	38.98363
434.947	39.21995
435.154	39.19349
435.362	38.8473
435.57	38.79259
435.778	38.41871
435.985	38.80235
436.193	38.60922
436.401	39.43789
436.608	38.63054
436.816	38.46416
437.023	39.5703
437.231	39.63611
437.439	38.96097
437.646	38.89895
437.854	39.08038
438.061	39.18395
438.269	38.71402
438.476	39.26253
438.684	38.91985
438.891	38.82184
439.099	38.70762
439.306	38.468
439.514	38.6721
439.721	40.52566
439.929	41.06993
440.136	42.47318
440.343	43.14405
440.551	43.77582
440.758	45.68262
440.965	43.50742
441.173	43.59359
441.38	43.68789
441.587	41.60553
441.795	41.94004
442.002	40.14259
442.209	39.82458
442.416	39.88552
442.624	39.75203
442.831	39.64138
443.038	39.14655
443.245	38.94168
443.452	39.33749
443.66	39.79304
443.867	39.0959
444.074	39.10196
444.281	39.26344
444.488	39.29714
444.695	39.51036
444.902	39.43652
445.109	41.63934
445.316	42.7261
445.523	44.47563
445.73	46.09336
445.937	47.90995
446.144	49.23636
446.351	50.91676
446.558	49.39985
446.765	53.38838
446.972	50.81972
447.179	50.93367
447.386	51.00787
447.593	47.43032
447.8	48.49259
448.007	45.12604
448.214	42.86525
448.42	41.61764
448.627	40.71761
448.834	40.22475
449.041	40.06346
449.248	39.97028
449.454	40.63845
449.661	40.88096
449.868	39.89617
450.075	39.97584
450.281	39.22032
450.488	39.5067
450.695	39.61973
450.901	39.68975
451.108	39.62147
451.315	40.47669
451.521	39.8922
451.728	40.60571
451.935	39.62276
452.141	40.07737
452.348	40.03299
452.554	40.10978
452.761	39.90987
452.967	41.21408
453.174	40.47578
453.38	40.65595
453.587	39.81011
453.793	40.54637
454	40.96227
454.206	41.58408
454.413	41.05067
454.619	40.72008
454.825	40.07318
455.032	40.92734
455.238	41.00966
455.445	40.03705
455.651	40.84289
455.857	39.77812
456.064	40.39553
456.27	40.35256
456.476	40.54809
456.682	39.91966
456.889	40.70233
457.095	40.70223
457.301	41.68252
457.507	40.3799
457.714	40.45877
457.92	40.53836
458.126	40.24925
458.332	40.23506
458.538	40.17256
458.744	40.42598
458.951	40.41245
459.157	44.30399
459.363	45.28279
459.569	46.99859
459.775	48.09443
459.981	49.42185
460.187	50.72201
460.393	50.0828
460.599	49.77085
460.805	48.00445
461.011	45.19509
461.217	43.04368
461.423	41.93836
461.629	41.34778
461.835	41.57413
462.041	41.07121
462.247	42.02079
462.453	41.31762
462.658	41.21359
462.864	41.67185
463.07	41.33407
463.276	41.15728
463.482	41.20041
463.688	41.99092
463.893	40.9645
464.099	41.24302
464.305	42.15448
464.511	41.29176
464.716	41.37284
464.922	41.87714
465.128	40.94261
465.333	42.30202
465.539	41.80915
465.745	41.41756
465.95	41.47143
466.156	42.92474
466.362	42.02394
466.567	41.37928
466.773	41.17658
466.978	42.236
467.184	40.99307
467.389	40.45017
467.595	41.84905
467.8	41.15907
468.006	42.54505
468.211	42.4368
468.417	41.27131
468.622	42.06066
468.828	42.24333
469.033	42.27054
469.239	43.39312
469.444	41.74906
469.649	42.49184
469.855	41.99487
470.06	41.9087
470.266	41.39783
470.471	42.22376
470.676	42.22431
470.881	41.13544
471.087	42.7717
471.292	43.31258
471.497	41.58256
471.703	42.12244
471.908	41.57548
472.113	42.10609
472.318	42.33751
472.523	41.42108
472.729	42.40284
472.934	42.3536
473.139	42.05449
473.344	42.4011
473.549	42.77329
473.754	41.93324
473.959	43.63573
474.164	41.8731
474.369	42.26565
474.575	42.48528
474.78	42.39116
474.985	41.9611
475.19	41.30544
475.395	41.79753
475.6	42.08719
475.804	42.95499
476.009	42.23758
476.214	42.04601
476.419	41.99418
476.624	41.60517
476.829	41.86102
477.034	42.52453
477.239	42.02187
477.444	42.6943
477.648	42.45148
477.853	42.61862
478.058	42.16872
478.263	42.099
478.468	41.92598
478.672	42.06471
478.877	43.07651
479.082	43.21077
479.287	42.71812
479.491	42.50612
479.696	42.02495
479.901	42.89749
480.105	42.71822
480.31	42.02716
480.515	42.46582
480.719	43.37962
480.924	42.1878
481.128	41.79094
481.333	42.4053
481.538	42.46043
481.742	44.55649
481.947	47.51646
482.151	51.24617
482.356	55.40148
482.56	63.05281
482.765	70.85169
482.969	82.50977
483.174	93.287
483.378	98.6047
483.582	98.60529
483.787	98.60503
483.991	98.60458
484.196	98.60537
484.4	98.60536
484.604	98.60515
484.809	98.60579
485.013	98.60482
485.217	98.52074
485.422	93.4202
485.626	84.64466
485.83	78.64771
486.034	75.07091
486.239	75.01975
486.443	76.36669
486.647	78.7389
486.851	81.87397
487.055	87.29475
487.26	89.98251
487.464	93.8029
487.668	94.57752
487.872	97.22714
488.076	96.76231
488.28	94.86484
488.484	90.45731
488.688	87.30296
488.892	82.45815
489.096	76.40092
489.3	71.2514
489.504	65.95652
489.708	61.75967
489.912	59.50445
490.116	57.7626
490.32	57.90257
490.524	61.00719
490.728	64.06312
490.932	68.57724
491.136	73.20856
491.34	76.93757
491.544	78.93605
491.748	80.95223
491.951	81.3263
492.155	80.54576
492.359	78.04949
492.563	73.74219
492.767	69.54172
492.97	62.90428
493.174	56.57019
493.378	51.56664
493.582	46.37959
493.785	43.51378
493.989	43.40488
494.193	43.26134
494.396	43.08227
494.6	43.68168
494.804	43.24116
495.007	43.0446
495.211	43.06288
495.414	43.23731
495.618	43.24931
495.822	43.92176
496.025	43.29824
496.229	43.75705
496.432	43.00579
496.636	43.58444
496.839	43.49791
497.043	44.3165
497.246	43.83012
497.45	43.88341
497.653	44.08626
497.856	43.96476
498.06	43.53051
498.263	43.94261
498.467	43.82334
498.67	44.40963
498.873	44.22885
499.077	44.01401
499.28	43.91626
499.483	43.94303
499.686	44.4318
499.89	44.26191
500.093	44.38334
500.296	43.78514
500.499	44.7182
500.703	44.09933
500.906	44.43502
501.109	44.85112
501.312	43.97831
501.515	44.065
501.719	44.26781
501.922	44.79012
502.125	44.17454
502.328	43.96909
502.531	43.7466
502.734	44.19312
502.937	43.41837
503.14	44.41219
503.343	43.80495
503.546	44.12965
503.749	43.86875
503.952	44.82517
504.155	44.07944
504.358	44.63693
504.561	44.49692
504.764	43.80046
504.967	44.44143
505.17	44.40201
505.373	45.3463
505.576	44.57989
505.778	44.90692
505.981	44.154
506.184	44.9897
506.387	43.72432
506.59	45.40588
506.793	45.0423
506.995	44.63225
507.198	43.74074
507.401	44.80282
507.604	44.83897
507.806	43.94797
508.009	44.22551
508.212	44.95733
508.414	44.25993
508.617	44.31207
508.82	44.80264
509.022	45.23398
509.225	44.82947
509.427	44.06807
509.63	45.34821
509.833	44.90005
510.035	44.47858
510.238	44.03733
510.44	45.48131
510.643	43.98355
510.845	45.76344
511.048	44.91952
511.25	44.49979
511.453	44.69707
511.655	45.07403
511.858	44.55212
512.06	45.25652
512.262	44.90024
512.465	45.4136
512.667	44.71815
512.869	44.48977
513.072	45.33734
513.274	45.5216
513.476	45.392
513.679	45.48069
513.881	44.68943
514.083	45.98752
514.286	44.88718
514.488	44.94651
514.69	44.53295
514.892	44.46601
515.094	45.40299
515.297	44.92805
515.499	45.15842
515.701	44.57827
515.903	45.8662
516.105	45.85011
516.307	45.32737
516.509	44.06412
516.711	44.34754
516.913	44.85699
517.116	44.8071
517.318	44.59824
517.52	45.46776
517.722	45.09735
517.924	44.32731
518.126	45.30833
518.328	45.30951
518.529	46.927
518.731	47.80192
518.933	46.28733
519.135	46.53518
519.337	46.94133
519.539	45.75005
519.741	44.9584
519.943	45.43801
520.145	45.45622
520.346	45.76011
520.548	45.45004
520.75	45.63462
520.952	45.35841
521.153	45.62976
521.355	45.7691
521.557	45.07646
521.759	45.48091
521.96	45.36866
522.162	45.00594
522.364	46.02527
522.565	45.26235
522.767	45.59364
522.969	45.91852
523.17	45.74553
523.372	45.63611
523.573	45.15254
523.775	45.28917
523.977	44.93101
524.178	46.14923
524.38	44.81873
524.581	45.49619
524.783	45.01903
524.984	45.48992
525.186	45.56786
525.387	47.51315
525.589	48.43387
525.79	49.8786
525.991	50.76226
526.193	51.98959
526.394	51.97244
526.596	53.21524
526.797	54.40123
526.998	54.40319
527.2	57.7673
527.401	62.84331
527.602	68.5548
527.803	77.12654
528.005	84.13719
528.206	90.87751
528.407	96.07131
528.608	97.91447
528.81	98.34527
529.011	98.35379
529.212	98.48302
529.413	97.75438
529.614	93.64406
529.815	87.33513
530.017	80.18777
530.218	71.55091
530.419	64.91511
530.62	60.68959
530.821	56.90032
531.022	53.40364
531.223	52.97627
531.424	51.62638
531.625	51.88781
531.826	51.21249
532.027	53.38253
532.228	56.69106
532.429	59.32431
532.63	62.46887
532.831	66.044
533.032	67.99931
533.233	70.45778
533.433	70.34449
533.634	71.14506
533.835	69.73313
534.036	67.97541
534.237	64.99662
534.438	61.17517
534.638	56.43416
534.839	52.55819
535.04	49.832
535.241	47.58604
535.441	47.68488
535.642	47.53127
535.843	47.96054
536.043	48.77052
536.244	49.84698
536.445	50.79443
536.645	52.0172
536.846	51.88457
537.047	51.97551
537.247	50.59563
537.448	49.16977
537.648	47.53417
537.849	46.38736
538.049	46.34609
538.25	46.84053
538.451	46.50349
538.651	45.75605
538.851	46.44987
539.052	46.83659
539.252	46.3689
539.453	45.86717
539.653	46.00345
539.854	45.85218
540.054	46.12125
540.254	51.57583
540.455	56.73983
540.655	60.99224
540.855	67.35708
541.056	71.53872
541.256	73.78229
541.456	76.4644
541.657	77.97366
541.857	78.27828
542.057	76.58883
542.257	74.36363
542.458	72.1453
542.658	67.84175
542.858	63.23808
543.058	59.32555
543.258	56.75267
543.458	53.07148
543.659	50.85887
543.859	49.98875
544.059	48.11336
544.259	46.61974
544.459	47.13446
544.659	46.45691
544.859	46.69598
545.059	46.26896
545.259	46.73778
545.459	46.49335
545.659	46.84687
545.859	46.31261
546.059	46.73127
546.259	46.19592
546.459	45.93506
546.659	46.21428
546.859	47.00421
547.059	47.07355
547.258	47.09862
547.458	47.02384
547.658	46.34305
547.858	46.47546
548.058	47.26233
548.258	46.91579
548.457	46.4992
548.657	48.41933
548.857	46.95563
549.057	47.64607
549.256	47.07397
549.456	46.61749
549.656	45.88204
549.855	48.03969
550.055	46.91654
550.255	48.05192
550.454	47.19726
550.654	47.59986
550.853	47.89393
551.053	47.34286
551.253	46.94744
551.452	46.96938
551.652	45.90895
551.851	46.26246
552.051	46.75759
552.25	46.54134
552.45	46.32289
552.649	46.81088
552.849	46.45656
553.048	47.18986
553.248	47.43264
553.447	46.74622
553.646	47.63656
553.846	48.8213
554.045	47.95277
554.244	46.58803
554.444	48.12102
554.643	46.81256
554.842	48.14092
555.042	48.37186
555.241	46.7284
555.44	46.51242
555.64	47.57522
555.839	48.24251
556.038	47.7102
556.237	46.97858
556.436	47.55791
556.636	47.50348
556.835	46.66981
557.034	48.10522
557.233	47.26274
557.432	46.3619
557.631	47.92638
557.83	46.90653
558.029	46.89263
558.228	46.90473
558.427	46.75003
558.626	47.58737
558.825	46.60718
559.024	47.28111
559.223	48.42554
559.422	46.90519
559.621	47.41198
559.82	45.61875
560.019	47.42765
560.218	46.8186
560.417	45.64209
560.616	46.95395
560.815	49.19389
561.014	46.45888
561.212	48.31865
561.411	47.65417
561.61	46.50053
561.809	47.27
562.008	48.39014
562.206	47.41441
562.405	47.98394
562.604	47.58834
562.803	47.46487
563.001	47.36011
563.2	46.67469
563.399	47.68885
563.597	46.88516
563.796	47.17599
563.995	46.68843
564.193	48.16532
564.392	47.09573
564.59	48.62749
564.789	46.02768
564.988	46.89245
565.186	47.29702
565.385	47.27164
565.583	46.90685
565.782	47.24278
565.98	47.16074
566.179	47.27174
566.377	46.76946
566.575	47.14128
566.774	48.57434
566.972	48.17239
567.171	49.00731
567.369	48.49127
567.567	47.89375
567.766	47.88919
567.964	46.40884
568.162	48.22627
568.361	48.53543
568.559	47.52149
568.757	47.59485
568.956	47.56145
569.154	47.7002
569.352	47.8978
569.55	47.50397
569.748	47.73988
569.947	47.18601
570.145	46.86164
570.343	46.88712
570.541	48.57418
570.739	46.7028
570.937	47.47299
571.135	47.75333
571.333	49.13147
571.532	48.82827
571.73	47.6065
571.928	48.26844
572.126	47.87603
572.324	47.4401
572.522	48.59259
572.72	49.56365
572.918	47.77614
573.116	48.22369
573.313	47.64866
573.511	47.7413
573.709	47.5566
573.907	48.36564
574.105	47.69202
574.303	46.7637
574.501	46.58213
574.699	48.07623
574.896	48.20443
575.094	48.17284
575.292	47.00392
575.49	48.43019
575.688	47.73492
575.885	48.70097
576.083	49.68782
576.281	48.26982
576.478	47.47028
576.676	48.35913
576.874	47.26137
577.071	47.95933
577.269	49.82395
577.467	48.05819
577.664	48.04001
577.862	48.69419
578.059	47.48714
578.257	48.88001
578.455	47.97406
578.652	47.96757
578.85	47.0495
579.047	48.24582
579.245	47.9972
579.442	48.22713
579.64	47.87535
579.837	46.98892
580.034	50.41223
580.232	48.37197
580.429	47.23501
580.627	48.70328
580.824	49.15808
581.021	48.77438
581.219	47.6294
581.416	47.78225
581.613	49.53258
581.811	49.41419
582.008	47.90262
582.205	49.30803
582.402	48.60197
582.6	50.09809
582.797	48.67748
582.994	48.70515
583.191	49.01154
583.388	48.38521
583.586	48.90203
583.783	49.34651
583.98	47.54112
584.177	48.66911
584.374	46.63198
584.571	48.38313
584.768	48.29419
584.965	48.13799
585.162	49.21242
585.359	49.62547
585.556	48.56118
585.753	48.87413
585.95	47.44898
586.147	47.94163
586.344	49.13435
586.541	48.4179
586.738	47.52974
586.935	48.40112
587.132	47.97833
587.329	49.3968
587.526	48.47917
587.722	52.501
587.919	47.31246
588.116	49.1083
588.313	49.53637
588.51	50.30871
588.706	48.48433
588.903	49.03355
589.1	49.44265
589.297	50.70645
589.493	48.73514
589.69	49.06808
589.887	48.06936
590.083	47.59316
590.28	48.21017
590.477	49.47791
590.673	49.14488
590.87	49.69013
591.067	48.61297
591.263	49.21627
591.46	49.21067
591.656	48.61536
591.853	49.86715
592.049	48.16338
592.246	48.42077
592.442	49.54648
592.639	49.85134
592.835	48.10058
593.032	49.2768
593.228	47.48661
593.425	47.60481
593.621	47.53681
593.817	48.88635
594.014	48.03345
594.21	48.91057
594.406	49.70464
594.603	49.22279
594.799	48.30706
594.995	47.09097
595.192	49.45208
595.388	48.18197
595.584	48.29976
595.78	47.38018
595.977	50.74352
596.173	49.72857
596.369	48.18985
596.565	47.71013
596.761	47.50457
596.957	49.5615
597.154	48.19424
597.35	48.34586
597.546	48.44253
597.742	49.67219
597.938	49.38717
598.134	48.75628
598.33	49.44203
598.526	50.16642
598.722	49.30277
598.918	50.74853
599.114	49.47413
599.31	48.23982
599.506	49.15083
599.702	48.30434
599.898	49.18988
600.094	49.83774
600.29	49.56446
600.485	49.93169
600.681	48.35252
600.877	50.75759
601.073	49.27185
601.269	50.90685
601.465	50.46348
601.66	48.24689
601.856	47.41519
602.052	51.25032
602.248	48.77048
602.443	47.28768
602.639	47.92787
602.835	48.14649
603.03	47.93689
603.226	49.55913
603.422	48.17789
603.617	48.70722
603.813	48.47744
604.009	48.46486
604.204	49.84295
604.4	47.78733
604.595	49.94201
604.791	48.30964
604.986	49.45329
605.182	48.68857
605.377	49.00345
605.573	49.2355
605.768	49.47303
605.964	49.87988
606.159	49.94984
606.355	50.26434
606.55	49.1862
606.746	50.08354
606.941	49.27675
607.136	51.04286
607.332	51.96126
607.527	47.92917
607.722	49.28994
607.918	48.87822
608.113	48.19701
608.308	49.86127
608.503	49.27694
608.699	49.34157
608.894	49.61106
609.089	48.40257
609.284	49.77678
609.479	49.0446
609.675	50.03537
609.87	49.37315
610.065	49.89909
610.26	50.32515
610.455	50.51935
610.65	49.69268
610.845	49.96603
611.04	50.68957
611.235	49.84961
611.43	49.81795
611.625	48.79907
611.82	51.16876
612.015	49.33599
612.21	51.51151
612.405	48.36094
612.6	51.64194
612.795	51.46311
612.99	50.52974
613.185	49.13151
613.38	49.30828
613.575	49.84377
613.77	52.97051
613.965	48.55463
614.159	49.26561
614.354	51.68922
614.549	51.29355
614.744	50.63706
614.938	49.23332
615.133	48.32905
615.328	51.34895
615.523	51.12917
615.717	53.10585
615.912	49.47419
616.107	50.17656
616.301	49.81563
616.496	49.58105
616.691	51.46303
616.885	50.56953
617.08	53.35135
617.274	51.17905
617.469	52.36297
617.664	51.05378
617.858	49.47773
618.053	50.8788
618.247	49.73983
618.442	48.18993
618.636	51.66448
618.831	49.18934
619.025	49.5166
619.219	53.46997
619.414	47.2224
619.608	50.00631
619.803	49.72566
619.997	52.46891
620.191	51.2659
620.386	50.24432
620.58	50.2256
620.774	48.34264
620.969	48.48768
621.163	50.78547
621.357	49.20839
621.551	50.29625
621.746	50.58262
621.94	50.03925
622.134	54.36262
622.328	52.40781
622.522	48.82094
622.716	51.86727
622.911	51.58765
623.105	51.58673
623.299	51.22421
623.493	53.86857
623.687	49.7389
623.881	49.93049
624.075	51.0978
624.269	52.17377
624.463	48.10537
624.657	48.6362
624.851	51.08592
625.045	51.17445
625.239	51.7497
625.433	50.1227
625.627	52.40062
625.821	49.63902
626.015	49.81015
626.209	50.33329
626.403	49.05631
626.596	51.03063
626.79	51.68469
626.984	49.46049
627.178	51.34214
627.372	51.43945
627.565	51.46031
627.759	49.45786
627.953	49.8784
628.147	51.14896
628.34	51.64757
628.534	53.90329
628.728	50.59065
628.921	51.78803
629.115	51.36893
629.309	52.29187
629.502	52.50074
629.696	50.89467
629.89	51.08685
630.083	51.71574
630.277	51.29519
630.47	53.01472
630.664	50.50363
630.857	49.29489
631.051	51.95437
631.244	52.65796
631.438	52.02421
631.631	49.93928
631.825	52.79775
632.018	52.19043
632.212	53.1727
632.405	52.78508
632.598	49.97805
632.792	50.88685
632.985	48.18538
633.178	50.8652
633.372	50.92403
633.565	50.63816
633.758	52.55049
633.952	50.19094
634.145	49.82762
634.338	51.29295
634.531	50.31091
634.724	50.49195
634.918	51.81997
635.111	50.95443
635.304	51.25896
635.497	54.28044
635.69	51.72864
635.883	52.9462
636.077	50.33585
636.27	52.03835
636.463	51.84936
636.656	51.86673
636.849	51.32085
637.042	52.44695
637.235	53.70349
637.428	52.62218
637.621	52.1559
637.814	53.47563
638.007	53.70555
638.2	53.08763
638.393	54.37076
638.586	49.83491
638.778	50.86007
638.971	51.73995
639.164	53.7655
639.357	52.12136
639.55	54.36437
639.743	53.1313
639.935	52.50235
640.128	55.11108
640.321	53.54702
640.514	51.87418
640.707	55.00042
640.899	52.77603
641.092	49.65916
641.285	67.14918
641.477	48.94018
641.67	55.68175
641.863	53.91982
642.055	52.40662
642.248	51.93707
642.441	51.41846
642.633	52.95536
642.826	53.1109
643.018	54.21866
643.211	55.33121
643.403	55.22315
643.596	55.65585
643.788	54.92398
643.981	52.15
644.173	53.62365
644.366	51.90624
644.558	50.02547
644.751	54.1258
644.943	50.38302
645.135	54.41346
645.328	55.4812
645.52	53.81904
645.712	54.1784
645.905	57.38988
646.097	50.5037
646.289	52.49458
646.482	56.10772
646.674	51.3702
646.866	54.94506
647.058	53.63993
647.251	51.25414
647.443	51.60925
647.635	52.4631
647.827	50.66012
648.019	50.86907
648.211	52.50552
648.404	52.80788
648.596	55.6246
648.788	53.32244
648.98	52.84597
649.172	53.65329
649.364	53.32171
649.556	50.35496
649.748	57.32609
649.94	51.35464
650.132	54.22106
650.324	51.78352
650.516	52.00481
650.708	54.99165
650.9	51.28089
651.092	50.86291
651.284	51.3635
651.476	51.86776
651.667	54.7513
651.859	55.87163
652.051	52.88747
652.243	53.51135
652.435	52.61257
652.627	54.13543
652.818	54.11909
653.01	51.21217
653.202	51.75269
653.394	52.49091
653.585	54.41966
653.777	60.92963
653.969	55.94614
654.16	55.684
654.352	52.11613
654.544	53.51858
654.735	55.13688
654.927	54.33342
655.118	56.2347
655.31	54.68358
655.502	55.58499
655.693	53.10125
655.885	54.25021
656.076	56.02444
656.268	53.5649
656.459	56.67768
656.651	55.96889
656.842	52.76946
657.034	52.6386
657.225	55.39731
657.416	55.97625
657.608	55.9999
657.799	54.10758
657.99	56.10006
658.182	52.90743
658.373	52.75938
658.564	55.63831
658.756	54.5442
658.947	53.36863
659.138	52.57881
659.33	53.38466
659.521	52.99259
659.712	54.17979
659.903	53.91392
660.094	53.69333
660.286	51.94434
660.477	57.48281
660.668	55.23222
660.859	53.98159
661.05	52.3563
661.241	55.05247
661.432	54.59893
661.623	54.08947
661.814	54.34595
662.006	51.97199
662.197	54.95793
662.388	56.44104
662.579	54.73375
662.77	56.74103
662.96	59.22472
663.151	56.04915
663.342	51.37846
663.533	55.54534
663.724	54.59119
663.915	58.3696
664.106	54.53279
664.297	57.68285
664.488	55.8403
664.678	52.83854
664.869	56.37619
665.06	56.50431
665.251	55.52064
665.442	55.81858
665.632	53.25313
665.823	58.38068
666.014	49.77502
666.204	56.53894
666.395	57.42012
666.586	59.32197
666.776	56.92501
666.967	59.39397
667.158	55.23658
667.348	57.69311
667.539	53.33912
667.729	56.5749
667.92	53.81611
668.111	57.32382
668.301	57.01474
668.492	55.34542
668.682	55.9815
668.873	55.19851
669.063	53.26794
669.253	56.42725
669.444	58.35047
669.634	56.04493
669.825	59.6209
670.015	58.47668
670.206	54.33403
670.396	59.1832
670.586	55.21118
670.777	56.86689
670.967	52.19375
671.157	55.13866
671.347	54.2809
671.538	58.97153
671.728	57.00427
671.918	60.35074
672.108	57.83054
672.299	55.19834
672.489	56.63899
672.679	54.5261
672.869	57.26351
673.059	61.21425
673.249	57.29798
673.44	53.7686
673.63	55.7574
673.82	57.70355
674.01	54.44041
674.2	56.69247
674.39	62.51898
674.58	57.76326
674.77	56.6714
674.96	55.67722
675.15	64.99908
675.34	58.29837
675.53	56.08649
675.72	55.17427
675.91	53.46519
676.099	60.9213
676.289	61.64551
676.479	59.01253
676.669	55.7264
676.859	57.049
677.049	54.46568
677.238	55.9757
677.428	60.54424
677.618	57.60883
677.808	60.81697
677.997	57.93906
678.187	54.88223
678.377	56.25351
678.567	55.85368
678.756	56.16013
678.946	57.02083
679.136	54.15792
679.325	55.82144
679.515	54.89489
679.704	54.25375
679.894	59.08292
680.084	57.81821
680.273	59.6122
680.463	55.34784
680.652	55.17029
680.842	56.95072
681.031	59.2182
681.221	55.23296
681.41	58.74303
681.6	57.09917
681.789	58.65487
681.978	59.85413
682.168	58.1183
682.357	57.74201
682.547	58.83548
682.736	57.84998
682.925	60.60811
683.115	60.30432
683.304	59.57005
683.493	57.73192
683.682	58.52724
683.872	58.42891
684.061	60.34726
684.25	59.16176
684.439	62.98162
684.629	60.04711
684.818	66.04831
685.007	57.82315
685.196	57.41612
685.385	62.53553
685.574	58.6182
685.763	59.90091
685.952	58.82585
686.142	55.7453
686.331	62.16083
686.52	55.56974
686.709	63.58019
686.898	62.90049
687.087	60.20792
687.276	62.77825
687.465	61.64371
687.654	58.39757
687.842	62.40955
688.031	56.70074
688.22	62.62569
688.409	59.38641
688.598	59.70099
688.787	65.05394
688.976	59.55006
689.165	64.64036
689.353	58.39236
689.542	60.23756
689.731	62.00127
689.92	64.95207
690.108	60.96232
690.297	58.2987
690.486	60.15007
690.675	61.67321
690.863	63.35723
691.052	63.82889
691.241	60.30613
691.429	60.1158
691.618	63.04942
691.806	57.23571
691.995	59.07175
692.184	60.75352
692.372	58.93678
692.561	60.80815
692.749	60.8117
692.938	68.68877
693.126	62.08795
693.315	59.78784
693.503	63.1424
693.692	63.01762
693.88	62.19221
694.068	66.19339
694.257	61.24521
694.445	62.90064
694.634	55.61804
694.822	63.0585
695.01	63.37065
695.199	66.55044
695.387	64.40609
695.575	63.37621
695.763	60.63175
695.952	59.89641
696.14	56.58111
696.328	59.32012
696.516	60.34841
696.705	61.52854
696.893	60.4194
697.081	55.83278
697.269	63.06239
697.457	57.25388
697.645	56.64037
697.833	62.34362
698.021	57.63385
698.21	58.80693
698.398	59.65961
698.586	57.22699
698.774	57.10684
698.962	59.91773
699.15	57.75546
699.338	56.68122
699.526	62.14503
699.714	58.69098
699.901	59.06696
700.089	63.11887
700.277	58.79297
700.465	60.89741
700.653	62.93819
700.841	61.74606
701.029	58.99266
701.217	65.26282
701.404	61.79256
701.592	66.64589
701.78	68.73222
701.968	61.7678
702.155	61.72344
702.343	57.80537
702.531	65.55117
702.718	62.82015
702.906	60.14076
703.094	60.36312
703.281	66.15829
703.469	62.70557
703.657	65.20843
703.844	72.59217
704.032	68.76795
704.219	61.77443
704.407	64.2706
704.595	67.43567
704.782	64.59073
704.97	63.42925
705.157	63.51541
705.345	69.55464
705.532	76.13686
705.719	67.14646
705.907	70.57219
706.094	65.96583
706.282	73.61099
706.469	67.04778
706.656	68.40788
706.844	67.49875
707.031	71.9684
707.218	70.57493
707.406	73.91132
707.593	71.184
707.78	71.19815
707.968	69.218
708.155	67.31858
708.342	71.65809
708.529	71.89074
708.716	71.36686
708.904	75.16233
709.091	71.856
709.278	66.76058
709.465	77.00394
709.652	74.64425
709.839	74.2947
710.026	68.92998
710.213	63.30118
710.4	69.50033
710.587	70.56966
710.774	71.93182
710.961	71.55058
711.148	69.67557
711.335	71.75915
711.522	69.0571
711.709	70.27869
711.896	76.2223
712.083	72.53011
712.27	66.43744
712.457	70.26543
712.644	65.11076
712.831	76.37361
713.017	70.34519
713.204	72.18929
713.391	67.84371
713.578	72.1843
713.765	73.87802
713.951	69.68606
714.138	79.84783
714.325	69.03718
714.512	67.18507
714.698	64.28069
714.885	72.17145
715.072	67.34378
715.258	66.58351
715.445	63.96769
715.631	70.57243
715.818	57.05782
716.005	63.86182
716.191	67.96437
716.378	64.04111
716.564	70.08055
716.751	62.70553
716.937	65.1637
717.124	69.27531
717.31	63.25322
717.497	73.83612
717.683	63.55139
717.869	74.36581
718.056	63.78859
718.242	67.01705
718.429	64.89922
718.615	62.33921
718.801	65.90708
718.988	70.52491
719.174	68.26716
719.36	65.70587
719.547	71.16223
719.733	66.5458
719.919	67.30046
720.105	68.24601
720.291	65.35572
720.478	66.69659
720.664	66.1825
720.85	64.46407
721.036	77.42974
721.222	72.99287
721.408	67.03789
721.595	73.83872
721.781	72.50264
721.967	71.80175
722.153	74.63573
722.339	70.03577
722.525	67.73403
722.711	63.33363
722.897	62.50905
723.083	65.66978
723.269	71.25017
723.455	79.32234
723.641	84.89385
723.827	68.21576
724.012	68.54407
724.198	66.0464
724.384	72.83911
724.57	69.73552
724.756	60.68965
724.942	59.4687
725.127	72.23784
725.313	72.93631
725.499	72.43538
725.685	75.44911
725.87	68.44233
726.056	63.88771
726.242	73.54047
726.428	61.67213
726.613	71.30565
726.799	66.04198
726.985	63.27873
727.17	60.98339
727.356	76.4763
727.541	63.10175
727.727	67.19883
727.913	71.05709
728.098	65.35989
728.284	70.90348
728.469	63.88673
728.655	65.26551
728.84	72.49027
729.026	72.40184
729.211	71.63343
729.397	71.26981
729.582	71.50486
729.767	68.88621
729.953	70.26246
730.138	74.45283
730.323	59.87306
730.509	64.18791
730.694	76.90583
730.879	71.83375
731.065	68.78845
731.25	79.89669
731.435	71.46126
731.621	62.94728
731.806	66.81499
731.991	69.74048
732.176	62.29232
732.361	76.87354
732.547	70.45327
732.732	63.17878
732.917	80.1606
733.102	64.6556
733.287	65.67826
733.472	68.47091
733.657	68.45713
733.842	61.75057
734.027	66.75736
734.212	67.94694
734.397	66.64284
734.582	69.17788
734.767	75.73967
734.952	76.51438
735.137	58.85658
735.322	76.86258
735.507	72.69039
735.692	69.84919
735.877	80.2706
736.062	78.3792
736.247	72.77372
736.431	68.11783
736.616	74.69221
736.801	71.18186
736.986	68.3002
737.171	65.30875
737.355	64.38274
737.54	76.31133
737.725	70.67073
737.909	83.76165
738.094	66.15996
738.279	75.06154
738.463	67.77755
738.648	72.66725
738.833	72.42982
739.017	80.84458
739.202	66.97502
739.386	68.15611
739.571	64.31962
739.756	73.45136
739.94	68.8505
740.125	72.55977
740.309	66.16714
740.494	74.43867
740.678	70.67107
740.863	72.81583
741.047	70.38541
741.231	78.85062
741.416	66.49288
741.6	79.78058
741.785	66.60036
741.969	74.62933
742.153	77.92379
742.338	62.65391
742.522	71.00121
742.706	75.52182
742.89	64.02831
743.075	71.31024
743.259	78.12746
743.443	77.5256
743.627	78.65768
743.812	83.9747
743.996	62.27042
744.18	68.819
744.364	70.03562
744.548	84.485
744.732	68.9466
744.916	78.24876
745.1	75.14145
745.285	69.95177
745.469	73.84731
745.653	79.88147
745.837	64.69518
746.021	84.97838
746.205	79.24137
746.389	71.93379
746.573	72.71744
746.757	80.67983
746.94	70.62739
747.124	79.47426
747.308	65.55408
747.492	79.41711
747.676	66.0328
747.86	87.79726
748.044	69.05349
748.227	62.3417
748.411	94.69268
748.595	71.99343
748.779	66.82654
748.963	74.25684
749.146	73.72513
749.33	68.00493
749.514	66.94755
749.697	78.27652
749.881	69.00506
750.065	66.93997
750.248	73.45683
750.432	85.9186
750.616	72.70419
750.799	66.15569
750.983	86.82423
751.166	86.02308
751.35	65.41759
751.533	75.96704
751.717	81.1413
751.9	81.74409
752.084	71.30442
752.267	66.20864
752.451	69.53641
752.634	73.87797
752.818	76.75176
753.001	78.20399
753.184	79.28605
753.368	76.21765
753.551	53.50662
753.734	68.67868
753.918	86.78591
754.101	68.81194
754.284	76.3175
754.467	70.77406
754.651	69.62712
754.834	67.63471
755.017	80.38012
755.2	81.59565
755.384	68.6269
755.567	77.54722
755.75	78.98002
755.933	71.3461
756.116	79.16992
756.299	70.45231
756.482	67.96484
756.665	76.84546
756.848	70.94215
757.032	75.1618
757.215	65.31218
757.398	68.2642
757.581	68.54544
757.764	92.04549
757.947	71.32747
758.129	80.09083
758.312	57.66311
758.495	71.46398
758.678	73.70135
758.861	69.46024
759.044	83.96134
759.227	68.80032
759.41	69.59582
759.592	78.95292
759.775	72.45755
759.958	77.77209
760.141	66.867
760.324	91.34462
760.506	84.12687
760.689	80.318
760.872	87.83108
761.054	77.95226
761.237	73.546
761.42	75.88012
761.602	79.66988
761.785	76.05661
761.968	83.37974
762.15	85.35793
762.333	73.2718
762.515	77.22585
762.698	71.80732
762.88	78.94503
763.063	75.70422
763.245	81.09451
763.428	67.45761
763.61	71.17231
763.793	67.59196
763.975	76.34976
764.158	73.25955
764.34	71.9581
764.522	69.69242
764.705	75.07424
764.887	85.12003
765.069	66.65324
765.252	79.35489
765.434	79.948
765.616	76.11391
765.799	72.97366
765.981	81.11502
766.163	73.84343
766.345	84.7851
766.528	71.36458
766.71	64.44102
766.892	76.8105
767.074	84.92851
767.256	74.32781
767.438	86.36097
767.62	77.44818
767.802	91.16336
767.985	79.73106
768.167	89.36598
768.349	72.30083
768.531	78.80639
768.713	77.84424
768.895	80.30457
769.077	79.1396
769.259	96.06694
769.441	113.89068
769.623	81.06429
769.804	88.06376
769.986	85.92162
770.168	92.40347
770.35	103.3057
770.532	88.85568
770.714	93.28127
770.896	90.69005
771.077	68.19278
771.259	97.99816
771.441	88.61882
771.623	100.55531
771.804	108.64619
771.986	71.54662
772.168	79.23967
772.35	94.25482
772.531	109.5462
772.713	88.38642
772.894	103.5576
773.076	86.46357
773.258	84.83242
773.439	102.94266
773.621	109.01535
773.802	79.16073
773.984	80.18598
774.166	90.868
774.347	102.90282
774.529	101.12194
774.71	68.62681
774.891	86.1278
775.073	82.41938
775.254	103.08869
775.436	79.4531
775.617	115.27673
775.799	82.8215
775.98	100.40251
776.161	108.9725
776.343	112.80368
776.524	88.70372
776.705	86.03769
776.886	69.7189
777.068	92.71688
777.249	139.3761
777.43	108.68623
777.611	77.20207
777.793	84.66795
777.974	108.42695
778.155	81.91799
778.336	77.80549
778.517	120.86552
778.698	80.55173
778.879	70.66606
779.061	60.9721
779.242	91.90663
779.423	95.18198
779.604	83.65573
779.785	85.87791
779.966	88.54439
780.147	102.58484
780.328	101.26817
780.509	121.66193
780.69	101.06014
780.871	81.8292
781.051	73.91737
781.232	92.38026
781.413	88.57801
781.594	85.58759
781.775	84.75067
781.956	79.84341
782.137	67.81982
782.317	82.4897
782.498	88.76452
782.679	86.59829
782.86	92.92109
783.04	82.63884
783.221	92.40061
783.402	108.3345
783.583	89.27888
783.763	100.36143
783.944	82.13261
784.124	74.43035
784.305	110.97579
784.486	96.06831
784.666	87.12591
784.847	73.38946
785.027	130.73852
785.208	84.56768
785.388	84.85699
785.569	85.18262
785.749	89.03127
785.93	86.74253
786.11	73.84069
786.291	96.73639
786.471	91.28421
786.652	100.20255
786.832	86.98427
787.012	93.49934
787.193	76.25428
787.373	89.89924
787.553	84.28322
787.734	93.24225
787.914	87.19978
788.094	99.95288
788.275	94.93411
788.455	86.61125
788.635	75.33023
788.815	91.50772
788.995	78.32022
789.176	71.62981
789.356	79.38617
789.536	85.55432
789.716	96.15503
789.896	82.30195
790.076	83.5799
790.256	93.21075
790.436	67.31113
790.616	78.34724
790.796	92.90134
790.976	86.12408
791.156	81.67478
791.336	96.73691
791.516	93.45416
791.696	87.81832
791.876	76.59637
792.056	89.68037
792.236	99.94137
792.416	99.78415
792.596	95.9142
792.776	95.74703
792.956	96.7222
793.135	112.57326
793.315	81.01711
793.495	103.09962
793.675	99.41404
793.854	98.1576
794.034	102.11635
794.214	80.57819
794.394	100.26353
794.573	105.75273
794.753	91.40195
794.933	81.03278
795.112	95.72688
795.292	102.03944
795.472	113.37761
795.651	75.05614
795.831	88.49713
796.01	88.09819
796.19	86.90262
796.369	91.7431
796.549	95.88649
796.728	89.37563
796.908	76.25698
797.087	77.45369
797.267	85.98968
797.446	78.67401
797.626	97.66411
797.805	96.36618
797.984	82.26351
798.164	102.16164
798.343	83.36624
798.522	94.36641
798.702	94.70861
798.881	76.53379
799.06	90.32851
799.239	73.21946
799.419	80.98405
799.598	112.87342
799.777	93.87422
799.956	106.13771
800.136	86.15789
800.315	80.69018
800.494	96.93528
800.673	106.91091
800.852	99.77764
801.031	105.00018
801.21	98.23811
801.389	89.125
801.568	92.00558
801.747	117.58448
801.926	95.14461
802.105	109.45242
802.284	87.28879
802.463	112.19321
802.642	97.09139
802.821	94.11749
803	111.90196
803.179	102.59148
803.358	105.48311
803.537	84.06834
803.716	90.99811
803.895	86.76834
804.073	90.16974
804.252	82.89255
804.431	97.58178
804.61	89.83726
804.789	100.96848
804.967	87.12658
805.146	87.20202
805.325	117.94106
805.503	96.21583
805.682	77.57842
805.861	133.56626
806.039	110.51789
806.218	90.32574
806.397	95.85828
806.575	90.12754
806.754	96.56123
806.932	81.19302
807.111	105.62348
807.289	104.13349
807.468	92.88853
807.646	106.34031
807.825	104.22025
808.003	93.3328
808.182	104.76358
808.36	94.60063
808.539	85.09246
808.717	109.94322
808.895	84.38134
809.074	97.437
809.252	95.81345
809.43	101.55519
809.609	108.99135
809.787	110.90907
809.965	92.04924
810.144	93.27681
810.322	95.68598
810.5	99.24414
810.678	89.98456
810.856	123.64236
811.035	104.71951
811.213	103.36132
811.391	116.82137
811.569	100.69461
811.747	148.24774
811.925	111.6523
812.103	86.57035
812.281	97.41849
812.459	119.26178
812.637	124.27915
812.816	103.98986
812.994	127.17488
813.171	117.36407
813.349	100.27893
813.527	108.85643
813.705	114.28967
813.883	136.74957
814.061	109.29107
814.239	122.25188
814.417	129.49122
814.595	104.70713
814.773	102.18387
814.95	99.71691
815.128	105.88074
815.306	102.30491
815.484	95.55756
815.662	89.07126
815.839	84.55073
816.017	88.46813
816.195	116.25526
816.372	93.01761
816.55	106.33598
816.728	121.8843
816.905	93.72298
817.083	118.0067
817.261	94.12941
817.438	142.38696
817.616	120.76924
817.793	90.20784
817.971	113.37245
818.148	108.13494
818.326	119.0176
818.503	100.49982
818.681	124.20004
818.858	92.1661
819.036	97.10293
819.213	100.3693
819.391	89.2566
819.568	91.5972
819.745	86.02825
819.923	108.55285
820.1	94.59362
820.277	87.19432
820.455	93.55579
820.632	96.14793
820.809	99.37901
820.986	85.36786
821.164	78.66302
821.341	78.40118
821.518	87.71673
821.695	78.91984
821.872	76.49764
822.05	73.03448
822.227	69.60714
822.404	71.12062
822.581	72.69825
822.758	71.48464
822.935	71.56069
823.112	73.84417
823.289	71.90597
823.466	75.76997
823.643	75.53245
823.82	80.34566
823.997	79.7103
824.174	83.78234
824.351	92.19289
824.528	92.50836
824.705	92.35462
824.882	94.2128
825.059	102.7059
825.236	93.67211
825.412	93.95429
825.589	97.24891
825.766	108.88554
825.943	92.79047
826.12	95.48911
826.296	87.01713
826.473	90.60859
826.65	89.44043
826.827	93.3043
827.003	82.08606
827.18	84.51119
827.357	86.90955
827.533	83.2938
827.71	73.76663
827.887	81.4853
828.063	84.80095
828.24	81.45367
828.416	87.90798
828.593	84.2963
828.769	95.76341
828.946	96.2546
829.122	101.80038
829.299	99.80318
829.475	89.6177
829.652	102.17647
829.828	120.34035
830.005	100.36556
830.181	116.26862
830.357	103.64891
830.534	112.31186
830.71	104.15251
830.886	110.87856
831.063	113.40787
831.239	124.89378
831.415	92.23809
831.592	120.19702
831.768	102.12068
831.944	95.38639
832.12	127.64914
832.296	120.80923
832.473	107.98278
832.649	93.13382
832.825	110.09092
833.001	87.37692
833.177	102.29836
833.353	95.7138
833.529	80.23276
833.705	94.02758
833.881	80.96239
834.058	82.31014
834.234	84.53923
834.41	84.45322
834.586	78.79893
834.761	83.05087
834.937	87.48705
835.113	87.35451
835.289	86.38479
835.465	90.67863
835.641	87.79224
835.817	93.9152
835.993	114.54693
836.169	93.99443
836.344	109.34537
836.52	110.46873
836.696	106.18855
836.872	101.78838
837.048	154.06161
837.223	106.45072
837.399	130.24214
837.575	115.51859
837.75	116.27177
837.926	138.08656
838.102	166.03777
838.277	150.41784
838.453	180.35196
838.628	179.87745
838.804	110.45368
838.98	160.47223
839.155	117.12253
839.331	133.45926
839.506	110.79187
839.682	113.64551
839.857	134.74153
840.033	141.921
840.208	102.14912
840.384	80.80411
840.559	99.63059
840.734	117.92614
840.91	136.6521
841.085	105.08506
841.26	108.51882
841.436	101.96334
841.611	106.68277
841.786	129.79344
841.962	146.44023
842.137	116.12454
842.312	104.2599
842.487	113.5903
842.663	101.78858
842.838	115.40887
843.013	221.41266
843.188	139.11566
843.363	126.23692
843.538	190.21454
843.714	194.06845
843.889	201.69136
844.064	212.45364
844.239	181.02891
844.414	192.9841
844.589	148.79483
844.764	225.86476
844.939	223.65662
845.114	242.15867
845.289	225.65261
845.464	295.77914
845.639	209.81518
845.814	148.29209
845.989	155.90491
846.163	175.76966
846.338	181.69515
846.513	229.66501
846.688	162.97001
846.863	173.4647
847.038	159.93554
847.212	174.36267
847.387	186.50579
847.562	182.40668
847.737	208.94281
847.911	120.65391
848.086	131.96639
848.261	348.55779
848.435	167.77638
848.61	216.00462
848.785	142.56157
848.959	229.71453
849.134	279.14759
849.308	287.83363
849.483	184.90698
849.658	252.54955
849.832	159.91796
850.007	156.71957
850.181	311.17116
850.356	162.76501
850.53	297.5319
850.705	136.73044
850.879	114.87737
851.053	185.26233
851.228	171.54186
851.402	188.12405
851.577	234.36017
851.751	250.91732
851.925	184.62805
852.099	122.1315
852.274	151.57606
852.448	175.81941
852.622	190.08815
852.797	184.76585
852.971	170.04248
853.145	190.90181
853.319	418.31914
853.493	242.72158
853.668	156.5436
853.842	288.63255
854.016	238.01208
854.19	268.09218
854.364	192.34067
854.538	190.1081
854.712	242.61605
854.886	179.77676
855.06	177.2318
855.234	105.52646
855.408	265.62007
855.582	228.98028
855.756	227.73304
855.93	285.31928
856.104	208.55452
856.278	231.05626
856.452	189.64282
856.626	225.14556
856.8	315.923
856.973	218.46196
857.147	205.53977
857.321	206.73642
857.495	247.63319
857.669	180.85946
857.842	166.08321
858.016	249.03651
858.19	166.91517
858.364	347.40023
858.537	167.53785
858.711	190.068
858.885	178.20973
859.058	166.59978
859.232	110.89107
859.405	138.97003
859.579	232.44289
859.753	203.68769
859.926	166.24059
860.1	126.88505
860.273	184.98595
860.447	270.78902
860.62	167.87686
860.794	308.8842
860.967	210.02301
861.141	240.09328
861.314	327.12676
861.487	232.35505
861.661	279.00737
861.834	262.22288
862.008	239.79018
862.181	190.27425
862.354	186.62236
862.528	210.46873
862.701	168.29292
862.874	138.29131
863.047	177.7022
863.221	180.00902
863.394	116.13447
863.567	274.7113
863.74	110.64074
863.913	228.20669
864.087	209.10419
864.26	239.83377
864.433	192.29983
864.606	282.36031
864.779	196.62898
864.952	130.74264
865.125	162.35198
865.298	187.64361
865.471	194.7636
865.644	326.5584
865.817	282.19236
865.99	234.54028
866.163	266.83458
866.336	182.66693
866.509	202.65858
866.682	179.7626
866.855	260.44005
867.028	152.56173
867.2	228.71285
867.373	125.11963
867.546	214.71709
867.719	333.17749
867.892	228.27849
868.064	158.38004
868.237	224.02733
868.41	200.02904
868.583	147.49325
868.755	146.05961
868.928	202.30704
869.101	329.55172
869.273	255.62988
869.446	230.41108
869.619	255.43783
869.791	191.23392
869.964	254.18992
870.136	239.59501
870.309	201.84383
870.481	214.82442
870.654	132.37187
870.826	208.90398
870.999	176.87204
871.171	239.16065
871.344	176.18002
871.516	182.19796
871.689	165.29224
871.861	206.17309
872.033	156.57392
872.206	188.80407
872.378	251.45293
872.55	182.43683
872.723	148.79203
872.895	183.30965
873.067	255.7461
873.24	279.05639
873.412	178.60576
873.584	178.36671
873.756	173.64216
873.928	220.9612
874.101	216.84177
874.273	226.93311
874.445	124.96857
874.617	139.41328
874.789	216.75159
874.961	184.10649
875.133	232.96016
875.305	205.02645
875.477	152.2475
875.649	141.33404
875.821	162.44586
875.993	295.30049
876.165	153.82508
876.337	223.22396
876.509	183.63999
876.681	215.18058
876.853	213.01427
877.025	211.06049
877.197	168.09368
877.369	153.15896
877.541	244.614
877.712	124.26004
877.884	156.13264
878.056	231.95261
878.228	151.4092
878.4	221.93483
878.571	153.19024
878.743	132.78975
878.915	206.43772
879.086	149.676
879.258	168.81863
879.43	156.18074
879.601	145.43287
879.773	152.7624
879.945	85.7164
880.116	98.91703
880.288	83.68445
880.459	84.7691
880.631	80.86381
880.802	84.21634
880.974	83.16978
881.145	75.78114
881.317	81.71978
881.488	76.83378
881.66	79.97666
881.831	78.41181
882.002	85.72575
882.174	80.86667
882.345	87.56181
882.517	80.14756
882.688	94.4565
882.859	94.35348
883.03	110.68303
883.202	111.37435
883.373	112.08185
883.544	114.33615
883.715	140.37611
883.887	132.98243
884.058	130.88545
884.229	150.26402
884.4	151.53117
884.571	159.89861
884.742	153.33658
884.914	161.5457
885.085	180.99252
885.256	198.00201
885.427	178.58198
885.598	192.40372
885.769	200.0189
885.94	195.92564
886.111	155.87656
886.282	207.06424
886.453	184.55202
886.624	155.74803
886.795	197.74371
886.966	186.87306
887.136	214.439
887.307	172.78884
887.478	237.28898
887.649	227.00428
887.82	222.94899
887.991	203.0091
888.161	239.45608
888.332	234.33336
888.503	158.32738
888.674	287.91078
888.844	291.05132
889.015	253.6983
889.186	151.51595
889.356	277.64308
889.527	152.50135
889.698	426.48098
889.868	185.11209
890.039	218.63111
890.209	204.5492
890.38	241.61508
890.551	215.30008
890.721	289.97163
890.892	243.83165
891.062	192.03475
891.233	221.75774
891.403	191.6479
891.574	164.07679
891.744	193.8083
891.914	251.85139
892.085	208.53857
892.255	130.17735
892.425	279.661
892.596	251.80706
892.766	233.14711
892.936	280.7543
893.107	252.41591
893.277	172.51373
893.447	145.94097
893.618	124.4671
893.788	181.32103
893.958	129.42342
894.128	134.79834
894.298	136.36465
894.468	160.4366
894.639	104.78378
894.809	99.61497
894.979	116.25575
895.149	124.64847
895.319	113.04496
895.489	133.70139
895.659	147.22253
895.829	128.05691
895.999	133.35771
896.169	125.13248
896.339	132.0513
896.509	194.92483
896.679	217.79871
896.849	217.90825
897.019	260.21377
897.189	219.80706
897.358	225.53112
897.528	285.07249
897.698	152.26867
897.868	261.59619
898.038	361.45704
898.208	349.84173
898.377	191.84349
898.547	360.28521
898.717	525.02293
898.886	256.04666
899.056	353.54916
899.226	481.34515
899.395	329.08823
899.565	385.22864
899.735	293.42319
899.904	419.78128
900.074	340.51372
900.244	218.47114
900.413	586.29702
900.583	220.39914
900.752	260.57665
900.922	378.684
901.091	110.12051
901.261	352.18394
901.43	326.26619
901.599	327.95104
901.769	618.08219
901.938	363.79004
902.108	384.6878
902.277	444.0363
902.446	185.4412
902.616	185.58192
902.785	252.27265
902.954	356.90116
903.124	252.06676
903.293	210.58978
903.462	156.31194
903.631	174.09113
903.801	144.95429
903.97	107.33764
904.139	145.01604
904.308	121.91523
904.477	112.23325
904.646	94.73496
904.816	110.09132
904.985	133.21352
905.154	171.57019
