Data from WindowProjectSample3_Transmission__46__00046.txt Node

Date: Sun May 04 11:13:37 EDT 2025
User: jessi
Spectrometer: SR400872
Trigger mode: 0
Integration Time (sec): 5.000050E-1
Scans to average: 20
Electric dark correction enabled: true
Nonlinearity correction enabled: true
Boxcar width: 0
XAxis mode: Wavelengths
Number of Pixels in Spectrum: 3648
>>>>>Begin Spectral Data<<<<<
184.909	-1277.463
185.132	-1468.58925
185.355	-1164.4139
185.578	-1067.60535
185.801	1528.77619
186.024	-926.1245
186.247	-4893.77436
186.47	-1815.57369
186.693	-206.02087
186.916	-548.61763
187.139	-767.93505
187.362	-2991.90793
187.585	-738.21065
187.808	-4602.39509
188.031	9750.63367
188.254	-2438.57284
188.476	-9042.5952
188.699	-1085.71705
188.922	627.68889
189.145	-1233.34906
189.368	3277.05918
189.591	-2187.50202
189.813	-1523.20051
190.036	-902.01883
190.259	-1103.05453
190.482	-1523.61932
190.705	-2338.52178
190.927	-700.73936
191.15	-1510.76979
191.373	-1096.71499
191.595	-1258.24077
191.818	-1362.52605
192.041	-717.20936
192.263	-1112.57205
192.486	-627.32934
192.709	-1544.2832
192.931	-3246.75461
193.154	-1180.94364
193.377	-1629.5454
193.599	-3266.82718
193.822	-3333.85475
194.044	-3213.60223
194.267	-1694.68352
194.489	-240.60273
194.712	-965.15311
194.934	-1714.69712
195.157	-741.02393
195.379	-1219.42553
195.602	-853.76127
195.824	-1287.69199
196.047	-1914.03758
196.269	-1088.77798
196.492	-1435.074
196.714	-1261.07724
196.936	-1228.36557
197.159	-888.41825
197.381	-815.63011
197.604	-343.89461
197.826	-2111.7347
198.048	-1092.28414
198.271	-1625.54804
198.493	-1142.49018
198.715	-956.31237
198.938	-3068.89918
199.16	-4022.69448
199.382	-1274.72368
199.604	-1169.50797
199.827	-1816.86788
200.049	-1589.57251
200.271	-1213.79265
200.493	-1459.63434
200.715	-984.55432
200.938	-843.08904
201.16	-928.5647
201.382	-1006.61031
201.604	-1232.94073
201.826	-715.95487
202.048	-871.00906
202.27	-1415.32656
202.492	-1456.9735
202.715	-1884.60417
202.937	-2127.7031
203.159	-1373.31602
203.381	-1543.48446
203.603	-1019.95758
203.825	-5302.09309
204.047	-1624.59745
204.269	-1306.53917
204.491	-1288.85737
204.713	-1549.95729
204.935	-1405.53207
205.156	-2630.79425
205.378	-2659.31565
205.6	-1514.80286
205.822	-1111.7326
206.044	1325.30263
206.266	-1279.138
206.488	-909.17719
206.71	-1663.75098
206.932	-1790.68404
207.153	-1091.17629
207.375	-1404.84137
207.597	-1111.32675
207.819	-1160.2796
208.041	-1180.70525
208.262	-1403.85447
208.484	-837.75599
208.706	-2101.09652
208.927	-803.07238
209.149	-1391.06213
209.371	-1243.08084
209.593	-1280.5882
209.814	-566.60773
210.036	-894.57249
210.258	-863.4042
210.479	-997.71239
210.701	-1751.43093
210.922	-1258.22675
211.144	-1023.28882
211.366	-1038.05004
211.587	1338.31653
211.809	-1114.43078
212.03	-6195.59164
212.252	907.80797
212.473	-903.28588
212.695	-18520.97145
212.916	-3444.08629
213.138	-1556.06674
213.359	-949.64922
213.581	-1412.37026
213.802	-948.40034
214.024	-1340.72375
214.245	-11014.8149
214.466	-782.7074
214.688	-1449.99992
214.909	-982.6019
215.131	-2636.99414
215.352	-3551.97557
215.573	-1096.72142
215.795	-1809.72234
216.016	-1489.6814
216.237	-3259.51347
216.459	-1439.13126
216.68	-1028.89769
216.901	-1514.19702
217.122	11723.15554
217.344	-971.39607
217.565	-1297.01565
217.786	-1345.65816
218.007	-949.18865
218.228	-1245.46358
218.45	-1103.2498
218.671	-1094.71559
218.892	-1015.78832
219.113	-1555.20772
219.334	-69.71127
219.555	-1453.96689
219.776	-1501.60779
219.997	-1243.68814
220.219	17993.80188
220.44	-1226.81341
220.661	-3294.27959
220.882	-985.15704
221.103	1680.47654
221.324	-2771.86772
221.545	-1133.0289
221.766	-1306.47184
221.987	-1677.82234
222.208	-1997.35878
222.429	-747.22737
222.65	-953.27314
222.87	-1608.71286
223.091	-3369.76992
223.312	2997.89181
223.533	-1149.93031
223.754	-1566.58046
223.975	-2185.23004
224.196	8811.21787
224.417	-7622.69549
224.637	4126.64565
224.858	144.89101
225.079	-1848.23277
225.3	26735.37484
225.521	-1039.15858
225.741	-5353.45463
225.962	7216.08789
226.183	349.30952
226.404	-3619.07858
226.624	2471.70152
226.845	-82070.95066
227.066	-644438.56098
227.286	874.23054
227.507	315.06315
227.728	271.35527
227.948	677.12007
228.169	167.95369
228.389	169.49905
228.61	100.2016
228.831	128.93973
229.051	10.00488
229.272	70.21789
229.492	105.44099
229.713	28.78503
229.933	70.29575
230.154	58.34369
230.374	104.69073
230.595	74.14192
230.815	43.27258
231.036	76.05781
231.256	-11.40122
231.477	129.07317
231.697	77.94929
231.917	78.35527
232.138	118.51398
232.358	236.78709
232.579	189.44161
232.799	29.26931
233.019	194.67667
233.24	236.25967
233.46	79.3321
233.68	116.9528
233.901	78.39862
234.121	51.41851
234.341	20.33891
234.561	-7.59253
234.782	43.11403
235.002	132.53056
235.222	-3.44332
235.442	117.73089
235.662	57.90877
235.883	112.29993
236.103	99.11549
236.323	66.48928
236.543	51.21291
236.763	71.99575
236.983	80.31991
237.203	76.77869
237.423	112.77754
237.643	171.43269
237.864	147.92575
238.084	35.46533
238.304	46.77005
238.524	81.33682
238.744	77.05157
238.964	130.79066
239.184	113.7385
239.404	124.14839
239.624	62.67804
239.843	108.82145
240.063	63.48563
240.283	42.39428
240.503	45.76316
240.723	44.67134
240.943	28.84526
241.163	35.16112
241.383	25.6548
241.603	13.18241
241.822	15.09673
242.042	10.43485
242.262	14.39589
242.482	15.02882
242.702	16.80651
242.921	5.18669
243.141	11.34648
243.361	10.22454
243.581	15.48715
243.8	12.79522
244.02	7.92568
244.24	14.79298
244.459	13.71566
244.679	28.99878
244.899	19.36664
245.118	23.30194
245.338	20.31897
245.558	24.29618
245.777	14.1153
245.997	16.80617
246.216	16.90751
246.436	10.08975
246.655	7.33851
246.875	5.58927
247.094	10.31063
247.314	3.82548
247.533	6.22572
247.753	6.8955
247.972	5.675
248.192	2.43105
248.411	3.34076
248.631	5.49355
248.85	6.70494
249.07	6.71617
249.289	9.62226
249.508	6.98622
249.728	11.50221
249.947	11.34675
250.166	14.51799
250.386	7.65796
250.605	10.97749
250.824	18.33816
251.044	12.68875
251.263	39.38446
251.482	22.5147
251.701	19.46653
251.921	-0.27622
252.14	6.10184
252.359	7.26943
252.578	16.22312
252.798	6.20016
253.017	13.75684
253.236	7.25247
253.455	8.98273
253.674	18.40177
253.893	8.33885
254.112	12.95407
254.331	19.07515
254.551	15.60758
254.77	7.65532
254.989	22.2279
255.208	18.01749
255.427	26.25087
255.646	22.34674
255.865	33.0532
256.084	15.3183
256.303	18.16077
256.522	23.41398
256.741	5.63191
256.96	6.11959
257.179	13.89429
257.397	18.22051
257.616	9.8083
257.835	10.8258
258.054	24.98389
258.273	17.36579
258.492	17.34369
258.711	11.38377
258.93	5.08333
259.148	7.92495
259.367	7.4504
259.586	9.36192
259.805	4.21223
260.023	7.79325
260.242	5.49245
260.461	4.45
260.68	2.30635
260.898	6.62884
261.117	2.1952
261.336	1.54534
261.554	5.46856
261.773	5.67382
261.992	1.48741
262.21	5.59331
262.429	6.38708
262.648	11.01959
262.866	12.62171
263.085	8.93915
263.303	8.27722
263.522	14.0565
263.74	13.62259
263.959	24.03342
264.178	12.47767
264.396	11.03735
264.615	7.66349
264.833	18.26439
265.051	15.16674
265.27	17.87728
265.488	17.54047
265.707	10.66566
265.925	16.99552
266.144	8.45356
266.362	9.28725
266.58	9.19605
266.799	7.95099
267.017	9.62225
267.235	8.86507
267.454	5.90762
267.672	3.25189
267.89	6.94775
268.109	7.78109
268.327	7.42233
268.545	1.43522
268.763	6.69083
268.982	2.90088
269.2	7.90884
269.418	5.25754
269.636	3.88062
269.854	7.31233
270.073	5.4273
270.291	3.05979
270.509	3.09477
270.727	7.26399
270.945	11.66847
271.163	11.51523
271.381	2.93065
271.599	5.03715
271.817	8.04844
272.036	3.14147
272.254	5.62923
272.472	3.8093
272.69	3.91818
272.908	4.21562
273.126	6.51961
273.344	8.31299
273.562	3.13246
273.779	4.41134
273.997	6.73126
274.215	6.62003
274.433	4.67104
274.651	7.20375
274.869	7.34566
275.087	4.14732
275.305	6.76424
275.523	4.38183
275.74	4.67283
275.958	8.72428
276.176	12.69177
276.394	4.02002
276.612	5.51617
276.829	5.23673
277.047	4.8702
277.265	5.04009
277.483	5.8475
277.7	6.74311
277.918	5.28277
278.136	10.18225
278.353	5.09741
278.571	3.38603
278.789	7.62785
279.006	1.8288
279.224	4.65152
279.442	8.24887
279.659	5.87548
279.877	4.11569
280.094	8.20901
280.312	1.65706
280.529	5.61757
280.747	1.89101
280.964	5.04954
281.182	9.05119
281.399	4.99559
281.617	5.88493
281.834	4.40375
282.052	3.28009
282.269	5.3654
282.487	4.3168
282.704	3.71878
282.921	3.5716
283.139	5.48329
283.356	6.74939
283.574	6.47203
283.791	2.88424
284.008	8.60802
284.226	5.05478
284.443	5.55543
284.66	7.07616
284.877	5.84212
285.095	3.638
285.312	2.78076
285.529	1.79369
285.746	1.54064
285.964	3.45808
286.181	2.3624
286.398	3.15475
286.615	4.43765
286.832	4.34993
287.05	1.23763
287.267	3.1052
287.484	3.26293
287.701	4.44837
287.918	4.18634
288.135	4.37815
288.352	2.07614
288.569	2.50018
288.786	4.31875
289.003	3.20597
289.22	5.00135
289.437	2.88821
289.654	4.85405
289.871	4.89692
290.088	4.61042
290.305	3.86906
290.522	3.08816
290.739	3.37931
290.956	4.98515
291.173	5.90082
291.39	5.58632
291.607	3.86175
291.824	3.16329
292.04	2.32302
292.257	4.90544
292.474	5.32327
292.691	3.50492
292.908	1.77358
293.125	2.91937
293.341	1.94704
293.558	8.01875
293.775	3.60259
293.992	3.99602
294.208	1.62297
294.425	2.33902
294.642	3.07289
294.858	4.84419
295.075	1.35927
295.292	3.31935
295.508	4.08508
295.725	5.75532
295.942	3.06102
296.158	2.10793
296.375	3.52091
296.591	2.7699
296.808	2.66817
297.024	3.22745
297.241	3.59586
297.458	3.75759
297.674	0.49335
297.891	2.98795
298.107	2.44551
298.323	1.80135
298.54	4.29637
298.756	2.21627
298.973	1.02356
299.189	4.61381
299.406	2.06393
299.622	4.63532
299.838	4.6305
300.055	4.28448
300.271	1.0603
300.487	1.7206
300.704	2.05311
300.92	1.22966
301.136	6.12508
301.353	4.81866
301.569	3.40153
301.785	3.38604
302.001	4.05273
302.218	3.79821
302.434	3.77676
302.65	1.30642
302.866	2.50493
303.083	6.49274
303.299	6.40202
303.515	3.27008
303.731	3.45763
303.947	1.24884
304.163	2.21628
304.379	3.50456
304.595	3.92825
304.812	2.43125
305.028	1.95682
305.244	2.64265
305.46	4.2438
305.676	4.31725
305.892	5.19095
306.108	3.89741
306.324	2.69215
306.54	6.00852
306.756	4.13893
306.972	4.14023
307.187	2.75558
307.403	5.62604
307.619	2.53346
307.835	5.00521
308.051	5.26913
308.267	1.85772
308.483	4.70391
308.699	4.00374
308.914	3.21243
309.13	3.36971
309.346	0.86414
309.562	1.72906
309.778	1.0465
309.993	4.09542
310.209	3.16008
310.425	1.45016
310.641	2.7002
310.856	1.72094
311.072	1.61872
311.288	3.00946
311.503	3.17608
311.719	0.75149
311.935	0.45101
312.15	3.50247
312.366	3.16493
312.581	3.68709
312.797	3.03761
313.013	4.06573
313.228	2.27699
313.444	3.20133
313.659	1.88656
313.875	3.75831
314.09	3.03297
314.306	5.42802
314.521	4.42289
314.737	4.22458
314.952	3.49864
315.168	3.23626
315.383	3.80586
315.599	3.04347
315.814	2.63807
316.029	4.63868
316.245	1.52946
316.46	1.1102
316.675	5.28801
316.891	6.1759
317.106	7.64596
317.321	4.12472
317.537	3.87662
317.752	4.40043
317.967	4.34204
318.183	2.36588
318.398	2.83345
318.613	4.8304
318.828	5.35831
319.043	4.53875
319.259	3.00876
319.474	3.69439
319.689	5.14533
319.904	0.75678
320.119	4.75753
320.334	3.914
320.549	2.78372
320.765	5.23026
320.98	3.90189
321.195	4.95879
321.41	3.21493
321.625	4.66348
321.84	6.2299
322.055	6.12789
322.27	2.74457
322.485	1.98646
322.7	3.78604
322.915	5.27794
323.13	2.21952
323.345	5.63085
323.56	4.2637
323.775	4.51646
323.989	4.19905
324.204	3.77637
324.419	4.68967
324.634	1.38612
324.849	3.27492
325.064	6.33363
325.279	4.74493
325.493	4.25231
325.708	4.93246
325.923	2.31321
326.138	2.3868
326.352	5.84828
326.567	4.56795
326.782	2.98526
326.997	2.3959
327.211	4.28807
327.426	4.13949
327.641	2.98636
327.855	1.03177
328.07	4.14089
328.285	5.93863
328.499	2.96588
328.714	3.89079
328.928	4.63684
329.143	3.47161
329.358	5.23583
329.572	4.85873
329.787	5.37416
330.001	7.5511
330.216	1.67856
330.43	6.23412
330.645	6.15301
330.859	4.89524
331.074	2.39612
331.288	3.65198
331.503	5.81785
331.717	1.98891
331.931	3.3415
332.146	3.80406
332.36	6.45086
332.575	4.24401
332.789	3.85587
333.003	3.38563
333.218	4.39941
333.432	2.48686
333.646	4.68035
333.86	5.779
334.075	6.26917
334.289	2.88353
334.503	2.06455
334.717	4.25495
334.932	4.39432
335.146	5.05069
335.36	3.01472
335.574	4.31014
335.788	4.36368
336.003	5.13072
336.217	4.76727
336.431	4.40749
336.645	2.88147
336.859	1.92179
337.073	3.49756
337.287	3.80113
337.501	2.24734
337.715	4.206
337.929	4.45801
338.143	2.03246
338.357	3.48557
338.571	2.33726
338.785	4.3346
338.999	2.72089
339.213	2.5893
339.427	1.56703
339.641	5.25104
339.855	3.09044
340.069	2.62135
340.283	5.13875
340.497	6.01956
340.711	3.94729
340.924	3.08964
341.138	1.99867
341.352	1.44627
341.566	3.80237
341.78	0.98698
341.993	2.65094
342.207	2.10196
342.421	3.6948
342.635	3.29696
342.848	2.49891
343.062	0.37079
343.276	2.44552
343.49	6.65792
343.703	2.46027
343.917	4.61146
344.131	4.66437
344.344	2.49399
344.558	2.64054
344.771	2.06567
344.985	4.99133
345.199	5.77454
345.412	3.83406
345.626	3.70228
345.839	1.0305
346.053	1.80311
346.266	1.75417
346.48	4.08846
346.693	3.89649
346.907	3.90034
347.12	2.13743
347.334	3.64308
347.547	3.76148
347.76	2.9831
347.974	4.92799
348.187	3.63575
348.401	3.0142
348.614	2.44886
348.827	2.96632
349.041	4.04554
349.254	0.9398
349.467	3.08597
349.681	1.75656
349.894	2.62765
350.107	4.87349
350.32	5.87325
350.534	1.22013
350.747	2.82492
350.96	2.00061
351.173	2.23394
351.386	2.60773
351.6	2.66427
351.813	2.27568
352.026	3.2441
352.239	1.52179
352.452	2.84728
352.665	4.42838
352.878	2.80077
353.092	6.24737
353.305	4.07144
353.518	3.31041
353.731	2.17562
353.944	4.62291
354.157	2.3314
354.37	2.02733
354.583	1.78861
354.796	0.96731
355.009	4.72377
355.222	3.26977
355.435	3.17399
355.647	4.59685
355.86	1.73662
356.073	2.87918
356.286	2.28999
356.499	4.05586
356.712	3.70721
356.925	3.45505
357.138	4.24717
357.35	1.76622
357.563	2.46422
357.776	2.98657
357.989	2.57311
358.201	3.66893
358.414	3.05262
358.627	4.19869
358.84	2.48009
359.052	1.49641
359.265	1.40913
359.478	4.00032
359.69	-0.37178
359.903	3.87585
360.116	3.87849
360.328	0.8106
360.541	3.80233
360.753	1.5559
360.966	2.05726
361.179	2.10061
361.391	2.00254
361.604	1.401
361.816	2.04116
362.029	1.77376
362.241	1.48943
362.454	1.83996
362.666	1.57054
362.879	2.53668
363.091	2.11206
363.304	1.65063
363.516	2.4951
363.728	1.14552
363.941	3.16074
364.153	1.88346
364.366	-0.00105
364.578	1.2686
364.79	3.10519
365.003	2.46016
365.215	1.9916
365.427	3.17433
365.639	4.05023
365.852	2.81671
366.064	4.83611
366.276	2.03061
366.488	3.22178
366.701	2.11926
366.913	2.38433
367.125	2.57731
367.337	1.80482
367.549	1.93572
367.762	2.69338
367.974	2.7023
368.186	1.84384
368.398	3.90476
368.61	3.29654
368.822	3.4873
369.034	2.57397
369.246	3.40603
369.458	5.52928
369.67	1.51127
369.882	5.08178
370.094	0.13047
370.306	4.59619
370.518	2.28797
370.73	1.88979
370.942	1.81441
371.154	2.37793
371.366	1.91905
371.578	3.1216
371.79	1.7092
372.002	3.92474
372.214	4.80549
372.425	2.82716
372.637	4.27824
372.849	3.06096
373.061	0.06647
373.273	3.32561
373.484	3.29789
373.696	3.74445
373.908	0.02365
374.12	4.09312
374.331	3.32528
374.543	1.77959
374.755	1.51027
374.967	2.7321
375.178	3.68812
375.39	2.43626
375.602	2.62668
375.813	1.01746
376.025	1.17382
376.236	2.47051
376.448	2.83605
376.66	2.10919
376.871	2.05677
377.083	3.5713
377.294	3.79865
377.506	2.08179
377.717	4.18281
377.929	2.80537
378.14	1.6713
378.352	3.13851
378.563	3.03359
378.775	4.13279
378.986	1.75344
379.197	2.67328
379.409	2.02532
379.62	3.62266
379.832	2.90459
380.043	2.39101
380.254	2.99706
380.466	1.30497
380.677	5.8388
380.888	5.35625
381.1	5.75466
381.311	5.53427
381.522	2.67866
381.733	6.24268
381.945	2.43081
382.156	2.69751
382.367	1.98678
382.578	5.87037
382.789	5.92313
383.001	1.97189
383.212	4.43153
383.423	4.55859
383.634	3.88838
383.845	3.41528
384.056	2.26072
384.267	2.78881
384.478	2.60566
384.69	1.40951
384.901	3.39548
385.112	3.23894
385.323	4.64319
385.534	3.21707
385.745	2.99971
385.956	3.28254
386.167	1.56664
386.378	3.42108
386.588	1.31068
386.799	1.90761
387.01	0.74735
387.221	3.68734
387.432	2.62584
387.643	5.1154
387.854	2.36077
388.065	2.33953
388.275	2.63313
388.486	2.26426
388.697	2.6952
388.908	2.44618
389.119	4.16425
389.329	4.7924
389.54	2.82563
389.751	3.23044
389.962	4.2471
390.172	3.17643
390.383	2.2996
390.594	1.95851
390.804	2.01575
391.015	2.13277
391.226	2.7931
391.436	3.46073
391.647	3.16741
391.858	3.58918
392.068	1.00232
392.279	1.41743
392.489	2.86808
392.7	3.97397
392.91	1.59926
393.121	1.99095
393.331	3.28564
393.542	4.18432
393.752	3.1287
393.963	3.00288
394.173	2.79347
394.384	3.74272
394.594	2.68326
394.804	1.5585
395.015	3.02437
395.225	3.59939
395.436	1.57641
395.646	3.43625
395.856	2.06579
396.067	1.47422
396.277	4.09092
396.487	3.47097
396.697	2.93612
396.908	3.81595
397.118	3.85368
397.328	3.15253
397.538	4.19461
397.749	2.27519
397.959	4.13267
398.169	3.74652
398.379	1.57929
398.589	3.82592
398.8	3.0439
399.01	3.00302
399.22	2.75067
399.43	5.57696
399.64	2.77953
399.85	3.49951
400.06	2.93478
400.27	2.47924
400.48	3.11456
400.69	4.81959
400.9	2.5587
401.11	2.39643
401.32	3.97969
401.53	2.59029
401.74	5.05744
401.95	4.10341
402.16	2.09131
402.37	3.80817
402.58	2.54815
402.79	3.98078
403	4.21339
403.209	2.50438
403.419	3.96201
403.629	2.53685
403.839	4.11567
404.049	4.09053
404.258	2.28053
404.468	2.07452
404.678	3.758
404.888	3.80638
405.097	2.22226
405.307	3.10308
405.517	3.62098
405.727	3.39145
405.936	2.72925
406.146	3.43422
406.356	4.67115
406.565	3.13958
406.775	2.59326
406.984	2.66722
407.194	5.04655
407.404	3.31389
407.613	3.59593
407.823	4.13512
408.032	4.60761
408.242	4.45111
408.451	2.75412
408.661	3.07849
408.87	5.37512
409.08	2.65599
409.289	3.76795
409.499	3.62955
409.708	3.52958
409.918	1.20543
410.127	3.32347
410.336	5.09302
410.546	3.99858
410.755	2.9017
410.964	2.895
411.174	2.62068
411.383	4.00526
411.592	3.93502
411.802	2.25663
412.011	4.52378
412.22	3.37757
412.429	4.93283
412.639	4.86733
412.848	5.02295
413.057	5.24603
413.266	4.81703
413.475	3.44149
413.685	4.40715
413.894	4.55443
414.103	4.75649
414.312	4.37385
414.521	3.55082
414.73	3.76145
414.939	5.52718
415.148	4.04442
415.357	3.75419
415.566	3.09996
415.776	3.15685
415.985	2.87467
416.194	4.25936
416.403	5.07428
416.611	2.15431
416.82	2.81393
417.029	3.35529
417.238	2.59821
417.447	2.44049
417.656	2.81516
417.865	2.56583
418.074	2.7752
418.283	3.07317
418.492	3.7664
418.7	3.60581
418.909	4.39714
419.118	3.14327
419.327	3.4076
419.536	3.12705
419.744	2.48236
419.953	3.83598
420.162	3.71679
420.371	2.39792
420.579	2.15056
420.788	3.33792
420.997	3.30904
421.205	3.26523
421.414	2.91466
421.623	2.92112
421.831	2.45932
422.04	3.40663
422.249	2.4572
422.457	3.20194
422.666	2.5761
422.874	3.72876
423.083	3.69608
423.291	3.4934
423.5	3.096
423.708	3.23757
423.917	3.60544
424.125	3.00811
424.334	2.70812
424.542	4.68869
424.751	3.80207
424.959	3.62413
425.167	4.09775
425.376	3.94982
425.584	3.36436
425.793	3.73752
426.001	2.82213
426.209	4.08299
426.418	2.88892
426.626	3.16921
426.834	2.81859
427.042	3.62082
427.251	2.99757
427.459	4.36831
427.667	3.79623
427.875	2.59307
428.084	3.26169
428.292	4.81262
428.5	4.06225
428.708	2.80323
428.916	2.81895
429.124	3.78905
429.333	3.33477
429.541	3.38859
429.749	3.73848
429.957	3.54029
430.165	5.7645
430.373	2.55194
430.581	3.81857
430.789	4.96769
430.997	3.27122
431.205	3.11285
431.413	3.69225
431.621	3.45574
431.829	4.23624
432.037	3.21527
432.245	4.05287
432.453	3.88927
432.661	3.24491
432.869	5.17489
433.076	2.62459
433.284	3.43691
433.492	3.94786
433.7	4.61507
433.908	3.05988
434.116	3.61504
434.323	3.62716
434.531	3.58427
434.739	4.02622
434.947	4.38919
435.154	4.33442
435.362	3.79602
435.57	3.43874
435.778	3.30303
435.985	3.94333
436.193	3.33109
436.401	4.74972
436.608	3.73679
436.816	3.35478
437.023	5.39822
437.231	5.33118
437.439	3.97895
437.646	4.1696
437.854	4.15395
438.061	4.30679
438.269	3.54545
438.476	4.31856
438.684	3.80179
438.891	3.32861
439.099	2.98289
439.306	2.38665
439.514	2.72048
439.721	3.84155
439.929	3.03279
440.136	3.83192
440.343	3.71414
440.551	3.22811
440.758	5.00012
440.965	4.01548
441.173	3.67104
441.38	3.00931
441.587	3.92489
441.795	3.22301
442.002	3.90972
442.209	4.00046
442.416	4.36846
442.624	4.21036
442.831	4.1789
443.038	3.31984
443.245	3.04314
443.452	3.37573
443.66	4.56588
443.867	3.05398
444.074	3.39093
444.281	3.09994
444.488	3.49029
444.695	3.53584
444.902	3.11038
445.109	3.99722
445.316	3.1818
445.523	3.04185
445.73	2.70011
445.937	3.44794
446.144	3.76625
446.351	3.69052
446.558	2.79658
446.765	3.97089
446.972	4.20444
447.179	3.29952
447.386	4.51783
447.593	3.24166
447.8	4.51207
448.007	3.34992
448.214	3.63379
448.42	3.20618
448.627	4.77371
448.834	3.66781
449.041	3.56797
449.248	3.53134
449.454	4.67833
449.661	5.45658
449.868	3.64326
450.075	3.48597
450.281	2.14895
450.488	2.98447
450.695	3.38905
450.901	3.22198
451.108	3.70858
451.315	4.75874
451.521	3.85699
451.728	4.71053
451.935	3.36842
452.141	3.80069
452.348	3.87426
452.554	3.6049
452.761	3.5608
452.967	5.22876
453.174	3.98567
453.38	4.06611
453.587	2.82131
453.793	3.97475
454	4.7058
454.206	5.77908
454.413	5.1575
454.619	4.24629
454.825	3.32732
455.032	4.65569
455.238	4.95188
455.445	2.89502
455.651	4.17009
455.857	2.35998
456.064	3.82295
456.27	3.71981
456.476	3.83003
456.682	2.66108
456.889	4.38304
457.095	4.46764
457.301	6.20602
457.507	4.10023
457.714	4.12215
457.92	3.68642
458.126	3.21652
458.332	3.52894
458.538	3.28369
458.744	3.27374
458.951	3.26098
459.157	4.79705
459.363	3.56408
459.569	3.2302
459.775	4.17981
459.981	2.9271
460.187	3.4183
460.393	4.06885
460.599	4.5862
460.805	3.7836
461.011	3.8968
461.217	4.64677
461.423	4.91862
461.629	3.68072
461.835	4.73556
462.041	3.75869
462.247	5.48705
462.453	3.9068
462.658	4.09095
462.864	4.90156
463.07	4.51395
463.276	4.51468
463.482	4.49808
463.688	5.27456
463.893	3.77229
464.099	3.81854
464.305	5.73806
464.511	3.77353
464.716	4.21788
464.922	4.74169
465.128	3.60689
465.333	5.71424
465.539	4.63934
465.745	3.95265
465.95	4.48193
466.156	6.71759
466.362	5.36731
466.567	4.14802
466.773	3.84068
466.978	5.72913
467.184	3.37167
467.389	2.30406
467.595	4.81612
467.8	3.21213
468.006	5.46428
468.211	5.26378
468.417	3.33104
468.622	4.73691
468.828	5.0685
469.033	4.51629
469.239	7.09024
469.444	3.76973
469.649	5.20349
469.855	4.17747
470.06	4.51553
470.266	3.42489
470.471	4.90536
470.676	4.70824
470.881	2.95025
471.087	5.46966
471.292	5.87533
471.497	3.10961
471.703	4.07555
471.908	3.74499
472.113	4.5649
472.318	5.13023
472.523	3.37568
472.729	4.7265
472.934	4.71887
473.139	3.98013
473.344	4.87314
473.549	5.45047
473.754	3.65272
473.959	5.97614
474.164	3.62035
474.369	4.294
474.575	5.20064
474.78	4.5216
474.985	3.85951
475.19	2.84391
475.395	3.6439
475.6	4.17025
475.804	5.45889
476.009	4.24514
476.214	4.33971
476.419	3.72952
476.624	2.63502
476.829	3.44062
477.034	4.56701
477.239	3.20363
477.444	4.17014
477.648	4.46499
477.853	4.56615
478.058	3.6701
478.263	3.3685
478.468	2.95379
478.672	3.07201
478.877	4.91269
479.082	5.56644
479.287	4.19459
479.491	4.02542
479.696	2.92816
479.901	4.85125
480.105	4.4927
480.31	3.45523
480.515	3.6644
480.719	5.8353
480.924	3.16188
481.128	2.73572
481.333	3.76338
481.538	3.83007
481.742	3.06068
481.947	3.67245
482.151	3.5541
482.356	3.07481
482.56	3.55519
482.765	3.63989
482.969	4.50808
483.174	5.16863
483.378	6.16383
483.582	5.8777
483.787	6.74399
483.991	6.63732
484.196	6.76295
484.4	6.6043
484.604	7.05525
484.809	5.92281
485.013	5.98309
485.217	5.3591
485.422	4.74303
485.626	4.34537
485.83	3.96308
486.034	3.82394
486.239	3.90213
486.443	3.90188
486.647	3.6964
486.851	4.35387
487.055	4.85488
487.26	4.2216
487.464	4.72136
487.668	4.21195
487.872	4.13202
488.076	4.76038
488.28	4.33941
488.484	4.03874
488.688	4.01985
488.892	4.15921
489.096	4.039
489.3	3.46839
489.504	3.46781
489.708	3.85061
489.912	3.86911
490.116	3.75947
490.32	2.85128
490.524	3.38429
490.728	3.34234
490.932	3.31939
491.136	3.22154
491.34	4.20666
491.544	4.30731
491.748	3.87426
491.951	3.9035
492.155	3.80606
492.359	3.90376
492.563	3.15826
492.767	3.04799
492.97	3.20752
493.174	2.97777
493.378	3.25412
493.582	2.87654
493.785	3.57
493.989	3.6915
494.193	3.84483
494.396	3.40916
494.6	4.46086
494.804	3.71675
495.007	3.33497
495.211	3.1169
495.414	3.68897
495.618	3.68635
495.822	4.55827
496.025	3.56342
496.229	4.3071
496.432	2.81966
496.636	3.43541
496.839	3.16649
497.043	4.76309
497.246	3.63771
497.45	3.08614
497.653	3.20848
497.856	3.72014
498.06	2.44559
498.263	3.23783
498.467	2.8665
498.67	4.30557
498.873	3.80628
499.077	3.24874
499.28	3.20261
499.483	3.90538
499.686	4.13973
499.89	3.97163
500.093	4.29733
500.296	3.01505
500.499	4.95729
500.703	3.6911
500.906	3.76292
501.109	5.42054
501.312	3.70436
501.515	3.59673
501.719	4.10769
501.922	5.21095
502.125	3.98841
502.328	3.60182
502.531	2.64414
502.734	3.80843
502.937	2.15565
503.14	3.81942
503.343	2.46393
503.546	3.24498
503.749	3.04259
503.952	4.17451
504.155	2.75323
504.358	4.1714
504.561	3.58705
504.764	2.54801
504.967	3.4889
505.17	3.60942
505.373	5.12755
505.576	3.86788
505.778	4.11226
505.981	3.27146
506.184	4.76125
506.387	2.31112
506.59	5.2661
506.793	4.70816
506.995	4.08574
507.198	1.97031
507.401	3.68074
507.604	3.97502
507.806	2.68082
508.009	2.85163
508.212	3.78361
508.414	2.95213
508.617	2.73718
508.82	3.23228
509.022	4.16049
509.225	3.57803
509.427	1.92044
509.63	4.42923
509.833	3.32323
510.035	3.217
510.238	2.06093
510.44	4.33665
510.643	1.51527
510.845	5.37012
511.048	3.75781
511.25	3.02047
511.453	3.2722
511.655	3.69333
511.858	2.88924
512.06	4.13407
512.262	3.28384
512.465	3.96142
512.667	2.65236
512.869	2.49164
513.072	3.63547
513.274	4.19822
513.476	3.74234
513.679	4.25415
513.881	2.45999
514.083	4.93667
514.286	2.90889
514.488	3.12525
514.69	2.71843
514.892	2.44886
515.094	3.83896
515.297	3.16523
515.499	3.6848
515.701	2.86131
515.903	4.88411
516.105	4.89262
516.307	4.04352
516.509	1.78646
516.711	2.30748
516.913	3.43468
517.116	3.01471
517.318	2.77077
517.52	4.05803
517.722	3.56657
517.924	1.89195
518.126	3.22235
518.328	2.2462
518.529	3.12169
518.731	4.12517
518.933	2.30605
519.135	2.69462
519.337	3.66229
519.539	3.22548
519.741	1.75368
519.943	2.99856
520.145	2.83068
520.346	3.44015
520.548	2.79143
520.75	3.46397
520.952	2.96187
521.153	3.24842
521.355	3.57302
521.557	2.45308
521.759	3.6502
521.96	3.38383
522.162	2.61878
522.364	4.15545
522.565	2.71237
522.767	3.97143
522.969	4.55474
523.17	3.681
523.372	3.81986
523.573	2.53898
523.775	3.14459
523.977	2.33996
524.178	4.63802
524.38	2.56703
524.581	3.59669
524.783	2.72043
524.984	3.36629
525.186	2.68377
525.387	3.3489
525.589	2.75991
525.79	2.46803
525.991	2.01198
526.193	2.94535
526.394	1.53179
526.596	2.73678
526.797	2.5005
526.998	2.1438
527.2	1.44175
527.401	2.62842
527.602	2.32271
527.803	3.40196
528.005	2.89752
528.206	3.33161
528.407	3.50607
528.608	3.11318
528.81	3.1906
529.011	2.6616
529.212	3.71995
529.413	3.10647
529.614	2.93586
529.815	3.19698
530.017	2.93689
530.218	2.69087
530.419	2.3732
530.62	2.75105
530.821	2.88647
531.022	1.95909
531.223	3.20709
531.424	3.18864
531.625	2.98115
531.826	2.85254
532.027	2.71136
532.228	3.44603
532.429	2.45302
532.63	2.26762
532.831	2.38905
533.032	2.50544
533.233	2.90317
533.433	2.66371
533.634	2.89203
533.835	2.29212
534.036	2.06364
534.237	2.37442
534.438	2.28897
534.638	2.13862
534.839	2.24622
535.04	3.27522
535.241	2.4849
535.441	3.99634
535.642	3.07816
535.843	2.04021
536.043	1.93625
536.244	2.26753
536.445	2.10751
536.645	3.34062
536.846	2.59754
537.047	3.61967
537.247	2.12478
537.448	2.63489
537.648	2.85529
537.849	2.93028
538.049	2.91292
538.25	3.82807
538.451	3.40978
538.651	2.57146
538.851	3.58932
539.052	4.13349
539.252	3.82388
539.453	3.11872
539.653	3.0208
539.854	2.96768
540.054	2.65082
540.254	3.34291
540.455	3.06758
540.655	2.10384
540.855	2.57482
541.056	2.93546
541.256	2.40928
541.456	3.40139
541.657	2.42757
541.857	3.40818
542.057	2.00051
542.257	2.08269
542.458	2.91198
542.658	3.20386
542.858	1.99267
543.058	3.5709
543.258	3.17478
543.458	2.10413
543.659	1.89384
543.859	3.48571
544.059	3.38383
544.259	2.9425
544.459	3.56382
544.659	2.58986
544.859	3.53041
545.059	2.74244
545.259	3.61129
545.459	3.31432
545.659	3.7948
545.859	3.21915
546.059	3.40769
546.259	2.4056
546.459	1.84764
546.659	2.28574
546.859	3.5247
547.059	3.49327
547.258	3.73335
547.458	3.53853
547.658	2.26656
547.858	2.57763
548.058	3.68982
548.258	3.51568
548.457	2.73702
548.657	6.38917
548.857	3.4566
549.057	4.65184
549.256	4.32976
549.456	3.94892
549.656	2.13203
549.855	6.12338
550.055	3.99162
550.255	6.19724
550.454	4.6749
550.654	5.35125
550.853	5.75524
551.053	5.53811
551.253	4.76519
551.452	4.52106
551.652	3.11914
551.851	2.21834
552.051	3.77714
552.25	3.49459
552.45	3.18994
552.649	3.66596
552.849	2.89993
553.048	4.01497
553.248	4.5514
553.447	3.18247
553.646	5.11231
553.846	5.82215
554.045	5.23587
554.244	3.1129
554.444	6.35994
554.643	3.73825
554.842	6.01581
555.042	6.95528
555.241	4.05883
555.44	3.55636
555.64	4.5947
555.839	6.50569
556.038	5.26999
556.237	4.13077
556.436	4.47416
556.636	5.20921
556.835	3.7813
557.034	6.51599
557.233	4.733
557.432	3.30248
557.631	6.0407
557.83	4.39824
558.029	4.23254
558.228	4.46936
558.427	3.64579
558.626	5.42029
558.825	3.86407
559.024	5.18722
559.223	6.93486
559.422	4.87941
559.621	5.48126
559.82	2.13459
560.019	4.96369
560.218	4.50371
560.417	1.69978
560.616	4.45795
560.815	8.57257
561.014	3.0117
561.212	5.90977
561.411	5.03814
561.61	2.86865
561.809	4.55331
562.008	6.69583
562.206	4.85481
562.405	5.69041
562.604	4.86032
562.803	5.06147
563.001	4.82555
563.2	3.24895
563.399	5.48476
563.597	3.63364
563.796	5.18075
563.995	3.2421
564.193	5.61715
564.392	4.05942
564.59	7.46189
564.789	2.50441
564.988	4.4501
565.186	4.83974
565.385	4.39644
565.583	3.95732
565.782	4.23563
565.98	3.98097
566.179	4.31738
566.377	2.84827
566.575	3.55303
566.774	5.49879
566.972	5.36529
567.171	6.76255
567.369	6.0503
567.567	4.74782
567.766	5.15147
567.964	2.39684
568.162	5.61079
568.361	5.96511
568.559	4.94476
568.757	5.6144
568.956	5.13601
569.154	4.84171
569.352	6.17779
569.55	4.74126
569.748	5.00918
569.947	3.83677
570.145	3.9521
570.343	3.48125
570.541	6.26811
570.739	3.07095
570.937	4.99162
571.135	5.32112
571.333	6.65083
571.532	6.41879
571.73	5.06094
571.928	5.7012
572.126	5.04326
572.324	4.02942
572.522	6.15418
572.72	7.6201
572.918	4.73798
573.116	4.99569
573.313	4.90075
573.511	4.44598
573.709	4.55344
573.907	5.47476
574.105	4.50006
574.303	2.87151
574.501	3.18298
574.699	5.0279
574.896	5.2801
575.094	5.54991
575.292	3.38579
575.49	5.86443
575.688	4.68977
575.885	6.55596
576.083	7.30495
576.281	5.65266
576.478	4.41333
576.676	5.88381
576.874	4.02041
577.071	5.03714
577.269	8.21234
577.467	5.63383
577.664	5.62289
577.862	6.44046
578.059	4.77172
578.257	6.8636
578.455	5.50564
578.652	5.72465
578.85	3.47428
579.047	6.05993
579.245	5.85341
579.442	5.75865
579.64	5.96693
579.837	3.38807
580.034	8.98661
580.232	5.57497
580.429	4.75029
580.627	7.01276
580.824	7.97836
581.021	6.83914
581.219	5.66549
581.416	5.02446
581.613	8.30824
581.811	7.73972
582.008	5.23468
582.205	7.48632
582.402	6.39434
582.6	9.38201
582.797	6.74987
582.994	7.12294
583.191	7.54328
583.388	6.59286
583.586	7.68731
583.783	8.25018
583.98	5.34719
584.177	6.84813
584.374	2.17939
584.571	6.51951
584.768	6.38317
584.965	6.1709
585.162	7.53883
585.359	8.97411
585.556	6.43276
585.753	7.20988
585.95	4.80431
586.147	5.5652
586.344	7.51149
586.541	6.22427
586.738	4.78497
586.935	6.65799
587.132	5.48708
587.329	8.38107
587.526	6.2259
587.722	14.05165
587.919	4.45944
588.116	7.16033
588.313	8.88327
588.51	9.80386
588.706	6.28951
588.903	7.37774
589.1	7.93439
589.297	10.88911
589.493	6.36353
589.69	7.40056
589.887	5.8396
590.083	4.68016
590.28	5.27899
590.477	8.16786
590.673	7.60943
590.87	8.55265
591.067	5.96977
591.263	7.66223
591.46	7.47121
591.656	6.65875
591.853	8.94323
592.049	5.50349
592.246	5.96817
592.442	8.6709
592.639	8.33189
592.835	4.78387
593.032	7.59385
593.228	4.94216
593.425	4.4692
593.621	4.40121
593.817	6.97141
594.014	5.54987
594.21	6.82196
594.406	8.03471
594.603	7.38672
594.799	6.01446
594.995	2.98506
595.192	8.2747
595.388	5.75116
595.584	5.64052
595.78	3.93195
595.977	9.38057
596.173	8.79437
596.369	5.91485
596.565	4.76136
596.761	3.99284
596.957	7.80098
597.154	4.89377
597.35	5.29732
597.546	4.7435
597.742	6.73707
597.938	6.55427
598.134	5.01759
598.33	6.52931
598.526	9.08849
598.722	7.59462
598.918	9.54956
599.114	8.00289
599.31	5.76905
599.506	7.39053
599.702	6.00018
599.898	7.77259
600.094	9.00637
600.29	8.62291
600.485	8.67929
600.681	6.74449
600.877	10.36658
601.073	7.48851
601.269	10.37916
601.465	9.48694
601.66	5.64901
601.856	4.24566
602.052	9.55001
602.248	6.30908
602.443	3.81111
602.639	4.8038
602.835	5.2703
603.03	5.27287
603.226	7.8191
603.422	4.93157
603.617	5.94279
603.813	5.53236
604.009	5.18297
604.204	7.63301
604.4	3.63846
604.595	7.41766
604.791	4.40156
604.986	6.45292
605.182	4.86168
605.377	5.45348
605.573	5.49644
605.768	6.54729
605.964	7.33337
606.159	7.66477
606.355	8.69918
606.55	6.40753
606.746	8.47623
606.941	7.04667
607.136	10.72458
607.332	12.16187
607.527	5.35265
607.722	7.86047
607.918	7.2127
608.113	5.62012
608.308	8.11569
608.503	7.5699
608.699	7.28088
608.894	7.38312
609.089	5.35379
609.284	6.93551
609.479	5.74085
609.675	7.42852
609.87	5.92634
610.065	7.41687
610.26	8.22021
610.455	8.21468
610.65	6.44721
610.845	7.29041
611.04	8.55782
611.235	6.91541
611.43	6.65783
611.625	5.20312
611.82	9.92147
612.015	5.9903
612.21	10.43867
612.405	5.01263
612.6	11.38523
612.795	10.21625
612.99	9.41765
613.185	6.14382
613.38	6.45398
613.575	8.66052
613.77	13.206
613.965	5.24256
614.159	6.5543
614.354	10.50722
614.549	10.03941
614.744	9.51086
614.938	6.41969
615.133	5.67043
615.328	10.5978
615.523	10.70403
615.717	14.06455
615.912	7.12267
616.107	8.77304
616.301	7.63256
616.496	7.03872
616.691	11.81634
616.885	9.55524
617.08	13.42017
617.274	10.82726
617.469	13.19172
617.664	9.8031
617.858	7.35406
618.053	8.83516
618.247	7.92782
618.442	4.64033
618.636	11.04175
618.831	7.48541
619.025	7.58992
619.219	13.87914
619.414	2.2218
619.608	8.88699
619.803	6.85806
619.997	13.09232
620.191	11.45334
620.386	9.72975
620.58	9.28666
620.774	5.42247
620.969	5.82281
621.163	9.13372
621.357	5.95444
621.551	8.05654
621.746	8.9737
621.94	8.99253
622.134	16.8249
622.328	13.27746
622.522	5.75399
622.716	11.34603
622.911	10.85444
623.105	10.69338
623.299	9.64937
623.493	16.04512
623.687	7.05654
623.881	8.1791
624.075	10.20833
624.269	11.22872
624.463	5.27079
624.657	5.52294
624.851	10.23778
625.045	10.57425
625.239	10.69326
625.433	7.2544
625.627	11.83671
625.821	7.52134
626.015	6.84513
626.209	8.38979
626.403	5.45716
626.596	8.99899
626.79	9.80198
626.984	5.7557
627.178	9.16523
627.372	8.81284
627.565	9.78853
627.759	5.2003
627.953	5.7986
628.147	9.52422
628.34	9.86296
628.534	13.24192
628.728	8.17592
628.921	11.07448
629.115	10.36834
629.309	10.985
629.502	11.02945
629.696	9.56161
629.89	9.06744
630.083	9.81686
630.277	10.67321
630.47	13.6097
630.664	8.57477
630.857	6.31894
631.051	11.16162
631.244	12.52561
631.438	11.95535
631.631	7.81885
631.825	12.47669
632.018	11.10303
632.212	13.77072
632.405	12.38742
632.598	8.16295
632.792	10.50926
632.985	4.37422
633.178	8.62609
633.372	9.57992
633.565	9.70388
633.758	12.53232
633.952	7.62188
634.145	7.70278
634.338	8.32166
634.531	8.45273
634.724	7.96948
634.918	9.74439
635.111	8.99798
635.304	8.31034
635.497	14.5245
635.69	10.30018
635.883	12.81299
636.077	7.16804
636.27	11.07224
636.463	10.10602
636.656	11.2445
636.849	8.78822
637.042	10.62674
637.235	14.12255
637.428	11.98615
637.621	11.25744
637.814	13.6132
638.007	14.14123
638.2	14.644
638.393	15.80574
638.586	7.37628
638.778	9.20788
638.971	10.82393
639.164	15.69952
639.357	11.9477
639.55	14.16792
639.743	12.90849
639.935	13.19988
640.128	16.22445
640.321	13.09666
640.514	12.13433
640.707	18.14243
640.899	13.05235
641.092	7.25299
641.285	31.24945
641.477	5.67799
641.67	17.38393
641.863	15.01588
642.055	12.20701
642.248	11.67618
642.441	10.81467
642.633	12.7212
642.826	15.14467
643.018	15.55558
643.211	16.88459
643.403	16.02117
643.596	18.3692
643.788	17.02201
643.981	10.6775
644.173	14.19448
644.366	11.31614
644.558	7.26129
644.751	14.90356
644.943	7.64406
645.135	17.46232
645.328	17.52783
645.52	14.56182
645.712	14.69389
645.905	22.56318
646.097	9.14346
646.289	13.40491
646.482	18.18038
646.674	10.93445
646.866	15.48801
647.058	14.24494
647.251	9.37192
647.443	10.94004
647.635	12.06085
647.827	9.33578
648.019	9.67678
648.211	12.83852
648.404	13.01368
648.596	17.32738
648.788	13.89712
648.98	13.56006
649.172	14.21995
649.364	14.00016
649.556	7.69307
649.748	19.97247
649.94	9.80318
650.132	14.84564
650.324	10.20565
650.516	10.61605
650.708	16.388
650.9	8.51358
651.092	11.63736
651.284	7.9556
651.476	9.06707
651.667	14.52361
651.859	16.56479
652.051	12.36104
652.243	13.01493
652.435	10.85222
652.627	14.12844
652.818	14.04844
653.01	7.77969
653.202	10.22444
653.394	11.82339
653.585	14.22187
653.777	27.92548
653.969	17.62488
654.16	17.11686
654.352	10.2962
654.544	12.87635
654.735	16.55623
654.927	13.68995
655.118	18.34064
655.31	16.0843
655.502	16.15736
655.693	11.42983
655.885	15.35763
656.076	18.6866
656.268	13.73287
656.459	18.07668
656.651	17.87277
656.842	11.51675
657.034	10.88462
657.225	15.8059
657.416	18.02827
657.608	17.79755
657.799	12.14197
657.99	15.92921
658.182	9.8366
658.373	10.67099
658.564	14.72575
658.756	12.1465
658.947	11.62538
659.138	8.68003
659.33	10.01707
659.521	9.41283
659.712	11.16849
659.903	11.226
660.094	9.91139
660.286	7.31237
660.477	18.54549
660.668	14.04535
660.859	12.83585
661.05	8.03936
661.241	15.06408
661.432	15.80296
661.623	12.34851
661.814	11.24076
662.006	7.53424
662.197	15.50234
662.388	17.66832
662.579	14.77985
662.77	19.18257
662.96	24.14164
663.151	17.34536
663.342	8.53451
663.533	16.44536
663.724	13.83221
663.915	20.74596
664.106	14.54602
664.297	21.62512
664.488	17.5139
664.678	13.3875
664.869	17.46278
665.06	19.22196
665.251	16.17776
665.442	17.45691
665.632	11.56915
665.823	22.90797
666.014	5.64985
666.204	17.89805
666.395	20.57311
666.586	26.12166
666.776	18.21928
666.967	22.69565
667.158	15.81317
667.348	21.62448
667.539	11.19471
667.729	19.10234
667.92	12.60711
668.111	18.98392
668.301	17.46429
668.492	14.10654
668.682	14.72295
668.873	13.93136
669.063	10.59145
669.253	15.35803
669.444	18.0657
669.634	14.87727
669.825	22.27892
670.015	19.27235
670.206	12.39822
670.396	23.71197
670.586	14.94567
670.777	17.77625
670.967	7.44872
671.157	16.1423
671.347	13.68819
671.538	21.65139
671.728	16.95188
671.918	23.47612
672.108	21.02957
672.299	16.13875
672.489	17.67898
672.679	13.63055
672.869	19.17166
673.059	23.67533
673.249	18.24501
673.44	13.18021
673.63	15.75988
673.82	20.28398
674.01	12.79642
674.2	18.37044
674.39	28.6643
674.58	19.31298
674.77	17.62569
674.96	17.41507
675.15	34.98601
675.34	21.80756
675.53	17.74502
675.72	15.91243
675.91	11.11602
676.099	24.82052
676.289	25.50132
676.479	21.39414
676.669	15.20091
676.859	19.80176
677.049	12.47175
677.238	17.0923
677.428	24.76214
677.618	18.00669
677.808	21.25062
677.997	19.2138
678.187	11.94822
678.377	16.87021
678.567	15.21995
678.756	14.87756
678.946	15.35114
679.136	10.68743
679.325	12.1845
679.515	12.13782
679.704	10.24626
679.894	17.48685
680.084	15.90905
680.273	20.49324
680.463	11.22915
680.652	11.41227
680.842	14.75094
681.031	18.50128
681.221	11.70427
681.41	17.61414
681.6	14.93723
681.789	18.88963
681.978	21.44486
682.168	16.9352
682.357	17.83889
682.547	19.61264
682.736	17.67639
682.925	22.48896
683.115	21.43155
683.304	20.83846
683.493	18.98913
683.682	20.15817
683.872	19.11994
684.061	24.12929
684.25	21.60866
684.439	27.20003
684.629	20.96371
684.818	34.34013
685.007	18.37795
685.196	17.26133
685.385	25.97604
685.574	20.99366
685.763	20.2087
685.952	19.24521
686.142	13.83187
686.331	26.35304
686.52	11.51864
686.709	26.27402
686.898	26.40031
687.087	22.86231
687.276	27.38676
687.465	23.82644
687.654	17.50881
687.842	27.42821
688.031	12.74353
688.22	25.46737
688.409	20.55526
688.598	20.33721
688.787	31.55004
688.976	19.58954
689.165	28.24194
689.353	17.73135
689.542	21.68097
689.731	23.63475
689.92	29.25842
690.108	24.52561
690.297	18.41873
690.486	20.93685
690.675	24.4137
690.863	30.01818
691.052	28.96085
691.241	23.66234
691.429	22.08184
691.618	28.2555
691.806	15.65382
691.995	19.87969
692.184	21.35929
692.372	19.43282
692.561	21.6969
692.749	21.9365
692.938	34.46385
693.126	25.45301
693.315	19.58698
693.503	25.16583
693.692	25.06096
693.88	27.63618
694.068	34.66725
694.257	21.72675
694.445	24.42713
694.634	11.51205
694.822	28.48705
695.01	29.07464
695.199	29.49502
695.387	32.35177
695.575	30.43546
695.763	22.99073
695.952	20.9485
696.14	14.2483
696.328	19.60269
696.516	23.72623
696.705	23.14611
696.893	23.13975
697.081	12.54307
697.269	24.43088
697.457	15.48622
697.645	14.01025
697.833	24.56758
698.021	15.22262
698.21	16.30194
698.398	17.88085
698.586	12.50388
698.774	11.30384
698.962	16.39477
699.15	12.99399
699.338	11.14595
699.526	19.88192
699.714	15.30988
699.901	15.57043
700.089	23.16477
700.277	16.10211
700.465	18.56234
700.653	24.39804
700.841	23.32842
701.029	16.10068
701.217	27.09058
701.404	22.46908
701.592	30.35743
701.78	33.34278
701.968	20.20527
702.155	21.1376
702.343	16.05089
702.531	31.2595
702.718	26.46659
702.906	22.56543
703.094	20.54328
703.281	31.79136
703.469	23.05841
703.657	31.94287
703.844	46.52245
704.032	35.06095
704.219	21.33626
704.407	27.49423
704.595	33.43359
704.782	25.99026
704.97	23.33486
705.157	22.65462
705.345	36.68368
705.532	42.34046
705.719	27.58025
705.907	36.00684
706.094	26.81299
706.282	37.15937
706.469	23.83866
706.656	26.7518
706.844	25.84126
707.031	32.09947
707.218	27.24324
707.406	37.07195
707.593	31.60646
707.78	29.52903
707.968	25.34496
708.155	20.85887
708.342	31.6378
708.529	30.31117
708.716	28.55952
708.904	38.8691
709.091	30.88548
709.278	19.14757
709.465	38.43364
709.652	38.67691
709.839	35.2159
710.026	29.5402
710.213	16.27071
710.4	29.59018
710.587	32.88682
710.774	35.02586
710.961	34.36058
711.148	28.27225
711.335	35.01063
711.522	26.94106
711.709	29.428
711.896	42.36238
712.083	35.15295
712.27	21.24832
712.457	29.80344
712.644	18.13831
712.831	42.5938
713.017	29.20362
713.204	33.35638
713.391	24.20017
713.578	38.05548
713.765	37.32285
713.951	32.83109
714.138	51.37514
714.325	34.6759
714.512	29.55148
714.698	24.24364
714.885	40.95369
715.072	31.44068
715.258	30.8713
715.445	25.91136
715.631	38.77247
715.818	12.78037
716.005	25.21311
716.191	34.00725
716.378	26.85376
716.564	36.29798
716.751	23.53635
716.937	26.34202
717.124	38.43723
717.31	25.21668
717.497	41.59237
717.683	25.5042
717.869	49.29213
718.056	27.4494
718.242	35.03898
718.429	32.79927
718.615	23.29586
718.801	32.29711
718.988	40.85513
719.174	36.54154
719.36	31.57115
719.547	44.47597
719.733	35.34348
719.919	37.47287
720.105	40.35657
720.291	32.5827
720.478	35.87777
720.664	32.59059
720.85	30.62397
721.036	58.32265
721.222	46.42852
721.408	33.38875
721.595	52.73193
721.781	49.4245
721.967	45.05433
722.153	49.0806
722.339	41.59858
722.525	39.33649
722.711	27.31695
722.897	23.71943
723.083	32.57861
723.269	46.01589
723.455	58.36326
723.641	62.43587
723.827	39.01933
724.012	41.81167
724.198	32.11279
724.384	47.15299
724.57	40.97089
724.756	24.82276
724.942	20.0006
725.127	45.75775
725.313	49.22213
725.499	49.92736
725.685	54.46063
725.87	40.65945
726.056	28.86799
726.242	49.40353
726.428	23.08323
726.613	44.71548
726.799	35.40153
726.985	27.81301
727.17	23.85631
727.356	51.09408
727.541	28.59635
727.727	34.03276
727.913	44.457
728.098	31.64838
728.284	42.89907
728.469	24.87838
728.655	29.8354
728.84	43.21995
729.026	44.36522
729.211	46.08525
729.397	39.31463
729.582	42.67297
729.767	35.39983
729.953	39.91194
730.138	46.38516
730.323	17.64162
730.509	26.99914
730.694	51.36989
730.879	40.31294
731.065	38.06724
731.25	60.05691
731.435	42.94891
731.621	23.23816
731.806	30.87071
731.991	39.79477
732.176	26.13861
732.361	49.08577
732.547	39.56964
732.732	23.22657
732.917	60.61742
733.102	26.10599
733.287	30.21447
733.472	37.90872
733.657	38.48877
733.842	24.51675
734.027	33.91399
734.212	35.55827
734.397	30.63389
734.582	37.92968
734.767	46.0416
734.952	52.71909
735.137	14.73459
735.322	54.01904
735.507	42.1735
735.692	41.98718
735.877	63.64526
736.062	56.95691
736.247	41.17668
736.431	39.50551
736.616	53.86534
736.801	41.81677
736.986	41.05096
737.171	33.83802
737.355	29.63116
737.54	52.99195
737.725	40.39177
737.909	73.07818
738.094	33.8929
738.279	49.50857
738.463	37.18167
738.648	48.17439
738.833	44.62345
739.017	60.64075
739.202	38.11442
739.386	41.48329
739.571	25.44919
739.756	47.93279
739.94	41.52161
740.125	51.98725
740.309	33.29897
740.494	49.93236
740.678	42.47087
740.863	46.70015
741.047	44.58265
741.231	55.9257
741.416	33.29754
741.6	60.57384
741.785	35.05886
741.969	52.28887
742.153	56.13581
742.338	20.88344
742.522	41.49873
742.706	54.30625
742.89	31.37991
743.075	44.41782
743.259	61.4915
743.443	54.35676
743.627	57.7289
743.812	72.52381
743.996	25.72397
744.18	41.86149
744.364	38.84728
744.548	76.61135
744.732	42.67214
744.916	55.82679
745.1	51.0501
745.285	42.10415
745.469	51.90424
745.653	69.50101
745.837	27.96003
746.021	77.49196
746.205	61.54644
746.389	45.83713
746.573	43.22858
746.757	65.77492
746.94	40.17001
747.124	58.94875
747.308	31.04722
747.492	61.45769
747.676	38.85505
747.86	76.15619
748.044	40.63147
748.227	23.49787
748.411	94.9261
748.595	48.79513
748.779	36.11849
748.963	50.85637
749.146	46.75391
749.33	36.31379
749.514	32.97337
749.697	60.97682
749.881	37.03967
750.065	35.20643
750.248	47.39335
750.432	77.12578
750.616	47.37156
750.799	30.53361
750.983	73.74119
751.166	84.76947
751.35	27.83247
751.533	56.66995
751.717	62.54681
751.9	68.05456
752.084	41.54577
752.267	36.05144
752.451	38.22056
752.634	48.34946
752.818	56.402
753.001	57.00391
753.184	61.27059
753.368	51.84482
753.551	8.68635
753.734	36.23875
753.918	73.25332
754.101	37.14234
754.284	57.8513
754.467	42.46794
754.651	38.45024
754.834	36.80946
755.017	62.39871
755.2	61.13053
755.384	33.36128
755.567	58.15922
755.75	63.42686
755.933	44.56434
756.116	52.47196
756.299	42.14111
756.482	37.03299
756.665	55.97718
756.848	46.19313
757.032	55.14192
757.215	29.42215
757.398	38.81295
757.581	39.83764
757.764	86.78846
757.947	47.35039
758.129	66.9594
758.312	15.64893
758.495	48.64086
758.678	46.56943
758.861	44.13237
759.044	75.43941
759.227	38.93992
759.41	38.25958
759.592	55.23932
759.775	47.66888
759.958	62.83368
760.141	31.48665
760.324	80.10318
760.506	70.01566
760.689	64.17915
760.872	84.92792
761.054	55.781
761.237	45.95643
761.42	54.08338
761.602	62.01196
761.785	53.19602
761.968	62.80283
762.15	78.18712
762.333	46.47928
762.515	53.81383
762.698	40.96247
762.88	56.31658
763.063	50.86422
763.245	55.39646
763.428	33.06724
763.61	37.31266
763.793	25.65645
763.975	45.35682
764.158	36.28209
764.34	35.19252
764.522	28.85686
764.705	38.02282
764.887	57.4205
765.069	24.94225
765.252	52.87846
765.434	52.90233
765.616	46.61877
765.799	37.16495
765.981	58.72222
766.163	35.23324
766.345	61.85608
766.528	38.95267
766.71	17.80209
766.892	51.23826
767.074	67.49573
767.256	44.03973
767.438	77.10829
767.62	54.00939
767.802	83.36035
767.985	61.09695
768.167	85.20462
768.349	40.92921
768.531	62.29894
768.713	56.60516
768.895	66.28718
769.077	57.36869
769.259	94.50841
769.441	143.90688
769.623	72.70831
769.804	83.40822
769.986	80.66049
770.168	98.48113
770.35	119.37794
770.532	82.33492
770.714	92.25306
770.896	98.27795
771.077	39.15973
771.259	96.84398
771.441	81.0814
771.623	107.89486
771.804	130.75964
771.986	39.24315
772.168	62.53146
772.35	104.42469
772.531	146.68172
772.713	77.54041
772.894	110.70101
773.076	75.4493
773.258	64.93109
773.439	106.98387
773.621	118.86589
773.802	50.75515
773.984	66.24382
774.166	86.10908
774.347	117.90504
774.529	104.83337
774.71	33.72238
774.891	75.67015
775.073	64.3248
775.254	116.51365
775.436	63.38256
775.617	133.69481
775.799	67.46198
775.98	117.22749
776.161	127.03255
776.343	126.66688
776.524	77.06143
776.705	68.71421
776.886	40.0582
777.068	89.28189
777.249	156.96439
777.43	144.85095
777.611	49.41358
777.793	74.53262
777.974	121.51681
778.155	68.02121
778.336	57.68832
778.517	143.6697
778.698	60.84601
778.879	32.80039
779.061	21.8254
779.242	90.37171
779.423	93.36255
779.604	69.52209
779.785	77.4911
779.966	84.18562
780.147	102.67585
780.328	112.59658
780.509	158.12021
780.69	107.67766
780.871	59.27966
781.051	46.34339
781.232	85.08553
781.413	83.16049
781.594	72.92654
781.775	71.50483
781.956	66.54257
782.137	37.93407
782.317	62.6656
782.498	91.53839
782.679	80.88082
782.86	85.59823
783.04	64.60438
783.221	90.94414
783.402	138.54561
783.583	82.6403
783.763	103.11875
783.944	68.91443
784.124	48.11548
784.305	136.77272
784.486	99.0741
784.666	80.35698
784.847	43.19922
785.027	158.35689
785.208	61.51939
785.388	60.86751
785.569	67.34992
785.749	74.0436
785.93	66.03978
786.11	44.62994
786.291	94.29358
786.471	86.49786
786.652	103.37065
786.832	80.10371
787.012	93.34058
787.193	51.60463
787.373	84.03366
787.553	74.65777
787.734	85.38174
787.914	69.09817
788.094	97.25159
788.275	89.65865
788.455	71.99868
788.635	49.47499
788.815	85.6633
788.995	52.63792
789.176	45.77885
789.356	59.07622
789.536	70.80818
789.716	89.16022
789.896	60.10954
790.076	66.68014
790.256	84.40116
790.436	26.77459
790.616	59.58557
790.796	86.69141
790.976	68.99463
791.156	61.0055
791.336	100.98397
791.516	87.65206
791.696	73.20808
791.876	42.86297
792.056	80.80504
792.236	106.08195
792.416	102.24587
792.596	91.96266
792.776	90.02779
792.956	93.24965
793.135	123.67882
793.315	53.2087
793.495	117.24481
793.675	92.8161
793.854	104.68074
794.034	105.53273
794.214	52.87992
794.394	106.66377
794.573	116.83929
794.753	80.12736
794.933	57.62686
795.112	84.75122
795.292	104.29198
795.472	136.89473
795.651	50.06667
795.831	80.38076
796.01	71.3857
796.19	73.95182
796.369	77.73982
796.549	95.0833
796.728	75.06527
796.908	43.934
797.087	54.00615
797.267	69.33359
797.446	50.368
797.626	96.78475
797.805	91.9002
797.984	58.14545
798.164	93.69413
798.343	58.54789
798.522	85.5012
798.702	79.21341
798.881	48.41607
799.06	74.67133
799.239	34.28675
799.419	54.39217
799.598	124.85885
799.777	95.05902
799.956	115.43446
800.136	69.12073
800.315	59.79852
800.494	94.92732
800.673	110.87875
800.852	96.56027
801.031	106.80612
801.21	94.42115
801.389	67.62754
801.568	84.36019
801.747	141.78556
801.926	81.78338
802.105	131.92355
802.284	66.48872
802.463	126.4589
802.642	89.12558
802.821	86.91289
803	119.16424
803.179	107.14436
803.358	115.30599
803.537	64.75976
803.716	79.01005
803.895	63.77961
804.073	78.68666
804.252	63.82465
804.431	94.76053
804.61	78.85183
804.789	118.48646
804.967	66.75478
805.146	63.13685
805.325	145.6543
805.503	91.08878
805.682	44.99823
805.861	162.50559
806.039	119.60276
806.218	65.38079
806.397	88.46714
806.575	82.48902
806.754	91.86737
806.932	57.52043
807.111	132.64096
807.289	107.499
807.468	85.37131
807.646	110.40974
807.825	95.11242
808.003	86.71962
808.182	106.76902
808.36	87.4312
808.539	62.1218
808.717	133.40385
808.895	60.74033
809.074	92.31305
809.252	83.10793
809.43	103.20195
809.609	121.65016
809.787	147.23357
809.965	82.06002
810.144	89.67758
810.322	80.71213
810.5	100.18223
810.678	77.24408
810.856	159.19497
811.035	116.94698
811.213	108.78497
811.391	129.22014
811.569	92.12949
811.747	188.53514
811.925	127.42824
812.103	62.13111
812.281	80.8538
812.459	147.70874
812.637	147.89777
812.816	120.31182
812.994	148.19592
813.171	123.72758
813.349	102.82809
813.527	128.75565
813.705	135.19578
813.883	172.52635
814.061	125.13297
814.239	153.28087
814.417	169.22129
814.595	101.14381
814.773	104.04228
814.95	95.57213
815.128	109.47425
815.306	75.33316
815.484	86.32287
815.662	66.42928
815.839	59.6051
816.017	72.42864
816.195	141.50297
816.372	87.07724
816.55	119.81717
816.728	141.40307
816.905	80.36142
817.083	146.51955
817.261	86.61596
817.438	167.87031
817.616	153.12131
817.793	77.9336
817.971	118.12277
818.148	118.46742
818.326	141.94997
818.503	106.47071
818.681	139.22401
818.858	76.02639
819.036	90.20027
819.213	101.06031
819.391	71.83449
819.568	66.92174
819.745	64.96031
819.923	112.27762
820.1	73.62283
820.277	64.49282
820.455	74.89325
820.632	77.30672
820.809	79.37774
820.986	51.91631
821.164	40.35976
821.341	34.73945
821.518	46.58606
821.695	33.37384
821.872	30.26757
822.05	24.83662
822.227	17.67994
822.404	18.7215
822.581	21.84916
822.758	17.51637
822.935	17.4558
823.112	20.78294
823.289	15.49191
823.466	20.65924
823.643	18.58035
823.82	23.95701
823.997	21.58633
824.174	26.25404
824.351	36.70697
824.528	35.57761
824.705	32.95031
824.882	38.06357
825.059	51.72019
825.236	33.41996
825.412	37.27681
825.589	48.54874
825.766	69.41518
825.943	41.74702
826.12	52.6129
826.296	33.36199
826.473	43.35942
826.65	44.46412
826.827	55.87062
827.003	34.56969
827.18	38.00346
827.357	44.12293
827.533	38.52813
827.71	19.51707
827.887	31.59838
828.063	37.56615
828.24	31.27625
828.416	45.34904
828.593	35.65799
828.769	53.27477
828.946	60.72771
829.122	60.92674
829.299	57.64359
829.475	33.84804
829.652	61.12763
829.828	107.12886
830.005	67.61527
830.181	97.7948
830.357	66.88208
830.534	99.28755
830.71	73.41558
830.886	100.70782
831.063	91.15075
831.239	122.88205
831.415	54.77716
831.592	126.05951
831.768	79.06139
831.944	62.95808
832.12	130.40241
832.296	119.74407
832.473	105.00067
832.649	75.54188
832.825	98.27739
833.001	56.80737
833.177	89.64389
833.353	78.19929
833.529	41.57527
833.705	59.70328
833.881	41.96903
834.058	40.19509
834.234	44.24258
834.41	44.76188
834.586	32.22449
834.761	43.21967
834.937	47.51044
835.113	46.7941
835.289	41.95612
835.465	53.80794
835.641	44.76871
835.817	52.2102
835.993	98.95403
836.169	49.08239
836.344	73.70705
836.52	86.81036
836.696	84.87433
836.872	62.35322
837.048	183.24231
837.223	71.86463
837.399	154.79533
837.575	116.66704
837.75	111.59335
837.926	149.17766
838.102	264.08348
838.277	192.70628
838.453	256.25158
838.628	231.77966
838.804	101.80936
838.98	234.0826
839.155	120.81135
839.331	159.00596
839.506	112.14273
839.682	101.55729
839.857	147.10389
840.033	170.78972
840.208	79.60447
840.384	38.99002
840.559	82.54381
840.734	126.41528
840.91	192.44685
841.085	108.88188
841.26	103.37717
841.436	91.98751
841.611	97.07711
841.786	139.19492
841.962	198.78739
842.137	111.65857
842.312	69.54391
842.487	102.86721
842.663	74.6662
842.838	105.86938
843.013	391.62063
843.188	189.4822
843.363	133.41569
843.538	349.15973
843.714	331.62327
843.889	336.09545
844.064	360.91052
844.239	300.77363
844.414	390.39298
844.589	236.64925
844.764	492.463
844.939	425.01359
845.114	521.98919
845.289	543.72813
845.464	549.09479
845.639	417.15745
845.814	197.71509
845.989	245.42879
846.163	262.82334
846.338	307.81074
846.513	472.06655
846.688	290.04265
846.863	267.97605
847.038	234.10923
847.212	301.42474
847.387	313.33627
847.562	301.5596
847.737	424.51262
847.911	146.7514
848.086	161.29512
848.261	594.92539
848.435	256.70358
848.61	431.60109
848.785	172.48461
848.959	429.1805
849.134	605.4024
849.308	737.09427
849.483	335.30482
849.658	521.73679
849.832	236.79903
850.007	208.50291
850.181	972.99463
850.356	234.12895
850.53	757.27038
850.705	187.74914
850.879	120.16136
851.053	262.49882
851.228	257.39358
851.402	418.76033
851.577	464.09417
851.751	693.64349
851.925	298.90692
852.099	143.89772
852.274	184.3647
852.448	285.77734
852.622	434.44976
852.797	298.02311
852.971	323.24768
853.145	297.48838
853.319	1044.856
853.493	485.55255
853.668	240.66314
853.842	703.60034
854.016	524.45513
854.19	619.55238
854.364	334.97005
854.538	352.61267
854.712	549.15535
854.886	291.07257
855.06	231.67748
855.234	96.71889
855.408	590.53311
855.582	551.73657
855.756	512.31255
855.93	642.1915
856.104	340.06637
856.278	482.80292
856.452	306.3105
856.626	403.32952
856.8	919.98445
856.973	393.4204
857.147	392.25669
857.321	427.53456
857.495	525.69655
857.669	337.16858
857.842	267.5642
858.016	510.90937
858.19	208.78189
858.364	1296.93884
858.537	276.38528
858.711	321.35594
858.885	289.08908
859.058	253.19417
859.232	132.52232
859.405	153.86492
859.579	475.99873
859.753	411.41222
859.926	258.37812
860.1	137.73608
860.273	304.31589
860.447	571.91082
860.62	295.92619
860.794	700.99291
860.967	333.25339
861.141	638.36047
861.314	1019.01811
861.487	448.2782
861.661	610.40634
861.834	660.917
862.008	475.38863
862.181	371.01021
862.354	353.62282
862.528	383.70127
862.701	307.57512
862.874	163.87436
863.047	278.68569
863.221	276.02383
863.394	135.54094
863.567	539.77888
863.74	102.77273
863.913	462.98476
864.087	453.42677
864.26	550.73833
864.433	290.35635
864.606	895.45139
864.779	304.62728
864.952	136.27299
865.125	259.42713
865.298	303.51241
865.471	301.91231
865.644	784.94457
865.817	515.97713
865.99	519.10422
866.163	688.71397
866.336	278.59426
866.509	278.04472
866.682	266.00898
866.855	591.95477
867.028	168.0736
867.2	446.57474
867.373	110.26716
867.546	336.19316
867.719	814.11603
867.892	429.45449
868.064	241.48346
868.237	364.30985
868.41	377.90659
868.583	174.10632
868.755	211.97383
868.928	279.41933
869.101	897.41766
869.273	527.59754
869.446	391.41408
869.619	616.42215
869.791	305.62953
869.964	514.04913
870.136	484.18319
870.309	412.83183
870.481	318.28274
870.654	164.45917
870.826	429.56289
870.999	238.24086
871.171	408.15515
871.344	243.51616
871.516	306.72305
871.689	199.26027
871.861	412.20028
872.033	207.72863
872.206	262.40218
872.378	454.93137
872.55	278.14705
872.723	170.63968
872.895	300.35318
873.067	507.81689
873.24	509.68821
873.412	253.32193
873.584	288.9444
873.756	270.29788
873.928	319.03258
874.101	357.19976
874.273	396.43159
874.445	122.02396
874.617	173.5879
874.789	322.06017
874.961	277.02938
875.133	380.97688
875.305	316.08789
875.477	189.21984
875.649	153.44408
875.821	185.46102
875.993	568.02305
876.165	187.71767
876.337	336.44208
876.509	296.00072
876.681	310.49579
876.853	364.29603
877.025	364.63187
877.197	206.89155
877.369	188.61234
877.541	437.49316
877.712	104.67839
877.884	180.67843
878.056	365.51182
878.228	192.56837
878.4	392.84627
878.571	195.94815
878.743	130.99287
878.915	309.66114
879.086	182.06432
879.258	215.88395
879.43	196.14708
879.601	177.73393
879.773	187.39048
879.945	41.33994
880.116	69.31643
880.288	41.54817
880.459	46.51128
880.631	32.08408
880.802	40.72694
880.974	37.54807
881.145	24.27649
881.317	33.93666
881.488	23.46473
881.66	25.83923
881.831	23.61437
882.002	33.9312
882.174	22.22589
882.345	30.92758
882.517	14.3309
882.688	37.9271
882.859	28.46107
883.03	48.81644
883.202	47.20154
883.373	39.11302
883.544	38.14596
883.715	68.00924
883.887	60.06493
884.058	51.26553
884.229	76.43002
884.4	75.7317
884.571	95.07816
884.742	77.73772
884.914	81.16083
885.085	130.22225
885.256	181.92041
885.427	149.40792
885.598	159.96468
885.769	177.0811
885.94	181.30097
886.111	111.23169
886.282	221.82952
886.453	168.72192
886.624	121.23761
886.795	222.06508
886.966	173.8742
887.136	236.56604
887.307	151.92088
887.478	376.6958
887.649	297.43479
887.82	320.88002
887.991	243.53039
888.161	318.8749
888.332	304.84949
888.503	136.52288
888.674	477.20876
888.844	576.13826
889.015	374.04123
889.186	161.34217
889.356	521.2106
889.527	138.06658
889.698	1051.07148
889.868	252.55028
890.039	337.0818
890.209	281.03113
890.38	387.00628
890.551	326.61266
890.721	450.53052
890.892	436.88622
891.062	264.13312
891.233	326.06062
891.403	311.73641
891.574	197.85889
891.744	288.38221
891.914	342.913
892.085	296.06098
892.255	99.3919
892.425	599.29249
892.596	369.03427
892.766	394.83561
892.936	452.95346
893.107	378.94237
893.277	196.47409
893.447	143.78897
893.618	118.9422
893.788	249.26429
893.958	129.02715
894.128	125.65901
894.298	145.08234
894.468	186.27778
894.639	89.28128
894.809	60.40643
894.979	93.01512
895.149	112.63373
895.319	85.97908
895.489	121.37196
895.659	161.15359
895.829	98.37996
895.999	101.4143
896.169	72.06204
896.339	100.04466
896.509	207.74021
896.679	230.39608
896.849	229.17678
897.019	353.49691
897.189	265.9669
897.358	243.7127
897.528	354.0842
897.698	115.4032
897.868	309.76913
898.038	898.75437
898.208	714.20356
898.377	138.40338
898.547	778.318
898.717	1015.65251
898.886	394.79658
899.056	598.8687
899.226	1447.95681
899.395	450.46034
899.565	828.36945
899.735	429.61201
899.904	1044.3591
900.074	1015.82005
900.244	269.29228
900.413	1208.56282
900.583	241.80373
900.752	416.92717
900.922	2036.90348
901.091	55.16515
901.261	628.37495
901.43	650.40813
901.599	568.3444
901.769	7007.45581
901.938	720.29706
902.108	764.74846
902.277	1557.17749
902.446	216.41471
902.616	234.81436
902.785	312.42841
902.954	664.07098
903.124	476.23826
903.293	301.78192
903.462	164.08203
903.631	240.36767
903.801	180.54771
903.97	78.0535
904.139	144.29299
904.308	107.00846
904.477	84.8267
904.646	47.94505
904.816	63.92215
904.985	117.61835
905.154	180.01228
