Data from WindowProjectSample_Transmission__38__00038__03530278980265187.txt Node

Date: Mon May 05 17:49:16 EDT 2025
User: jessi
Spectrometer: SR400872
Trigger mode: 0
Integration Time (sec): 5.000010E-1
Scans to average: 20
Electric dark correction enabled: true
Nonlinearity correction enabled: true
Boxcar width: 0
XAxis mode: Wavelengths
Number of Pixels in Spectrum: 3648
>>>>>Begin Spectral Data<<<<<
184.909	21396.42863
185.132	-5193.02357
185.355	-3160.87754
185.578	-18451.04014
185.801	1980.49503
186.024	10536.8221
186.247	-1901.94892
186.47	1151.0268
186.693	480.6523
186.916	330.42263
187.139	-3851.31848
187.362	3722.81988
187.585	4109.23313
187.808	3852.20078
188.031	13.24892
188.254	-53792.94824
188.476	-727.56949
188.699	6607.50511
188.922	603.33888
189.145	-16014.09723
189.368	-712.75426
189.591	-1491.96731
189.813	2961.0591
190.036	-54349.09588
190.259	-834.17873
190.482	-4970.15043
190.705	7461.20018
190.927	-2515.36275
191.15	13970.16898
191.373	3422.39726
191.595	-8936.24084
191.818	-4214.91089
192.041	-5874.66449
192.263	-3589.74511
192.486	-895.09967
192.709	-4261.13868
192.931	8401.75565
193.154	-29565.85705
193.377	-2958.97091
193.599	-2642.21878
193.822	-9620.27216
194.044	-2092.83419
194.267	1347.59795
194.489	248.48821
194.712	-46492.46376
194.934	-32682.15099
195.157	1114.13775
195.379	1420.68807
195.602	-7246.09337
195.824	-1323.05956
196.047	-9443.66398
196.269	2773.96127
196.492	-6923.63534
196.714	31180.88695
196.936	-9149.82098
197.159	-1194.90455
197.381	1253.4366
197.604	645.78233
197.826	12038.99984
198.048	-11506.05222
198.271	-3002.05828
198.493	8023.45849
198.715	2446.15954
198.938	-531.78802
199.16	6783.43469
199.382	-105727.45684
199.604	2925.64581
199.827	-1195.44482
200.049	-2891.34001
200.271	14654.09269
200.493	1241.42785
200.715	-38514.31585
200.938	-6239.96742
201.16	-4377.53878
201.382	21337.35224
201.604	2378.89981
201.826	2544.651
202.048	-2096.07311
202.27	-2113.12759
202.492	-37879.66603
202.715	2924.48902
202.937	-4525.10886
203.159	-6638.08962
203.381	1605.72593
203.603	7046.37644
203.825	6746.5822
204.047	2302.69556
204.269	-2859.51967
204.491	2247.46941
204.713	6046.46059
204.935	-528690.77948
205.156	1224.89489
205.378	-2907.16576
205.6	1642.51133
205.822	157325.9399
206.044	-1126.28006
206.266	1615.08246
206.488	4891.60495
206.71	-5501.41784
206.932	1104.88082
207.153	12784.38794
207.375	-7121.69507
207.597	-39611.25028
207.819	-2998.75337
208.041	2454.22545
208.262	469.37072
208.484	739.96115
208.706	-817.30769
208.927	-795.41531
209.149	572.28811
209.371	-3100.48756
209.593	-337.3397
209.814	-903.10299
210.036	592.09892
210.258	-717.97829
210.479	1753.28622
210.701	1659.02008
210.922	3539.93759
211.144	-4054.88555
211.366	2134.98568
211.587	8040.19926
211.809	-8470.53045
212.03	2375.36654
212.252	450.99217
212.473	2171.71928
212.695	-6016.56608
212.916	3013.31562
213.138	-741.52092
213.359	3822.37799
213.581	5598.64581
213.802	-864.45494
214.024	1143.65334
214.245	2131.58592
214.466	3644.27561
214.688	-3229.80528
214.909	-1174.48882
215.131	-1849.15426
215.352	-3221.88167
215.573	15621.01996
215.795	5308.60709
216.016	5491.08397
216.237	908.74753
216.459	3845.56983
216.68	1768.05696
216.901	5350.47072
217.122	-3447.77425
217.344	-12151.60431
217.565	3630.062
217.786	9088.04108
218.007	19058.6441
218.228	-840.0668
218.45	6023.5603
218.671	879.28465
218.892	40318.249
219.113	1530.26379
219.334	-266.53968
219.555	10627.46312
219.776	3180.98359
219.997	23160.56592
220.219	2945.66627
220.44	-12019.04381
220.661	492.51321
220.882	1551.74327
221.103	-1164.789
221.324	2376.01585
221.545	2399.40391
221.766	-9280.86198
221.987	966.5525
222.208	1644.39202
222.429	4371.91742
222.65	307.14842
222.87	17754.2949
223.091	756.10639
223.312	653.40228
223.533	1464.30448
223.754	1562.22828
223.975	1454.79971
224.196	2058.72961
224.417	1391.08023
224.637	682.16464
224.858	90.93393
225.079	1131.45548
225.3	673.24867
225.521	3794.89177
225.741	507.40526
225.962	523.80353
226.183	145.92419
226.404	694.53508
226.624	472.93582
226.845	685.28977
227.066	417.93397
227.286	260.63203
227.507	127.00044
227.728	121.03394
227.948	245.02635
228.169	76.98472
228.389	90.45972
228.61	49.75997
228.831	67.15854
229.051	3.48247
229.272	39.54839
229.492	58.45542
229.713	13.83557
229.933	39.0174
230.154	34.41552
230.374	55.93044
230.595	39.19344
230.815	23.78432
231.036	39.91599
231.256	-8.84031
231.477	70.88026
231.697	39.69873
231.917	39.68256
232.138	60.13309
232.358	107.57854
232.579	102.57378
232.799	19.10649
233.019	104.90471
233.24	116.47122
233.46	39.90166
233.68	67.82394
233.901	41.8005
234.121	27.9798
234.341	13.3864
234.561	-4.05204
234.782	22.51426
235.002	70.85373
235.222	-7.25144
235.442	67.44895
235.662	34.50783
235.883	66.08064
236.103	52.08619
236.323	37.62333
236.543	29.45397
236.763	40.21657
236.983	46.04179
237.203	42.56994
237.423	63.9257
237.643	88.76194
237.864	77.03614
238.084	18.22261
238.304	28.55488
238.524	45.53567
238.744	41.27971
238.964	76.91174
239.184	64.84427
239.404	66.81203
239.624	35.72451
239.843	61.58625
240.063	37.5642
240.283	21.51726
240.503	27.23917
240.723	26.26918
240.943	14.67415
241.163	20.77137
241.383	14.89117
241.603	8.00246
241.822	10.11004
242.042	7.21346
242.262	8.24046
242.482	9.89373
242.702	11.14958
242.921	2.88497
243.141	6.95484
243.361	6.45495
243.581	9.83795
243.8	7.93802
244.02	5.33826
244.24	10.00862
244.459	9.3831
244.679	17.91783
244.899	11.22042
245.118	13.32604
245.338	13.58884
245.558	14.29208
245.777	8.70925
245.997	11.25441
246.216	10.82528
246.436	6.77781
246.655	4.93545
246.875	3.47634
247.094	6.35448
247.314	2.09485
247.533	3.65678
247.753	4.62099
247.972	3.52482
248.192	1.24578
248.411	1.99287
248.631	3.48443
248.85	4.92088
249.07	4.01272
249.289	5.9444
249.508	5.15557
249.728	7.8282
249.947	7.51011
250.166	9.26256
250.386	4.47426
250.605	6.65179
250.824	11.35036
251.044	8.34849
251.263	29.33952
251.482	15.72573
251.701	12.25687
251.921	-0.12209
252.14	3.53079
252.359	4.06264
252.578	10.52047
252.798	3.44877
253.017	9.33441
253.236	4.51174
253.455	6.13506
253.674	10.56367
253.893	5.4373
254.112	7.89434
254.331	11.24985
254.551	9.32644
254.77	3.45806
254.989	13.70125
255.208	9.85007
255.427	15.2692
255.646	12.17011
255.865	22.40521
256.084	9.14318
256.303	10.66419
256.522	14.03905
256.741	3.00092
256.96	3.37624
257.179	8.44896
257.397	11.375
257.616	6.48497
257.835	6.37327
258.054	15.52911
258.273	10.98448
258.492	11.30435
258.711	6.82408
258.93	3.06577
259.148	4.93687
259.367	4.71028
259.586	5.66859
259.805	2.53528
260.023	5.32422
260.242	4.01279
260.461	2.96926
260.68	1.44834
260.898	4.63276
261.117	1.48332
261.336	1.05649
261.554	3.47362
261.773	3.58631
261.992	0.98557
262.21	3.58744
262.429	3.63413
262.648	7.80884
262.866	8.21042
263.085	5.86549
263.303	4.96651
263.522	8.87411
263.74	9.44505
263.959	16.20142
264.178	7.15173
264.396	6.71595
264.615	4.83355
264.833	10.95164
265.051	9.55481
265.27	11.08798
265.488	11.55336
265.707	6.75203
265.925	11.39656
266.144	4.98513
266.362	5.89214
266.58	5.69174
266.799	5.22813
267.017	6.30334
267.235	5.42734
267.454	3.44618
267.672	1.75285
267.89	4.46664
268.109	4.44254
268.327	4.41782
268.545	1.23563
268.763	4.18625
268.982	1.5101
269.2	4.45655
269.418	3.25299
269.636	1.94082
269.854	4.89533
270.073	3.24658
270.291	1.95167
270.509	1.89
270.727	4.59502
270.945	7.50501
271.163	7.38967
271.381	1.46562
271.599	3.33642
271.817	5.61946
272.036	2.08913
272.254	3.13445
272.472	2.36464
272.69	2.78813
272.908	2.3734
273.126	4.74563
273.344	5.6522
273.562	1.98212
273.779	2.74545
273.997	3.95424
274.215	4.28116
274.433	2.9872
274.651	4.61457
274.869	4.67134
275.087	2.81458
275.305	4.25127
275.523	2.66544
275.74	3.04894
275.958	5.6187
276.176	8.61513
276.394	2.61941
276.612	3.27031
276.829	3.48016
277.047	2.70507
277.265	3.08698
277.483	3.75138
277.7	4.42926
277.918	3.77763
278.136	6.4234
278.353	2.99794
278.571	1.89831
278.789	4.69576
279.006	0.94786
279.224	2.93436
279.442	5.07493
279.659	3.95351
279.877	2.60305
280.094	6.05654
280.312	1.14239
280.529	3.56852
280.747	1.11962
280.964	2.73101
281.182	6.3345
281.399	2.83135
281.617	3.88908
281.834	2.57548
282.052	2.05859
282.269	3.31104
282.487	2.39623
282.704	2.21598
282.921	2.27917
283.139	3.38923
283.356	4.20938
283.574	3.99824
283.791	1.85937
284.008	5.76141
284.226	3.11316
284.443	3.38457
284.66	4.68965
284.877	3.50513
285.095	2.27032
285.312	1.66088
285.529	0.90602
285.746	0.77377
285.964	2.21022
286.181	1.53499
286.398	1.97711
286.615	2.6515
286.832	2.6404
287.05	0.60061
287.267	1.84752
287.484	1.8957
287.701	2.64959
287.918	2.74048
288.135	2.82519
288.352	1.3413
288.569	1.6371
288.786	2.47685
289.003	1.97182
289.22	3.2823
289.437	1.76204
289.654	3.05733
289.871	3.24901
290.088	3.0258
290.305	2.31722
290.522	1.80055
290.739	2.15872
290.956	3.20712
291.173	3.77036
291.39	3.5661
291.607	2.53172
291.824	1.88657
292.04	1.48435
292.257	3.09281
292.474	3.38732
292.691	2.25565
292.908	0.97388
293.125	1.75753
293.341	1.24628
293.558	5.21534
293.775	2.0787
293.992	2.00652
294.208	1.00127
294.425	1.44502
294.642	2.19021
294.858	2.59087
295.075	0.92278
295.292	2.18246
295.508	2.562
295.725	4.40881
295.942	2.0428
296.158	1.53599
296.375	2.45104
296.591	1.93915
296.808	2.24261
297.024	2.49479
297.241	2.7706
297.458	3.00708
297.674	0.78369
297.891	2.4516
298.107	2.15695
298.323	1.76445
298.54	3.83038
298.756	2.07599
298.973	1.36614
299.189	3.99915
299.406	2.17872
299.622	3.61212
299.838	3.68299
300.055	3.50087
300.271	1.52082
300.487	1.88802
300.704	2.30241
300.92	1.6866
301.136	5.24638
301.353	3.5879
301.569	2.86645
301.785	3.18305
302.001	3.69425
302.218	3.22345
302.434	3.45797
302.65	1.81219
302.866	2.43155
303.083	5.30493
303.299	5.02974
303.515	3.17807
303.731	3.44268
303.947	1.76922
304.163	2.58773
304.379	3.28549
304.595	3.5334
304.812	2.39163
305.028	2.42954
305.244	2.90004
305.46	3.7851
305.676	3.84951
305.892	4.49849
306.108	3.68159
306.324	2.88612
306.54	4.97296
306.756	3.83795
306.972	3.56358
307.187	3.12847
307.403	4.46869
307.619	2.76908
307.835	4.3914
308.051	4.62624
308.267	2.26024
308.483	4.37873
308.699	3.68115
308.914	3.17029
309.13	3.0678
309.346	1.85678
309.562	2.31927
309.778	1.97735
309.993	3.67964
310.209	3.36718
310.425	2.27093
310.641	3.10166
310.856	2.38895
311.072	2.28695
311.288	3.22997
311.503	3.46199
311.719	1.7805
311.935	1.69058
312.15	3.77642
312.366	3.39748
312.581	3.69374
312.797	3.25948
313.013	4.0894
313.228	2.65306
313.444	3.05504
313.659	2.64383
313.875	3.70605
314.09	3.0341
314.306	4.58957
314.521	4.04612
314.737	3.884
314.952	3.13935
315.168	3.32218
315.383	3.68921
315.599	2.94515
315.814	2.9887
316.029	3.97331
316.245	2.25593
316.46	1.68829
316.675	4.26368
316.891	4.88639
317.106	5.96811
317.321	3.51034
317.537	4.06414
317.752	4.03143
317.967	4.28094
318.183	2.41819
318.398	2.94847
318.613	4.11335
318.828	4.72567
319.043	4.03392
319.259	3.06765
319.474	3.46087
319.689	4.35821
319.904	1.90564
320.119	4.13918
320.334	3.62139
320.549	3.15134
320.765	4.27221
320.98	3.61179
321.195	3.96474
321.41	3.27161
321.625	4.0092
321.84	4.93047
322.055	5.01575
322.27	2.61551
322.485	2.27234
322.7	3.79019
322.915	4.20591
323.13	2.67741
323.345	4.88064
323.56	4.49283
323.775	4.05054
323.989	3.85988
324.204	3.59278
324.419	4.54374
324.634	2.38259
324.849	3.28978
325.064	6.55321
325.279	4.37937
325.493	3.88316
325.708	4.1281
325.923	2.842
326.138	3.04454
326.352	4.97614
326.567	4.34913
326.782	3.10744
326.997	3.02943
327.211	4.05849
327.426	3.7491
327.641	3.26697
327.855	2.25936
328.07	3.90693
328.285	5.21483
328.499	3.07745
328.714	3.74108
328.928	4.09919
329.143	3.28546
329.358	4.45567
329.572	4.40994
329.787	4.83491
330.001	5.83883
330.216	2.49557
330.43	5.35315
330.645	4.87275
330.859	4.53224
331.074	2.81034
331.288	3.63374
331.503	4.84092
331.717	2.5934
331.931	3.81166
332.146	3.85358
332.36	5.47694
332.575	3.94307
332.789	3.9112
333.003	3.86801
333.218	4.14369
333.432	3.17586
333.646	4.57496
333.86	5.31371
334.075	5.17212
334.289	3.20352
334.503	2.5864
334.717	4.2374
334.932	4.10463
335.146	4.56608
335.36	3.24087
335.574	4.43656
335.788	4.05247
336.003	4.68893
336.217	4.4784
336.431	4.19569
336.645	3.35747
336.859	2.73113
337.073	3.61716
337.287	4.05483
337.501	2.65291
337.715	4.15827
337.929	4.42392
338.143	2.77102
338.357	3.64972
338.571	3.23289
338.785	4.45254
338.999	3.49396
339.213	3.29855
339.427	2.66004
339.641	5.02872
339.855	3.60009
340.069	3.10981
340.283	4.72288
340.497	5.42412
340.711	4.36965
340.924	3.84955
341.138	3.07365
341.352	2.81142
341.566	4.07041
341.78	2.55818
341.993	3.47653
342.207	3.10394
342.421	4.25766
342.635	3.84588
342.848	3.57575
343.062	2.02455
343.276	3.32877
343.49	5.67378
343.703	3.30563
343.917	4.8726
344.131	5.00443
344.344	3.30864
344.558	3.67515
344.771	2.85917
344.985	5.26451
345.199	5.47286
345.412	4.20521
345.626	4.43146
345.839	2.61066
346.053	3.1089
346.266	3.15336
346.48	4.64081
346.693	4.452
346.907	4.19584
347.12	3.20646
347.334	4.22622
347.547	4.21622
347.76	3.88714
347.974	5.07504
348.187	4.30795
348.401	3.64342
348.614	3.34097
348.827	3.73555
349.041	4.37537
349.254	2.70076
349.467	3.73154
349.681	3.13694
349.894	3.4568
350.107	5.05102
350.32	5.71086
350.534	2.81913
350.747	3.82161
350.96	3.31484
351.173	3.54089
351.386	3.81998
351.6	3.55727
351.813	3.62869
352.026	3.79013
352.239	3.04823
352.452	3.73079
352.665	4.96519
352.878	3.94664
353.092	5.65732
353.305	4.75167
353.518	4.23937
353.731	3.32071
353.944	5.03922
354.157	3.85863
354.37	3.58676
354.583	3.2278
354.796	3.03334
355.009	5.04386
355.222	4.48679
355.435	4.17228
355.647	5.0382
355.86	3.58238
356.073	4.23106
356.286	3.86696
356.499	4.8036
356.712	4.59777
356.925	4.76625
357.138	4.85841
357.35	3.63359
357.563	4.0494
357.776	4.38571
357.989	4.17477
358.201	4.75169
358.414	4.6178
358.627	5.40774
358.84	4.25364
359.052	3.43889
359.265	3.84677
359.478	5.10813
359.69	2.61413
359.903	4.95975
360.116	5.24581
360.328	3.25361
360.541	5.02223
360.753	3.88835
360.966	4.1458
361.179	4.36428
361.391	4.25256
361.604	4.20126
361.816	4.39922
362.029	4.2784
362.241	4.10002
362.454	4.44521
362.666	3.96858
362.879	5.04762
363.091	4.36584
363.304	4.29542
363.516	4.45944
363.728	3.90504
363.941	5.03847
364.153	4.61922
364.366	3.11997
364.578	3.9615
364.79	4.80579
365.003	4.79283
365.215	4.22005
365.427	5.08973
365.639	5.3977
365.852	4.72186
366.064	6.33446
366.276	4.50298
366.488	4.90299
366.701	4.47506
366.913	4.57436
367.125	4.58972
367.337	4.41309
367.549	4.40025
367.762	4.76516
367.974	4.67385
368.186	4.46343
368.398	5.49431
368.61	5.17712
368.822	5.37472
369.034	4.59047
369.246	5.4796
369.458	7.18479
369.67	4.30671
369.882	6.15852
370.094	3.5187
370.306	6.03272
370.518	4.72419
370.73	4.54357
370.942	4.55473
371.154	4.99545
371.366	4.83109
371.578	5.43196
371.79	4.9382
372.002	6.05663
372.214	6.75293
372.425	5.12607
372.637	6.34527
372.849	5.48613
373.061	3.87576
373.273	5.5905
373.484	5.48602
373.696	5.89328
373.908	3.81964
374.12	6.07426
374.331	5.76934
374.543	4.77312
374.755	4.72145
374.967	5.36901
375.178	6.04125
375.39	5.14814
375.602	5.54687
375.813	4.32886
376.025	4.92949
376.236	5.56379
376.448	5.89338
376.66	5.45838
376.871	5.5966
377.083	6.55749
377.294	7.05557
377.506	5.47027
377.717	6.83345
377.929	6.12551
378.14	5.65756
378.352	6.14474
378.563	6.35557
378.775	6.96755
378.986	5.30288
379.197	5.96046
379.409	5.38981
379.62	6.46062
379.832	6.30187
380.043	5.91161
380.254	6.17527
380.466	5.30627
380.677	8.21612
380.888	7.43537
381.1	8.12541
381.311	7.84541
381.522	6.39247
381.733	8.36774
381.945	6.2519
382.156	6.20528
382.367	6.10968
382.578	8.38446
382.789	8.44745
383.001	6.05134
383.212	7.60244
383.423	7.67802
383.634	7.32593
383.845	7.16807
384.056	6.42311
384.267	6.71762
384.478	6.72849
384.69	6.00613
384.901	7.07551
385.112	6.96856
385.323	8.0931
385.534	7.15665
385.745	7.19472
385.956	7.09413
386.167	6.45946
386.378	7.36186
386.588	6.57802
386.799	6.48559
387.01	6.08226
387.221	7.70644
387.432	7.17818
387.643	8.38622
387.854	7.07949
388.065	7.09047
388.275	7.15308
388.486	6.92439
388.697	7.19939
388.908	6.93593
389.119	8.11819
389.329	8.30742
389.54	7.51947
389.751	7.65168
389.962	8.33605
390.172	7.53417
390.383	7.28967
390.594	6.96562
390.804	7.1694
391.015	7.18442
391.226	7.80401
391.436	8.04038
391.647	8.02778
391.858	8.19937
392.068	6.89138
392.279	7.26613
392.489	8.10143
392.7	8.55735
392.91	7.53725
393.121	7.4704
393.331	8.25589
393.542	8.82285
393.752	8.36635
393.963	8.44723
394.173	8.35969
394.384	8.52464
394.594	8.2687
394.804	7.55862
395.015	8.29196
395.225	8.57125
395.436	7.74927
395.646	8.60314
395.856	8.03592
396.067	7.29211
396.277	8.85738
396.487	8.58294
396.697	8.55195
396.908	8.65296
397.118	8.57102
397.328	8.49528
397.538	9.03916
397.749	7.8636
397.959	8.93834
398.169	8.62932
398.379	7.58024
398.589	8.78472
398.8	8.62791
399.01	8.61148
399.22	8.32286
399.43	9.98116
399.64	8.67876
399.85	8.92362
400.06	8.72241
400.27	8.11165
400.48	8.61703
400.69	9.50468
400.9	8.25222
401.11	7.98459
401.32	9.21349
401.53	8.41363
401.74	9.78606
401.95	9.05917
402.16	8.46297
402.37	8.93477
402.58	8.51693
402.79	9.21129
403	9.53699
403.209	8.44151
403.419	9.74258
403.629	8.42391
403.839	9.74865
404.049	9.55216
404.258	8.81483
404.468	8.71693
404.678	9.49337
404.888	9.9438
405.097	9.11006
405.307	9.12449
405.517	9.67999
405.727	9.61544
405.936	9.12731
406.146	9.51926
406.356	10.21774
406.565	9.34283
406.775	8.99128
406.984	9.16196
407.194	10.50906
407.404	9.36422
407.613	9.69151
407.823	9.7531
408.032	10.23203
408.242	9.86738
408.451	9.15588
408.661	9.32359
408.87	10.56758
409.08	8.84179
409.289	9.65139
409.499	9.73866
409.708	9.60971
409.918	8.3634
410.127	9.69844
410.336	10.53949
410.546	10.14119
410.755	9.47197
410.964	9.51086
411.174	9.00387
411.383	10.05412
411.592	9.91446
411.802	9.08011
412.011	10.15264
412.22	9.58852
412.429	10.72935
412.639	10.68922
412.848	10.22253
413.057	10.56336
413.266	10.45776
413.475	9.71686
413.685	10.2061
413.894	10.45997
414.103	10.53701
414.312	10.40179
414.521	9.71717
414.73	10.12029
414.939	11.23709
415.148	10.29045
415.357	10.24792
415.566	9.9162
415.776	9.86418
415.985	10.06743
416.194	10.78073
416.403	11.40448
416.611	9.48598
416.82	10.07995
417.029	10.44228
417.238	10.13592
417.447	9.9111
417.656	10.3615
417.865	10.1372
418.074	10.4556
418.283	10.57791
418.492	11.23865
418.7	10.99504
418.909	12.11289
419.118	11.22291
419.327	11.56138
419.536	11.55292
419.744	11.67794
419.953	12.91339
420.162	13.23469
420.371	12.72673
420.579	13.36202
420.788	14.34058
420.997	14.29602
421.205	14.95373
421.414	14.65039
421.623	14.87219
421.831	14.43089
422.04	15.03891
422.249	14.18938
422.457	14.42507
422.666	13.47109
422.874	14.21356
423.083	14.3275
423.291	14.29522
423.5	14.10647
423.708	14.62663
423.917	15.09615
424.125	14.75642
424.334	14.66682
424.542	16.3535
424.751	15.84859
424.959	15.46258
425.167	15.53934
425.376	15.34682
425.584	14.05922
425.793	13.92124
426.001	12.92945
426.209	12.94969
426.418	11.74694
426.626	11.39008
426.834	11.25199
427.042	11.52453
427.251	11.26708
427.459	11.90637
427.667	11.59835
427.875	10.8005
428.084	11.22766
428.292	12.04157
428.5	11.80056
428.708	10.83893
428.916	10.85874
429.124	11.33333
429.333	11.18929
429.541	11.29435
429.749	11.49356
429.957	11.37854
430.165	12.93538
430.373	10.60847
430.581	11.53304
430.789	12.34568
430.997	11.32404
431.205	11.03323
431.413	11.72418
431.621	11.302
431.829	11.88995
432.037	11.3879
432.245	11.55264
432.453	11.71386
432.661	11.45331
432.869	12.6457
433.076	11.19327
433.284	11.64779
433.492	12.11107
433.7	12.40837
433.908	11.70925
434.116	11.81035
434.323	12.01254
434.531	11.78045
434.739	12.21839
434.947	12.36171
435.154	12.32648
435.362	11.86886
435.57	11.69735
435.778	11.51305
435.985	12.01293
436.193	11.53608
436.401	12.42551
436.608	11.78099
436.816	11.55088
437.023	12.64761
437.231	12.70902
437.439	12.04917
437.646	12.1596
437.854	12.02122
438.061	12.36937
438.269	11.81544
438.476	12.26204
438.684	11.94698
438.891	11.8221
439.099	11.70424
439.306	11.42119
439.514	11.50721
439.721	12.7166
439.929	12.39129
440.136	13.33733
440.343	13.41993
440.551	13.36504
440.758	15.02488
440.965	13.75211
441.173	13.51867
441.38	13.34612
441.587	13.10403
441.795	12.90478
442.002	12.49914
442.209	12.39314
442.416	12.53786
442.624	12.6444
442.831	12.34476
443.038	12.00184
443.245	11.61418
443.452	11.96972
443.66	12.42767
443.867	11.79741
444.074	11.77511
444.281	11.79455
444.488	12.07262
444.695	12.1544
444.902	11.92109
445.109	13.19302
445.316	13.07771
445.523	13.53108
445.73	13.82471
445.937	14.92498
446.144	15.43357
446.351	16.03202
446.558	15.07494
446.765	16.9358
446.972	16.14791
447.179	15.86976
447.386	16.39982
447.593	14.77054
447.8	15.65156
448.007	14.05049
448.214	13.30886
448.42	12.76273
448.627	13.00552
448.834	12.47319
449.041	12.36753
449.248	12.29135
449.454	12.77885
449.661	13.35425
449.868	12.22307
450.075	12.12817
450.281	11.33062
450.488	11.76094
450.695	11.80505
450.901	11.87911
451.108	11.99445
451.315	12.79877
451.521	12.04663
451.728	12.80446
451.935	11.89143
452.141	12.18602
452.348	12.33227
452.554	12.2567
452.761	12.18828
452.967	13.28796
453.174	12.56469
453.38	12.57268
453.587	11.88636
453.793	12.53112
454	12.85426
454.206	13.57172
454.413	12.91316
454.619	12.77992
454.825	12.088
455.032	12.80825
455.238	12.82066
455.445	11.80429
455.651	12.49087
455.857	11.54604
456.064	12.21484
456.27	12.29497
456.476	12.16534
456.682	11.78942
456.889	12.58613
457.095	12.63248
457.301	13.66403
457.507	12.48647
457.714	12.40566
457.92	12.50081
458.126	11.99598
458.332	12.30563
458.538	12.19753
458.744	12.35499
458.951	12.36405
459.157	14.52675
459.363	14.09024
459.569	14.56626
459.775	15.40326
459.981	15.27152
460.187	15.83366
460.393	16.10161
460.599	16.15085
460.805	15.23584
461.011	14.25523
461.217	14.01525
461.423	13.62204
461.629	12.98435
461.835	13.25726
462.041	12.8097
462.247	13.76029
462.453	12.65592
462.658	12.71739
462.864	13.20184
463.07	12.79986
463.276	12.86851
463.482	12.65867
463.688	13.46463
463.893	12.34198
464.099	12.56479
464.305	13.54288
464.511	12.48049
464.716	12.65208
464.922	13.20435
465.128	12.26549
465.333	13.74122
465.539	13.14629
465.745	12.88003
465.95	12.77579
466.156	14.34572
466.362	13.37907
466.567	12.77066
466.773	12.47178
466.978	13.59941
467.184	12.3157
467.389	11.88326
467.595	12.98501
467.8	12.56198
468.006	13.74219
468.211	13.53288
468.417	12.3826
468.622	13.12066
468.828	13.16025
469.033	13.17269
469.239	14.35741
469.444	12.75019
469.649	13.46308
469.855	12.87638
470.06	12.84382
470.266	12.43539
470.471	13.24421
470.676	13.17987
470.881	12.04155
471.087	13.86639
471.292	14.51711
471.497	12.43654
471.703	12.94232
471.908	12.60333
472.113	13.03823
472.318	13.52043
472.523	12.52733
472.729	13.1805
472.934	13.30287
473.139	12.76438
473.344	13.28427
473.549	13.73158
473.754	12.84821
473.959	14.5211
474.164	12.70591
474.369	12.96845
474.575	13.4988
474.78	13.11376
474.985	12.75778
475.19	12.05943
475.395	12.61692
475.6	13.03391
475.804	13.90377
476.009	13.04044
476.214	13.06416
476.419	12.93017
476.624	12.30815
476.829	12.59432
477.034	13.44644
477.239	12.72554
477.444	13.52213
477.648	13.5456
477.853	13.48647
478.058	13.09931
478.263	12.77757
478.468	12.66267
478.672	12.78593
478.877	14.02885
479.082	14.05949
479.287	13.5399
479.491	13.23233
479.696	12.81833
479.901	13.55151
480.105	13.63768
480.31	12.8107
480.515	13.2507
480.719	14.28772
480.924	12.97893
481.128	12.67079
481.333	13.36978
481.538	13.41374
481.742	13.83897
481.947	15.02118
482.151	16.23984
482.356	17.35177
482.56	19.97607
482.765	22.2052
482.969	26.18759
483.174	29.66312
483.378	34.22725
483.582	36.25025
483.787	39.19658
483.991	40.64212
484.196	41.65114
484.4	41.54051
484.604	42.06843
484.809	39.18415
485.013	37.05986
485.217	33.85858
485.422	30.42509
485.626	27.43614
485.83	25.44502
486.034	24.27434
486.239	24.22298
486.443	24.557
486.647	25.10594
486.851	26.39454
487.055	28.38988
487.26	28.61035
487.464	30.08776
487.668	30.01087
487.872	31.10804
488.076	31.29525
488.28	30.56626
488.484	28.9288
488.688	28.09864
488.892	26.80363
489.096	24.89881
489.3	23.14574
489.504	21.52895
489.708	20.11193
489.912	19.43805
490.116	18.86015
490.32	18.28108
490.524	19.50933
490.728	20.6429
490.932	21.73915
491.136	23.04565
491.34	24.7273
491.544	25.50219
491.748	25.91053
491.951	26.04307
492.155	25.80175
492.359	25.19133
492.563	23.48208
492.767	22.20305
492.97	20.14756
493.174	18.04129
493.378	16.51557
493.582	14.64984
493.785	13.95368
493.989	13.93289
494.193	13.83199
494.396	13.58673
494.6	14.10919
494.804	13.63549
495.007	13.36064
495.211	13.32193
495.414	13.44546
495.618	13.73765
495.822	14.21218
496.025	13.60205
496.229	13.94457
496.432	13.30076
496.636	13.73535
496.839	13.63094
497.043	14.46648
497.246	13.97958
497.45	13.68347
497.653	13.96191
497.856	14.02782
498.06	13.48491
498.263	13.84222
498.467	13.68744
498.67	14.25786
498.873	13.96212
499.077	13.71374
499.28	13.64972
499.483	13.90517
499.686	14.14638
499.89	13.92309
500.093	14.26071
500.296	13.41117
500.499	14.59787
500.703	13.69949
500.906	13.9816
501.109	14.60582
501.312	13.85606
501.515	13.72432
501.719	13.92067
501.922	14.40356
502.125	13.7968
502.328	13.68504
502.531	13.24636
502.734	13.6535
502.937	12.92215
503.14	13.9215
503.343	13.27918
503.546	13.53746
503.749	13.33416
503.952	14.17386
504.155	13.39335
504.358	13.9918
504.561	13.87862
504.764	13.15193
504.967	13.86652
505.17	13.78432
505.373	14.56264
505.576	13.8161
505.778	14.36467
505.981	13.45239
506.184	14.42171
506.387	12.95211
506.59	14.86865
506.793	14.35154
506.995	14.06824
507.198	12.99104
507.401	14.05567
507.604	14.03625
507.806	13.36275
508.009	13.49896
508.212	14.30133
508.414	13.55098
508.617	13.70926
508.82	13.97027
509.022	14.75346
509.225	14.01559
509.427	13.32676
509.63	14.62621
509.833	14.01037
510.035	13.72477
510.238	13.3219
510.44	14.59046
510.643	13.15917
510.845	14.88234
511.048	14.16053
511.25	13.68985
511.453	13.89522
511.655	14.10707
511.858	13.81589
512.06	14.48445
512.262	14.04482
512.465	14.44611
512.667	13.81293
512.869	13.45698
513.072	14.22356
513.274	14.50173
513.476	14.2851
513.679	14.49376
513.881	13.53709
514.083	14.82966
514.286	13.64334
514.488	13.59406
514.69	13.41746
514.892	13.27268
515.094	14.32773
515.297	13.59437
515.499	13.99768
515.701	13.49162
515.903	14.75364
516.105	14.779
516.307	14.35975
516.509	12.96581
516.711	13.28227
516.913	14.00995
517.116	13.98232
517.318	13.67183
517.52	14.45478
517.722	14.3197
517.924	13.38948
518.126	14.20027
518.328	13.9616
518.529	14.79928
518.731	15.66024
518.933	14.2701
519.135	14.61592
519.337	15.19474
519.539	14.53036
519.741	13.51696
519.943	14.11045
520.145	14.05714
520.346	14.53375
520.548	14.03408
520.75	14.37041
520.952	14.14316
521.153	14.3308
521.355	14.2437
521.557	13.7508
521.759	14.16442
521.96	14.05608
522.162	13.49181
522.364	14.59366
522.565	13.66005
522.767	14.34154
522.969	14.53397
523.17	14.33282
523.372	14.31309
523.573	13.82908
523.775	13.90399
523.977	13.6725
524.178	15.03729
524.38	13.80362
524.581	14.29632
524.783	13.82723
524.984	14.32667
525.186	14.23585
525.387	14.99736
525.589	15.1962
525.79	15.55656
525.991	15.60061
526.193	16.35736
526.394	15.87075
526.596	16.8008
526.797	17.22396
526.998	16.81178
527.2	17.61557
527.401	19.96384
527.602	21.44244
527.803	24.5903
528.005	26.46779
528.206	28.8822
528.407	30.57466
528.608	31.36657
528.81	32.26201
529.011	32.08952
529.212	33.07275
529.413	31.60566
529.614	29.96152
529.815	28.22282
530.017	26.0064
530.218	23.08754
530.419	20.77287
530.62	19.60243
530.821	18.50193
531.022	16.70684
531.223	17.0974
531.424	16.51689
531.625	16.65386
531.826	16.20677
532.027	16.8332
532.228	18.46424
532.429	18.84469
532.63	19.62694
532.831	20.93481
533.032	21.49113
533.233	22.50293
533.433	22.36655
533.634	22.82229
533.835	21.99886
534.036	21.35046
534.237	20.65832
534.438	19.3646
534.638	17.64513
534.839	16.62781
535.04	15.87639
535.241	14.92829
535.441	15.69054
535.642	15.20394
535.843	14.76888
536.043	15.08219
536.244	15.38916
536.445	15.80133
536.645	16.84081
536.846	16.40329
537.047	16.88762
537.247	15.76331
537.448	15.45388
537.648	14.97627
537.849	14.68423
538.049	14.53796
538.25	14.82879
538.451	14.73264
538.651	14.06477
538.851	14.83107
539.052	15.1167
539.252	14.80849
539.453	14.37976
539.653	14.50104
539.854	14.24691
540.054	14.37054
540.254	16.50831
540.455	18.13977
540.655	18.89828
540.855	21.23856
541.056	22.83694
541.256	23.34417
541.456	24.51408
541.657	24.66396
541.857	25.40829
542.057	24.05595
542.257	23.39998
542.458	23.39928
542.658	22.27411
542.858	20.00547
543.058	19.44396
543.258	18.48257
543.458	16.64594
543.659	15.97766
543.859	16.26021
544.059	15.62642
544.259	14.87755
544.459	15.43594
544.659	14.75584
544.859	14.97914
545.059	14.57591
545.259	15.11761
545.459	14.87622
545.659	15.32574
545.859	14.79824
546.059	14.96935
546.259	14.36482
546.459	14.13939
546.659	14.34191
546.859	15.20787
547.059	14.8141
547.258	15.07723
547.458	15.02395
547.658	14.37424
547.858	14.24688
548.058	14.93299
548.258	14.60716
548.457	14.29339
548.657	16.1316
548.857	14.63982
549.057	15.19003
549.256	14.98932
549.456	14.3061
549.656	13.58663
549.855	15.63083
550.055	14.15837
550.255	15.64971
550.454	14.72107
550.654	15.01556
550.853	15.58077
551.053	14.96174
551.253	14.61524
551.452	14.8347
551.652	13.72935
551.851	13.5244
552.051	14.24984
552.25	14.16423
552.45	14.06339
552.649	14.34784
552.849	13.90875
553.048	14.53343
553.248	14.99166
553.447	13.98214
553.646	15.1708
553.846	16.16644
554.045	15.49227
554.244	13.76444
554.444	15.4766
554.643	14.067
554.842	15.51554
555.042	15.7804
555.241	14.08055
555.44	13.7289
555.64	14.89664
555.839	15.44201
556.038	14.78489
556.237	14.04812
556.436	14.48217
556.636	14.62516
556.835	14.00624
557.034	15.34476
557.233	14.42311
557.432	13.49332
557.631	15.2408
557.83	14.39343
558.029	13.97073
558.228	13.92631
558.427	13.77263
558.626	14.45489
558.825	13.78194
559.024	14.091
559.223	15.56725
559.422	14.21817
559.621	14.68937
559.82	12.75664
560.019	14.26515
560.218	14.04899
560.417	12.67371
560.616	13.96422
560.815	16.6785
561.014	13.27287
561.212	15.57224
561.411	14.37395
561.61	13.67088
561.809	14.13007
562.008	15.58178
562.206	14.18882
562.405	14.84999
562.604	14.39659
562.803	14.65943
563.001	14.37254
563.2	13.45884
563.399	14.72429
563.597	13.75994
563.796	14.33489
563.995	13.69717
564.193	14.8184
564.392	14.0582
564.59	15.6662
564.789	13.19228
564.988	14.03426
565.186	14.44201
565.385	14.31658
565.583	14.15533
565.782	14.42739
565.98	14.2001
566.179	14.37533
566.377	14.03027
566.575	14.12565
566.774	15.56283
566.972	15.16703
567.171	15.85236
567.369	15.4923
567.567	14.79607
567.766	14.66138
567.964	13.37048
568.162	14.98873
568.361	15.41281
568.559	14.34091
568.757	14.64318
568.956	14.45597
569.154	14.58342
569.352	14.85785
569.55	14.35994
569.748	14.54657
569.947	13.96536
570.145	13.64888
570.343	13.79333
570.541	15.51718
570.739	13.74396
570.937	14.46602
571.135	14.72701
571.333	15.97307
571.532	15.81642
571.73	14.74084
571.928	15.25793
572.126	14.95972
572.324	14.40228
572.522	15.4766
572.72	16.58343
572.918	14.68171
573.116	15.04878
573.313	14.56705
573.511	14.61127
573.709	14.29942
573.907	15.21127
574.105	14.35991
574.303	13.66008
574.501	13.50124
574.699	15.04452
574.896	14.86368
575.094	15.06929
575.292	13.75628
575.49	15.21762
575.688	14.53461
575.885	15.65528
576.083	16.41883
576.281	15.12405
576.478	14.10936
576.676	15.03518
576.874	13.68273
577.071	14.73768
577.269	16.2958
577.467	14.24734
577.664	14.46957
577.862	15.29516
578.059	13.97142
578.257	15.17328
578.455	14.14635
578.652	14.65851
578.85	13.01005
579.047	14.55326
579.245	14.25023
579.442	14.42617
579.64	14.22097
579.837	13.08506
580.034	16.64066
580.232	14.28764
580.429	13.488
580.627	14.79035
580.824	15.34072
581.021	15.00799
581.219	13.99046
581.416	13.76926
581.613	15.53067
581.811	15.4476
582.008	13.6892
582.205	15.30774
582.402	14.65218
582.6	15.62972
582.797	14.38819
582.994	14.83674
583.191	15.19442
583.388	14.38543
583.586	15.09922
583.783	15.30121
583.98	13.6796
584.177	14.60202
584.374	12.35853
584.571	14.29448
584.768	14.41536
584.965	14.04285
585.162	15.08286
585.359	15.91146
585.556	14.50628
585.753	14.76587
585.95	13.30087
586.147	13.60641
586.344	14.98142
586.541	14.35853
586.738	13.56319
586.935	14.24879
587.132	13.85217
587.329	15.3842
587.526	14.30815
587.722	18.59007
587.919	13.28022
588.116	14.91743
588.313	15.61425
588.51	16.17853
588.706	14.34687
588.903	15.00138
589.1	15.45429
589.297	16.97174
589.493	14.52346
589.69	15.15959
589.887	14.13112
590.083	13.64142
590.28	14.04822
590.477	15.34536
590.673	15.13684
590.87	15.59676
591.067	14.12884
591.263	14.77791
591.46	14.84955
591.656	14.26509
591.853	16.01817
592.049	13.84688
592.246	14.00445
592.442	15.46573
592.639	15.5496
592.835	13.63478
593.032	14.92128
593.228	13.18584
593.425	13.3802
593.621	13.11728
593.817	14.69177
594.014	13.64413
594.21	14.78247
594.406	15.60543
594.603	14.97591
594.799	14.16274
594.995	12.83769
595.192	15.55172
595.388	14.19927
595.584	14.37958
595.78	13.42962
595.977	16.95223
596.173	16.00115
596.369	14.35647
596.565	13.86619
596.761	13.61245
596.957	15.76771
597.154	14.18445
597.35	14.37206
597.546	14.27753
597.742	15.30627
597.938	15.21415
598.134	14.17743
598.33	14.84333
598.526	16.11
598.722	14.9056
598.918	16.24145
599.114	15.29975
599.31	13.6618
599.506	14.57846
599.702	13.78555
599.898	14.73858
600.094	15.52344
600.29	15.2578
600.485	15.43357
600.681	13.69906
600.877	16.05145
601.073	14.57176
601.269	16.49868
601.465	15.66667
601.66	13.5817
601.856	12.85705
602.052	16.6215
602.248	14.34036
602.443	12.78255
602.639	13.51535
602.835	13.95843
603.03	13.82417
603.226	15.46719
603.422	13.76805
603.617	14.59654
603.813	14.54457
604.009	14.3262
604.204	15.74121
604.4	13.75633
604.595	15.80615
604.791	14.1745
604.986	15.11488
605.182	14.10886
605.377	14.63556
605.573	14.62981
605.768	14.98803
605.964	15.40868
606.159	15.5927
606.355	15.84558
606.55	14.56108
606.746	15.74405
606.941	14.59669
607.136	16.43212
607.332	17.52019
607.527	13.50922
607.722	14.99845
607.918	14.50162
608.113	13.89144
608.308	15.37114
608.503	15.23795
608.699	15.17581
608.894	15.27092
609.089	14.07255
609.284	15.35495
609.479	14.66231
609.675	15.59065
609.87	14.91334
610.065	15.69398
610.26	15.98976
610.455	15.99939
610.65	15.195
610.845	15.71024
611.04	16.13015
611.235	15.0443
611.43	15.24286
611.625	14.39007
611.82	16.68883
612.015	14.55479
612.21	16.8011
612.405	13.84659
612.6	16.74095
612.795	16.57953
612.99	15.76178
613.185	13.95912
613.38	14.23641
613.575	15.25615
613.77	18.26621
613.965	13.43409
614.159	14.1236
614.354	16.33543
614.549	16.14358
614.744	15.56408
614.938	13.4956
615.133	13.29036
615.328	16.12147
615.523	15.9948
615.717	17.99327
615.912	14.4446
616.107	15.04487
616.301	14.60709
616.496	14.12247
616.691	16.55449
616.885	15.76612
617.08	18.38998
617.274	15.75199
617.469	16.98012
617.664	15.5965
617.858	14.66932
618.053	15.36794
618.247	14.462
618.442	12.46512
618.636	16.54356
618.831	14.1793
619.025	14.14536
619.219	18.28863
619.414	11.58983
619.608	14.61161
619.803	14.21641
619.997	17.29629
620.191	16.04383
620.386	15.21451
620.58	14.80021
620.774	13.00228
620.969	12.91722
621.163	15.0441
621.357	13.73437
621.551	14.49949
621.746	14.95793
621.94	14.37569
622.134	18.61006
622.328	17.01118
622.522	13.1343
622.716	16.05234
622.911	16.23478
623.105	15.97296
623.299	15.49327
623.493	18.595
623.687	14.07652
623.881	14.28686
624.075	15.79999
624.269	16.34968
624.463	12.63789
624.657	12.87607
624.851	15.64023
625.045	15.85129
625.239	15.88979
625.433	14.58817
625.627	17.05411
625.821	14.35697
626.015	14.09535
626.209	15.18606
626.403	13.36582
626.596	15.67769
626.79	16.08782
626.984	13.84601
627.178	15.77112
627.372	15.64801
627.565	16.06309
627.759	13.97666
627.953	13.92776
628.147	15.81851
628.34	16.10804
628.534	17.8875
628.728	14.81466
628.921	16.27963
629.115	15.901
629.309	16.49582
629.502	16.54626
629.696	15.15219
629.89	14.93045
630.083	15.38754
630.277	15.63973
630.47	17.02452
630.664	14.83817
630.857	13.30087
631.051	16.5951
631.244	16.5419
631.438	16.52747
631.631	14.16322
631.825	16.85157
632.018	15.77078
632.212	17.51442
632.405	16.7256
632.598	14.22016
632.792	15.25287
632.985	12.07511
633.178	14.72429
633.372	14.93794
633.565	14.71247
633.758	16.85675
633.952	14.14892
634.145	14.05201
634.338	14.46918
634.531	14.55187
634.724	14.35063
634.918	15.23511
635.111	14.89961
635.304	14.87188
635.497	18.2774
635.69	15.69513
635.883	16.98465
636.077	14.12555
636.27	15.76453
636.463	15.55378
636.656	15.56551
636.849	14.95941
637.042	16.10175
637.235	17.81475
637.428	16.40154
637.621	15.55648
637.814	17.18296
638.007	17.26796
638.2	17.30781
638.393	18.1434
638.586	13.3739
638.778	14.8535
638.971	15.42689
639.164	17.34527
639.357	15.76717
639.55	17.90477
639.743	16.47836
639.935	16.18595
640.128	18.83395
640.321	16.64112
640.514	15.81284
640.707	18.84032
640.899	16.56259
641.092	13.13149
641.285	31.30074
641.477	12.29186
641.67	19.42371
641.863	17.33135
642.055	16.15084
642.248	15.21547
642.441	15.29293
642.633	16.41245
642.826	17.16636
643.018	17.5728
643.211	18.57091
643.403	18.7454
643.596	19.30011
643.788	17.88978
643.981	15.36535
644.173	17.10248
644.366	14.98521
644.558	12.94689
644.751	17.37016
644.943	13.88353
645.135	18.5436
645.328	18.44526
645.52	16.96031
645.712	17.65473
645.905	20.74262
646.097	14.0284
646.289	16.10982
646.482	19.66321
646.674	14.29841
646.866	17.86491
647.058	17.09073
647.251	14.28292
647.443	15.05948
647.635	15.68066
647.827	14.30213
648.019	14.33467
648.211	15.5612
648.404	16.11849
648.596	18.92361
648.788	16.59278
648.98	16.44087
649.172	16.79285
649.364	16.50778
649.556	13.15809
649.748	21.06981
649.94	14.72275
650.132	17.25231
650.324	14.84285
650.516	15.18156
650.708	18.05075
650.9	13.89794
651.092	13.60531
651.284	13.96361
651.476	14.46806
651.667	17.55015
651.859	18.63528
652.051	15.97387
652.243	16.66402
652.435	15.79766
652.627	17.49412
652.818	17.13573
653.01	13.63624
653.202	14.67365
653.394	15.39773
653.585	16.98443
653.777	23.83637
653.969	18.97019
654.16	18.54768
654.352	14.41045
654.544	16.12051
654.735	18.23473
654.927	16.56676
655.118	18.93645
655.31	17.6622
655.502	18.76061
655.693	16.11572
655.885	17.33238
656.076	19.07259
656.268	16.86573
656.459	19.35683
656.651	19.20918
656.842	15.76318
657.034	15.25721
657.225	18.20157
657.416	19.32017
657.608	19.10905
657.799	16.76512
657.99	19.11795
658.182	15.66467
658.373	15.84872
658.564	19.12222
658.756	17.52291
658.947	16.66653
659.138	15.69544
659.33	16.06657
659.521	16.03799
659.712	17.06904
659.903	16.40553
660.094	16.16469
660.286	14.4719
660.477	19.94951
660.668	18.16677
660.859	16.80295
661.05	14.68827
661.241	17.99706
661.432	17.3061
661.623	16.42943
661.814	16.22817
662.006	14.32501
662.197	17.89823
662.388	19.06563
662.579	17.16699
662.77	22.22786
662.96	22.1186
663.151	19.13794
663.342	13.88423
663.533	18.37673
663.724	17.07283
663.915	20.85557
664.106	17.1798
664.297	21.10923
664.488	18.43035
664.678	16.1997
664.869	18.82283
665.06	18.95714
665.251	17.34212
665.442	18.45537
665.632	15.18732
665.823	21.26411
666.014	11.72574
666.204	18.83979
666.395	20.18014
666.586	22.01863
666.776	18.66169
666.967	21.49856
667.158	17.52852
667.348	20.65634
667.539	15.54496
667.729	19.29192
667.92	15.95401
668.111	19.52192
668.301	18.96469
668.492	17.17162
668.682	17.7927
668.873	17.19258
669.063	15.09462
669.253	18.52562
669.444	20.80131
669.634	17.51115
669.825	21.65433
670.015	20.19684
670.206	16.23349
670.396	21.69711
670.586	17.26749
670.777	18.76199
670.967	13.53712
671.157	17.42574
671.347	16.48207
671.538	20.91768
671.728	19.23892
671.918	22.09454
672.108	20.09165
672.299	17.44938
672.489	18.86117
672.679	16.34506
672.869	18.70923
673.059	23.07668
673.249	19.30738
673.44	15.75847
673.63	17.6293
673.82	20.39549
674.01	15.7265
674.2	19.05522
674.39	24.5846
674.58	19.73405
674.77	18.5039
674.96	17.69472
675.15	27.1633
675.34	20.90787
675.53	18.23773
675.72	17.43384
675.91	15.03017
676.099	22.95834
676.289	23.75265
676.479	20.80395
676.669	17.25415
676.859	19.38117
677.049	17.1059
677.238	18.23296
677.428	22.75349
677.618	19.60753
677.808	23.20044
677.997	19.89575
678.187	17.02954
678.377	18.64456
678.567	17.0142
678.756	18.0061
678.946	18.69166
679.136	15.64298
679.325	17.69605
679.515	16.81283
679.704	16.35591
679.894	20.74735
680.084	19.76143
680.273	21.53692
680.463	17.17694
680.652	17.28758
680.842	18.92238
681.031	21.01868
681.221	16.99418
681.41	20.40201
681.6	18.9806
681.789	20.39552
681.978	21.7145
682.168	19.68774
682.357	19.40056
682.547	19.96539
682.736	19.65757
682.925	22.0079
683.115	21.77708
683.304	20.69678
683.493	19.59553
683.682	20.52832
683.872	20.30282
684.061	21.84298
684.25	20.58568
684.439	25.22741
684.629	21.69371
684.818	27.8325
685.007	19.55166
685.196	19.10866
685.385	24.0703
685.574	20.37763
685.763	21.06192
685.952	20.44328
686.142	17.06943
686.331	23.00857
686.52	16.20351
686.709	25.49648
686.898	24.62125
687.087	21.9179
687.276	24.53483
687.465	23.2508
687.654	19.49271
687.842	24.16841
688.031	17.67936
688.22	24.08493
688.409	20.89562
688.598	20.93634
688.787	26.95009
688.976	20.91261
689.165	25.27517
689.353	19.5178
689.542	21.7805
689.731	23.64159
689.92	26.75121
690.108	22.57131
690.297	20.00408
690.486	21.45244
690.675	22.74844
690.863	25.57884
691.052	25.15833
691.241	21.64794
691.429	21.94245
691.618	24.65207
691.806	18.31831
691.995	20.07372
692.184	21.12149
692.372	20.01571
692.561	21.72882
692.749	21.97017
692.938	30.47588
693.126	23.15647
693.315	21.07154
693.503	23.44734
693.692	24.78297
693.88	24.42767
694.068	27.19638
694.257	21.85691
694.445	23.72395
694.634	16.38161
694.822	24.05545
695.01	25.20758
695.199	27.92454
695.387	26.24983
695.575	25.51708
695.763	21.70869
695.952	20.60547
696.14	17.60305
696.328	20.65501
696.516	22.03835
696.705	22.62151
696.893	22.42649
697.081	16.99083
697.269	24.39175
697.457	18.65026
697.645	18.51286
697.833	23.88743
698.021	19.33534
698.21	20.28073
698.398	21.13594
698.586	18.86428
698.774	18.58769
698.962	21.42401
699.15	18.96282
699.338	17.72366
699.526	22.86883
699.714	19.74924
699.901	20.12565
700.089	23.65615
700.277	19.36425
700.465	21.34302
700.653	23.94522
700.841	22.26372
701.029	19.9674
701.217	25.65095
701.404	21.95997
701.592	26.17429
701.78	28.87131
701.968	21.83328
702.155	21.55016
702.343	18.73168
702.531	26.27511
702.718	23.53419
702.906	20.98291
703.094	20.85039
703.281	26.96151
703.469	22.24932
703.657	26.06776
703.844	33.01942
704.032	28.6142
704.219	22.08427
704.407	24.61766
704.595	28.13138
704.782	25.10713
704.97	23.31962
705.157	22.78881
705.345	30.44842
705.532	36.53255
705.719	27.08579
705.907	30.45194
706.094	26.87827
706.282	33.33801
706.469	26.83877
706.656	27.94006
706.844	27.28766
707.031	32.22812
707.218	29.9496
707.406	34.08082
707.593	31.69107
707.78	31.30127
707.968	29.30276
708.155	27.35225
708.342	32.38175
708.529	31.87285
708.716	31.28328
708.904	35.42053
709.091	32.12627
709.278	26.15184
709.465	37.06032
709.652	34.8248
709.839	34.23261
710.026	29.52054
710.213	23.53131
710.4	29.41731
710.587	31.40286
710.774	32.5231
710.961	32.81484
711.148	29.30291
711.335	32.51307
711.522	28.43735
711.709	31.03724
711.896	36.84089
712.083	33.29995
712.27	26.09243
712.457	30.54219
712.644	24.64033
712.831	37.02128
713.017	30.17737
713.204	32.22377
713.391	26.85805
713.578	31.90946
713.765	33.99147
713.951	30.28615
714.138	40.19078
714.325	29.01304
714.512	27.60088
714.698	24.2392
714.885	32.79783
715.072	27.0558
715.258	26.92766
715.445	23.96455
715.631	31.37747
715.818	17.56993
716.005	23.94804
716.191	28.33028
716.378	25.02674
716.564	29.34446
716.751	22.67145
716.937	25.02255
717.124	29.52641
717.31	22.83616
717.497	33.77902
717.683	23.41181
717.869	34.1871
718.056	24.00363
718.242	28.26344
718.429	25.61665
718.615	21.15987
718.801	26.33245
718.988	30.93483
719.174	28.44282
719.36	25.04152
719.547	31.8753
719.733	27.75524
719.919	27.90404
720.105	28.8193
720.291	25.90742
720.478	26.87452
720.664	26.05441
720.85	24.93219
721.036	38.08685
721.222	33.74529
721.408	26.65363
721.595	33.87555
721.781	33.38396
721.967	32.48611
722.153	34.69515
722.339	29.8957
722.525	28.2379
722.711	23.61339
722.897	22.08487
723.083	25.78777
723.269	31.97922
723.455	39.83067
723.641	45.06686
723.827	27.66806
724.012	29.40447
724.198	26.49398
724.384	34.22907
724.57	28.92951
724.756	21.74337
724.942	19.98132
725.127	32.57732
725.313	34.13266
725.499	33.49193
725.685	36.83186
725.87	29.37276
726.056	24.55898
726.242	33.15078
726.428	21.71132
726.613	32.21909
726.799	25.84403
726.985	23.3925
727.17	20.35123
727.356	37.3093
727.541	24.2573
727.727	27.32305
727.913	31.98456
728.098	26.03468
728.284	31.16577
728.469	22.96111
728.655	25.03001
728.84	33.63447
729.026	31.87187
729.211	32.15943
729.397	30.33751
729.582	31.47204
729.767	28.107
729.953	29.93252
730.138	34.15434
730.323	18.05183
730.509	23.08038
730.694	36.3136
730.879	31.52571
731.065	29.95263
731.25	39.50287
731.435	30.88027
731.621	22.28652
731.806	25.88626
731.991	29.69316
732.176	21.80772
732.361	36.38383
732.547	30.01931
732.732	21.2262
732.917	39.69827
733.102	22.9723
733.287	25.55519
733.472	27.9666
733.657	28.57955
733.842	22.31514
734.027	26.29221
734.212	27.65774
734.397	25.25427
734.582	29.67422
734.767	33.65927
734.952	36.01811
735.137	17.34646
735.322	36.07476
735.507	31.0295
735.692	29.22292
735.877	39.71225
736.062	37.67794
736.247	30.9141
736.431	28.01502
736.616	34.7175
736.801	31.22865
736.986	29.72065
737.171	24.65224
737.355	23.59469
737.54	36.6551
737.725	30.33682
737.909	44.29578
738.094	26.77722
738.279	34.60059
738.463	27.77996
738.648	33.08574
738.833	31.06898
739.017	41.16451
739.202	27.3361
739.386	28.25824
739.571	25.36919
739.756	34.18067
739.94	28.54971
740.125	32.46277
740.309	26.13478
740.494	34.08402
740.678	31.54566
740.863	31.9197
741.047	30.5239
741.231	38.1006
741.416	26.70252
741.6	39.0465
741.785	25.73849
741.969	35.18865
742.153	38.00104
742.338	19.59671
742.522	29.89729
742.706	34.57662
742.89	23.22434
743.075	31.14739
743.259	37.61101
743.443	36.91098
743.627	38.28191
743.812	43.64361
743.996	21.54818
744.18	29.01507
744.364	28.71803
744.548	44.77687
744.732	29.39287
744.916	35.6701
745.1	34.58293
745.285	29.75669
745.469	34.42785
745.653	40.40984
745.837	25.00683
746.021	45.25928
746.205	38.52996
746.389	31.79325
746.573	30.28665
746.757	41.0979
746.94	28.61885
747.124	37.72812
747.308	25.56154
747.492	38.64138
747.676	26.24847
747.86	47.8035
748.044	27.87831
748.227	21.71126
748.411	54.63786
748.595	31.78543
748.779	26.85732
748.963	33.93359
749.146	32.80005
749.33	27.33055
749.514	25.24378
749.697	37.72615
749.881	27.01849
750.065	24.92239
750.248	31.56273
750.432	46.81402
750.616	30.94547
750.799	25.68929
750.983	47.41637
751.166	46.12504
751.35	22.83905
751.533	36.69447
751.717	42.1481
751.9	42.17565
752.084	30.72391
752.267	26.76326
752.451	27.44597
752.634	32.40149
752.818	35.76183
753.001	36.66152
753.184	39.53818
753.368	34.81183
753.551	12.58629
753.734	27.90582
753.918	47.06586
754.101	27.59194
754.284	36.90035
754.467	29.77708
754.651	27.93995
754.834	25.82946
755.017	39.77166
755.2	40.00816
755.384	26.08323
755.567	38.11182
755.75	37.54583
755.933	29.99381
756.116	36.73447
756.299	28.34333
756.482	24.95499
756.665	35.77086
756.848	31.51066
757.032	33.51497
757.215	24.27596
757.398	27.15302
757.581	28.09035
757.764	52.03837
757.947	31.59064
758.129	38.89899
758.312	16.56437
758.495	31.97883
758.678	32.07346
758.861	29.84277
759.044	46.72616
759.227	25.85549
759.41	27.30881
759.592	38.50273
759.775	29.73484
759.958	38.3413
760.141	25.41876
760.324	47.96836
760.506	43.08682
760.689	37.3946
760.872	48.17659
761.054	35.37308
761.237	32.35751
761.42	34.13156
761.602	38.83581
761.785	34.93533
761.968	40.99705
762.15	44.53336
762.333	31.60257
762.515	35.91117
762.698	30.85067
762.88	38.47178
763.063	34.97786
763.245	39.89455
763.428	26.65
763.61	29.90309
763.793	24.96367
763.975	34.44166
764.158	30.66575
764.34	29.74504
764.522	26.74186
764.705	31.5007
764.887	42.1661
765.069	23.46489
765.252	35.7244
765.434	36.37133
765.616	33.66115
765.799	27.78361
765.981	37.43749
766.163	27.65347
766.345	41.90735
766.528	27.66034
766.71	19.24563
766.892	33.94416
767.074	41.9814
767.256	31.82386
767.438	45.50291
767.62	35.00224
767.802	49.22177
767.985	37.59306
768.167	46.37382
768.349	30.64673
768.531	36.51008
768.713	35.37002
768.895	40.855
769.077	36.28543
769.259	53.66182
769.441	72.152
769.623	39.7008
769.804	46.28535
769.986	43.75963
770.168	51.20792
770.35	62.86988
770.532	48.65719
770.714	53.01262
770.896	50.67279
771.077	27.07566
771.259	54.87612
771.441	47.86636
771.623	57.8529
771.804	68.41428
771.986	28.44559
772.168	39.32324
772.35	53.86053
772.531	71.88992
772.713	47.046
772.894	60.06729
773.076	44.7483
773.258	39.80852
773.439	59.05738
773.621	67.25438
773.802	35.36689
773.984	39.34024
774.166	48.74411
774.347	65.31304
774.529	58.52512
774.71	25.93238
774.891	44.23116
775.073	41.01466
775.254	60.47999
775.436	39.47107
775.617	71.68114
775.799	41.82083
775.98	61.92505
776.161	67.28458
776.343	68.37543
776.524	45.00383
776.705	43.63908
776.886	27.75611
777.068	52.29577
777.249	98.32171
777.43	69.63697
777.611	33.10395
777.793	43.07555
777.974	67.71151
778.155	37.21129
778.336	35.71199
778.517	77.01706
778.698	37.53978
778.879	25.3173
779.061	16.98315
779.242	51.45701
779.423	51.86983
779.604	39.86409
779.785	43.28586
779.966	50.11237
780.147	60.18885
780.328	59.05254
780.509	81.09434
780.69	59.24046
780.871	40.30644
781.051	31.32712
781.232	48.70965
781.413	48.58592
781.594	42.74292
781.775	42.22133
781.956	39.21983
782.137	24.06826
782.317	41.10942
782.498	48.17527
782.679	45.62411
782.86	50.05645
783.04	37.42863
783.221	48.44691
783.402	71.32416
783.583	46.76011
783.763	57.40096
783.944	41.88414
784.124	31.49257
784.305	69.73032
784.486	54.84099
784.666	46.75038
784.847	29.73237
785.027	90.8588
785.208	39.21811
785.388	40.4026
785.569	39.71251
785.749	42.89509
785.93	41.05332
786.11	30.97724
786.291	53.6886
786.471	50.46869
786.652	57.88494
786.832	44.83874
787.012	48.69965
787.193	34.5488
787.373	46.98314
787.553	41.34328
787.734	48.68239
787.914	43.74873
788.094	59.9511
788.275	50.96819
788.455	42.04067
788.635	32.45325
788.815	49.58145
788.995	35.61057
789.176	28.70558
789.356	38.44611
789.536	44.69949
789.716	52.89655
789.896	37.78351
790.076	39.8882
790.256	50.94061
790.436	22.09521
790.616	35.23657
790.796	49.89326
790.976	41.75679
791.156	37.18861
791.336	53.07459
791.516	49.88778
791.696	43.51663
791.876	30.47091
792.056	48.30911
792.236	58.37815
792.416	57.52298
792.596	51.6605
792.776	53.09309
792.956	54.53326
793.135	69.90209
793.315	33.87868
793.495	59.89176
793.675	55.81929
793.854	57.09324
794.034	58.41869
794.214	34.27347
794.394	56.40658
794.573	62.65083
794.753	50.41858
794.933	36.86982
795.112	49.40726
795.292	59.36882
795.472	71.16626
795.651	32.46821
795.831	47.2642
796.01	44.45549
796.19	44.03877
796.369	46.55582
796.549	52.74082
796.728	43.56866
796.908	32.12031
797.087	34.95405
797.267	44.20194
797.446	35.51634
797.626	52.64224
797.805	52.42386
797.984	39.01025
798.164	57.57669
798.343	37.71351
798.522	49.98314
798.702	48.01816
798.881	33.90393
799.06	44.61822
799.239	26.85933
799.419	36.10164
799.598	68.61149
799.777	52.18883
799.956	61.37476
800.136	43.73539
800.315	37.88465
800.494	53.87478
800.673	60.69862
800.852	56.68138
801.031	61.29908
801.21	54.48984
801.389	42.85365
801.568	49.85745
801.747	73.8207
801.926	47.67152
802.105	67.29866
802.284	40.12261
802.463	68.78252
802.642	51.70395
802.821	50.74925
803	67.01646
803.179	58.05006
803.358	61.36114
803.537	40.82549
803.716	46.68215
803.895	41.29987
804.073	44.9552
804.252	37.1668
804.431	52.96532
804.61	44.51497
804.789	58.34893
804.967	40.90537
805.146	41.38434
805.325	75.30749
805.503	53.52071
805.682	32.11445
805.861	93.10251
806.039	66.43685
806.218	43.96495
806.397	50.8604
806.575	47.22131
806.754	52.43996
806.932	35.91107
807.111	63.71351
807.289	59.5811
807.468	48.31207
807.646	60.82684
807.825	56.90234
808.003	52.19556
808.182	62.5457
808.36	49.62392
808.539	35.71023
808.717	69.59763
808.895	39.86656
809.074	52.0186
809.252	47.64854
809.43	58.46328
809.609	62.71538
809.787	72.89874
809.965	46.72561
810.144	46.81723
810.322	47.5453
810.5	55.0843
810.678	42.2414
810.856	78.32141
811.035	64.56902
811.213	55.73628
811.391	69.5737
811.569	53.84555
811.747	101.76944
811.925	64.95512
812.103	41.30233
812.281	50.55917
812.459	74.86344
812.637	76.47741
812.816	61.97255
812.994	81.05441
813.171	72.02796
813.349	59.24525
813.527	66.31221
813.705	70.46168
813.883	89.39445
814.061	61.85921
814.239	75.66943
814.417	86.11558
814.595	58.65969
814.773	56.14189
814.95	53.22386
815.128	57.79087
815.306	52.54377
815.484	49.9545
815.662	39.60664
815.839	36.53722
816.017	44.64
816.195	66.56956
816.372	47.71809
816.55	61.41398
816.728	75.5007
816.905	48.34861
817.083	76.14295
817.261	50.7802
817.438	97.16996
817.616	77.35603
817.793	45.84441
817.971	61.93729
818.148	62.48611
818.326	69.98373
818.503	54.79696
818.681	75.1008
818.858	47.82493
819.036	50.55211
819.213	54.89917
819.391	43.43378
819.568	44.11403
819.745	37.78995
819.923	61.84836
820.1	47.34287
820.277	40.349
820.455	45.72564
820.632	48.34479
820.809	53.11624
820.986	36.30703
821.164	31.62365
821.341	29.77314
821.518	40.79112
821.695	31.19452
821.872	29.99581
822.05	26.55905
822.227	23.52692
822.404	24.85326
822.581	27.03461
822.758	25.14002
822.935	25.0765
823.112	27.22508
823.289	24.65494
823.466	27.65343
823.643	26.96845
823.82	30.32316
823.997	28.52597
824.174	31.28813
824.351	38.44177
824.528	36.59489
824.705	34.69479
824.882	37.19668
825.059	43.76797
825.236	35.35458
825.412	36.0332
825.589	40.422
825.766	53.20607
825.943	37.53219
826.12	41.3018
826.296	32.60465
826.473	38.68776
826.65	38.3065
826.827	43.47515
827.003	31.84435
827.18	35.33209
827.357	37.80814
827.533	33.76009
827.71	23.89123
827.887	31.1132
828.063	35.02298
828.24	30.64559
828.416	37.11023
828.593	32.69737
828.769	42.70751
828.946	42.96455
829.122	45.25917
829.299	42.96387
829.475	31.69884
829.652	43.42183
829.828	64.3659
830.005	44.67686
830.181	59.24745
830.357	46.16468
830.534	60.75889
830.71	48.82854
830.886	58.30738
831.063	56.76192
831.239	68.85156
831.415	37.71833
831.592	70.20984
831.768	48.45046
831.944	43.12086
832.12	76.9941
832.296	71.99281
832.473	61.52035
832.649	44.79854
832.825	59.60505
833.001	40.04108
833.177	54.30878
833.353	50.3044
833.529	32.56056
833.705	46.3669
833.881	32.75654
834.058	33.25769
834.234	35.58336
834.41	35.05582
834.586	29.92803
834.761	34.00658
834.937	36.64748
835.113	37.71767
835.289	33.62235
835.465	38.27179
835.641	35.47376
835.817	39.26838
835.993	58.91609
836.169	37.02732
836.344	51.52459
836.52	54.04779
836.696	50.62226
836.872	44.53685
837.048	101.50201
837.223	48.90264
837.399	77.50718
837.575	63.43841
837.75	60.68529
837.926	81.86052
838.102	116.50685
838.277	93.47639
838.453	128.07756
838.628	128.73076
838.804	55.76985
838.98	110.32878
839.155	64.30565
839.331	82.37153
839.506	59.24834
839.682	64.46775
839.857	81.88022
840.033	93.55965
840.208	52.31467
840.384	30.84501
840.559	51.20967
840.734	69.99084
840.91	89.9589
841.085	57.37587
841.26	60.29576
841.436	56.18596
841.611	54.22548
841.786	77.33015
841.962	93.61862
842.137	64.01573
842.312	46.95348
842.487	60.69064
842.663	51.43474
842.838	60.49369
843.013	170.50149
843.188	90.45033
843.363	96.80676
843.538	143.48511
843.714	145.22387
843.889	147.38582
844.064	154.57648
844.239	121.96959
844.414	143.78698
844.589	100.88027
844.764	179.94385
844.939	177.26461
845.114	190.41948
845.289	179.08041
845.464	242.97751
845.639	166.50786
845.814	84.63152
845.989	107.27145
846.163	129.18034
846.338	137.38541
846.513	180.02075
846.688	121.71805
846.863	125.43084
847.038	119.62999
847.212	131.40185
847.387	131.51525
847.562	133.81944
847.737	160.09999
847.911	72.79259
848.086	86.52103
848.261	269.96447
848.435	116.37503
848.61	168.13094
848.785	94.00004
848.959	178.73807
849.134	240.6813
849.308	241.28092
849.483	140.27126
849.658	205.27493
849.832	111.24657
850.007	105.59092
850.181	269.95466
850.356	103.8981
850.53	253.28913
850.705	87.56548
850.879	59.04363
851.053	127.08921
851.228	118.30812
851.402	142.63873
851.577	190.94737
851.751	207.32494
851.925	144.77617
852.099	72.16398
852.274	100.92707
852.448	124.51105
852.622	145.96109
852.797	129.5399
852.971	128.71607
853.145	134.30287
853.319	364.74407
853.493	194.17781
853.668	114.82961
853.842	239.39446
854.016	196.68076
854.19	226.98153
854.364	140.71339
854.538	150.69651
854.712	194.93205
854.886	131.72008
855.06	132.20729
855.234	53.61087
855.408	212.71282
855.582	184.26894
855.756	180.49534
855.93	230.26777
856.104	165.08207
856.278	182.42751
856.452	138.14873
856.626	185.27507
856.8	278.83698
856.973	169.95537
857.147	156.90431
857.321	164.42887
857.495	189.7896
857.669	134.07417
857.842	122.07434
858.016	194.81296
858.19	109.22125
858.364	312.4328
858.537	125.73739
858.711	146.09579
858.885	135.93424
859.058	115.67155
859.232	63.38067
859.405	79.18965
859.579	181.47115
859.753	156.01318
859.926	105.37361
860.1	79.22594
860.273	140.28655
860.447	223.59833
860.62	125.8546
860.794	263.54503
860.967	162.79441
861.141	192.94761
861.314	280.3787
861.487	172.00004
861.661	214.58218
861.834	217.81173
862.008	200.44699
862.181	142.9089
862.354	147.90498
862.528	165.32228
862.701	117.25053
862.874	85.63996
863.047	131.60865
863.221	119.82645
863.394	69.6851
863.567	225.5369
863.74	58.00991
863.913	184.33166
864.087	157.85912
864.26	192.70437
864.433	140.3773
864.606	243.42128
864.779	146.34146
864.952	78.482
865.125	118.57768
865.298	140.17913
865.471	148.06878
865.644	273.87655
865.817	226.28837
865.99	187.38457
866.163	211.24089
866.336	124.97794
866.509	147.47798
866.682	122.85644
866.855	204.05147
867.028	91.36737
867.2	174.41258
867.373	62.60826
867.546	147.27522
867.719	279.66452
867.892	183.19091
868.064	102.40177
868.237	171.69649
868.41	146.29223
868.583	98.61822
868.755	94.85656
868.928	138.76918
869.101	286.04288
869.273	212.07469
869.446	179.08889
869.619	206.21448
869.791	137.5412
869.964	204.80816
870.136	193.38448
870.309	157.79778
870.481	158.97057
870.654	81.44495
870.826	157.21803
870.999	126.86208
871.171	193.79523
871.344	120.6196
871.516	144.76696
871.689	110.7601
871.861	153.1239
872.033	110.62448
872.206	128.44811
872.378	203.4617
872.55	132.01973
872.723	93.15387
872.895	132.34678
873.067	204.82093
873.24	224.17312
873.412	122.02927
873.584	136.24488
873.756	135.64761
873.928	169.77061
874.101	167.04302
874.273	181.55012
874.445	62.21848
874.617	87.65012
874.789	159.7105
874.961	124.81913
875.133	170.40635
875.305	152.29305
875.477	103.08193
875.649	82.38209
875.821	108.41157
875.993	248.34851
876.165	103.63141
876.337	167.69158
876.509	134.79016
876.681	162.51551
876.853	158.63769
877.025	161.44855
877.197	107.91425
877.369	99.93505
877.541	192.17229
877.712	63.18491
877.884	98.44802
878.056	180.26688
878.228	101.29458
878.4	169.52749
878.571	101.68258
878.743	74.70279
878.915	159.93519
879.086	98.03605
879.258	118.59788
879.43	109.4375
879.601	96.16053
879.773	100.59687
879.945	32.76696
880.116	47.22365
880.288	34.27207
880.459	35.84984
880.631	30.65826
880.802	34.9491
880.974	32.68444
881.145	26.46155
881.317	32.17187
881.488	26.96398
881.66	29.0178
881.831	27.06759
882.002	34.55246
882.174	28.26154
882.345	33.61284
882.517	23.17266
882.688	38.12508
882.859	34.31615
883.03	48.18071
883.202	45.26627
883.373	42.65396
883.544	41.80062
883.715	65.05534
883.887	55.51347
884.058	49.77449
884.229	67.09842
884.4	67.48017
884.571	74.50987
884.742	66.63831
884.914	71.82489
885.085	97.61062
885.256	116.54315
885.427	97.43511
885.598	111.46901
885.769	120.14357
885.94	116.05778
886.111	80.8605
886.282	131.36072
886.453	110.94072
886.624	82.64389
886.795	129.73422
886.966	116.7415
887.136	140.01162
887.307	100.0875
887.478	176.44198
887.649	149.88704
887.82	157.76214
887.991	126.56755
888.161	173.01798
888.332	172.55881
888.503	88.90679
888.674	220.14265
888.844	233.01567
889.015	188.45127
889.186	93.39798
889.356	224.47069
889.527	96.34734
889.698	364.54315
889.868	129.44698
890.039	164.03108
890.209	145.7232
890.38	192.25972
890.551	164.56336
890.721	231.38262
890.892	194.25946
891.062	125.39391
891.233	172.80977
891.403	132.88078
891.574	103.89135
891.744	138.30178
891.914	186.99945
892.085	147.45593
892.255	64.59787
892.425	227.8187
892.596	184.483
892.766	166.67385
892.936	223.15739
893.107	195.40376
893.277	115.43323
893.447	86.24916
893.618	68.61588
893.788	126.7325
893.958	75.59642
894.128	76.78852
894.298	82.48743
894.468	108.81161
894.639	53.42654
894.809	43.963
894.979	61.19237
895.149	68.9884
895.319	58.88122
895.489	76.9141
895.659	93.92107
895.829	69.04334
895.999	70.92185
896.169	58.03489
896.339	68.66255
896.509	126.70446
896.679	142.86879
896.849	139.99326
897.019	186.70334
897.189	143.93315
897.358	132.24436
897.528	199.77332
897.698	76.73012
897.868	178.44643
898.038	292.91072
898.208	277.324
898.377	104.26996
898.547	282.76334
898.717	441.13604
898.886	177.57565
899.056	271.40027
899.226	405.24203
899.395	244.76628
899.565	304.8793
899.735	219.73264
899.904	358.99767
900.074	292.84898
900.244	147.30329
900.413	535.42056
900.583	131.63258
900.752	201.88888
900.922	325.22432
901.091	56.13159
901.261	283.61543
901.43	274.91222
901.599	274.7039
901.769	567.81445
901.938	308.20712
902.108	300.92819
902.277	386.41835
902.446	112.16659
902.616	129.70326
902.785	184.77331
902.954	305.7809
903.124	207.67784
903.293	167.93978
903.462	95.31033
903.631	127.15214
903.801	95.47343
903.97	57.63428
904.139	88.26971
904.308	67.88207
904.477	57.25313
904.646	38.35279
904.816	55.31208
904.985	76.45486
905.154	112.80244
