Data from WindowProjectSample_Transmission__64__00064.txt Node

Date: Sat May 03 17:21:34 EDT 2025
User: jessi
Spectrometer: SR400872
Trigger mode: 0
Integration Time (sec): 5.000010E-1
Scans to average: 6
Electric dark correction enabled: true
Nonlinearity correction enabled: true
Boxcar width: 0
XAxis mode: Wavelengths
Number of Pixels in Spectrum: 3648
>>>>>Begin Spectral Data<<<<<
184.909	9591.50219
185.132	3139.48048
185.355	-3112.8503
185.578	4414.02508
185.801	-923.94669
186.024	10126.36876
186.247	696.61758
186.47	613.67536
186.693	307.67044
186.916	326.89823
187.139	6907.40644
187.362	-2115.69448
187.585	-33135.85344
187.808	959.48432
188.031	90.69074
188.254	1411.9278
188.476	-1807.94031
188.699	1710.9064
188.922	2099.05847
189.145	7470.18483
189.368	-353.03226
189.591	-728.64505
189.813	1670.17697
190.036	3164.0062
190.259	3967.1706
190.482	1345.60167
190.705	-4856.82066
190.927	-1803.23282
191.15	4257.13668
191.373	1563.77692
191.595	-936.92516
191.818	2812.49332
192.041	-415.8751
192.263	-3980.25739
192.486	-3922.3058
192.709	14733.3185
192.931	3139.03174
193.154	5775.97563
193.377	-49477.32656
193.599	-27157.03035
193.822	-2833.54455
194.044	-2521.20571
194.267	1008.0652
194.489	-34.34064
194.712	2223.27817
194.934	16494.12487
195.157	2228.21032
195.379	3476.6071
195.602	1156.7677
195.824	1648.79031
196.047	-3330.982
196.269	61035.64462
196.492	-2964.52086
196.714	8835.97655
196.936	1871.40417
197.159	2889.26106
197.381	-535.13254
197.604	-1825.47247
197.826	63100.68241
198.048	1589.49127
198.271	8024.02484
198.493	6728.65898
198.715	-10997.34673
198.938	-2942.73329
199.16	-6296.95565
199.382	2095.82877
199.604	861.7887
199.827	-1928.09018
200.049	992.79042
200.271	-10337.73951
200.493	5055.52732
200.715	30233.84665
200.938	11961.01897
201.16	-31462.47067
201.382	-4983.4759
201.604	-1140.98802
201.826	1983.214
202.048	-10450.72468
202.27	4135.82957
202.492	12939.75434
202.715	-895.76735
202.937	25170.27526
203.159	3462.87348
203.381	1473.03341
203.603	-1036.00245
203.825	-1119.53949
204.047	2764.0567
204.269	-1672.58096
204.491	-1157.15239
204.713	7019.16629
204.935	-3259.32517
205.156	1342.1406
205.378	8141.87366
205.6	-1382.4948
205.822	-51460.13252
206.044	-1967.06784
206.266	5570.23542
206.488	969.04469
206.71	-26762.11056
206.932	4334.55478
207.153	-7770.35672
207.375	-2750.50436
207.597	4687.65903
207.819	1807.40836
208.041	-49909.02755
208.262	1443.71464
208.484	-1283.81816
208.706	-1088.86479
208.927	1752.52246
209.149	-1928.34555
209.371	-1391.85394
209.593	-1494.22769
209.814	-2114.77872
210.036	-841.9548
210.258	-2285.6376
210.479	2251.11359
210.701	2283.19071
210.922	5156.59039
211.144	42551.50345
211.366	-31634.95299
211.587	-1243.09006
211.809	-2340.68272
212.03	-1160.75976
212.252	-532.1404
212.473	862.42518
212.695	-869.73174
212.916	-1428.58758
213.138	3132.86311
213.359	-1508.2283
213.581	1212.5252
213.802	-1232.51601
214.024	4290.88115
214.245	-4122.93765
214.466	-275.37016
214.688	1514.79244
214.909	-634.25654
215.131	-4700.21749
215.352	-5738.66036
215.573	6105.21775
215.795	1982.67087
216.016	8065.69629
216.237	-506.29184
216.459	2322.72992
216.68	-2233.26694
216.901	1508.16309
217.122	3236.52583
217.344	3471.81566
217.565	-3091.40125
217.786	2272.29219
218.007	62036.9441
218.228	2502.20856
218.45	2841.10432
218.671	-1338.12811
218.892	1581.6985
219.113	3200.7012
219.334	1206.61989
219.555	-4900.75309
219.776	1524.41051
219.997	5713.24816
220.219	764.35727
220.44	4165.26297
220.661	4894.54586
220.882	2784.08539
221.103	-754.06787
221.324	-2616.84652
221.545	-3936.11735
221.766	-1960.47368
221.987	2316.28853
222.208	-4940.84996
222.429	4423.10891
222.65	-420.8976
222.87	-854.09537
223.091	1958.57801
223.312	2699.90848
223.533	11746.06995
223.754	1364.44029
223.975	1261.30524
224.196	-1889.70585
224.417	2001.30625
224.637	-5660.03718
224.858	-831.02063
225.079	858.99107
225.3	1512.30771
225.521	2262.56318
225.741	646.55629
225.962	1191.90762
226.183	-4290.15746
226.404	657.47178
226.624	816.06028
226.845	574.42005
227.066	430.97393
227.286	217.15289
227.507	117.50244
227.728	87.9969
227.948	152.25516
228.169	47.6411
228.389	53.06462
228.61	29.32871
228.831	39.58577
229.051	4.35246
229.272	22.78888
229.492	31.72624
229.713	9.67337
229.933	24.6339
230.154	21.03102
230.374	35.20239
230.595	26.31743
230.815	16.78599
231.036	26.5047
231.256	-5.04781
231.477	45.75801
231.697	25.58274
231.917	28.21246
232.138	41.21179
232.358	82.72479
232.579	70.83364
232.799	12.0571
233.019	65.13
233.24	80.80612
233.46	26.30328
233.68	49.60856
233.901	29.43583
234.121	21.12949
234.341	7.37743
234.561	-1.87986
234.782	16.37341
235.002	50.89961
235.222	-1.04817
235.442	45.57331
235.662	22.53016
235.883	44.54007
236.103	41.38365
236.323	26.13551
236.543	18.67423
236.763	30.62667
236.983	31.88103
237.203	31.64832
237.423	47.01724
237.643	64.86976
237.864	56.89206
238.084	13.23847
238.304	23.40508
238.524	37.23444
238.744	28.75947
238.964	47.75475
239.184	44.60545
239.404	47.11911
239.624	24.66169
239.843	42.84335
240.063	25.63019
240.283	19.46583
240.503	18.3364
240.723	17.92492
240.943	9.71535
241.163	14.32211
241.383	10.49627
241.603	4.81279
241.822	7.06608
242.042	5.13601
242.262	6.33845
242.482	6.95678
242.702	8.58682
242.921	3.13949
243.141	6.13261
243.361	4.81523
243.581	6.9382
243.8	6.19816
244.02	4.55704
244.24	8.06162
244.459	8.07312
244.679	14.57445
244.899	9.57979
245.118	10.68813
245.338	9.1415
245.558	11.05528
245.777	7.1125
245.997	7.79744
246.216	7.94976
246.436	4.6261
246.655	3.24729
246.875	2.20682
247.094	4.77702
247.314	1.63005
247.533	3.00925
247.753	3.5336
247.972	2.80823
248.192	1.02264
248.411	1.67891
248.631	3.23624
248.85	4.12996
249.07	2.77263
249.289	4.93055
249.508	3.80709
249.728	5.87042
249.947	6.54912
250.166	7.03872
250.386	3.82762
250.605	6.28296
250.824	8.63519
251.044	6.75408
251.263	19.73221
251.482	10.48357
251.701	9.47893
251.921	0.40833
252.14	3.37131
252.359	3.64996
252.578	7.89951
252.798	2.75152
253.017	7.75567
253.236	3.5743
253.455	4.36565
253.674	9.52425
253.893	4.30715
254.112	6.16504
254.331	10.15254
254.551	7.98298
254.77	3.9948
254.989	11.38403
255.208	10.48398
255.427	11.61187
255.646	9.60153
255.865	16.83165
256.084	6.08853
256.303	8.06265
256.522	11.13992
256.741	2.18157
256.96	3.38804
257.179	6.87156
257.397	8.18936
257.616	4.49621
257.835	5.25205
258.054	12.14452
258.273	7.36118
258.492	8.97178
258.711	5.21846
258.93	2.50973
259.148	3.306
259.367	3.27619
259.586	4.21876
259.805	2.07109
260.023	4.04277
260.242	3.11389
260.461	2.26927
260.68	1.27886
260.898	3.6365
261.117	1.07478
261.336	1.05777
261.554	2.99856
261.773	3.00198
261.992	0.78251
262.21	2.98768
262.429	3.68699
262.648	5.95563
262.866	7.14645
263.085	4.47241
263.303	4.36477
263.522	7.18502
263.74	7.69269
263.959	12.10007
264.178	6.4311
264.396	5.68059
264.615	4.12716
264.833	9.5396
265.051	8.40152
265.27	8.33664
265.488	8.76827
265.707	5.54037
265.925	8.97713
266.144	3.98076
266.362	4.83539
266.58	5.32681
266.799	4.19903
267.017	4.82109
267.235	4.68758
267.454	2.87876
267.672	1.77618
267.89	3.73351
268.109	3.83237
268.327	3.71919
268.545	0.97537
268.763	3.59449
268.982	1.59478
269.2	4.11781
269.418	2.62486
269.636	1.96219
269.854	3.4727
270.073	3.03047
270.291	1.72492
270.509	1.60549
270.727	3.69238
270.945	6.21183
271.163	5.86639
271.381	1.36138
271.599	2.46021
271.817	4.2555
272.036	1.37345
272.254	2.49232
272.472	2.11026
272.69	2.11904
272.908	1.97867
273.126	3.4582
273.344	4.30629
273.562	1.66551
273.779	2.3592
273.997	3.10254
274.215	3.42024
274.433	2.64894
274.651	3.86501
274.869	3.90285
275.087	2.31519
275.305	3.7582
275.523	2.26319
275.74	2.67877
275.958	4.54301
276.176	6.66052
276.394	2.13833
276.612	2.63807
276.829	2.63309
277.047	2.12824
277.265	2.69526
277.483	3.09065
277.7	3.48922
277.918	3.01929
278.136	5.00207
278.353	2.55215
278.571	1.47668
278.789	4.27753
279.006	1.00539
279.224	2.44523
279.442	4.32946
279.659	2.96514
279.877	2.0964
280.094	4.37871
280.312	1.04715
280.529	2.78296
280.747	0.70007
280.964	2.00604
281.182	4.79914
281.399	2.35841
281.617	3.20394
281.834	2.30162
282.052	2.02451
282.269	2.39542
282.487	2.13976
282.704	1.72354
282.921	2.01099
283.139	2.63126
283.356	3.43873
283.574	3.06028
283.791	1.70475
284.008	4.4317
284.226	2.41971
284.443	2.69683
284.66	3.68214
284.877	2.91366
285.095	1.86088
285.312	1.33275
285.529	0.898
285.746	0.71438
285.964	1.7681
286.181	1.17805
286.398	1.67935
286.615	2.1497
286.832	2.17491
287.05	0.76274
287.267	1.44211
287.484	1.67452
287.701	2.36075
287.918	2.2652
288.135	2.29974
288.352	1.15614
288.569	1.2472
288.786	2.03063
289.003	1.66864
289.22	2.3504
289.437	1.65642
289.654	2.46186
289.871	2.47244
290.088	2.47542
290.305	1.86515
290.522	1.57013
290.739	1.83442
290.956	2.67488
291.173	3.09553
291.39	3.00002
291.607	2.14291
291.824	1.75441
292.04	1.01424
292.257	2.4333
292.474	2.73678
292.691	1.72514
292.908	1.11648
293.125	1.4302
293.341	0.87747
293.558	4.39119
293.775	1.6974
293.992	1.96334
294.208	0.85547
294.425	1.46813
294.642	1.68399
294.858	3.05703
295.075	1.03251
295.292	2.13966
295.508	2.79148
295.725	4.09828
295.942	2.88593
296.158	2.78119
296.375	3.73722
296.591	3.17875
296.808	3.97427
297.024	4.45148
297.241	4.69772
297.458	5.0276
297.674	3.63987
297.891	4.82202
298.107	5.21958
298.323	4.55712
298.54	6.5105
298.756	5.24038
298.973	4.70014
299.189	6.83572
299.406	5.78857
299.622	6.58705
299.838	7.2575
300.055	6.74219
300.271	5.70307
300.487	5.80767
300.704	6.58845
300.92	6.03034
301.136	8.88694
301.353	7.43417
301.569	7.02275
301.785	7.4864
302.001	7.99224
302.218	7.81465
302.434	8.35006
302.65	6.66557
302.866	7.45281
303.083	9.66456
303.299	9.90196
303.515	8.26801
303.731	8.73524
303.947	7.57553
304.163	8.10855
304.379	8.62838
304.595	8.79862
304.812	8.0919
305.028	8.11947
305.244	8.13495
305.46	9.17908
305.676	9.71897
305.892	10.04453
306.108	9.31352
306.324	8.78968
306.54	10.27861
306.756	9.14776
306.972	9.0613
307.187	9.4992
307.403	9.66177
307.619	8.64685
307.835	9.53526
308.051	10.25745
308.267	8.38037
308.483	10.7185
308.699	9.62843
308.914	9.658
309.13	9.35357
309.346	8.83785
309.562	9.10509
309.778	8.75744
309.993	10.24537
310.209	10.39572
310.425	9.09578
310.641	10.28401
310.856	9.61807
311.072	9.46852
311.288	9.97094
311.503	10.76565
311.719	9.06204
311.935	9.37443
312.15	11.0923
312.366	10.90401
312.581	10.90057
312.797	10.65628
313.013	11.10796
313.228	10.09079
313.444	9.77741
313.659	9.77663
313.875	10.27357
314.09	9.90341
314.306	10.77292
314.521	10.63664
314.737	10.66142
314.952	10.47931
315.168	10.35128
315.383	10.67903
315.599	9.63275
315.814	10.2951
316.029	10.47779
316.245	9.97012
316.46	8.57251
316.675	11.08265
316.891	11.48334
317.106	12.51889
317.321	10.18237
317.537	10.94501
317.752	10.95223
317.967	11.05589
318.183	9.69102
318.398	9.91573
318.613	10.95679
318.828	11.31359
319.043	10.65465
319.259	10.23037
319.474	10.63759
319.689	11.26468
319.904	9.09828
320.119	11.44475
320.334	10.49426
320.549	10.44318
320.765	11.32984
320.98	10.65789
321.195	10.21547
321.41	10.65179
321.625	10.83013
321.84	11.49319
322.055	11.38739
322.27	9.96916
322.485	9.30697
322.7	10.9648
322.915	11.07992
323.13	10.54477
323.345	12.01088
323.56	11.65628
323.775	11.61545
323.989	11.59454
324.204	11.05798
324.419	11.76819
324.634	10.07162
324.849	11.03109
325.064	13.04823
325.279	12.24523
325.493	11.67383
325.708	11.80674
325.923	10.44732
326.138	11.31376
326.352	12.2901
326.567	11.98316
326.782	10.81194
326.997	11.0675
327.211	11.71524
327.426	11.55315
327.641	11.207
327.855	10.4078
328.07	11.87293
328.285	13.12021
328.499	10.94992
328.714	11.47628
328.928	11.38747
329.143	11.43052
329.358	12.19884
329.572	12.06682
329.787	12.78013
330.001	13.15589
330.216	9.95691
330.43	13.15285
330.645	12.07554
330.859	11.86446
331.074	10.42967
331.288	11.41765
331.503	12.94336
331.717	10.48769
331.931	11.39748
332.146	11.75451
332.36	13.29365
332.575	11.83879
332.789	11.58981
333.003	11.82646
333.218	12.07581
333.432	11.77754
333.646	12.43404
333.86	13.21837
334.075	12.96343
334.289	11.20637
334.503	10.43739
334.717	12.2342
334.932	11.52081
335.146	12.05617
335.36	10.87837
335.574	12.27666
335.788	11.77064
336.003	12.63543
336.217	12.75795
336.431	12.12179
336.645	11.6473
336.859	11.24616
337.073	11.97607
337.287	12.22357
337.501	10.80495
337.715	12.6046
337.929	12.3543
338.143	11.47322
338.357	11.95708
338.571	12.11021
338.785	13.09813
338.999	11.97074
339.213	12.04567
339.427	11.41421
339.641	13.1685
339.855	11.75927
340.069	11.45118
340.283	13.00209
340.497	13.31905
340.711	13.062
340.924	12.40797
341.138	11.89504
341.352	11.38233
341.566	12.55496
341.78	11.60551
341.993	12.13525
342.207	12.01276
342.421	12.83597
342.635	12.69554
342.848	12.3278
343.062	10.63083
343.276	12.40824
343.49	13.84073
343.703	12.28139
343.917	13.32446
344.131	13.67361
344.344	12.18827
344.558	12.44031
344.771	11.74474
344.985	13.56069
345.199	14.17773
345.412	13.20981
345.626	13.43597
345.839	11.83387
346.053	12.08353
346.266	12.3545
346.48	13.35315
346.693	13.3484
346.907	13.30903
347.12	12.23316
347.334	12.76467
347.547	13.21584
347.76	12.97352
347.974	13.45471
348.187	13.07853
348.401	12.54386
348.614	11.85011
348.827	12.82745
349.041	13.26855
349.254	11.68061
349.467	12.68003
349.681	12.39006
349.894	12.22746
350.107	13.98266
350.32	14.75771
350.534	12.15816
350.747	13.05209
350.96	12.54014
351.173	12.55808
351.386	13.0395
351.6	12.62021
351.813	13.06146
352.026	12.81549
352.239	12.77774
352.452	12.90137
352.665	14.01523
352.878	12.97232
353.092	14.84065
353.305	13.84143
353.518	13.54757
353.731	12.51806
353.944	14.30321
354.157	13.14677
354.37	13.23746
354.583	12.49761
354.796	12.90044
355.009	14.11938
355.222	13.75472
355.435	13.60312
355.647	14.79225
355.86	13.12574
356.073	13.84115
356.286	13.50664
356.499	14.43377
356.712	14.52102
356.925	14.42506
357.138	14.49539
357.35	13.41217
357.563	13.5889
357.776	14.17819
357.989	14.17708
358.201	14.58701
358.414	14.30961
358.627	15.32209
358.84	14.19497
359.052	13.35484
359.265	13.56091
359.478	14.87905
359.69	12.66294
359.903	14.87019
360.116	15.01894
360.328	13.46773
360.541	14.83106
360.753	14.09678
360.966	14.36947
361.179	15.24168
361.391	15.39588
361.604	16.07516
361.816	16.37504
362.029	16.57477
362.241	15.91452
362.454	16.17407
362.666	15.06256
362.879	15.76971
363.091	14.73002
363.304	14.65001
363.516	14.6245
363.728	14.16578
363.941	15.00783
364.153	15.04672
364.366	13.72519
364.578	14.2812
364.79	15.10092
365.003	15.41517
365.215	14.59601
365.427	15.1373
365.639	15.3772
365.852	15.05043
366.064	15.82955
366.276	14.59561
366.488	15.08008
366.701	14.85344
366.913	14.79833
367.125	14.98024
367.337	14.50431
367.549	14.58858
367.762	14.95203
367.974	14.79938
368.186	14.91865
368.398	15.43934
368.61	15.19092
368.822	15.35892
369.034	14.78353
369.246	15.83133
369.458	16.82504
369.67	14.59609
369.882	16.10477
370.094	13.92891
370.306	16.06103
370.518	14.96675
370.73	14.68587
370.942	15.10322
371.154	15.43159
371.366	15.40046
371.578	15.88698
371.79	15.48843
372.002	16.14498
372.214	17.09145
372.425	15.55495
372.637	16.85761
372.849	15.844
373.061	14.38307
373.273	15.90706
373.484	15.91538
373.696	16.23017
373.908	14.47752
374.12	16.24423
374.331	16.43958
374.543	15.22872
374.755	15.10583
374.967	15.85849
375.178	16.86203
375.39	15.56335
375.602	15.93739
375.813	15.06345
376.025	15.42236
376.236	15.99529
376.448	16.14909
376.66	16.09676
376.871	16.29904
377.083	16.49315
377.294	17.53083
377.506	15.94382
377.717	17.05308
377.929	16.45121
378.14	16.25087
378.352	16.66932
378.563	16.98013
378.775	17.21854
378.986	15.67742
379.197	16.48542
379.409	15.75639
379.62	16.65207
379.832	16.64344
380.043	16.37881
380.254	16.80675
380.466	15.66134
380.677	18.29961
380.888	17.75828
381.1	18.56216
381.311	18.47978
381.522	17.13003
381.733	18.4399
381.945	16.85489
382.156	16.46002
382.367	16.70207
382.578	18.60412
382.789	18.81041
383.001	16.38903
383.212	18.05431
383.423	18.12407
383.634	17.56064
383.845	17.58429
384.056	16.87974
384.267	17.01054
384.478	17.24328
384.69	16.46904
384.901	17.60935
385.112	17.3703
385.323	18.50288
385.534	17.39571
385.745	17.63873
385.956	17.41444
386.167	16.95264
386.378	17.69415
386.588	17.23386
386.799	16.83448
387.01	16.765
387.221	18.00711
387.432	17.66888
387.643	18.3576
387.854	17.39811
388.065	17.38875
388.275	17.69218
388.486	17.09089
388.697	17.67968
388.908	17.21426
389.119	18.21347
389.329	18.42775
389.54	17.63697
389.751	18.02084
389.962	18.58557
390.172	17.71267
390.383	17.89846
390.594	17.46709
390.804	17.30676
391.015	17.61702
391.226	18.23313
391.436	18.2494
391.647	18.17965
391.858	18.37496
392.068	17.22162
392.279	17.648
392.489	18.43057
392.7	18.64356
392.91	17.99176
393.121	17.7991
393.331	18.63125
393.542	18.94263
393.752	18.90214
393.963	18.48326
394.173	18.75612
394.384	18.65871
394.594	18.59621
394.804	17.93214
395.015	18.29413
395.225	18.80963
395.436	17.9827
395.646	18.51516
395.856	18.439
396.067	17.38721
396.277	19.02571
396.487	18.68919
396.697	18.76098
396.908	18.96085
397.118	18.97051
397.328	18.46015
397.538	19.07215
397.749	18.46753
397.959	19.03053
398.169	18.80969
398.379	17.8878
398.589	18.56035
398.8	18.92813
399.01	18.94423
399.22	18.68374
399.43	19.90734
399.64	18.81385
399.85	19.248
400.06	19.09485
400.27	18.37891
400.48	18.80102
400.69	19.32553
400.9	18.66055
401.11	18.17504
401.32	19.38405
401.53	18.64904
401.74	19.59888
401.95	19.16037
402.16	18.78428
402.37	19.31816
402.58	18.98679
402.79	19.10895
403	19.36307
403.209	18.65322
403.419	19.59136
403.629	18.66893
403.839	19.70071
404.049	19.7135
404.258	18.95267
404.468	19.16597
404.678	19.77702
404.888	19.96743
405.097	19.4949
405.307	19.48232
405.517	19.72819
405.727	19.87925
405.936	19.2719
406.146	19.6687
406.356	20.12953
406.565	19.40408
406.775	19.27821
406.984	19.06291
407.194	20.62625
407.404	19.57007
407.613	19.94772
407.823	19.82838
408.032	20.29101
408.242	19.98229
408.451	19.3758
408.661	19.42769
408.87	20.53626
409.08	19.0575
409.289	20.00708
409.499	19.78032
409.708	19.65939
409.918	18.42482
410.127	19.99914
410.336	20.70025
410.546	20.39426
410.755	19.50189
410.964	19.46828
411.174	19.21683
411.383	20.1217
411.592	19.8313
411.802	19.59785
412.011	20.25678
412.22	19.52077
412.429	20.45526
412.639	20.86007
412.848	20.47401
413.057	21.01714
413.266	20.73592
413.475	20.07071
413.685	20.42928
413.894	20.6809
414.103	20.45907
414.312	20.63836
414.521	19.91266
414.73	20.52368
414.939	21.26472
415.148	20.52786
415.357	20.276
415.566	20.38147
415.776	20.09134
415.985	20.42203
416.194	20.96082
416.403	22.5165
416.611	21.13169
416.82	22.04406
417.029	22.86576
417.238	23.37741
417.447	24.00442
417.656	25.58119
417.865	26.01737
418.074	26.85484
418.283	28.63531
418.492	30.65818
418.7	30.24039
418.909	33.63219
419.118	32.0032
419.327	32.97514
419.536	33.19618
419.744	34.28403
419.953	36.36017
420.162	37.19448
420.371	37.21038
420.579	39.02354
420.788	40.05262
420.997	40.40954
421.205	41.59222
421.414	40.88967
421.623	41.63327
421.831	40.87871
422.04	40.9784
422.249	39.41149
422.457	39.40364
422.666	37.59894
422.874	38.64641
423.083	39.05428
423.291	39.45438
423.5	40.10697
423.708	40.99976
423.917	41.93958
424.125	41.14594
424.334	41.19559
424.542	43.48789
424.751	42.59157
424.959	41.711
425.167	41.24794
425.376	40.75108
425.584	37.72667
425.793	36.70103
426.001	34.97559
426.209	33.74507
426.418	31.63668
426.626	29.74481
426.834	28.64075
427.042	27.58308
427.251	27.0176
427.459	27.23121
427.667	24.97027
427.875	23.49572
428.084	23.72436
428.292	23.70814
428.5	23.57228
428.708	21.97623
428.916	22.15917
429.124	22.53554
429.333	22.54357
429.541	22.52631
429.749	23.00941
429.957	23.14616
430.165	24.64636
430.373	22.14415
430.581	22.67572
430.789	23.91263
430.997	23.0366
431.205	22.98825
431.413	24.22445
431.621	23.93681
431.829	24.95725
432.037	26.29192
432.245	25.81367
432.453	27.24491
432.661	28.08737
432.869	29.94036
433.076	29.07156
433.284	30.13744
433.492	31.57926
433.7	31.43729
433.908	30.53903
434.116	31.14748
434.323	29.75704
434.531	29.90242
434.739	29.03824
434.947	27.91782
435.154	27.77862
435.362	25.87234
435.57	25.65207
435.778	25.43454
435.985	25.36231
436.193	24.90678
436.401	26.76096
436.608	25.32475
436.816	24.37337
437.023	26.73394
437.231	26.78955
437.439	27.45243
437.646	27.79652
437.854	27.38198
438.061	27.76605
438.269	28.90708
438.476	29.01352
438.684	29.57831
438.891	31.27228
439.099	31.3641
439.306	31.76449
439.514	31.97148
439.721	34.7788
439.929	35.00782
440.136	36.47221
440.343	36.91873
440.551	37.35717
440.758	39.15937
440.965	36.94242
441.173	36.85373
441.38	36.57352
441.587	35.03495
441.795	34.44379
442.002	33.32144
442.209	32.26529
442.416	31.17464
442.624	30.49613
442.831	29.53865
443.038	28.44041
443.245	28.02542
443.452	27.61901
443.66	28.76421
443.867	29.00135
444.074	29.11932
444.281	30.5967
444.488	31.24879
444.695	32.60937
444.902	33.77069
445.109	36.5299
445.316	37.2716
445.523	39.08886
445.73	40.26754
445.937	41.63475
446.144	42.95574
446.351	43.98504
446.558	41.9934
446.765	45.64051
446.972	43.51664
447.179	43.05503
447.386	43.11596
447.593	39.74744
447.8	41.04254
448.007	37.50251
448.214	35.34565
448.42	34.21823
448.627	33.44017
448.834	32.06232
449.041	31.24467
449.248	29.91872
449.454	28.93059
449.661	28.81299
449.868	26.48536
450.075	26.20545
450.281	24.90282
450.488	24.57115
450.695	24.36336
450.901	25.05855
451.108	24.74989
451.315	25.57646
451.521	25.30934
451.728	27.24008
451.935	25.65295
452.141	26.60144
452.348	27.33299
452.554	26.5614
452.761	27.01707
452.967	28.45121
453.174	27.71781
453.38	27.06987
453.587	25.78736
453.793	26.61756
454	26.10561
454.206	26.86855
454.413	25.7188
454.619	25.43495
454.825	25.10793
455.032	25.19629
455.238	24.93237
455.445	24.06774
455.651	24.59055
455.857	23.44764
456.064	24.3218
456.27	24.43044
456.476	24.13432
456.682	23.65973
456.889	24.59142
457.095	24.70484
457.301	25.57503
457.507	25.23825
457.714	25.99822
457.92	26.49397
458.126	27.27264
458.332	29.64387
458.538	31.17219
458.744	33.37207
458.951	35.3709
459.157	39.6317
459.363	40.28468
459.569	41.37042
459.775	41.75506
459.981	43.03729
460.187	43.74237
460.393	42.53825
460.599	42.28077
460.805	39.95485
461.011	37.24798
461.217	35.16454
461.423	32.07234
461.629	30.73743
461.835	28.97435
462.041	27.20337
462.247	26.62225
462.453	24.8463
462.658	24.67184
462.864	25.07457
463.07	24.77636
463.276	24.85955
463.482	24.93752
463.688	25.5674
463.893	24.49199
464.099	24.83153
464.305	25.64083
464.511	24.85199
464.716	25.01874
464.922	25.73788
465.128	24.66373
465.333	25.85372
465.539	25.51604
465.745	25.45058
465.95	25.29196
466.156	26.94444
466.362	25.99162
466.567	25.00825
466.773	25.03243
466.978	26.09081
467.184	25.33039
467.389	24.52614
467.595	25.71159
467.8	25.03321
468.006	26.05736
468.211	25.83763
468.417	24.90954
468.622	25.67983
468.828	25.76558
469.033	25.8093
469.239	26.9643
469.444	25.08807
469.649	25.99114
469.855	25.60372
470.06	25.52594
470.266	24.88927
470.471	26.01894
470.676	25.67891
470.881	24.67971
471.087	26.41665
471.292	26.88841
471.497	24.84442
471.703	25.74692
471.908	25.57406
472.113	25.9856
472.318	26.26923
472.523	25.3359
472.729	25.88532
472.934	26.19473
473.139	25.91049
473.344	26.28018
473.549	26.57812
473.754	25.55522
473.959	27.098
474.164	25.55821
474.369	25.87696
474.575	26.27167
474.78	25.95982
474.985	25.52613
475.19	24.89081
475.395	25.65328
475.6	25.92439
475.804	26.68499
476.009	26.18312
476.214	25.95577
476.419	25.88591
476.624	26.01702
476.829	26.3213
477.034	27.89074
477.239	27.68394
477.444	28.36792
477.648	28.86379
477.853	28.82176
478.058	28.49032
478.263	28.51189
478.468	28.1634
478.672	28.16203
478.877	30.04655
479.082	29.31765
479.287	29.14374
479.491	28.42065
479.696	28.09825
479.901	28.9589
480.105	30.04295
480.31	29.24452
480.515	30.60012
480.719	33.13096
480.924	32.90226
481.128	33.88792
481.333	35.92866
481.538	37.09458
481.742	39.48655
481.947	42.85847
482.151	46.66437
482.356	51.37293
482.56	59.47871
482.765	67.35067
482.969	79.24848
483.174	88.68494
483.378	97.96649
483.582	98.36249
483.787	98.50453
483.991	98.50413
484.196	98.50379
484.4	98.5039
484.604	98.50405
484.809	97.5077
485.013	92.19253
485.217	83.21062
485.422	74.06049
485.626	67.62421
485.83	64.3776
486.034	62.91358
486.239	64.24075
486.443	67.16052
486.647	70.02247
486.851	74.16715
487.055	79.12576
487.26	81.07383
487.464	84.23026
487.668	83.94535
487.872	85.68038
488.076	84.46128
488.28	80.69302
488.484	75.92427
488.688	72.56263
488.892	67.58115
489.096	62.37944
489.3	57.82467
489.504	53.8399
489.708	50.99954
489.912	49.93584
490.116	49.01635
490.32	50.32835
490.524	54.61177
490.728	58.43341
490.932	62.58793
491.136	66.98685
491.34	69.98034
491.544	71.35116
491.748	71.62007
491.951	71.08485
492.155	69.44165
492.359	66.43473
492.563	60.71459
492.767	56.1485
492.97	50.07371
493.174	44.80543
493.378	40.82365
493.582	36.88614
493.785	34.70712
493.989	33.85284
494.193	32.1675
494.396	30.78849
494.6	31.03745
494.804	30.2923
495.007	30.09639
495.211	30.53715
495.414	30.61395
495.618	32.54608
495.822	33.7457
496.025	34.28917
496.229	35.50887
496.432	35.91195
496.636	36.70664
496.839	37.29848
497.043	38.63949
497.246	37.78565
497.45	37.45997
497.653	37.54596
497.856	36.58777
498.06	35.50239
498.263	34.63395
498.467	34.06369
498.67	34.37389
498.873	33.11646
499.077	31.9254
499.28	31.72079
499.483	31.13966
499.686	31.08058
499.89	30.13153
500.093	29.62741
500.296	28.41233
500.499	29.08729
500.703	27.77702
500.906	27.99765
501.109	28.07511
501.312	27.38973
501.515	27.46978
501.719	27.46935
501.922	27.94097
502.125	27.43847
502.328	27.42466
502.531	27.04184
502.734	27.56578
502.937	26.77792
503.14	27.67163
503.343	27.59946
503.546	27.82798
503.749	28.00931
503.952	28.65708
504.155	28.12212
504.358	28.55871
504.561	28.79452
504.764	28.07323
504.967	28.20954
505.17	27.67488
505.373	28.43827
505.576	27.47519
505.778	27.94283
505.981	27.15185
506.184	28.20264
506.387	26.60487
506.59	28.50387
506.793	28.31955
506.995	27.98623
507.198	27.7175
507.401	29.0983
507.604	29.68582
507.806	29.72561
508.009	30.40204
508.212	31.69507
508.414	31.30738
508.617	32.10873
508.82	32.55652
509.022	33.69457
509.225	32.62116
509.427	32.24374
509.63	33.07425
509.833	32.00003
510.035	31.67991
510.238	30.64065
510.44	32.29221
510.643	30.72995
510.845	31.99439
511.048	31.42096
511.25	30.79991
511.453	31.17559
511.655	31.81368
511.858	31.44245
512.06	31.89198
512.262	31.30603
512.465	31.9588
512.667	30.72545
512.869	29.91255
513.072	30.34801
513.274	30.0018
513.476	29.46795
513.679	28.84438
513.881	27.62179
514.083	29.00743
514.286	28.04158
514.488	27.88942
514.69	27.8122
514.892	27.54938
515.094	28.76699
515.297	28.18378
515.499	28.38399
515.701	27.92673
515.903	29.19853
516.105	29.09507
516.307	28.75035
516.509	27.45202
516.711	29.02311
516.913	29.71473
517.116	31.5894
517.318	32.69538
517.52	35.36276
517.722	37.09112
517.924	37.61751
518.126	40.03218
518.328	40.24681
518.529	41.57723
518.731	42.13252
518.933	40.24863
519.135	40.27285
519.337	40.47469
519.539	38.20235
519.741	35.7836
519.943	34.34325
520.145	32.89245
520.346	32.81239
520.548	30.56446
520.75	30.37842
520.952	29.61289
521.153	29.31771
521.355	29.14163
521.557	28.29227
521.759	28.64238
521.96	28.69668
522.162	28.08104
522.364	29.17725
522.565	28.43836
522.767	29.06514
522.969	29.38702
523.17	29.21828
523.372	28.91327
523.573	29.03537
523.775	29.33622
523.977	29.99169
524.178	32.16297
524.38	33.08294
524.581	35.77252
524.783	37.00587
524.984	39.8533
525.186	41.16065
525.387	43.24556
525.589	43.94753
525.79	44.7739
525.991	45.26912
526.193	46.33632
526.394	45.87967
526.596	47.21048
526.797	48.67746
526.998	48.93222
527.2	52.49006
527.401	59.04754
527.602	65.18195
527.803	74.11632
528.005	80.29275
528.206	85.37851
528.407	89.65375
528.608	90.77297
528.81	91.08419
529.011	89.57184
529.212	89.00772
529.413	84.0596
529.614	77.71212
529.815	71.25632
530.017	64.68964
530.218	57.77731
530.419	52.34485
530.62	49.40886
530.821	47.07729
531.022	44.27348
531.223	45.18761
531.424	44.16964
531.625	45.46018
531.826	45.55847
532.027	48.35376
532.228	52.23785
532.429	55.07504
532.63	57.98171
532.831	61.32488
533.032	62.05011
533.233	64.1362
533.433	62.86854
533.634	62.8912
533.835	60.61318
534.036	57.97031
534.237	54.57809
534.438	50.86681
534.638	46.06675
534.839	43.22844
535.04	41.0949
535.241	39.98298
535.441	41.3464
535.642	41.47836
535.843	42.33142
536.043	43.65131
536.244	44.74884
536.445	45.23447
536.645	46.5206
536.846	45.94192
537.047	45.34467
537.247	43.47133
537.448	41.70311
537.648	40.12758
537.849	37.22987
538.049	35.44001
538.25	33.26394
538.451	32.55938
538.651	30.86894
538.851	31.62196
539.052	32.48498
539.252	32.93007
539.453	33.76208
539.653	36.23592
539.854	39.02151
540.054	43.13901
540.254	48.97547
540.455	54.46196
540.655	58.06898
540.855	64.1129
541.056	67.13305
541.256	67.98563
541.456	70.12913
541.657	69.82897
541.857	69.44592
542.057	66.34142
542.257	63.32297
542.458	60.94291
542.658	56.88729
542.858	52.06475
543.058	49.77151
543.258	47.64256
543.458	43.84749
543.659	42.25775
543.859	42.08399
544.059	40.74132
544.259	38.4923
544.459	37.64399
544.659	35.8567
544.859	35.72992
545.059	34.68797
545.259	35.48384
545.459	34.91179
545.659	36.33686
545.859	36.22713
546.059	37.24387
546.259	36.88015
546.459	37.286
546.659	36.83856
546.859	36.99322
547.059	36.59988
547.258	35.69343
547.458	34.46181
547.658	32.57239
547.858	30.59021
548.058	30.12043
548.258	29.47547
548.457	29.52363
548.657	31.44447
548.857	29.76119
549.057	30.24562
549.256	30.1335
549.456	29.71975
549.656	28.75836
549.855	31.02005
550.055	29.92418
550.255	31.16362
550.454	30.20254
550.654	30.4967
550.853	30.91572
551.053	30.4253
551.253	30.10677
551.452	30.08751
551.652	29.32064
551.851	29.10609
552.051	29.93422
552.25	29.60508
552.45	29.45701
552.649	29.99322
552.849	29.52385
553.048	30.10895
553.248	30.51784
553.447	29.73715
553.646	30.7732
553.846	31.36126
554.045	30.64995
554.244	29.64099
554.444	31.28594
554.643	29.71538
554.842	31.08608
555.042	31.61446
555.241	29.7922
555.44	29.53819
555.64	30.88739
555.839	31.52018
556.038	30.49303
556.237	29.55451
556.436	30.26614
556.636	30.58574
556.835	30.12743
557.034	31.06821
557.233	30.49429
557.432	29.34004
557.631	30.9815
557.83	30.0208
558.029	29.94276
558.228	29.82876
558.427	29.73804
558.626	30.62328
558.825	29.39457
559.024	30.42181
559.223	31.67355
559.422	29.88488
559.621	30.31941
559.82	28.9821
560.019	30.12444
560.218	30.29436
560.417	28.57841
560.616	29.97864
560.815	32.49432
561.014	29.27737
561.212	31.53677
561.411	30.7378
561.61	29.23943
561.809	29.98242
562.008	31.4145
562.206	30.4232
562.405	31.02822
562.604	30.46186
562.803	30.85218
563.001	30.32262
563.2	29.70107
563.399	30.90469
563.597	29.62833
563.796	30.43059
563.995	29.87675
564.193	30.97418
564.392	30.19014
564.59	31.77686
564.789	29.34278
564.988	30.02599
565.186	30.47068
565.385	30.55078
565.583	30.19492
565.782	30.4165
565.98	30.42355
566.179	30.46971
566.377	29.8256
566.575	30.07449
566.774	31.42706
566.972	31.12376
567.171	31.67434
567.369	31.71677
567.567	30.93597
567.766	31.20407
567.964	29.54052
568.162	31.02226
568.361	31.44647
568.559	30.59224
568.757	31.05983
568.956	30.78735
569.154	30.51048
569.352	31.26922
569.55	30.42426
569.748	30.56724
569.947	30.19528
570.145	30.36221
570.343	29.86518
570.541	31.52058
570.739	29.90016
570.937	30.3704
571.135	30.93393
571.333	31.87685
571.532	31.78062
571.73	30.88887
571.928	31.55965
572.126	31.37035
572.324	30.46069
572.522	31.90949
572.72	32.99273
572.918	30.91564
573.116	31.38817
573.313	31.06041
573.511	31.08838
573.709	30.26465
573.907	31.5317
574.105	30.86171
574.303	29.84453
574.501	29.96911
574.699	31.17134
574.896	31.3634
575.094	31.47175
575.292	30.04099
575.49	31.60028
575.688	30.66845
575.885	31.94989
576.083	32.49365
576.281	31.79992
576.478	30.46561
576.676	31.62597
576.874	29.89141
577.071	30.96035
577.269	32.82694
577.467	31.01858
577.664	30.85434
577.862	31.8371
578.059	30.09071
578.257	31.86082
578.455	30.90492
578.652	31.33472
578.85	29.64031
579.047	30.92094
579.245	31.27467
579.442	30.97197
579.64	31.00118
579.837	29.9523
580.034	33.18887
580.232	31.07101
580.429	29.83962
580.627	31.26681
580.824	32.17048
581.021	31.53455
581.219	30.60979
581.416	30.42774
581.613	31.91247
581.811	32.42054
582.008	30.14308
582.205	31.84495
582.402	31.43787
582.6	32.40305
582.797	30.75126
582.994	30.93369
583.191	31.47471
583.388	30.78144
583.586	31.84674
583.783	31.80302
583.98	30.71457
584.177	31.27021
584.374	29.26624
584.571	30.47695
584.768	30.93305
584.965	30.4992
585.162	31.27976
585.359	32.64254
585.556	30.88964
585.753	31.14869
585.95	29.90426
586.147	30.52776
586.344	31.52318
586.541	30.99177
586.738	30.19339
586.935	31.11117
587.132	30.30911
587.329	31.81348
587.526	31.26327
587.722	34.83279
587.919	29.72415
588.116	31.3311
588.313	32.18994
588.51	33.0646
588.706	30.38798
588.903	31.59792
589.1	31.61856
589.297	33.33804
589.493	31.22381
589.69	31.53438
589.887	30.94634
590.083	30.38126
590.28	30.62868
590.477	31.93814
590.673	32.07739
590.87	32.58987
591.067	31.24057
591.263	31.6084
591.46	31.2405
591.656	31.00456
591.853	32.44688
592.049	30.35714
592.246	30.93206
592.442	32.34432
592.639	32.48225
592.835	30.46616
593.032	31.70651
593.228	30.34895
593.425	30.10284
593.621	30.01355
593.817	31.76171
594.014	30.65917
594.21	31.66273
594.406	32.26328
594.603	31.81347
594.799	31.08206
594.995	29.7006
595.192	32.55302
595.388	30.91073
595.584	31.28669
595.78	30.32229
595.977	32.89944
596.173	32.89278
596.369	31.09919
596.565	30.51199
596.761	30.06122
596.957	32.6439
597.154	31.1215
597.35	31.28979
597.546	31.10452
597.742	32.4386
597.938	31.82227
598.134	31.20205
598.33	32.07483
598.526	32.50874
598.722	31.54963
598.918	33.18289
599.114	31.98831
599.31	30.85777
599.506	31.38049
599.702	30.62343
599.898	30.94504
600.094	31.7514
600.29	32.09087
600.485	32.20749
600.681	30.59298
600.877	32.76849
601.073	31.74497
601.269	32.86671
601.465	32.839
601.66	30.25224
601.856	30.0039
602.052	32.79345
602.248	31.08855
602.443	30.04492
602.639	30.44113
602.835	30.59606
603.03	30.82788
603.226	31.98504
603.422	30.75582
603.617	31.09926
603.813	31.25428
604.009	31.17945
604.204	32.60997
604.4	30.51943
604.595	32.34327
604.791	30.86015
604.986	32.04124
605.182	31.41258
605.377	31.69225
605.573	31.10775
605.768	32.13736
605.964	32.67754
606.159	32.3738
606.355	32.6917
606.55	31.55655
606.746	32.73715
606.941	31.21644
607.136	33.97577
607.332	34.52443
607.527	30.42422
607.722	31.83083
607.918	31.87345
608.113	31.23792
608.308	32.19274
608.503	31.97465
608.699	32.0103
608.894	31.88646
609.089	31.0009
609.284	31.75668
609.479	31.36964
609.675	32.61459
609.87	31.15747
610.065	32.65509
610.26	32.41815
610.455	32.3938
610.65	31.82714
610.845	31.94064
611.04	32.45004
611.235	31.43852
611.43	31.1121
611.625	30.67072
611.82	32.90252
612.015	31.01868
612.21	32.74285
612.405	30.20455
612.6	33.06749
612.795	32.93241
612.99	32.10952
613.185	30.27935
613.38	30.87507
613.575	31.7617
613.77	34.60843
613.965	30.16649
614.159	30.72314
614.354	33.0167
614.549	32.60622
614.744	32.88682
614.938	30.48918
615.133	29.78858
615.328	33.49297
615.523	32.6966
615.717	35.24223
615.912	30.38706
616.107	32.04554
616.301	31.59224
616.496	31.52354
616.691	33.34452
616.885	33.2656
617.08	34.99764
617.274	32.51806
617.469	34.37016
617.664	32.42462
617.858	31.45325
618.053	32.6112
618.247	31.73661
618.442	29.17436
618.636	33.38624
618.831	30.92202
619.025	31.09453
619.219	34.75944
619.414	28.86575
619.608	31.78449
619.803	31.77206
619.997	34.55966
620.191	33.14784
620.386	32.18699
620.58	31.92109
620.774	29.78945
620.969	30.05063
621.163	31.82128
621.357	30.8082
621.551	31.61092
621.746	31.70135
621.94	31.21337
622.134	35.79907
622.328	33.99566
622.522	29.73278
622.716	32.7684
622.911	33.27024
623.105	33.56879
623.299	32.88772
623.493	35.46671
623.687	30.96102
623.881	31.14001
624.075	32.71782
624.269	33.81186
624.463	29.71901
624.657	30.34457
624.851	33.02104
625.045	33.28656
625.239	33.16025
625.433	32.16641
625.627	33.70107
625.821	31.42974
626.015	31.60596
626.209	32.81077
626.403	31.57921
626.596	33.02344
626.79	33.49328
626.984	30.9042
627.178	32.9059
627.372	33.26235
627.565	33.28683
627.759	30.2797
627.953	31.38836
628.147	33.11719
628.34	33.51937
628.534	34.80236
628.728	32.01841
628.921	32.85372
629.115	32.47348
629.309	33.45564
629.502	33.46784
629.696	32.82975
629.89	31.94053
630.083	32.80946
630.277	32.92318
630.47	34.25258
630.664	31.79607
630.857	30.85156
631.051	33.62872
631.244	33.61788
631.438	32.96858
631.631	31.53614
631.825	34.38164
632.018	33.2027
632.212	34.69814
632.405	33.86674
632.598	31.43544
632.792	32.39378
632.985	29.83446
633.178	32.35037
633.372	32.09272
633.565	32.0519
633.758	33.82045
633.952	31.36328
634.145	30.85958
634.338	31.84825
634.531	31.5618
634.724	31.83172
634.918	32.7684
635.111	31.94517
635.304	31.9805
635.497	35.25217
635.69	32.66846
635.883	34.63558
636.077	31.04463
636.27	32.88969
636.463	33.0615
636.656	32.43076
636.849	32.29887
637.042	33.12911
637.235	34.32641
637.428	33.57755
637.621	33.94281
637.814	34.4505
638.007	34.50796
638.2	34.27212
638.393	35.02563
638.586	30.79236
638.778	32.00683
638.971	32.4079
639.164	34.7636
639.357	32.38874
639.55	35.164
639.743	33.95527
639.935	33.02696
640.128	35.42132
640.321	33.29025
640.514	33.08973
640.707	35.10142
640.899	33.57092
641.092	29.94622
641.285	43.50677
641.477	29.5092
641.67	35.81027
641.863	34.42016
642.055	32.52256
642.248	31.67435
642.441	31.23967
642.633	33.40102
642.826	33.95292
643.018	34.11994
643.211	35.61552
643.403	35.20986
643.596	36.01919
643.788	35.58075
643.981	32.34525
644.173	34.00229
644.366	32.61214
644.558	29.40932
644.751	34.30327
644.943	30.39869
645.135	34.92465
645.328	35.46264
645.52	33.38195
645.712	34.66847
645.905	37.35067
646.097	31.12056
646.289	32.67381
646.482	36.71272
646.674	31.73824
646.866	35.27832
647.058	34.10967
647.251	30.94974
647.443	32.16072
647.635	32.87771
647.827	30.79882
648.019	32.01621
648.211	32.59297
648.404	33.02304
648.596	36.49639
648.788	33.50934
648.98	33.65618
649.172	33.78749
649.364	33.62558
649.556	30.3931
649.748	38.50229
649.94	31.38802
650.132	34.14354
650.324	31.67915
650.516	32.17092
650.708	35.21939
650.9	31.40988
651.092	30.43085
651.284	31.09549
651.476	31.67804
651.667	34.8605
651.859	35.35768
652.051	33.05543
652.243	33.30205
652.435	32.53826
652.627	34.50257
652.818	34.20405
653.01	31.07501
653.202	31.61262
653.394	32.07075
653.585	33.96822
653.777	40.99887
653.969	35.73562
654.16	35.31951
654.352	31.75521
654.544	32.5359
654.735	34.48015
654.927	33.55862
655.118	35.62039
655.31	34.05535
655.502	35.11332
655.693	32.63519
655.885	34.74897
656.076	35.36043
656.268	33.59011
656.459	35.93276
656.651	35.81642
656.842	32.42184
657.034	32.28613
657.225	35.46337
657.416	36.58941
657.608	36.24646
657.799	34.02651
657.99	36.1323
658.182	33.81458
658.373	32.62526
658.564	35.14594
658.756	34.33473
658.947	33.80236
659.138	32.72717
659.33	33.40542
659.521	32.92773
659.712	33.74756
659.903	33.5043
660.094	32.72634
660.286	31.65453
660.477	37.02289
660.668	35.10827
660.859	33.83943
661.05	31.16259
661.241	35.2423
661.432	33.54512
661.623	32.99283
661.814	33.31551
662.006	31.04903
662.197	33.98995
662.388	35.69315
662.579	34.77105
662.77	35.91938
662.96	38.51575
663.151	35.16221
663.342	30.81293
663.533	34.96651
663.724	34.57089
663.915	36.676
664.106	33.98772
664.297	36.53624
664.488	35.16725
664.678	32.25785
664.869	35.22293
665.06	35.01692
665.251	34.58184
665.442	34.10125
665.632	30.67851
665.823	37.22311
666.014	28.41816
666.204	35.12582
666.395	36.19112
666.586	39.05441
666.776	35.11413
666.967	36.79611
667.158	34.4772
667.348	36.48351
667.539	31.19348
667.729	35.75419
667.92	32.6432
668.111	35.86227
668.301	34.78095
668.492	34.43352
668.682	34.32401
668.873	35.03592
669.063	32.14388
669.253	35.07126
669.444	36.00515
669.634	34.2099
669.825	38.78969
670.015	36.61908
670.206	31.90369
670.396	37.70943
670.586	34.24067
670.777	35.24159
670.967	30.17234
671.157	33.27438
671.347	32.71677
671.538	37.93301
671.728	35.61278
671.918	38.8785
672.108	36.2552
672.299	34.03433
672.489	35.52541
672.679	32.53135
672.869	35.43904
673.059	39.06703
673.249	35.57175
673.44	31.27307
673.63	33.85607
673.82	36.10055
674.01	32.91159
674.2	35.1711
674.39	40.62984
674.58	36.60533
674.77	35.10982
674.96	33.36706
675.15	43.15599
675.34	38.46373
675.53	34.99371
675.72	34.37849
675.91	31.96389
676.099	39.30431
676.289	39.99339
676.479	36.65853
676.669	33.81276
676.859	35.86713
677.049	32.90067
677.238	34.57011
677.428	38.5927
677.618	36.59177
677.808	37.68447
677.997	36.80748
678.187	32.61905
678.377	35.35596
678.567	34.45537
678.756	33.44833
678.946	34.92232
679.136	32.56161
679.325	33.60385
679.515	33.35522
679.704	32.98066
679.894	37.3846
680.084	36.46703
680.273	37.30471
680.463	34.68505
680.652	34.23768
680.842	35.55893
681.031	38.21263
681.221	34.57011
681.41	37.40092
681.6	35.57317
681.789	38.05854
681.978	38.31791
682.168	36.26445
682.357	36.54795
682.547	37.05075
682.736	35.87869
682.925	39.46678
683.115	38.73194
683.304	37.5027
683.493	36.47999
683.682	36.85585
683.872	36.38241
684.061	38.98905
684.25	36.63194
684.439	40.36256
684.629	37.12837
684.818	44.70094
685.007	34.914
685.196	35.31626
685.385	39.98444
685.574	36.53591
685.763	37.99039
685.952	36.37918
686.142	33.67358
686.331	39.5193
686.52	32.17294
686.709	40.0925
686.898	39.61103
687.087	38.14082
687.276	41.41303
687.465	39.44824
687.654	36.75913
687.842	40.39835
688.031	33.75412
688.22	40.23484
688.409	36.39016
688.598	37.12551
688.787	44.00499
688.976	37.60048
689.165	40.89659
689.353	35.24323
689.542	37.59095
689.731	38.26144
689.92	42.32683
690.108	38.81614
690.297	35.12393
690.486	36.50393
690.675	39.18453
690.863	41.78139
691.052	40.52186
691.241	36.3563
691.429	36.87109
691.618	41.26041
691.806	34.31578
691.995	35.52455
692.184	37.17615
692.372	35.07797
692.561	38.69774
692.749	37.77949
692.938	44.2921
693.126	37.51975
693.315	37.0154
693.503	38.74354
693.692	38.7502
693.88	41.3427
694.068	43.55504
694.257	36.87938
694.445	38.52573
694.634	30.09129
694.822	39.89681
695.01	40.41444
695.199	41.8652
695.387	41.67768
695.575	41.42166
695.763	37.01126
695.952	35.16044
696.14	34.31784
696.328	36.77307
696.516	38.03092
696.705	39.40929
696.893	38.81634
697.081	32.69386
697.269	39.99174
697.457	34.76405
697.645	34.89512
697.833	40.16071
698.021	35.87002
698.21	36.85701
698.398	37.4573
698.586	35.58277
698.774	34.78097
698.962	37.42399
699.15	36.17355
699.338	34.73496
699.526	39.66215
699.714	36.54947
699.901	36.90353
700.089	41.0545
700.277	35.76975
700.465	38.0155
700.653	40.62364
700.841	38.98029
701.029	35.96759
701.217	41.49975
701.404	37.51123
701.592	42.62301
701.78	43.02812
701.968	37.28974
702.155	36.31603
702.343	32.73749
702.531	42.19905
702.718	38.0877
702.906	36.29536
703.094	35.28311
703.281	41.45556
703.469	38.02092
703.657	40.33739
703.844	47.90124
704.032	43.45498
704.219	36.31456
704.407	38.66975
704.595	41.23923
704.782	37.12073
704.97	36.51776
705.157	36.83081
705.345	42.38918
705.532	46.88227
705.719	39.17244
705.907	41.71541
706.094	38.06202
706.282	44.31203
706.469	37.00157
706.656	38.91645
706.844	36.26949
707.031	42.50407
707.218	40.53635
707.406	43.66712
707.593	42.78845
707.78	40.29207
707.968	39.10779
708.155	36.25208
708.342	39.72564
708.529	39.4447
708.716	39.29866
708.904	45.11491
709.091	41.35224
709.278	34.04418
709.465	47.19351
709.652	44.74262
709.839	43.66574
710.026	40.04584
710.213	32.80809
710.4	39.96454
710.587	41.19057
710.774	42.89393
710.961	41.77821
711.148	38.43329
711.335	42.47741
711.522	38.47589
711.709	41.07848
711.896	47.15834
712.083	43.0616
712.27	37.20558
712.457	40.77505
712.644	34.91547
712.831	46.12497
713.017	39.75957
713.204	42.53395
713.391	38.39876
713.578	44.65967
713.765	44.21843
713.951	40.85902
714.138	52.67137
714.325	43.17557
714.512	41.48232
714.698	38.20487
714.885	46.67864
715.072	42.12284
715.258	41.08505
715.445	38.35424
715.631	46.07175
715.818	31.4722
716.005	38.81878
716.191	43.38638
716.378	38.55492
716.564	45.03106
716.751	38.05889
716.937	40.14281
717.124	45.18535
717.31	36.44708
717.497	47.48577
717.683	38.4882
717.869	50.30863
718.056	39.31126
718.242	42.54468
718.429	39.62862
718.615	36.82405
718.801	40.98555
718.988	43.99967
719.174	43.10827
719.36	40.51408
719.547	46.11068
719.733	41.94386
719.919	41.96642
720.105	43.03704
720.291	40.91556
720.478	40.4709
720.664	41.6675
720.85	38.28169
721.036	53.33409
721.222	47.42812
721.408	41.66273
721.595	49.68358
721.781	47.55045
721.967	45.3236
722.153	49.76427
722.339	44.18401
722.525	42.41692
722.711	37.48828
722.897	35.88546
723.083	38.48607
723.269	45.04591
723.455	52.46669
723.641	54.2383
723.827	41.02102
724.012	43.58486
724.198	38.92792
724.384	49.08255
724.57	43.25553
724.756	35.02293
724.942	32.03099
725.127	44.41584
725.313	46.42879
725.499	48.14358
725.685	49.58162
725.87	42.91734
726.056	38.43037
726.242	49.05397
726.428	35.14892
726.613	46.04773
726.799	40.56213
726.985	37.50893
727.17	34.45609
727.356	49.75829
727.541	36.38897
727.727	41.32806
727.913	45.70256
728.098	39.47223
728.284	45.99755
728.469	37.25344
728.655	38.96252
728.84	45.82563
729.026	47.28384
729.211	46.02468
729.397	45.86709
729.582	47.08385
729.767	43.60059
729.953	45.22456
730.138	47.88269
730.323	34.36461
730.509	38.07984
730.694	51.08552
730.879	45.85917
731.065	43.76639
731.25	52.79406
731.435	46.40426
731.621	35.84685
731.806	40.13311
731.991	43.73188
732.176	35.77749
732.361	49.40178
732.547	45.82988
732.732	36.13311
732.917	55.22549
733.102	37.33601
733.287	39.05862
733.472	43.16515
733.657	43.32061
733.842	36.91811
734.027	40.4315
734.212	42.82061
734.397	41.00699
734.582	44.5058
734.767	49.817
734.952	49.93147
735.137	30.28211
735.322	50.97524
735.507	45.23102
735.692	42.33364
735.877	54.79709
736.062	52.30574
736.247	46.00091
736.431	42.395
736.616	47.90552
736.801	44.01743
736.986	44.47382
737.171	36.83497
737.355	35.66071
737.54	50.00281
737.725	42.90052
737.909	56.0082
738.094	39.49948
738.279	51.17188
738.463	39.04932
738.648	45.41452
738.833	46.12183
739.017	52.73649
739.202	40.74716
739.386	42.64267
739.571	37.7959
739.756	46.04375
739.94	42.51419
740.125	45.9165
740.309	38.48807
740.494	47.69556
740.678	43.15842
740.863	45.62968
741.047	42.59026
741.231	51.12991
741.416	38.70847
741.6	51.9393
741.785	39.26383
741.969	47.74998
742.153	50.26698
742.338	32.25391
742.522	42.27304
742.706	48.54262
742.89	36.63937
743.075	44.95879
743.259	51.25255
743.443	49.56563
743.627	53.42329
743.812	57.80886
743.996	28.7893
744.18	41.90441
744.364	38.26878
744.548	58.18528
744.732	42.45804
744.916	47.34188
745.1	46.96961
745.285	42.95302
745.469	46.52381
745.653	55.25637
745.837	36.31981
746.021	57.64511
746.205	52.06165
746.389	44.40689
746.573	41.86569
746.757	53.98724
746.94	44.58483
747.124	51.05058
747.308	36.3434
747.492	51.01047
747.676	40.48625
747.86	59.82436
748.044	39.62742
748.227	31.50896
748.411	66.24037
748.595	45.28914
748.779	37.14262
748.963	45.76837
749.146	44.21296
749.33	38.92632
749.514	36.24792
749.697	50.11564
749.881	40.17508
750.065	37.81195
750.248	44.72974
750.432	59.15783
750.616	45.74801
750.799	35.72294
750.983	58.03586
751.166	61.43052
751.35	33.70532
751.533	48.79456
751.717	51.61521
751.9	52.7039
752.084	41.06074
752.267	36.99662
752.451	39.839
752.634	45.25235
752.818	49.86734
753.001	49.49508
753.184	49.04173
753.368	48.50524
753.551	23.60155
753.734	41.20779
753.918	57.27068
754.101	40.34482
754.284	47.92289
754.467	41.80457
754.651	41.40734
754.834	39.27135
755.017	51.28227
755.2	52.93595
755.384	37.4086
755.567	52.18246
755.75	53.97472
755.933	42.28462
756.116	42.78738
756.299	39.28816
756.482	37.67502
756.665	45.03865
756.848	43.16321
757.032	48.04409
757.215	32.82504
757.398	38.40627
757.581	37.574
757.764	62.49403
757.947	41.19119
758.129	54.07289
758.312	27.28976
758.495	42.40591
758.678	43.83508
758.861	41.69854
759.044	54.23542
759.227	37.94708
759.41	39.04489
759.592	49.93814
759.775	42.80662
759.958	50.47264
760.141	35.03736
760.324	60.37806
760.506	55.75703
760.689	49.68636
760.872	60.66703
761.054	50.25646
761.237	42.78791
761.42	44.6353
761.602	51.69199
761.785	47.84301
761.968	52.29863
762.15	56.31473
762.333	43.71911
762.515	46.62814
762.698	42.2241
762.88	52.24444
763.063	47.99945
763.245	49.99196
763.428	41.02668
763.61	41.53844
763.793	38.39738
763.975	47.28487
764.158	44.11759
764.34	41.9118
764.522	40.96911
764.705	47.2466
764.887	55.00297
765.069	37.29955
765.252	51.30527
765.434	49.52322
765.616	46.10224
765.799	41.46885
765.981	51.78436
766.163	41.01731
766.345	53.50146
766.528	38.88919
766.71	29.98873
766.892	47.58684
767.074	53.31077
767.256	43.23051
767.438	58.27613
767.62	47.37005
767.802	60.14772
767.985	49.81033
768.167	60.68188
768.349	41.61894
768.531	51.10741
768.713	44.325
768.895	51.27508
769.077	45.29409
769.259	64.03343
769.441	85.15225
769.623	53.19695
769.804	57.07374
769.986	55.53983
770.168	64.72552
770.35	73.80971
770.532	58.36886
770.714	62.52483
770.896	60.42036
771.077	35.52686
771.259	67.12292
771.441	55.77323
771.623	71.14675
771.804	78.67759
771.986	34.95134
772.168	47.38671
772.35	66.70452
772.531	82.56674
772.713	53.18858
772.894	70.57281
773.076	55.4639
773.258	48.34332
773.439	70.94283
773.621	78.13618
773.802	41.34154
773.984	47.62083
774.166	58.52037
774.347	71.63901
774.529	68.51143
774.71	32.72935
774.891	57.42649
775.073	51.55584
775.254	66.62243
775.436	49.38466
775.617	79.77483
775.799	49.21339
775.98	74.74102
776.161	75.0591
776.343	78.0658
776.524	55.12654
776.705	48.7916
776.886	36.73377
777.068	61.61845
777.249	95.4942
777.43	84.06232
777.611	42.78061
777.793	56.09675
777.974	74.1314
778.155	48.72656
778.336	47.3432
778.517	88.50285
778.698	45.86042
778.879	35.56924
779.061	24.31932
779.242	60.529
779.423	64.18064
779.604	52.53086
779.785	55.1728
779.966	55.11612
780.147	68.20797
780.328	71.717
780.509	90.49208
780.69	66.82381
780.871	46.74619
781.051	40.35525
781.232	59.53989
781.413	55.76631
781.594	54.41408
781.775	53.25611
781.956	50.03992
782.137	34.09819
782.317	45.72395
782.498	60.26221
782.679	56.47828
782.86	59.63949
783.04	51.91651
783.221	60.65858
783.402	77.32744
783.583	56.44161
783.763	67.87777
783.944	52.2344
784.124	39.59754
784.305	76.00947
784.486	65.52761
784.666	56.99373
784.847	38.8225
785.027	94.18011
785.208	51.38725
785.388	47.92348
785.569	49.84797
785.749	53.67679
785.93	51.12582
786.11	38.6816
786.291	64.81213
786.471	59.02193
786.652	65.03096
786.832	57.15204
787.012	61.11783
787.193	43.78071
787.373	56.56533
787.553	53.43405
787.734	62.21565
787.914	52.37039
788.094	66.86162
788.275	65.09345
788.455	54.95767
788.635	44.24831
788.815	60.57353
788.995	42.41151
789.176	38.87896
789.356	47.61282
789.536	53.17759
789.716	66.67133
789.896	45.99292
790.076	49.07688
790.256	61.30008
790.436	31.05432
790.616	43.3562
790.796	60.43839
790.976	53.2021
791.156	47.19097
791.336	67.2341
791.516	61.73655
791.696	53.83009
791.876	39.63263
792.056	56.90775
792.236	66.92764
792.416	67.23853
792.596	59.22836
792.776	60.91457
792.956	58.8525
793.135	76.98975
793.315	45.48002
793.495	70.51364
793.675	67.79147
793.854	66.21215
794.034	71.72342
794.214	44.31931
794.394	67.79978
794.573	71.99716
794.753	59.14412
794.933	44.64509
795.112	61.55937
795.292	65.08787
795.472	80.39736
795.651	40.87612
795.831	56.33245
796.01	54.40125
796.19	49.28675
796.369	57.15705
796.549	65.03531
796.728	52.14456
796.908	44.26048
797.087	42.7107
797.267	51.98596
797.446	42.38146
797.626	65.53078
797.805	61.82965
797.984	45.2392
798.164	67.43346
798.343	44.76676
798.522	58.65774
798.702	58.35974
798.881	41.35169
799.06	53.56262
799.239	32.8058
799.419	44.2452
799.598	79.36212
799.777	61.71522
799.956	72.68203
800.136	50.53825
800.315	49.6024
800.494	61.38837
800.673	72.9022
800.852	62.84753
801.031	71.41703
801.21	68.5664
801.389	53.2437
801.568	58.4584
801.747	85.93222
801.926	56.58809
802.105	74.83697
802.284	51.7577
802.463	78.4093
802.642	59.99978
802.821	58.42655
803	74.72035
803.179	67.59185
803.358	73.28013
803.537	47.95226
803.716	56.90342
803.895	45.76632
804.073	55.91706
804.252	44.9261
804.431	61.58744
804.61	50.53094
804.789	70.04231
804.967	46.99336
805.146	54.05043
805.325	82.69039
805.503	65.07719
805.682	37.4458
805.861	92.61097
806.039	73.68472
806.218	51.30569
806.397	56.48623
806.575	55.18613
806.754	63.53048
806.932	44.95052
807.111	81.61923
807.289	68.31536
807.468	56.81099
807.646	72.30743
807.825	70.38301
808.003	59.72414
808.182	68.06949
808.36	57.84181
808.539	46.16141
808.717	78.73312
808.895	45.28201
809.074	61.4912
809.252	58.6869
809.43	67.23903
809.609	71.6054
809.787	82.4321
809.965	57.06707
810.144	58.53323
810.322	60.97162
810.5	64.91505
810.678	52.75771
810.856	89.65888
811.035	72.39682
811.213	66.60499
811.391	80.4944
811.569	60.41034
811.747	103.2995
811.925	77.63746
812.103	40.17686
812.281	58.30143
812.459	84.40479
812.637	91.2405
812.816	67.66801
812.994	93.79097
813.171	80.26198
813.349	63.46269
813.527	77.27489
813.705	86.4733
813.883	93.88616
814.061	75.59948
814.239	87.4763
814.417	94.40135
814.595	64.93331
814.773	64.11319
814.95	63.93857
815.128	66.81708
815.306	62.07076
815.484	58.81591
815.662	50.77231
815.839	41.09423
816.017	51.04284
816.195	82.54327
816.372	54.68536
816.55	68.16938
816.728	83.91738
816.905	56.29962
817.083	85.76899
817.261	61.08038
817.438	98.45854
817.616	88.80385
817.793	52.0738
817.971	76.87575
818.148	72.93141
818.326	83.27675
818.503	65.37094
818.681	89.65418
818.858	54.17263
819.036	62.96435
819.213	63.03435
819.391	52.86146
819.568	48.78246
819.745	49.74546
819.923	74.2802
820.1	55.04006
820.277	52.53225
820.455	56.70418
820.632	58.7763
820.809	58.74269
820.986	47.60028
821.164	43.35085
821.341	41.95647
821.518	49.37473
821.695	43.68324
821.872	43.78699
822.05	41.79503
822.227	38.0829
822.404	39.90432
822.581	40.62887
822.758	40.33947
822.935	40.60031
823.112	42.82629
823.289	40.66664
823.466	43.70067
823.643	42.11662
823.82	45.27912
823.997	43.43829
824.174	46.38743
824.351	52.54168
824.528	51.78555
824.705	48.69057
824.882	49.13008
825.059	57.49133
825.236	47.05887
825.412	47.09057
825.589	52.8608
825.766	62.48227
825.943	47.28494
826.12	52.81821
826.296	43.48874
826.473	48.43395
826.65	49.08432
826.827	54.22492
827.003	43.92303
827.18	48.77706
827.357	51.74899
827.533	48.04144
827.71	37.11859
827.887	44.95812
828.063	48.40995
828.24	45.62208
828.416	51.61231
828.593	46.29083
828.769	57.90131
828.946	57.95291
829.122	62.51985
829.299	59.68314
829.475	41.11726
829.652	55.35037
829.828	77.46039
830.005	52.70614
830.181	68.7521
830.357	53.7225
830.534	73.27893
830.71	57.11455
830.886	66.78528
831.063	70.94804
831.239	77.21404
831.415	43.01001
831.592	77.48843
831.768	60.00723
831.944	52.11158
832.12	83.2182
832.296	74.77053
832.473	68.86004
832.649	53.87787
832.825	67.425
833.001	46.65635
833.177	67.56352
833.353	59.53062
833.529	42.17651
833.705	54.31263
833.881	45.08102
834.058	45.35067
834.234	48.16309
834.41	48.58718
834.586	43.21336
834.761	47.48261
834.937	50.07968
835.113	52.07073
835.289	47.41149
835.465	53.0345
835.641	47.65058
835.817	52.71596
835.993	75.30947
836.169	48.0409
836.344	59.19014
836.52	63.39705
836.696	68.59498
836.872	50.60742
837.048	108.10333
837.223	56.26643
837.399	94.49639
837.575	74.9476
837.75	71.61664
837.926	95.17208
838.102	140.7864
838.277	113.53442
838.453	148.37976
838.628	142.91487
838.804	63.27423
838.98	132.94219
839.155	75.9809
839.331	93.09516
839.506	67.30628
839.682	73.04246
839.857	83.0722
840.033	100.59096
840.208	54.99112
840.384	35.82582
840.559	55.64596
840.734	80.2663
840.91	104.47975
841.085	70.39568
841.26	70.53171
841.436	64.71563
841.611	65.53581
841.786	86.18541
841.962	116.99914
842.137	82.37034
842.312	50.58053
842.487	70.87409
842.663	56.30529
842.838	66.32168
843.013	222.4272
843.188	109.80206
843.363	105.44586
843.538	187.19422
843.714	194.13751
843.889	173.62935
844.064	178.31752
844.239	150.59145
844.414	197.96553
844.589	132.72112
844.764	233.99393
844.939	204.27015
845.114	241.57518
845.289	233.08298
845.464	257.56071
845.639	201.00083
845.814	118.72059
845.989	150.98635
846.163	151.26649
846.338	171.11679
846.513	241.8302
846.688	176.16076
846.863	171.22298
847.038	163.16794
847.212	133.90931
847.387	163.99787
847.562	180.40919
847.737	227.32213
847.911	105.59319
848.086	119.3152
848.261	313.10807
848.435	149.57175
848.61	220.25435
848.785	111.63512
848.959	235.32526
849.134	253.0129
849.308	350.77059
849.483	184.16077
849.658	250.81711
849.832	150.46794
850.007	122.69011
850.181	352.9091
850.356	128.81155
850.53	317.09327
850.705	105.84532
850.879	90.89707
851.053	159.00575
851.228	170.87138
851.402	259.07475
851.577	219.79949
851.751	285.34481
851.925	167.33407
852.099	101.07006
852.274	145.03805
852.448	174.79487
852.622	245.57024
852.797	180.84014
852.971	157.35119
853.145	230.37439
853.319	333.35522
853.493	287.59903
853.668	177.68775
853.842	305.55271
854.016	209.04296
854.19	337.85042
854.364	197.78146
854.538	216.45387
854.712	271.04322
854.886	175.31287
855.06	172.46728
855.234	52.50503
855.408	306.8631
855.582	212.40091
855.756	315.25416
855.93	294.41699
856.104	200.73903
856.278	276.22432
856.452	149.17776
856.626	208.94477
856.8	386.14141
856.973	204.84024
857.147	232.84785
857.321	240.17441
857.495	264.2489
857.669	205.22215
857.842	182.35352
858.016	283.85327
858.19	138.73017
858.364	401.81787
858.537	168.14263
858.711	236.86372
858.885	158.91888
859.058	145.40993
859.232	98.68054
859.405	97.62525
859.579	251.31133
859.753	241.34349
859.926	130.25833
860.1	128.32651
860.273	199.45215
860.447	283.29482
860.62	180.07212
860.794	326.7454
860.967	236.78526
861.141	255.67164
861.314	362.56493
861.487	222.53724
861.661	277.39369
861.834	333.48972
862.008	275.99723
862.181	228.84285
862.354	224.75929
862.528	210.646
862.701	157.10249
862.874	104.41751
863.047	180.94494
863.221	158.05073
863.394	88.26752
863.567	250.70818
863.74	70.97768
863.913	246.04581
864.087	224.46278
864.26	230.96139
864.433	182.091
864.606	354.31622
864.779	220.96101
864.952	83.60475
865.125	203.59064
865.298	214.4809
865.471	210.68625
865.644	298.25924
865.817	264.99565
865.99	282.65081
866.163	290.14554
866.336	184.15054
866.509	185.27005
866.682	189.54104
866.855	308.99833
867.028	118.51242
867.2	207.32516
867.373	70.8626
867.546	205.14615
867.719	372.34253
867.892	224.10506
868.064	139.8241
868.237	197.93983
868.41	231.99271
868.583	109.15719
868.755	144.47925
868.928	178.37599
869.101	365.51533
869.273	290.10086
869.446	201.31165
869.619	279.37243
869.791	166.70927
869.964	259.47751
870.136	283.47802
870.309	176.96014
870.481	169.41939
870.654	112.42847
870.826	187.81593
870.999	151.16658
871.171	218.57374
871.344	142.33754
871.516	175.30234
871.689	122.64211
871.861	197.58998
872.033	129.6158
872.206	165.82423
872.378	237.84338
872.55	175.3632
872.723	107.86557
872.895	160.38931
873.067	263.01857
873.24	267.95756
873.412	156.75537
873.584	161.6223
873.756	167.21722
873.928	221.30678
874.101	187.64728
874.273	219.18062
874.445	89.15443
874.617	126.56777
874.789	192.7211
874.961	146.12946
875.133	205.95593
875.305	187.68401
875.477	123.93219
875.649	84.20987
875.821	122.19348
875.993	287.94407
876.165	134.15037
876.337	201.37336
876.509	197.29983
876.681	191.02428
876.853	179.3099
877.025	193.28401
877.197	146.3502
877.369	113.8466
877.541	208.52767
877.712	56.8722
877.884	101.2904
878.056	182.26183
878.228	108.11042
878.4	189.99532
878.571	115.96432
878.743	80.70274
878.915	154.58032
879.086	101.90272
879.258	123.02697
879.43	107.63673
879.601	95.11018
879.773	100.35299
879.945	39.48978
880.116	49.34399
880.288	40.95944
880.459	43.97621
880.631	40.37476
880.802	44.91073
880.974	43.75616
881.145	38.02766
881.317	45.07372
881.488	38.94983
881.66	41.30486
881.831	40.5199
882.002	46.16535
882.174	41.78848
882.345	44.76909
882.517	35.92942
882.688	49.71614
882.859	45.54989
883.03	58.66359
883.202	55.92626
883.373	51.57056
883.544	48.59361
883.715	68.34317
883.887	61.23688
884.058	53.15055
884.229	69.68623
884.4	70.96688
884.571	77.73545
884.742	68.1603
884.914	71.6812
885.085	89.73664
885.256	121.23515
885.427	94.75735
885.598	112.29449
885.769	101.23412
885.94	110.32017
886.111	80.82719
886.282	138.24537
886.453	111.22805
886.624	78.45847
886.795	128.92105
886.966	113.29442
887.136	153.25545
887.307	117.60151
887.478	193.95958
887.649	151.59545
887.82	187.37414
887.991	160.99512
888.161	187.01412
888.332	189.17222
888.503	96.67943
888.674	232.0994
888.844	268.74285
889.015	215.28873
889.186	121.34304
889.356	258.09015
889.527	122.19756
889.698	364.29331
889.868	134.44574
890.039	198.85329
890.209	156.57532
890.38	252.61127
890.551	191.63772
890.721	269.72107
890.892	212.16417
891.062	198.04465
891.233	221.97827
891.403	184.1192
891.574	114.71378
891.744	159.47353
891.914	184.34109
892.085	199.64526
892.255	58.91961
892.425	264.68579
892.596	181.12573
892.766	201.78153
892.936	248.05251
893.107	228.9781
893.277	117.46809
893.447	77.34395
893.618	68.31475
893.788	132.7702
893.958	77.73964
894.128	71.14321
894.298	79.86836
894.468	102.00823
894.639	54.6426
894.809	48.3569
894.979	63.29997
895.149	74.19941
895.319	61.15203
895.489	79.10063
895.659	93.6221
895.829	71.5458
895.999	76.51657
896.169	58.99796
896.339	71.29414
896.509	126.89598
896.679	141.63535
896.849	155.91711
897.019	196.52898
897.189	172.59232
897.358	151.6877
897.528	224.44566
897.698	75.78445
897.868	237.84398
898.038	393.67501
898.208	297.87076
898.377	103.54485
898.547	404.00981
898.717	585.85517
898.886	225.99256
899.056	374.25092
899.226	413.78441
899.395	423.52353
899.565	570.13383
899.735	365.19636
899.904	517.9425
900.074	512.46954
900.244	253.99393
900.413	695.59575
900.583	208.36702
900.752	359.554
900.922	474.96448
901.091	53.81567
901.261	658.21751
901.43	371.68554
901.599	424.64259
901.769	758.76137
901.938	492.4045
902.108	407.86796
902.277	452.64627
902.446	176.76665
902.616	175.18249
902.785	197.42718
902.954	382.21542
903.124	207.10821
903.293	150.21512
903.462	86.1596
903.631	122.00627
903.801	92.70654
903.97	50.77045
904.139	81.66985
904.308	63.22716
904.477	56.72946
904.646	42.59112
904.816	57.27487
904.985	73.3949
905.154	106.21515
