Data from WindowProjectSample_Transmission__24__00024__09550460387222137.txt Node

Date: Mon May 05 17:23:16 EDT 2025
User: jessi
Spectrometer: SR400872
Trigger mode: 0
Integration Time (sec): 5.000010E-1
Scans to average: 20
Electric dark correction enabled: true
Nonlinearity correction enabled: true
Boxcar width: 0
XAxis mode: Wavelengths
Number of Pixels in Spectrum: 3648
>>>>>Begin Spectral Data<<<<<
184.909	19868.249
185.132	-4958.17593
185.355	-2960.01025
185.578	-17343.62862
185.801	1703.33031
186.024	10045.98703
186.247	-1720.50352
186.47	1045.67467
186.693	331.10579
186.916	273.45625
187.139	-3669.14926
187.362	3300.6411
187.585	3930.28913
187.808	3352.52047
188.031	14.02929
188.254	-51844.88968
188.476	-565.70237
188.699	5972.08818
188.922	617.06776
189.145	-15115.50088
189.368	-654.49997
189.591	-1245.10576
189.813	3147.86641
190.036	-50654.20942
190.259	-828.46808
190.482	-4302.99388
190.705	6858.58356
190.927	-2478.23743
191.15	13452.41006
191.373	3053.80101
191.595	-8876.26719
191.818	-4082.0122
192.041	-6116.02622
192.263	-3370.97981
192.486	-819.44169
192.709	-3931.16723
192.931	7871.83961
193.154	-27926.77612
193.377	-2770.72973
193.599	-2422.52991
193.822	-9419.24121
194.044	-1973.68294
194.267	1152.85287
194.489	290.3809
194.712	-41489.56678
194.934	-30820.84959
195.157	1108.24098
195.379	1300.73173
195.602	-6357.21161
195.824	-1263.79855
196.047	-8142.62562
196.269	2653.73362
196.492	-6217.98673
196.714	28253.41433
196.936	-8490.6599
197.159	-1196.81096
197.381	1110.27052
197.604	418.32113
197.826	12115.36433
198.048	-10573.33265
198.271	-2669.49407
198.493	7135.43562
198.715	2241.07295
198.938	-532.34333
199.16	6919.1371
199.382	-97877.7016
199.604	2564.92785
199.827	-1079.38909
200.049	-2843.12751
200.271	14302.87745
200.493	1202.14279
200.715	-36732.1142
200.938	-5819.07911
201.16	-3881.3968
201.382	19807.77387
201.604	2228.73064
201.826	2233.97236
202.048	-1847.14896
202.27	-1921.92916
202.492	-35860.85485
202.715	2766.70648
202.937	-4493.99919
203.159	-6160.9991
203.381	1432.26515
203.603	6205.29517
203.825	6330.08709
204.047	2206.4585
204.269	-2660.96677
204.491	2099.21455
204.713	5925.43577
204.935	-487215.28054
205.156	1203.25173
205.378	-2857.41126
205.6	1553.26648
205.822	149848.8665
206.044	-970.85043
206.266	1509.5617
206.488	4848.77714
206.71	-5209.9578
206.932	1092.89546
207.153	12090.24193
207.375	-6662.75374
207.597	-36462.10778
207.819	-2702.55061
208.041	2375.49338
208.262	462.48839
208.484	687.94342
208.706	-784.64192
208.927	-795.40325
209.149	563.35605
209.371	-2828.48937
209.593	-255.92341
209.814	-805.30793
210.036	645.69299
210.258	-624.70533
210.479	1773.25051
210.701	1594.04911
210.922	3264.69487
211.144	-3803.64491
211.366	1947.12369
211.587	7562.20034
211.809	-7933.36958
212.03	2317.16751
212.252	388.98343
212.473	2044.53507
212.695	-6537.51247
212.916	2828.92607
213.138	-637.85737
213.359	3705.99998
213.581	5198.88656
213.802	-855.55623
214.024	1124.93168
214.245	1961.65219
214.466	2267.40182
214.688	-2999.29812
214.909	-1144.16879
215.131	-1701.75747
215.352	-2978.36699
215.573	14680.67802
215.795	4911.89548
216.016	5204.86891
216.237	838.64726
216.459	3310.56508
216.68	1715.35947
216.901	4892.21888
217.122	-2707.53121
217.344	-11056.70178
217.565	3341.55317
217.786	8820.72516
218.007	14464.19011
218.228	-617.76294
218.45	5529.83314
218.671	723.76298
218.892	37570.10365
219.113	1566.90039
219.334	-189.7493
219.555	10174.18746
219.776	2808.94356
219.997	22306.51946
220.219	2680.92133
220.44	-10083.34289
220.661	467.18369
220.882	1442.88414
221.103	-1083.4291
221.324	2206.03594
221.545	2238.53091
221.766	-8888.82834
221.987	875.52004
222.208	1655.88032
222.429	4240.55175
222.65	204.06259
222.87	18020.52311
223.091	685.73292
223.312	569.09279
223.533	1332.65902
223.754	1405.43774
223.975	1361.05444
224.196	1983.20162
224.417	1320.5706
224.637	519.5558
224.858	15.89367
225.079	1070.69101
225.3	654.58598
225.521	3702.50956
225.741	478.76957
225.962	531.58426
226.183	126.43594
226.404	660.20155
226.624	402.94935
226.845	651.5214
227.066	394.7764
227.286	248.18227
227.507	112.36588
227.728	114.35977
227.948	232.75752
228.169	74.0755
228.389	81.35864
228.61	44.1005
228.831	62.19245
229.051	0.99146
229.272	36.53134
229.492	54.03233
229.713	12.70433
229.933	34.77024
230.154	29.60003
230.374	51.6525
230.595	38.74095
230.815	22.88663
231.036	38.21602
231.256	-8.74621
231.477	65.91763
231.697	35.069
231.917	37.72662
232.138	53.07872
232.358	110.28611
232.579	99.42446
232.799	18.89314
233.019	98.64001
233.24	109.77978
233.46	41.29073
233.68	61.29659
233.901	43.45866
234.121	29.37427
234.341	13.21449
234.561	-2.84572
234.782	18.83204
235.002	65.87384
235.222	-4.2166
235.442	63.85923
235.662	30.81089
235.883	61.65822
236.103	47.77933
236.323	35.68746
236.543	28.74182
236.763	38.49816
236.983	43.19205
237.203	41.06154
237.423	58.17385
237.643	84.40424
237.864	70.67157
238.084	18.61584
238.304	23.83764
238.524	43.68953
238.744	38.44604
238.964	71.30173
239.184	57.50662
239.404	62.45289
239.624	33.05704
239.843	59.03837
240.063	35.3081
240.283	21.44835
240.503	25.90767
240.723	24.48688
240.943	13.36825
241.163	18.49397
241.383	13.13597
241.603	7.70608
241.822	9.82519
242.042	5.67261
242.262	8.3733
242.482	9.69238
242.702	10.7918
242.921	2.85096
243.141	6.42703
243.361	6.2353
243.581	9.33382
243.8	7.3752
244.02	5.03755
244.24	8.69758
244.459	9.41483
244.679	17.1319
244.899	11.27039
245.118	12.64272
245.338	13.00572
245.558	13.38788
245.777	8.46565
245.997	10.23939
246.216	10.27719
246.436	5.80179
246.655	4.48844
246.875	3.41468
247.094	6.13777
247.314	1.97276
247.533	3.46897
247.753	4.2371
247.972	3.21034
248.192	1.12442
248.411	1.94382
248.631	3.55307
248.85	4.47024
249.07	3.75313
249.289	5.61081
249.508	4.97934
249.728	6.649
249.947	6.75084
250.166	8.90666
250.386	4.05297
250.605	7.03141
250.824	10.63323
251.044	7.40851
251.263	28.56895
251.482	14.23356
251.701	11.50517
251.921	-0.25081
252.14	3.36214
252.359	3.88781
252.578	9.71506
252.798	3.51622
253.017	8.80199
253.236	4.10983
253.455	5.77851
253.674	10.03445
253.893	4.8266
254.112	7.28571
254.331	10.65627
254.551	8.35142
254.77	3.52158
254.989	13.15461
255.208	9.24994
255.427	15.77097
255.646	11.51625
255.865	21.03536
256.084	9.54217
256.303	9.74305
256.522	13.70402
256.741	3.09004
256.96	2.89007
257.179	8.10188
257.397	10.44775
257.616	5.98593
257.835	5.69079
258.054	15.02293
258.273	10.07963
258.492	10.6959
258.711	6.4227
258.93	3.16461
259.148	4.55209
259.367	4.47087
259.586	5.51743
259.805	2.23606
260.023	5.05136
260.242	3.79084
260.461	2.68949
260.68	1.27189
260.898	4.32202
261.117	1.22475
261.336	0.97057
261.554	3.39923
261.773	3.3442
261.992	0.82811
262.21	3.25423
262.429	3.52764
262.648	6.91799
262.866	7.95872
263.085	5.52975
263.303	4.77567
263.522	8.66983
263.74	8.57891
263.959	14.87414
264.178	6.89733
264.396	6.47344
264.615	4.64244
264.833	10.3793
265.051	8.42744
265.27	10.12097
265.488	10.70629
265.707	6.29924
265.925	10.45733
266.144	4.48349
266.362	5.41429
266.58	5.19415
266.799	4.99739
267.017	5.85508
267.235	5.15857
267.454	3.11301
267.672	1.77623
267.89	4.00868
268.109	4.41114
268.327	4.13152
268.545	0.986
268.763	4.25464
268.982	1.48135
269.2	4.21262
269.418	3.14196
269.636	1.8758
269.854	4.75272
270.073	3.03763
270.291	1.94959
270.509	1.83299
270.727	4.2069
270.945	7.06214
271.163	6.80426
271.381	1.46518
271.599	3.17536
271.817	5.25092
272.036	1.67686
272.254	3.01506
272.472	2.38507
272.69	2.46388
272.908	2.32231
273.126	4.32364
273.344	5.02593
273.562	1.72922
273.779	2.58554
273.997	3.59826
274.215	3.96503
274.433	2.83494
274.651	4.26629
274.869	4.56463
275.087	2.70495
275.305	4.00361
275.523	2.35658
275.74	2.57643
275.958	5.4536
276.176	7.93597
276.394	2.43315
276.612	3.22866
276.829	3.36884
277.047	2.58235
277.265	2.9357
277.483	3.25332
277.7	4.24212
277.918	3.48099
278.136	6.21393
278.353	2.81084
278.571	1.72979
278.789	4.24878
279.006	0.94692
279.224	2.90483
279.442	4.90454
279.659	3.46207
279.877	2.36875
280.094	5.83166
280.312	1.01905
280.529	3.0586
280.747	0.95704
280.964	2.56739
281.182	6.02104
281.399	2.63938
281.617	3.60803
281.834	2.44432
282.052	2.02755
282.269	3.06925
282.487	2.3894
282.704	2.11858
282.921	2.20724
283.139	3.19992
283.356	3.81534
283.574	3.64635
283.791	1.91196
284.008	5.57269
284.226	2.97003
284.443	3.1995
284.66	4.36369
284.877	3.31812
285.095	2.10965
285.312	1.59024
285.529	0.87666
285.746	0.79283
285.964	2.05944
286.181	1.38063
286.398	1.88827
286.615	2.55826
286.832	2.48423
287.05	0.60695
287.267	1.82433
287.484	1.72245
287.701	2.58995
287.918	2.49726
288.135	2.60646
288.352	1.22181
288.569	1.35749
288.786	2.30392
289.003	2.01114
289.22	3.01131
289.437	1.60756
289.654	2.74928
289.871	2.95509
290.088	2.77557
290.305	2.27596
290.522	1.64632
290.739	1.95989
290.956	3.07365
291.173	3.50141
291.39	3.36385
291.607	2.27468
291.824	1.72722
292.04	1.28744
292.257	2.87803
292.474	3.16372
292.691	1.98001
292.908	0.99138
293.125	1.6369
293.341	1.08776
293.558	4.84256
293.775	1.86817
293.992	2.08596
294.208	0.86671
294.425	1.44277
294.642	1.92706
294.858	2.31416
295.075	0.78184
295.292	2.02919
295.508	2.43569
295.725	4.15897
295.942	1.98055
296.158	1.51793
296.375	2.3167
296.591	1.83701
296.808	2.0134
297.024	2.40018
297.241	2.59663
297.458	2.80186
297.674	0.62782
297.891	2.24817
298.107	2.03844
298.323	1.68764
298.54	3.6407
298.756	1.84219
298.973	1.22333
299.189	3.73766
299.406	1.91006
299.622	3.32058
299.838	3.45545
300.055	3.3967
300.271	1.39074
300.487	1.81827
300.704	2.06712
300.92	1.56209
301.136	5.06322
301.353	3.29704
301.569	2.54439
301.785	3.0016
302.001	3.42424
302.218	3.00486
302.434	3.21235
302.65	1.60444
302.866	2.25858
303.083	4.96019
303.299	4.50883
303.515	2.9531
303.731	3.27413
303.947	1.74503
304.163	2.29477
304.379	3.05631
304.595	3.35109
304.812	2.24276
305.028	2.35292
305.244	2.66364
305.46	3.49285
305.676	3.67414
305.892	4.14299
306.108	3.43965
306.324	2.58362
306.54	4.70359
306.756	3.34249
306.972	3.32516
307.187	3.00073
307.403	4.32541
307.619	2.46927
307.835	4.00292
308.051	4.29976
308.267	2.08869
308.483	4.08165
308.699	3.47602
308.914	3.06657
309.13	2.92078
309.346	1.85657
309.562	2.14393
309.778	1.7449
309.993	3.47105
310.209	3.17789
310.425	2.11769
310.641	2.92246
310.856	2.28551
311.072	2.20546
311.288	2.96185
311.503	3.25964
311.719	1.55508
311.935	1.66328
312.15	3.59173
312.366	3.27136
312.581	3.51169
312.797	3.17521
313.013	3.85207
313.228	2.5723
313.444	2.88624
313.659	2.55127
313.875	3.45844
314.09	2.93142
314.306	4.43668
314.521	3.87085
314.737	3.78413
314.952	3.06605
315.168	2.99147
315.383	3.34685
315.599	2.76157
315.814	2.72225
316.029	3.75177
316.245	2.02321
316.46	1.67881
316.675	4.12053
316.891	4.62041
317.106	5.66752
317.321	3.20945
317.537	3.77979
317.752	3.95916
317.967	3.79577
318.183	2.21
318.398	2.71443
318.613	3.86389
318.828	4.36291
319.043	3.83906
319.259	2.9185
319.474	3.30828
319.689	4.28694
319.904	1.74596
320.119	3.88924
320.334	3.40386
320.549	2.93156
320.765	4.13625
320.98	3.45777
321.195	3.55136
321.41	3.14012
321.625	3.86175
321.84	4.79225
322.055	4.61007
322.27	2.63895
322.485	2.30479
322.7	3.32806
322.915	3.94219
323.13	2.66917
323.345	4.57944
323.56	4.23337
323.775	3.82799
323.989	3.51983
324.204	3.38629
324.419	4.13946
324.634	2.18894
324.849	3.05587
325.064	6.30782
325.279	4.09343
325.493	3.58352
325.708	4.02379
325.923	2.48542
326.138	2.68739
326.352	4.74857
326.567	4.07967
326.782	2.79454
326.997	2.67987
327.211	3.6955
327.426	3.41627
327.641	2.903
327.855	1.97627
328.07	3.58417
328.285	4.87719
328.499	2.7975
328.714	3.41795
328.928	3.6801
329.143	3.00925
329.358	4.14683
329.572	4.15498
329.787	4.5475
330.001	5.50844
330.216	2.18476
330.43	5.09586
330.645	4.68182
330.859	3.94966
331.074	2.67456
331.288	3.41842
331.503	4.6069
331.717	2.4041
331.931	3.5719
332.146	3.54772
332.36	4.97155
332.575	3.53705
332.789	3.55086
333.003	3.58664
333.218	3.6746
333.432	2.7936
333.646	4.29367
333.86	4.8134
334.075	4.79791
334.289	2.81503
334.503	2.40923
334.717	3.64413
334.932	3.78182
335.146	4.10935
335.36	2.87547
335.574	4.06544
335.788	3.68904
336.003	4.12089
336.217	3.97107
336.431	3.81996
336.645	2.88504
336.859	2.42651
337.073	3.3163
337.287	3.73058
337.501	2.33596
337.715	3.75271
337.929	4.13319
338.143	2.52668
338.357	3.36704
338.571	2.8191
338.785	4.01506
338.999	3.04368
339.213	2.99696
339.427	2.30646
339.641	4.68379
339.855	3.197
340.069	2.69237
340.283	4.10033
340.497	5.03271
340.711	3.93577
340.924	3.44805
341.138	2.54542
341.352	2.4047
341.566	3.60601
341.78	2.27185
341.993	3.05895
342.207	2.78866
342.421	3.63477
342.635	3.32874
342.848	3.19208
343.062	1.62743
343.276	2.83311
343.49	5.02199
343.703	2.81155
343.917	4.44386
344.131	4.43066
344.344	2.85755
344.558	3.1418
344.771	2.52121
344.985	4.84868
345.199	4.86371
345.412	3.78211
345.626	3.90153
345.839	2.26403
346.053	2.58153
346.266	2.72612
346.48	3.95301
346.693	3.85557
346.907	3.61888
347.12	2.82592
347.334	3.71054
347.547	3.71235
347.76	3.42619
347.974	4.45959
348.187	3.6868
348.401	3.23166
348.614	2.8651
348.827	3.33653
349.041	3.76263
349.254	2.21655
349.467	3.15482
349.681	2.61971
349.894	2.99701
350.107	4.50334
350.32	4.97433
350.534	2.44003
350.747	3.26873
350.96	2.84357
351.173	3.02022
351.386	3.25004
351.6	2.96451
351.813	3.1512
352.026	3.28302
352.239	2.64953
352.452	3.26412
352.665	4.42624
352.878	3.49441
353.092	5.16959
353.305	4.13124
353.518	3.69777
353.731	2.74554
353.944	4.36321
354.157	3.24178
354.37	3.07138
354.583	2.78987
354.796	2.44556
355.009	4.23282
355.222	3.9239
355.435	3.60884
355.647	4.3619
355.86	2.98283
356.073	3.74963
356.286	3.20938
356.499	4.27673
356.712	3.97942
356.925	4.21026
357.138	4.32656
357.35	3.04372
357.563	3.44535
357.776	3.75634
357.989	3.61373
358.201	4.03414
358.414	4.01842
358.627	4.71303
358.84	3.60883
359.052	2.85396
359.265	3.20674
359.478	4.49868
359.69	1.92283
359.903	4.30222
360.116	4.56075
360.328	2.6256
360.541	4.40375
360.753	3.19027
360.966	3.58847
361.179	3.72938
361.391	3.52915
361.604	3.37657
361.816	3.67528
362.029	3.63195
362.241	3.42136
362.454	3.72347
362.666	3.30113
362.879	4.26364
363.091	3.6763
363.304	3.47612
363.516	3.77799
363.728	3.21973
363.941	4.31996
364.153	3.95041
364.366	2.49389
364.578	3.19996
364.79	4.15907
365.003	4.02659
365.215	3.54724
365.427	4.27941
365.639	4.722
365.852	4.00035
366.064	5.57318
366.276	3.82462
366.488	4.15421
366.701	3.65631
366.913	3.92875
367.125	3.86669
367.337	3.41351
367.549	3.65726
367.762	4.1607
367.974	3.98967
368.186	3.78966
368.398	4.65273
368.61	4.47746
368.822	4.50757
369.034	4.01587
369.246	4.63164
369.458	6.31383
369.67	3.57923
369.882	5.40711
370.094	2.89929
370.306	5.28403
370.518	4.0316
370.73	3.80777
370.942	3.85607
371.154	4.18989
371.366	3.9931
371.578	4.54996
371.79	4.13366
372.002	5.11377
372.214	5.89375
372.425	4.3385
372.637	5.44821
372.849	4.76752
373.061	3.04863
373.273	4.60024
373.484	4.67479
373.696	5.10924
373.908	3.0351
374.12	5.27383
374.331	4.76933
374.543	3.96436
374.755	3.89111
374.967	4.6038
375.178	5.18037
375.39	4.29351
375.602	4.75298
375.813	3.56421
376.025	3.98895
376.236	4.67385
376.448	4.96942
376.66	4.54673
376.871	4.58087
377.083	5.66636
377.294	6.02997
377.506	4.64492
377.717	5.90951
377.929	5.0828
378.14	4.64053
378.352	5.23709
378.563	5.29634
378.775	5.82533
378.986	4.48902
379.197	5.05554
379.409	4.49042
379.62	5.46176
379.832	5.32583
380.043	4.84662
380.254	5.21312
380.466	4.44648
380.677	7.11715
380.888	6.37697
381.1	6.90548
381.311	7.07038
381.522	5.50224
381.733	7.17334
381.945	5.25772
382.156	5.12371
382.367	4.97218
382.578	7.27232
382.789	7.15343
383.001	5.02434
383.212	6.56341
383.423	6.61659
383.634	6.30889
383.845	6.09109
384.056	5.28652
384.267	5.69458
384.478	5.70384
384.69	4.90546
384.901	6.00118
385.112	5.86099
385.323	6.90607
385.534	6.05069
385.745	5.99025
385.956	6.02114
386.167	5.23601
386.378	6.11332
386.588	5.38515
386.799	5.30459
387.01	4.97681
387.221	6.47853
387.432	5.91958
387.643	7.10386
387.854	5.81331
388.065	5.85789
388.275	5.96244
388.486	5.58592
388.697	5.98045
388.908	5.73791
389.119	6.78942
389.329	6.98493
389.54	6.20665
389.751	6.41397
389.962	7.05958
390.172	6.26449
390.383	6.09754
390.594	5.78549
390.804	5.9834
391.015	5.99577
391.226	6.49126
391.436	6.78042
391.647	6.62524
391.858	6.83614
392.068	5.51773
392.279	5.87412
392.489	6.76079
392.7	7.16743
392.91	6.23983
393.121	6.09785
393.331	6.92934
393.542	7.27684
393.752	7.19286
393.963	6.98116
394.173	6.86273
394.384	7.03181
394.594	6.9028
394.804	6.15363
395.015	6.90376
395.225	7.0978
395.436	6.25154
395.646	7.05453
395.856	6.58464
396.067	5.85585
396.277	7.36596
396.487	7.11526
396.697	7.2388
396.908	7.12236
397.118	7.19084
397.328	7.02512
397.538	7.48654
397.749	6.40671
397.959	7.4712
398.169	7.19014
398.379	6.1701
398.589	7.26493
398.8	7.09037
399.01	7.14155
399.22	6.89806
399.43	8.39512
399.64	7.06828
399.85	7.41268
400.06	7.28582
400.27	6.55257
400.48	6.9851
400.69	7.969
400.9	6.83171
401.11	6.50997
401.32	7.60671
401.53	6.84878
401.74	8.29139
401.95	7.52165
402.16	6.86146
402.37	7.28944
402.58	6.95338
402.79	7.58802
403	7.9923
403.209	6.91315
403.419	7.99576
403.629	6.83292
403.839	7.99353
404.049	7.89544
404.258	7.3105
404.468	7.0804
404.678	7.76425
404.888	8.32624
405.097	7.40922
405.307	7.52595
405.517	8.05608
405.727	7.81531
405.936	7.46554
406.146	7.82674
406.356	8.4619
406.565	7.59368
406.775	7.4175
406.984	7.35477
407.194	8.74079
407.404	7.59018
407.613	7.98205
407.823	7.97313
408.032	8.31945
408.242	8.23835
408.451	7.40274
408.661	7.61739
408.87	8.69704
409.08	7.34232
409.289	7.90198
409.499	7.97312
409.708	7.93597
409.918	6.61965
410.127	8.06659
410.336	8.83137
410.546	8.31803
410.755	7.6407
410.964	7.8128
411.174	7.35397
411.383	8.19287
411.592	8.18238
411.802	7.4986
412.011	8.24024
412.22	7.812
412.429	9.03222
412.639	8.92592
412.848	8.52086
413.057	8.83911
413.266	8.67832
413.475	8.07324
413.685	8.287
413.894	8.66187
414.103	8.647
414.312	8.57429
414.521	8.04029
414.73	8.196
414.939	9.32892
415.148	8.6077
415.357	8.42418
415.566	8.28893
415.776	8.11345
415.985	8.20199
416.194	8.95232
416.403	9.61253
416.611	7.79937
416.82	8.33758
417.029	8.7293
417.238	8.33629
417.447	8.19726
417.656	8.58903
417.865	8.28307
418.074	8.6792
418.283	8.85204
418.492	9.37721
418.7	9.24916
418.909	10.16869
419.118	9.41006
419.327	9.76392
419.536	9.68821
419.744	9.75577
419.953	10.91105
420.162	11.20317
420.371	10.73398
420.579	11.25732
420.788	12.06026
420.997	12.19188
421.205	12.48867
421.414	12.30291
421.623	12.49493
421.831	12.10811
422.04	12.56695
422.249	11.83731
422.457	12.05649
422.666	11.20054
422.874	12.06748
423.083	12.10889
423.291	12.03822
423.5	11.99449
423.708	12.40504
423.917	12.79635
424.125	12.45283
424.334	12.34376
424.542	13.88578
424.751	13.43229
424.959	13.07391
425.167	13.16285
425.376	12.97611
425.584	11.74118
425.793	11.77119
426.001	10.78009
426.209	10.84822
426.418	9.82338
426.626	9.4913
426.834	9.3547
427.042	9.65837
427.251	9.43197
427.459	10.14614
427.667	9.73146
427.875	9.01325
428.084	9.36487
428.292	10.35171
428.5	9.92965
428.708	9.05956
428.916	9.04333
429.124	9.58426
429.333	9.36326
429.541	9.44857
429.749	9.56769
429.957	9.51535
430.165	11.19467
430.373	8.79115
430.581	9.72746
430.789	10.46714
430.997	9.46541
431.205	9.20102
431.413	9.82877
431.621	9.44814
431.829	10.00229
432.037	9.61084
432.245	10.00609
432.453	9.95039
432.661	9.74477
432.869	10.83174
433.076	9.40458
433.284	9.79865
433.492	10.29868
433.7	10.55199
433.908	9.82433
434.116	10.01298
434.323	10.10795
434.531	9.94373
434.739	10.23116
434.947	10.41213
435.154	10.33611
435.362	10.02875
435.57	9.87599
435.778	9.59533
435.985	10.12258
436.193	9.67711
436.401	10.60496
436.608	9.83141
436.816	9.68805
437.023	10.75246
437.231	10.84588
437.439	10.20498
437.646	10.33335
437.854	10.12393
438.061	10.38242
438.269	9.93024
438.476	10.48955
438.684	10.16565
438.891	10.0123
439.099	9.77385
439.306	9.68863
439.514	9.70387
439.721	10.7383
439.929	10.48974
440.136	11.39063
440.343	11.44914
440.551	11.38512
440.758	12.83105
440.965	11.66616
441.173	11.46864
441.38	11.28378
441.587	11.06947
441.795	10.81936
442.002	10.49523
442.209	10.62274
442.416	10.67841
442.624	10.65655
442.831	10.4678
443.038	10.10373
443.245	9.66583
443.452	10.16742
443.66	10.51428
443.867	10.01677
444.074	9.87699
444.281	9.97841
444.488	10.23867
444.695	10.30233
444.902	10.1784
445.109	11.22684
445.316	11.03866
445.523	11.50552
445.73	11.76948
445.937	12.62342
446.144	13.15659
446.351	13.58324
446.558	12.64533
446.765	14.42784
446.972	13.79107
447.179	13.40008
447.386	13.93718
447.593	12.40169
447.8	13.16474
448.007	11.83114
448.214	11.3016
448.42	10.75319
448.627	11.08736
448.834	10.47455
449.041	10.41693
449.248	10.37278
449.454	10.76431
449.661	11.42279
449.868	10.21595
450.075	10.1773
450.281	9.40583
450.488	9.86842
450.695	9.9118
450.901	9.9774
451.108	10.08406
451.315	10.88419
451.521	10.06744
451.728	10.85968
451.935	9.92738
452.141	10.31433
452.348	10.3302
452.554	10.35876
452.761	10.24069
452.967	11.25912
453.174	10.42856
453.38	10.63998
453.587	9.81502
453.793	10.5391
454	10.8834
454.206	11.4861
454.413	10.9025
454.619	10.59137
454.825	10.05098
455.032	10.78369
455.238	10.91512
455.445	9.81901
455.651	10.48191
455.857	9.61843
456.064	10.33701
456.27	10.10464
456.476	10.21495
456.682	9.81586
456.889	10.63923
457.095	10.63416
457.301	11.6267
457.507	10.41721
457.714	10.41201
457.92	10.46177
458.126	10.09137
458.332	10.37489
458.538	10.18496
458.744	10.41903
458.951	10.39375
459.157	12.39999
459.363	11.86574
459.569	12.2875
459.775	12.99657
459.981	12.74869
460.187	13.28019
460.393	13.4686
460.599	13.64986
460.805	12.7497
461.011	11.94914
461.217	11.66326
461.423	11.42211
461.629	10.73341
461.835	11.03779
462.041	10.62629
462.247	11.56992
462.453	10.54997
462.658	10.47609
462.864	10.94776
463.07	10.69507
463.276	10.74119
463.482	10.55923
463.688	11.30687
463.893	10.41535
464.099	10.5316
464.305	11.39122
464.511	10.44846
464.716	10.62308
464.922	11.1306
465.128	10.1981
465.333	11.51471
465.539	10.99283
465.745	10.61259
465.95	10.74413
466.156	12.37568
466.362	11.34122
466.567	10.68629
466.773	10.39504
466.978	11.49915
467.184	10.29526
467.389	9.79446
467.595	10.84764
467.8	10.45097
468.006	11.54791
468.211	11.42746
468.417	10.25152
468.622	10.98849
468.828	11.19867
469.033	11.07684
469.239	12.16395
469.444	10.57241
469.649	11.23853
469.855	10.75065
470.06	10.78087
470.266	10.42461
470.471	11.03476
470.676	11.0158
470.881	10.00164
471.087	11.60658
471.292	12.28614
471.497	10.20683
471.703	10.85744
471.908	10.52208
472.113	10.83341
472.318	11.3347
472.523	10.29289
472.729	10.99785
472.934	11.14466
473.139	10.64318
473.344	11.08022
473.549	11.51321
473.754	10.57739
473.959	12.33306
474.164	10.44602
474.369	10.76855
474.575	11.27613
474.78	10.88136
474.985	10.54519
475.19	9.98118
475.395	10.46127
475.6	10.88573
475.804	11.66965
476.009	10.8754
476.214	10.89782
476.419	10.73046
476.624	10.19473
476.829	10.5158
477.034	11.3406
477.239	10.69027
477.444	11.28478
477.648	11.28378
477.853	11.36201
478.058	10.98974
478.263	10.60161
478.468	10.59833
478.672	10.60738
478.877	11.82793
479.082	11.82476
479.287	11.33925
479.491	11.07102
479.696	10.55871
479.901	11.38866
480.105	11.38747
480.31	10.69998
480.515	11.18209
480.719	12.10324
480.924	10.84982
481.128	10.61007
481.333	11.22101
481.538	11.18191
481.742	11.60387
481.947	12.71268
482.151	13.73613
482.356	14.67363
482.56	17.04923
482.765	18.90007
482.969	22.31397
483.174	25.26674
483.378	29.13086
483.582	30.89125
483.787	33.1539
483.991	34.39184
484.196	35.13145
484.4	34.75221
484.604	35.4007
484.809	32.71822
485.013	30.75403
485.217	28.06178
485.422	25.29652
485.626	22.83285
485.83	21.29067
486.034	20.26061
486.239	20.45909
486.443	20.7452
486.647	21.18513
486.851	22.19771
487.055	23.98112
487.26	24.08922
487.464	25.39348
487.668	25.14012
487.872	26.14922
488.076	26.28305
488.28	25.51531
488.484	24.03843
488.688	23.55614
488.892	22.3353
489.096	20.69001
489.3	19.22871
489.504	17.9265
489.708	16.7308
489.912	16.28455
490.116	15.83812
490.32	15.41894
490.524	16.44733
490.728	17.36816
490.932	18.31144
491.136	19.41656
491.34	20.86613
491.544	21.51506
491.748	21.72137
491.951	21.91427
492.155	21.56115
492.359	21.0662
492.563	19.5583
492.767	18.4639
492.97	16.75618
493.174	15.04286
493.378	13.74354
493.582	12.17281
493.785	11.58084
493.989	11.64991
494.193	11.61198
494.396	11.30399
494.6	11.88536
494.804	11.43917
495.007	11.07881
495.211	11.16133
495.414	11.2178
495.618	11.53114
495.822	12.05652
496.025	11.43047
496.229	11.69931
496.432	11.1787
496.636	11.51128
496.839	11.44908
497.043	12.20758
497.246	11.73402
497.45	11.41481
497.653	11.67537
497.856	11.70039
498.06	11.20942
498.263	11.46878
498.467	11.46171
498.67	11.94459
498.873	11.78131
499.077	11.53603
499.28	11.4529
499.483	11.64518
499.686	11.87718
499.89	11.61983
500.093	12.02004
500.296	11.17773
500.499	12.20738
500.703	11.42526
500.906	11.76487
501.109	12.27849
501.312	11.46237
501.515	11.41738
501.719	11.81593
501.922	12.00907
502.125	11.49724
502.328	11.39415
502.531	11.04124
502.734	11.42929
502.937	10.69751
503.14	11.62964
503.343	11.11219
503.546	11.37965
503.749	11.15046
503.952	11.86875
504.155	11.12299
504.358	11.80805
504.561	11.62142
504.764	10.93334
504.967	11.67497
505.17	11.50071
505.373	12.26105
505.576	11.59307
505.778	11.87263
505.981	11.11593
506.184	12.10523
506.387	10.74365
506.59	12.55312
506.793	11.98717
506.995	11.82687
507.198	10.70598
507.401	11.77944
507.604	11.82972
507.806	11.16754
508.009	11.18011
508.212	12.0153
508.414	11.30849
508.617	11.52337
508.82	11.61459
509.022	12.39764
509.225	11.74929
509.427	11.12908
509.63	12.30915
509.833	11.71861
510.035	11.42403
510.238	11.08421
510.44	12.2371
510.643	10.87175
510.845	12.61033
511.048	11.9233
511.25	11.39932
511.453	11.60729
511.655	11.74061
511.858	11.52416
512.06	12.05109
512.262	11.78701
512.465	12.07451
512.667	11.44983
512.869	11.15198
513.072	11.92506
513.274	11.94881
513.476	11.90341
513.679	12.07341
513.881	11.25414
514.083	12.47025
514.286	11.37967
514.488	11.33349
514.69	11.20288
514.892	10.98029
515.094	11.99021
515.297	11.19453
515.499	11.72842
515.701	11.16418
515.903	12.41636
516.105	12.50484
516.307	11.95188
516.509	10.74549
516.711	11.11243
516.913	11.63544
517.116	11.70471
517.318	11.48061
517.52	12.22962
517.722	11.96054
517.924	11.19373
518.126	11.91865
518.328	11.70487
518.529	12.35165
518.731	13.25182
518.933	11.87447
519.135	12.14494
519.337	12.78562
519.539	12.14431
519.741	11.09041
519.943	11.67562
520.145	11.61555
520.346	12.15949
520.548	11.62017
520.75	11.8603
520.952	11.58412
521.153	11.89056
521.355	11.85742
521.557	11.2652
521.759	11.75258
521.96	11.65913
522.162	11.23375
522.364	12.15601
522.565	11.40472
522.767	12.11204
522.969	12.11364
523.17	11.9752
523.372	11.96575
523.573	11.52434
523.775	11.54152
523.977	11.34157
524.178	12.62064
524.38	11.40968
524.581	11.99547
524.783	11.61602
524.984	12.08701
525.186	11.87462
525.387	12.57948
525.589	12.69094
525.79	12.85245
525.991	13.00466
526.193	13.60069
526.394	13.15214
526.596	14.0592
526.797	14.32905
526.998	14.08841
527.2	14.76885
527.401	16.75964
527.602	18.17286
527.803	20.72366
528.005	22.38162
528.206	24.26918
528.407	25.77215
528.608	26.38188
528.81	26.93724
529.011	26.79246
529.212	27.59596
529.413	26.2785
529.614	24.83645
529.815	23.39183
530.017	21.5461
530.218	19.12463
530.419	17.10948
530.62	16.28424
530.821	15.31533
531.022	13.84521
531.223	14.23205
531.424	13.85667
531.625	13.88153
531.826	13.57095
532.027	14.12599
532.228	15.42128
532.429	15.858
532.63	16.44615
532.831	17.58078
533.032	18.02235
533.233	18.84804
533.433	18.65536
533.634	19.00821
533.835	18.39153
534.036	17.82602
534.237	17.06037
534.438	16.00405
534.638	14.5428
534.839	13.82935
535.04	13.2748
535.241	12.4332
535.441	13.0381
535.642	12.70937
535.843	12.22222
536.043	12.5492
536.244	12.7919
536.445	13.17985
536.645	14.05964
536.846	13.7385
537.047	14.09902
537.247	13.03794
537.448	12.73488
537.648	12.40613
537.849	12.07415
538.049	11.97177
538.25	12.25491
538.451	12.2124
538.651	11.62866
538.851	12.29515
539.052	12.57298
539.252	12.35521
539.453	11.9799
539.653	12.04407
539.854	11.87059
540.054	12.06423
540.254	13.91331
540.455	15.34599
540.655	15.82848
540.855	17.84569
541.056	19.15076
541.256	19.41937
541.456	20.52041
541.657	20.44714
541.857	21.01092
542.057	19.88795
542.257	19.28451
542.458	19.17529
542.658	18.47785
542.858	16.47247
543.058	16.02278
543.258	15.23065
543.458	13.6063
543.659	13.02438
543.859	13.27945
544.059	12.84147
544.259	12.12454
544.459	12.7197
544.659	12.04556
544.859	12.41561
545.059	11.82757
545.259	12.38484
545.459	12.19301
545.659	12.575
545.859	12.18437
546.059	12.26753
546.259	11.76833
546.459	11.55428
546.659	11.76878
546.859	12.55265
547.059	12.22892
547.258	12.3397
547.458	12.39436
547.658	11.63194
547.858	11.58321
548.058	12.14896
548.258	11.95159
548.457	11.59352
548.657	13.229
548.857	11.9624
549.057	12.51017
549.256	12.21817
549.456	11.66719
549.656	10.79041
549.855	12.87907
550.055	11.72732
550.255	12.78143
550.454	12.18466
550.654	12.34269
550.853	12.77456
551.053	12.36673
551.253	11.87681
551.452	12.18547
551.652	11.13792
551.851	11.16227
552.051	11.65881
552.25	11.51851
552.45	11.5511
552.649	11.67501
552.849	11.51373
553.048	11.90074
553.248	12.36505
553.447	11.3363
553.646	12.37478
553.846	13.34452
554.045	12.73459
554.244	11.21167
554.444	12.68917
554.643	11.43916
554.842	12.76682
555.042	12.99521
555.241	11.55686
555.44	11.10011
555.64	12.08115
555.839	12.81026
556.038	12.21326
556.237	11.32046
556.436	11.94512
556.636	11.95845
556.835	11.29557
557.034	12.73022
557.233	11.57248
557.432	10.86192
557.631	12.41515
557.83	11.52759
558.029	11.51226
558.228	11.29608
558.427	11.19434
558.626	12.01508
558.825	11.06291
559.024	11.52108
559.223	12.96743
559.422	11.70808
559.621	11.95783
559.82	10.15958
560.019	11.58941
560.218	11.2865
560.417	10.17056
560.616	11.34165
560.815	13.8741
561.014	10.8452
561.212	12.85705
561.411	11.7092
561.61	10.97035
561.809	11.50212
562.008	12.9156
562.206	11.55141
562.405	12.05525
562.604	11.54521
562.803	11.86989
563.001	11.60874
563.2	10.84766
563.399	12.0056
563.597	11.01253
563.796	11.53059
563.995	10.90095
564.193	11.96742
564.392	11.44732
564.59	13.05112
564.789	10.64345
564.988	11.61014
565.186	11.88911
565.385	11.69812
565.583	11.61715
565.782	11.77344
565.98	11.76319
566.179	11.8563
566.377	11.31665
566.575	11.41082
566.774	12.69841
566.972	12.43167
567.171	13.12674
567.369	12.72664
567.567	12.03507
567.766	11.95087
567.964	10.63888
568.162	12.23156
568.361	12.85527
568.559	11.60627
568.757	11.99454
568.956	11.74055
569.154	11.75493
569.352	12.07475
569.55	11.56027
569.748	11.90108
569.947	11.23566
570.145	10.93871
570.343	11.10625
570.541	12.66845
570.739	11.01035
570.937	11.84855
571.135	12.11131
571.333	13.39247
571.532	13.13435
571.73	12.04685
571.928	12.55369
572.126	12.32573
572.324	11.73654
572.522	12.66645
572.72	13.62042
572.918	11.99122
573.116	12.2555
573.313	11.70298
573.511	11.89338
573.709	11.49518
573.907	12.43512
574.105	11.55151
574.303	10.9281
574.501	10.90249
574.699	12.14301
574.896	12.19912
575.094	12.35791
575.292	11.03485
575.49	12.48567
575.688	11.67408
575.885	12.84172
576.083	13.4502
576.281	12.41008
576.478	11.3653
576.676	12.21987
576.874	10.83773
577.071	11.83198
577.269	13.35834
577.467	11.5471
577.664	11.65557
577.862	12.40051
578.059	11.07756
578.257	12.2442
578.455	11.42724
578.652	11.64554
578.85	10.32981
579.047	11.76949
579.245	11.3198
579.442	11.70318
579.64	11.32962
579.837	10.36818
580.034	13.5704
580.232	11.32992
580.429	10.62897
580.627	12.04614
580.824	12.47659
581.021	12.0218
581.219	11.13937
581.416	11.02387
581.613	12.643
581.811	12.49888
582.008	10.91854
582.205	12.27721
582.402	11.85412
582.6	13.33002
582.797	11.6196
582.994	11.83171
583.191	12.33357
583.388	11.48894
583.586	12.23463
583.783	12.53133
583.98	10.66675
584.177	11.68807
584.374	9.66441
584.571	11.33449
584.768	11.51896
584.965	11.26464
585.162	12.13902
585.359	12.85002
585.556	11.64842
585.753	11.8902
585.95	10.52716
586.147	10.74566
586.344	11.93725
586.541	11.33235
586.738	10.58427
586.935	11.42885
587.132	11.10994
587.329	12.28693
587.526	11.4347
587.722	15.70695
587.919	10.50465
588.116	12.09064
588.313	12.67612
588.51	13.4094
588.706	11.53906
588.903	12.05832
589.1	12.61031
589.297	13.99269
589.493	11.48598
589.69	12.24167
589.887	11.25289
590.083	10.67532
590.28	11.17797
590.477	12.55947
590.673	12.12921
590.87	12.71489
591.067	11.12528
591.263	12.00312
591.46	12.07228
591.656	11.3532
591.853	12.99293
592.049	11.04224
592.246	11.28193
592.442	12.64507
592.639	12.73427
592.835	10.79546
593.032	11.98814
593.228	10.49882
593.425	10.58905
593.621	10.4706
593.817	12.10155
594.014	11.02764
594.21	11.86073
594.406	12.56046
594.603	12.19878
594.799	11.30946
594.995	10.2313
595.192	12.68107
595.388	11.55201
595.584	11.43679
595.78	10.86199
595.977	14.08058
596.173	13.11233
596.369	11.65709
596.565	11.27873
596.761	10.93931
596.957	13.0477
597.154	11.52574
597.35	11.56605
597.546	11.60948
597.742	12.44785
597.938	12.20367
598.134	11.39877
598.33	12.19345
598.526	12.98623
598.722	12.00522
598.918	13.31126
599.114	12.33351
599.31	10.75904
599.506	11.74263
599.702	11.04486
599.898	11.94966
600.094	12.46013
600.29	12.33915
600.485	12.25411
600.681	11.08948
600.877	13.17836
601.073	11.77781
601.269	13.65906
601.465	13.0947
601.66	10.93334
601.856	10.14197
602.052	13.70517
602.248	11.63106
602.443	10.34768
602.639	10.99326
602.835	11.1904
603.03	11.28969
603.226	12.67861
603.422	11.31848
603.617	11.8713
603.813	11.81826
604.009	11.62863
604.204	12.9642
604.4	11.0177
604.595	13.04618
604.791	11.37681
604.986	12.32493
605.182	11.45626
605.377	11.88337
605.573	11.87638
605.768	12.00762
605.964	12.54453
606.159	12.56195
606.355	12.83378
606.55	11.57331
606.746	12.86718
606.941	11.88843
607.136	13.54033
607.332	14.30288
607.527	10.8551
607.722	12.2316
607.918	11.64936
608.113	11.17918
608.308	12.79557
608.503	12.45751
608.699	12.45648
608.894	12.61364
609.089	11.47507
609.284	12.53786
609.479	11.81955
609.675	12.66483
609.87	11.97103
610.065	12.83927
610.26	12.81072
610.455	12.73724
610.65	12.075
610.845	12.51222
611.04	12.96237
611.235	11.81858
611.43	11.79686
611.625	11.06438
611.82	13.23623
612.015	11.24669
612.21	13.60904
612.405	10.722
612.6	13.60619
612.795	13.38843
612.99	12.6603
613.185	10.7381
613.38	11.33072
613.575	12.13421
613.77	14.90026
613.965	10.44668
614.159	11.32424
614.354	13.3894
614.549	13.02061
614.744	12.50581
614.938	10.93564
615.133	10.5466
615.328	13.5971
615.523	13.26179
615.717	15.01698
615.912	11.337
616.107	12.04286
616.301	11.81987
616.496	11.23578
616.691	13.68372
616.885	12.70486
617.08	15.29858
617.274	13.10456
617.469	14.18575
617.664	12.77554
617.858	11.62362
618.053	12.44402
618.247	11.81565
618.442	9.88931
618.636	13.62446
618.831	11.54648
619.025	11.34388
619.219	15.30606
619.414	8.83362
619.608	11.86825
619.803	11.20902
619.997	14.50706
620.191	13.17729
620.386	12.26959
620.58	11.93082
620.774	10.156
620.969	10.44741
621.163	12.1661
621.357	10.83723
621.551	11.85821
621.746	11.99609
621.94	11.81622
622.134	15.91301
622.328	14.40571
622.522	10.47494
622.716	13.30871
622.911	13.2927
623.105	13.20542
623.299	12.88514
623.493	15.71163
623.687	11.2425
623.881	11.33823
624.075	12.78141
624.269	13.52051
624.463	9.96897
624.657	10.56669
624.851	12.85017
625.045	12.94268
625.239	13.21356
625.433	11.7721
625.627	14.13481
625.821	11.71851
626.015	11.24734
626.209	12.39393
626.403	10.81393
626.596	12.76888
626.79	13.40098
626.984	11.17447
627.178	13.08143
627.372	12.92148
627.565	13.2017
627.759	10.87904
627.953	11.39751
628.147	12.88963
628.34	13.15957
628.534	14.97525
628.728	12.05237
628.921	13.53319
629.115	13.16394
629.309	13.51755
629.502	13.75091
629.696	12.49135
629.89	12.05296
630.083	12.6973
630.277	12.58976
630.47	14.17709
630.664	11.92603
630.857	10.75133
631.051	13.34384
631.244	13.64827
631.438	13.55459
631.631	11.52129
631.825	14.17865
632.018	12.86676
632.212	14.56731
632.405	13.89413
632.598	11.5045
632.792	12.75207
632.985	9.88558
633.178	12.12919
633.372	12.36934
633.565	12.32101
633.758	14.06563
633.952	11.56221
634.145	11.4572
634.338	12.44364
634.531	12.04198
634.724	11.50613
634.918	12.63945
635.111	12.14824
635.304	12.21582
635.497	15.51546
635.69	13.00783
635.883	13.85491
636.077	11.39642
636.27	13.10223
636.463	12.89448
636.656	12.69145
636.849	12.26865
637.042	13.28288
637.235	15.11725
637.428	13.65612
637.621	13.1597
637.814	14.32597
638.007	14.61592
638.2	14.47879
638.393	15.07041
638.586	10.96593
638.778	12.12342
638.971	12.46739
639.164	14.77952
639.357	13.10093
639.55	14.80126
639.743	13.83279
639.935	13.30043
640.128	15.96326
640.321	14.18279
640.514	13.08457
640.707	16.04177
640.899	14.043
641.092	10.76147
641.285	28.32339
641.477	9.96757
641.67	16.80743
641.863	14.81556
642.055	13.23404
642.248	12.87484
642.441	12.40698
642.633	13.92588
642.826	14.4389
643.018	15.06237
643.211	15.89723
643.403	16.22848
643.596	16.50598
643.788	15.65033
643.981	12.39414
644.173	14.51314
644.366	12.48786
644.558	10.37693
644.751	14.48168
644.943	11.33398
645.135	15.67528
645.328	15.77448
645.52	14.23373
645.712	14.8288
645.905	18.24806
646.097	11.60293
646.289	13.83428
646.482	16.87865
646.674	12.1704
646.866	15.15305
647.058	14.00402
647.251	11.52997
647.443	12.62839
647.635	12.75162
647.827	11.66319
648.019	12.05307
648.211	13.04456
648.404	13.40962
648.596	16.14092
648.788	13.85083
648.98	13.82826
649.172	14.24645
649.364	14.00577
649.556	10.90471
649.748	17.67523
649.94	12.03006
650.132	14.68212
650.324	12.26315
650.516	12.26097
650.708	15.29444
650.9	11.55726
651.092	11.14367
651.284	11.34766
651.476	11.77047
651.667	14.79902
651.859	16.10187
652.051	13.48939
652.243	13.77514
652.435	12.90635
652.627	14.5206
652.818	14.44777
653.01	11.12583
653.202	12.32104
653.394	12.81472
653.585	13.94249
653.777	21.04256
653.969	16.13677
654.16	15.65004
654.352	11.94208
654.544	13.6016
654.735	15.62045
654.927	13.81954
655.118	16.16276
655.31	15.17117
655.502	15.83877
655.693	13.41713
655.885	14.8524
656.076	16.33612
656.268	14.15993
656.459	16.26714
656.651	16.56646
656.842	13.11577
657.034	13.05182
657.225	15.54508
657.416	16.33375
657.608	16.36717
657.799	14.08872
657.99	16.59731
658.182	12.95552
658.373	13.17542
658.564	16.03492
658.756	14.87522
658.947	13.98025
659.138	12.83673
659.33	13.58422
659.521	13.06907
659.712	14.11058
659.903	13.82436
660.094	13.44398
660.286	12.03578
660.477	17.28459
660.668	15.32093
660.859	13.97516
661.05	11.86315
661.241	14.83061
661.432	14.74133
661.623	13.84662
661.814	13.64784
662.006	11.87453
662.197	14.49392
662.388	16.28613
662.579	14.84931
662.77	19.26248
662.96	19.21026
663.151	16.38648
663.342	11.17286
663.533	15.63504
663.724	14.4177
663.915	17.74943
664.106	14.59033
664.297	18.17617
664.488	15.6768
664.678	13.14267
664.869	16.21317
665.06	16.52515
665.251	14.86604
665.442	15.88096
665.632	12.55265
665.823	18.43322
666.014	9.43992
666.204	15.74381
666.395	17.22811
666.586	19.21906
666.776	15.90174
666.967	18.31469
667.158	14.88328
667.348	17.73171
667.539	13.10708
667.729	16.88531
667.92	13.76296
668.111	16.85135
668.301	16.32828
668.492	14.64236
668.682	15.41758
668.873	14.8597
669.063	12.69654
669.253	15.62438
669.444	18.01474
669.634	14.79596
669.825	18.53859
670.015	17.34575
670.206	13.75041
670.396	19.18001
670.586	14.84699
670.777	16.19187
670.967	11.00623
671.157	14.32571
671.347	13.91971
671.538	18.40339
671.728	16.71401
671.918	19.45068
672.108	17.17798
672.299	14.84178
672.489	15.75591
672.679	13.65914
672.869	16.9772
673.059	20.19007
673.249	16.65522
673.44	13.36331
673.63	14.92052
673.82	17.59319
674.01	12.94682
674.2	16.26164
674.39	21.34125
674.58	16.8989
674.77	15.8929
674.96	14.96807
675.15	24.3801
675.34	18.24012
675.53	16.05284
675.72	15.11765
675.91	12.01415
676.099	19.92881
676.289	20.96441
676.479	18.26106
676.669	14.48177
676.859	16.72795
677.049	14.31697
677.238	15.70681
677.428	19.53537
677.618	16.72842
677.808	20.47998
677.997	16.88349
678.187	13.85021
678.377	16.1489
678.567	14.79563
678.756	15.06591
678.946	15.99729
679.136	13.54941
679.325	15.10982
679.515	14.00986
679.704	13.62584
679.894	17.88854
680.084	17.09446
680.273	18.49398
680.463	14.4722
680.652	14.44795
680.842	16.08923
681.031	18.3418
681.221	14.48048
681.41	17.25192
681.6	16.0506
681.789	17.65231
681.978	18.79383
682.168	17.05178
682.357	16.77046
682.547	17.4796
682.736	17.1065
682.925	19.34327
683.115	18.96624
683.304	18.12333
683.493	16.81647
683.682	17.70299
683.872	17.63345
684.061	19.08911
684.25	17.93124
684.439	22.22624
684.629	18.56271
684.818	24.89994
685.007	16.6125
685.196	16.29357
685.385	21.26097
685.574	17.86494
685.763	17.91656
685.952	17.4779
686.142	14.49122
686.331	20.34814
686.52	13.91861
686.709	22.04388
686.898	22.11708
687.087	19.05922
687.276	21.30356
687.465	20.63687
687.654	16.75126
687.842	21.13436
688.031	14.43354
688.22	21.08831
688.409	18.14917
688.598	18.2669
688.787	23.89213
688.976	17.85521
689.165	22.85809
689.353	16.91804
689.542	19.09949
689.731	20.77013
689.92	23.40506
690.108	20.28526
690.297	16.74812
690.486	18.32357
690.675	19.8091
690.863	22.8541
691.052	22.36804
691.241	18.94366
691.429	19.17722
691.618	21.97048
691.806	15.71919
691.995	17.95253
692.184	18.33576
692.372	17.70558
692.561	18.56077
692.749	19.33485
692.938	27.95679
693.126	19.67109
693.315	17.9791
693.503	20.17634
693.692	21.54164
693.88	20.86304
694.068	24.38334
694.257	19.51892
694.445	20.48981
694.634	13.776
694.822	21.13521
695.01	22.39519
695.199	24.82335
695.387	23.04335
695.575	22.31419
695.763	18.84621
695.952	17.97671
696.14	15.35772
696.328	17.29572
696.516	19.1469
696.705	20.161
696.893	19.5581
697.081	14.70381
697.269	21.59392
697.457	15.93707
697.645	15.68271
697.833	20.96734
698.021	17.02997
698.21	17.48931
698.398	18.11952
698.586	15.94761
698.774	15.67116
698.962	18.34559
699.15	16.15908
699.338	15.25923
699.526	19.79805
699.714	16.86658
699.901	17.10146
700.089	20.56069
700.277	16.82634
700.465	18.29317
700.653	20.54303
700.841	19.57426
701.029	16.53002
701.217	22.94813
701.404	19.33199
701.592	23.44817
701.78	26.48024
701.968	18.64885
702.155	19.34369
702.343	15.68529
702.531	23.50639
702.718	20.37146
702.906	17.79956
703.094	18.42147
703.281	23.87481
703.469	19.479
703.657	22.98654
703.844	30.04401
704.032	26.35321
704.219	18.67364
704.407	21.92609
704.595	24.7653
704.782	21.02543
704.97	20.34785
705.157	20.20526
705.345	26.86156
705.532	32.80969
705.719	24.41552
705.907	26.42987
706.094	23.47619
706.282	29.58913
706.469	23.47123
706.656	24.66991
706.844	23.45007
707.031	28.03082
707.218	26.99709
707.406	30.27503
707.593	29.05392
707.78	27.69113
707.968	25.72219
708.155	23.4208
708.342	28.15607
708.529	28.67299
708.716	27.0916
708.904	31.15189
709.091	28.00433
709.278	22.93115
709.465	32.84468
709.652	30.77387
709.839	30.30597
710.026	25.84183
710.213	20.15749
710.4	26.13967
710.587	27.33604
710.774	28.79472
710.961	28.89258
711.148	25.42672
711.335	28.5731
711.522	24.95405
711.709	27.20351
711.896	33.0087
712.083	28.95159
712.27	23.1579
712.457	26.96177
712.644	21.22738
712.831	32.90359
713.017	26.70695
713.204	27.89591
713.391	23.42264
713.578	28.57303
713.765	30.59517
713.951	26.26645
714.138	36.34495
714.325	26.01078
714.512	24.61645
714.698	21.15625
714.885	29.05857
715.072	24.29594
715.258	23.70441
715.445	21.43982
715.631	28.20686
715.818	14.71804
716.005	20.85525
716.191	25.4204
716.378	21.37072
716.564	26.26399
716.751	19.75797
716.937	21.70973
717.124	26.6614
717.31	19.9333
717.497	30.51428
717.683	20.27357
717.869	31.19929
718.056	21.57641
718.242	24.71376
718.429	22.59566
718.615	19.24087
718.801	22.94811
718.988	28.25712
719.174	25.25517
719.36	21.77724
719.547	28.46848
719.733	24.31766
719.919	24.80167
720.105	25.75029
720.291	23.27035
720.478	24.47043
720.664	22.95123
720.85	21.97655
721.036	35.10212
721.222	30.67508
721.408	23.26113
721.595	30.74453
721.781	30.86045
721.967	28.72389
722.153	30.71811
722.339	26.76138
722.525	26.05981
722.711	19.67447
722.897	19.63163
723.083	22.75621
723.269	28.8642
723.455	36.735
723.641	42.88081
723.827	24.95238
724.012	26.6193
724.198	24.55529
724.384	30.07933
724.57	26.10129
724.756	18.54313
724.942	16.91308
725.127	29.18998
725.313	29.52509
725.499	29.68799
725.685	33.30182
725.87	26.44889
726.056	20.95445
726.242	30.04472
726.428	19.07868
726.613	29.01897
726.799	23.46349
726.985	20.38173
727.17	18.03522
727.356	34.52783
727.541	20.97613
727.727	24.03124
727.913	28.53857
728.098	22.6861
728.284	28.40504
728.469	19.89585
728.655	21.96276
728.84	29.93764
729.026	28.60289
729.211	28.61924
729.397	26.87076
729.582	28.99479
729.767	25.17842
729.953	26.82387
730.138	31.22001
730.323	15.31103
730.509	21.04395
730.694	33.02994
730.879	27.8979
731.065	26.36127
731.25	36.02927
731.435	28.1612
731.621	19.57682
731.806	23.41303
731.991	26.44963
732.176	19.57624
732.361	32.41597
732.547	26.87386
732.732	19.19639
732.917	36.23204
733.102	20.48909
733.287	23.03725
733.472	25.60357
733.657	25.47401
733.842	19.31066
734.027	22.89565
734.212	24.93573
734.397	22.17302
734.582	25.83859
734.767	29.5233
734.952	32.87305
735.137	15.17962
735.322	32.38293
735.507	27.8348
735.692	26.90392
735.877	36.72236
736.062	34.73287
736.247	27.53759
736.431	25.24979
736.616	31.45118
736.801	27.45243
736.986	26.30532
737.171	21.4593
737.355	20.6471
737.54	33.17321
737.725	26.21418
737.909	40.63123
738.094	24.06141
738.279	30.32717
738.463	24.60869
738.648	29.15792
738.833	28.53547
739.017	37.36629
739.202	26.12705
739.386	25.26296
739.571	22.39123
739.756	30.59855
739.94	26.02026
740.125	28.93574
740.309	22.75986
740.494	30.34911
740.678	27.03438
740.863	29.23797
741.047	27.47664
741.231	34.86239
741.416	23.69617
741.6	35.57408
741.785	22.4567
741.969	31.58639
742.153	35.37271
742.338	16.6081
742.522	26.76516
742.706	31.99136
742.89	20.60661
743.075	26.94937
743.259	34.15761
743.443	33.54093
743.627	34.09063
743.812	39.52864
743.996	19.62445
744.18	26.00393
744.364	24.91211
744.548	40.60287
744.732	26.19608
744.916	32.44551
745.1	31.08745
745.285	26.53472
745.469	31.18866
745.653	36.65841
745.837	22.14361
746.021	40.8905
746.205	34.38774
746.389	27.75131
746.573	26.99654
746.757	35.60241
746.94	24.5164
747.124	35.18043
747.308	22.28396
747.492	33.78989
747.676	23.86928
747.86	43.17386
748.044	25.24847
748.227	18.56078
748.411	51.43285
748.595	28.5088
748.779	23.89654
748.963	30.46168
749.146	29.82821
749.33	23.57925
749.514	23.80656
749.697	35.27214
749.881	24.86519
750.065	22.65562
750.248	28.72679
750.432	42.07662
750.616	27.5557
750.799	22.74307
750.983	43.46739
751.166	42.69191
751.35	20.47837
751.533	34.57864
751.717	38.89741
751.9	37.63705
752.084	26.48632
752.267	23.99743
752.451	24.40753
752.634	29.62573
752.818	32.73704
753.001	33.2024
753.184	36.19574
753.368	30.55978
753.551	11.09768
753.734	23.87169
753.918	44.23642
754.101	26.04684
754.284	32.56725
754.467	25.97001
754.651	25.01248
754.834	24.6089
755.017	35.35933
755.2	36.33318
755.384	22.73917
755.567	32.77712
755.75	34.64767
755.933	26.34768
756.116	33.80225
756.299	25.93641
756.482	23.70999
756.665	32.47952
756.848	27.97955
757.032	30.71986
757.215	21.3702
757.398	23.52005
757.581	22.99795
757.764	46.60297
757.947	29.32885
758.129	34.0972
758.312	14.10388
758.495	27.21531
758.678	29.20745
758.861	26.48077
759.044	40.78626
759.227	23.0789
759.41	24.20682
759.592	33.66912
759.775	27.01508
759.958	34.41456
760.141	21.96878
760.324	45.37365
760.506	38.48803
760.689	34.1492
760.872	45.06933
761.054	32.18307
761.237	28.2061
761.42	29.83132
761.602	34.67926
761.785	31.20906
761.968	36.59568
762.15	41.4493
762.333	28.35882
762.515	32.42895
762.698	27.74417
762.88	35.77901
763.063	31.27426
763.245	36.61969
763.428	24.0821
763.61	26.0173
763.793	22.39897
763.975	31.54922
764.158	27.16001
764.34	25.6315
764.522	23.9704
764.705	28.25146
764.887	38.63532
765.069	20.31642
765.252	32.63761
765.434	32.84824
765.616	30.07212
765.799	25.34179
765.981	33.50776
766.163	24.30526
766.345	37.86885
766.528	25.29136
766.71	16.24551
766.892	31.19551
767.074	38.79793
767.256	27.56522
767.438	41.57299
767.62	32.62583
767.802	46.07485
767.985	33.94873
768.167	43.18894
768.349	27.24948
768.531	34.51052
768.713	32.46449
768.895	35.17346
769.077	32.38014
769.259	50.6201
769.441	66.67693
769.623	36.21774
769.804	41.89674
769.986	38.80427
770.168	46.85535
770.35	56.77206
770.532	43.80696
770.714	48.04276
770.896	45.88656
771.077	23.3724
771.259	49.56193
771.441	44.03405
771.623	51.85109
771.804	63.03812
771.986	24.03594
772.168	35.44282
772.35	49.24303
772.531	64.26836
772.713	43.9291
772.894	53.45552
773.076	41.81088
773.258	37.48492
773.439	55.2158
773.621	62.11057
773.802	31.33101
773.984	36.04145
774.166	44.53918
774.347	56.676
774.529	53.18814
774.71	22.89955
774.891	40.46585
775.073	36.26563
775.254	54.55103
775.436	34.56032
775.617	68.4309
775.799	36.93814
775.98	56.40639
776.161	62.67335
776.343	61.99403
776.524	41.74636
776.705	40.32339
776.886	22.94903
777.068	48.18661
777.249	91.1489
777.43	65.2562
777.611	31.02399
777.793	37.76089
777.974	62.78666
778.155	36.52278
778.336	31.36146
778.517	71.38661
778.698	35.50596
778.879	23.21725
779.061	13.80243
779.242	46.23738
779.423	49.08302
779.604	36.72708
779.785	39.95793
779.966	45.22578
780.147	55.40227
780.328	52.50104
780.509	75.6172
780.69	54.33
780.871	35.57151
781.051	26.405
781.232	44.4167
781.413	44.78916
781.594	39.15982
781.775	38.09479
781.956	34.86295
782.137	23.57043
782.317	36.8798
782.498	43.76659
782.679	44.22205
782.86	46.06817
783.04	36.24475
783.221	44.5144
783.402	66.14905
783.583	41.24136
783.763	54.0488
783.944	35.93286
784.124	29.52641
784.305	63.84561
784.486	49.77072
784.666	41.84043
784.847	26.6433
785.027	86.61322
785.208	34.27007
785.388	34.44877
785.569	35.09583
785.749	38.05532
785.93	34.77936
786.11	26.81377
786.291	50.20916
786.471	44.11705
786.652	54.48837
786.832	39.86734
787.012	45.38925
787.193	29.92106
787.373	42.9023
787.553	38.65813
787.734	45.82381
787.914	37.73826
788.094	54.35421
788.275	46.81733
788.455	38.52633
788.635	28.96746
788.815	45.4038
788.995	31.84684
789.176	25.43251
789.356	34.32332
789.536	38.96752
789.716	47.60555
789.896	34.94458
790.076	34.90193
790.256	45.6768
790.436	18.95936
790.616	30.36492
790.796	44.71731
790.976	38.54858
791.156	33.34276
791.336	49.54547
791.516	46.9812
791.696	38.56367
791.876	26.49654
792.056	43.8344
792.236	55.53114
792.416	51.16199
792.596	47.45238
792.776	48.14403
792.956	48.74253
793.135	64.00141
793.315	31.98973
793.495	55.6841
793.675	50.93771
793.854	52.098
794.034	54.12587
794.214	30.6541
794.394	52.09162
794.573	58.18217
794.753	44.04899
794.933	32.2788
795.112	45.12459
795.292	54.77278
795.472	64.78598
795.651	28.21389
795.831	42.08253
796.01	38.58386
796.19	39.7822
796.369	43.01395
796.549	47.68035
796.728	40.15343
796.908	27.48757
797.087	28.60272
797.267	39.76806
797.446	30.64227
797.626	48.08138
797.805	46.23176
797.984	33.80359
798.164	52.08131
798.343	32.62278
798.522	45.15906
798.702	44.30134
798.881	28.96123
799.06	39.69767
799.239	24.22703
799.419	33.14773
799.598	63.34174
799.777	48.00255
799.956	56.54519
800.136	38.7717
800.315	31.76989
800.494	46.34077
800.673	55.12916
800.852	51.00147
801.031	57.66726
801.21	50.97062
801.389	36.91551
801.568	44.02866
801.747	67.9932
801.926	43.09038
802.105	61.66911
802.284	35.53325
802.463	61.74573
802.642	47.34307
802.821	45.67426
803	60.95518
803.179	57.1547
803.358	54.56056
803.537	35.47032
803.716	42.76124
803.895	37.30354
804.073	41.01779
804.252	34.18957
804.431	49.56307
804.61	42.29927
804.789	53.8926
804.967	37.2423
805.146	36.87275
805.325	72.38125
805.503	47.02318
805.682	28.43829
805.861	87.23156
806.039	60.80259
806.218	37.58672
806.397	45.53247
806.575	43.24494
806.754	47.47879
806.932	30.99904
807.111	57.65224
807.289	53.38893
807.468	44.96755
807.646	56.9173
807.825	50.04671
808.003	46.88423
808.182	55.74881
808.36	45.23792
808.539	34.48071
808.717	63.66554
808.895	35.32664
809.074	47.71571
809.252	44.99598
809.43	49.82264
809.609	59.56705
809.787	62.40193
809.965	41.14875
810.144	44.05854
810.322	42.39929
810.5	48.63219
810.678	39.99565
810.856	74.75811
811.035	57.12273
811.213	51.60799
811.391	65.12057
811.569	48.57193
811.747	97.52116
811.925	58.14642
812.103	37.60191
812.281	42.96654
812.459	68.93888
812.637	69.04415
812.816	60.33454
812.994	74.71744
813.171	64.95648
813.349	53.3718
813.527	59.09992
813.705	65.09184
813.883	82.7246
814.061	57.47578
814.239	71.36278
814.417	78.80195
814.595	56.40044
814.773	51.77327
814.95	49.50944
815.128	54.17445
815.306	49.65558
815.484	48.56057
815.662	34.20701
815.839	31.11489
816.017	39.77128
816.195	62.81403
816.372	42.06596
816.55	58.9211
816.728	68.25442
816.905	43.52537
817.083	71.13442
817.261	48.06056
817.438	90.75586
817.616	71.61422
817.793	39.88572
817.971	58.0998
818.148	56.32885
818.326	66.00886
818.503	49.72478
818.681	70.70216
818.858	43.32557
819.036	46.79834
819.213	51.06676
819.391	39.96391
819.568	38.74358
819.745	34.14031
819.923	56.83539
820.1	42.4984
820.277	38.07546
820.455	41.24122
820.632	44.937
820.809	47.85326
820.986	33.27348
821.164	28.3638
821.341	27.16211
821.518	36.97192
821.695	28.49162
821.872	26.8648
822.05	24.50782
822.227	21.29496
822.404	22.48791
822.581	25.1143
822.758	22.46067
822.935	22.6095
823.112	24.55007
823.289	21.91672
823.466	24.92742
823.643	23.88855
823.82	26.78294
823.997	25.21311
824.174	27.94378
824.351	34.73325
824.528	32.57897
824.705	30.71735
824.882	32.92884
825.059	40.12541
825.236	31.48172
825.412	33.30571
825.589	37.27481
825.766	50.1478
825.943	34.64046
826.12	37.73524
826.296	29.6589
826.473	35.7545
826.65	35.03728
826.827	40.04339
827.003	29.44854
827.18	32.71273
827.357	35.3686
827.533	30.95492
827.71	21.35787
827.887	28.39078
828.063	31.02476
828.24	27.28326
828.416	33.7006
828.593	29.2773
828.769	38.06823
828.946	38.51026
829.122	41.19311
829.299	39.74798
829.475	28.72671
829.652	38.8252
829.828	60.13148
830.005	41.01403
830.181	53.45439
830.357	41.00742
830.534	55.76605
830.71	44.02457
830.886	54.35325
831.063	54.37173
831.239	66.46331
831.415	35.26921
831.592	64.88902
831.768	43.9868
831.944	39.82937
832.12	72.00902
832.296	66.61012
832.473	55.88305
832.649	38.9818
832.825	57.43138
833.001	37.34956
833.177	50.17675
833.353	46.50508
833.529	30.18612
833.705	43.57958
833.881	30.13664
834.058	30.20898
834.234	32.03324
834.41	31.46691
834.586	26.49456
834.761	30.28804
834.937	32.68989
835.113	34.68711
835.289	29.99263
835.465	34.91904
835.641	31.9037
835.817	34.81062
835.993	54.30237
836.169	33.75028
836.344	46.42695
836.52	50.16345
836.696	47.25466
836.872	40.1191
837.048	94.47023
837.223	45.38672
837.399	73.89294
837.575	61.20812
837.75	56.87031
837.926	76.15211
838.102	107.52233
838.277	89.26058
838.453	121.12435
838.628	118.75394
838.804	49.86463
838.98	100.4566
839.155	56.08192
839.331	74.89472
839.506	54.81937
839.682	56.25053
839.857	75.91146
840.033	88.00733
840.208	44.43779
840.384	27.34162
840.559	46.48978
840.734	66.63943
840.91	84.72724
841.085	53.68046
841.26	53.83671
841.436	48.17172
841.611	49.06209
841.786	72.4125
841.962	92.69789
842.137	57.82125
842.312	39.6631
842.487	53.7336
842.663	48.53636
842.838	55.07927
843.013	155.02766
843.188	80.21485
843.363	67.37054
843.538	137.90911
843.714	131.46724
843.889	135.36825
844.064	153.13833
844.239	119.9137
844.414	134.87568
844.589	95.85203
844.764	166.40891
844.939	162.74839
845.114	174.64771
845.289	165.62679
845.464	229.56901
845.639	158.06272
845.814	81.33341
845.989	98.58093
846.163	123.40244
846.338	123.35166
846.513	161.57901
846.688	110.37822
846.863	116.88294
847.038	100.45526
847.212	119.94518
847.387	117.77563
847.562	124.45021
847.737	152.55364
847.911	61.13038
848.086	74.68828
848.261	255.35119
848.435	107.47701
848.61	159.3401
848.785	86.72305
848.959	165.2827
849.134	224.99017
849.308	221.60724
849.483	125.54929
849.658	189.06982
849.832	103.51861
850.007	93.98134
850.181	251.58286
850.356	101.95365
850.53	237.30724
850.705	78.05429
850.879	49.34242
851.053	115.84975
851.228	102.27278
851.402	140.04079
851.577	170.92435
851.751	191.48611
851.925	130.85713
852.099	64.02216
852.274	91.30212
852.448	119.17179
852.622	134.59045
852.797	116.98074
852.971	121.53264
853.145	133.02043
853.319	349.24689
853.493	181.67641
853.668	101.64492
853.842	223.28841
854.016	179.75716
854.19	211.03488
854.364	128.56014
854.538	137.79647
854.712	187.41261
854.886	117.65736
855.06	106.38036
855.234	50.61784
855.408	198.45246
855.582	166.01667
855.756	169.99729
855.93	228.82521
856.104	154.32527
856.278	171.12307
856.452	126.09377
856.626	165.02398
856.8	261.04464
856.973	162.13672
857.147	153.05745
857.321	143.42372
857.495	180.24672
857.669	120.42866
857.842	115.01355
858.016	180.70464
858.19	104.65421
858.364	291.32443
858.537	111.09984
858.711	133.97642
858.885	115.19138
859.058	107.49708
859.232	63.42709
859.405	79.54346
859.579	171.16687
859.753	140.09477
859.926	98.08774
860.1	71.88832
860.273	129.51611
860.447	210.44819
860.62	116.5394
860.794	247.35066
860.967	141.88839
861.141	188.78323
861.314	264.69461
861.487	162.38559
861.661	205.0435
861.834	211.21309
862.008	184.44651
862.181	132.91135
862.354	135.5277
862.528	152.58699
862.701	106.56784
862.874	82.57123
863.047	120.05057
863.221	111.35394
863.394	59.46279
863.567	213.52029
863.74	56.44061
863.913	172.58123
864.087	146.49314
864.26	178.83782
864.433	120.46779
864.606	235.13542
864.779	135.46125
864.952	70.84302
865.125	108.16978
865.298	124.96767
865.471	137.14083
865.644	259.14559
865.817	211.19021
865.99	176.64256
866.163	203.17423
866.336	120.63829
866.509	129.50296
866.682	124.36231
866.855	195.90817
867.028	83.40993
867.2	165.48741
867.373	57.36488
867.546	147.12976
867.719	270.01253
867.892	165.96486
868.064	100.65055
868.237	161.44091
868.41	136.69904
868.583	78.01622
868.755	88.1285
868.928	140.44647
869.101	271.90457
869.273	196.41529
869.446	166.93028
869.619	191.60719
869.791	129.58985
869.964	191.25442
870.136	178.925
870.309	141.60576
870.481	143.07148
870.654	75.05413
870.826	142.78601
870.999	114.94662
871.171	177.8181
871.344	116.36398
871.516	123.37788
871.689	102.01083
871.861	141.75249
872.033	105.64484
872.206	122.78253
872.378	189.60867
872.55	119.07901
872.723	84.82768
872.895	126.08136
873.067	193.26819
873.24	207.37291
873.412	110.94544
873.584	122.74413
873.756	114.60717
873.928	152.7289
874.101	154.24987
874.273	172.67683
874.445	66.21869
874.617	81.03059
874.789	148.61794
874.961	112.42458
875.133	167.76072
875.305	134.41998
875.477	95.52847
875.649	74.54822
875.821	99.18737
875.993	229.79956
876.165	97.53879
876.337	159.14128
876.509	120.01767
876.681	154.70975
876.853	150.83255
877.025	145.31304
877.197	96.29814
877.369	92.07488
877.541	185.06217
877.712	58.4747
877.884	91.96618
878.056	169.86881
878.228	95.45379
878.4	161.45801
878.571	96.96559
878.743	67.20835
878.915	152.77403
879.086	90.35347
879.258	111.90631
879.43	99.9666
879.601	89.06236
879.773	91.38994
879.945	29.01278
880.116	46.45466
880.288	31.6036
880.459	33.28422
880.631	28.01148
880.802	32.62939
880.974	30.93405
881.145	24.28532
881.317	29.72687
881.488	24.48634
881.66	27.14516
881.831	24.96719
882.002	32.24195
882.174	26.34009
882.345	30.96536
882.517	21.69193
882.688	34.62128
882.859	31.35202
883.03	44.47931
883.202	42.26179
883.373	39.01272
883.544	38.00348
883.715	61.20128
883.887	51.40372
884.058	45.10811
884.229	63.41255
884.4	64.99721
884.571	70.93323
884.742	63.8084
884.914	67.18634
885.085	91.47642
885.256	108.19415
885.427	94.53583
885.598	106.9514
885.769	112.90821
885.94	105.97856
886.111	77.74248
886.282	130.17084
886.453	108.82791
886.624	80.36907
886.795	124.46218
886.966	106.87751
887.136	133.5488
887.307	91.13575
887.478	166.19853
887.649	145.03464
887.82	150.54408
887.991	121.31172
888.161	160.89096
888.332	155.09823
888.503	86.81623
888.674	206.00929
888.844	220.76563
889.015	178.70255
889.186	82.61794
889.356	206.00745
889.527	82.63236
889.698	350.95501
889.868	111.45126
890.039	151.93149
890.209	138.44524
890.38	180.61056
890.551	157.90521
890.721	214.27054
890.892	179.72725
891.062	125.60276
891.233	152.78516
891.403	119.1265
891.574	102.05934
891.744	123.88078
891.914	164.60486
892.085	140.28039
892.255	50.33116
892.425	213.83308
892.596	169.50343
892.766	160.52945
892.936	214.25437
893.107	179.64034
893.277	105.63772
893.447	81.77025
893.618	60.33184
893.788	120.56536
893.958	72.76095
894.128	71.37258
894.298	77.49973
894.468	102.16626
894.639	50.35226
894.809	39.7243
894.979	57.56707
895.149	66.20185
895.319	53.88498
895.489	74.87674
895.659	87.04697
895.829	62.15706
895.999	66.97859
896.169	49.94515
896.339	61.99448
896.509	119.52625
896.679	132.09389
896.849	128.60573
897.019	176.55094
897.189	143.305
897.358	123.53182
897.528	181.5128
897.698	70.40363
897.868	167.56882
898.038	281.09734
898.208	256.6926
898.377	93.15295
898.547	268.04852
898.717	418.92103
898.886	179.75183
899.056	267.48453
899.226	384.19958
899.395	231.3709
899.565	294.46419
899.735	198.84701
899.904	333.63971
900.074	269.30276
900.244	138.61031
900.413	502.97087
900.583	129.29138
900.752	198.09046
900.922	298.33596
901.091	49.32816
901.261	263.98686
901.43	251.27337
901.599	244.82908
901.769	541.83536
901.938	294.60619
902.108	271.93822
902.277	371.14072
902.446	112.1458
902.616	116.93995
902.785	171.55991
902.954	279.01156
903.124	191.72648
903.293	153.71936
903.462	90.66256
903.631	117.84262
903.801	89.55607
903.97	54.46807
904.139	82.97923
904.308	62.86058
904.477	53.61133
904.646	35.13938
904.816	50.46721
904.985	70.84404
905.154	103.18059
