Data from WindowProjectSample_Transmission__38__00038.txt Node

Date: Sat May 03 15:48:51 EDT 2025
User: jessi
Spectrometer: SR400872
Trigger mode: 0
Integration Time (sec): 5.000010E-1
Scans to average: 6
Electric dark correction enabled: true
Nonlinearity correction enabled: true
Boxcar width: 0
XAxis mode: Wavelengths
Number of Pixels in Spectrum: 3648
>>>>>Begin Spectral Data<<<<<
184.909	11859.23813
185.132	1389.89758
185.355	-7006.13882
185.578	2370.13388
185.801	665.71902
186.024	-20454.31011
186.247	2549.98687
186.47	5016.25547
186.693	-1191.99552
186.916	1735.28989
187.139	5620.25876
187.362	3765.66788
187.585	20804.78692
187.808	1189.51035
188.031	-62.25894
188.254	2225.88046
188.476	-4303.65013
188.699	-4205.54292
188.922	-368.42325
189.145	-17237.82496
189.368	-299.78677
189.591	-701.54388
189.813	2138.83087
190.036	2305.08569
190.259	9118.5915
190.482	5435.55952
190.705	5530.67252
190.927	-1053.08887
191.15	2127.45897
191.373	754.96125
191.595	-1506.47834
191.818	1503.8263
192.041	2795.05429
192.263	10719.28845
192.486	-1267.38579
192.709	-2984.37454
192.931	19859.85181
193.154	12131.28247
193.377	3663.32407
193.599	-12036.0606
193.822	866.3443
194.044	-1950.98428
194.267	478.21836
194.489	-201.87117
194.712	2448.17615
194.934	3043.55009
195.157	483.43414
195.379	618.38276
195.602	2753.38928
195.824	1285.68173
196.047	-5177.76804
196.269	-7685.49176
196.492	-1796.48322
196.714	-5587.77419
196.936	19758.87166
197.159	97742.51231
197.381	-29466.75389
197.604	-856.83565
197.826	6633.01741
198.048	-3144.62994
198.271	7332.3708
198.493	2536.51535
198.715	-21839.03457
198.938	-505.96645
199.16	74887.16512
199.382	1659.62078
199.604	1218.49226
199.827	23718.23496
200.049	997.55333
200.271	1453.26688
200.493	13274.04057
200.715	14469.7175
200.938	-2614.65229
201.16	-5184.66418
201.382	1854.6646
201.604	-1028.73909
201.826	2746.59027
202.048	844.91732
202.27	2420.34203
202.492	-2930.22875
202.715	10534.58362
202.937	15871.13832
203.159	1812.63865
203.381	-2270.03801
203.603	3274.82516
203.825	-1173.63406
204.047	5860.57609
204.269	-1076.87355
204.491	-1531.22438
204.713	8779.30515
204.935	-1856.23728
205.156	5204.13077
205.378	1395.68687
205.6	-1501.12639
205.822	2019.9954
206.044	-703.04808
206.266	-14344.38164
206.488	2076.71293
206.71	3662.81027
206.932	14994.2881
207.153	-2716.40765
207.375	2563.58962
207.597	10950.74558
207.819	3151.10002
208.041	1783.93096
208.262	677.59071
208.484	-1075.74716
208.706	658.95418
208.927	1156.90326
209.149	-837.31186
209.371	-11824.03452
209.593	524.79159
209.814	3581.97972
210.036	1557.62242
210.258	-9496.81145
210.479	-931.31599
210.701	652.92207
210.922	2431.60467
211.144	2566.20538
211.366	-8952.41694
211.587	-568.3471
211.809	-3977.94122
212.03	-509.06843
212.252	-11562.3566
212.473	1365.87226
212.695	-498.98065
212.916	-665.25298
213.138	-2407.26282
213.359	-41608.2356
213.581	27081.60639
213.802	-512.59414
214.024	6771.32355
214.245	-9835.32965
214.466	-165.76543
214.688	8521.76523
214.909	-3803.08507
215.131	5101.76626
215.352	-1531.13493
215.573	12735.85565
215.795	1731.87127
216.016	2636.2173
216.237	-862.60337
216.459	2081.36822
216.68	7384.08753
216.901	9410.19555
217.122	-993.06027
217.344	3217.795
217.565	-5787.66788
217.786	2198.54144
218.007	948.54857
218.228	-2015.78002
218.45	11253.63506
218.671	-1778.90894
218.892	1299.13641
219.113	2397.09845
219.334	-379.97517
219.555	-1715.74906
219.776	991.83932
219.997	4206.25405
220.219	1622.6137
220.44	2488.76982
220.661	2343.3287
220.882	-20866.47113
221.103	601.87319
221.324	1273.15864
221.545	4108.29157
221.766	-5707.51866
221.987	-1203.74488
222.208	-1500.10497
222.429	3469.05451
222.65	-327.29509
222.87	-2155.46819
223.091	-21335.96342
223.312	1004.41807
223.533	-3724.51545
223.754	1916.48141
223.975	1229.98854
224.196	-1746.85505
224.417	-3921.0184
224.637	-4641.23436
224.858	78.57237
225.079	816.19643
225.3	1084.67018
225.521	2743.99027
225.741	-2475.2832
225.962	819.56803
226.183	253.18552
226.404	690.76496
226.624	857.00441
226.845	427.45393
227.066	421.00055
227.286	260.19217
227.507	136.44684
227.728	107.22271
227.948	165.09351
228.169	46.37712
228.389	49.73819
228.61	33.57395
228.831	37.88211
229.051	4.81565
229.272	24.33806
229.492	32.38436
229.713	9.07782
229.933	25.83204
230.154	21.06345
230.374	35.30255
230.595	26.24288
230.815	16.1238
231.036	25.23671
231.256	-5.75104
231.477	46.58141
231.697	23.992
231.917	30.39789
232.138	39.50118
232.358	83.98911
232.579	71.97717
232.799	8.70337
233.019	69.63848
233.24	88.19991
233.46	27.97763
233.68	50.54874
233.901	34.08456
234.121	20.01176
234.341	7.08347
234.561	-1.87609
234.782	17.35022
235.002	53.05478
235.222	-1.19537
235.442	45.90313
235.662	23.92838
235.883	49.53488
236.103	42.19517
236.323	28.20956
236.543	22.76633
236.763	30.02069
236.983	30.04096
237.203	32.78018
237.423	48.73497
237.643	68.74994
237.864	58.93257
238.084	12.23492
238.304	19.40695
238.524	36.05254
238.744	27.22674
238.964	49.3498
239.184	47.56503
239.404	50.59401
239.624	26.56233
239.843	47.31248
240.063	26.97002
240.283	17.84191
240.503	19.1354
240.723	18.87168
240.943	10.17024
241.163	14.80685
241.383	10.67233
241.603	5.59233
241.822	7.0696
242.042	4.63502
242.262	5.94482
242.482	7.29896
242.702	8.73596
242.921	3.06393
243.141	5.98835
243.361	4.94192
243.581	7.61755
243.8	6.60425
244.02	3.66393
244.24	7.89385
244.459	8.23623
244.679	14.12319
244.899	9.82546
245.118	10.32862
245.338	9.31153
245.558	12.43009
245.777	6.98927
245.997	7.75774
246.216	8.64566
246.436	4.1499
246.655	3.60719
246.875	2.88562
247.094	4.95666
247.314	1.64842
247.533	2.77913
247.753	3.62808
247.972	2.7974
248.192	0.94179
248.411	1.79603
248.631	3.54817
248.85	3.96515
249.07	3.1511
249.289	5.15686
249.508	4.03136
249.728	6.13497
249.947	6.59808
250.166	7.21106
250.386	4.13768
250.605	5.57432
250.824	8.83902
251.044	7.11392
251.263	22.19702
251.482	10.81288
251.701	10.36372
251.921	-0.13698
252.14	2.94801
252.359	3.61631
252.578	8.77983
252.798	2.98212
253.017	7.93117
253.236	3.95684
253.455	4.77233
253.674	9.24427
253.893	4.52691
254.112	6.86817
254.331	9.24437
254.551	7.9811
254.77	3.60899
254.989	12.17694
255.208	9.87649
255.427	12.9928
255.646	11.01092
255.865	19.01736
256.084	6.78864
256.303	9.17005
256.522	12.16453
256.741	2.52951
256.96	3.3991
257.179	7.1111
257.397	8.95557
257.616	5.0287
257.835	5.37155
258.054	13.16798
258.273	8.03774
258.492	9.75213
258.711	6.04482
258.93	2.17324
259.148	3.66983
259.367	3.7256
259.586	4.83465
259.805	2.07982
260.023	4.58399
260.242	3.34788
260.461	2.44578
260.68	1.27956
260.898	3.90257
261.117	1.25646
261.336	0.93518
261.554	3.21511
261.773	3.0277
261.992	0.52308
262.21	2.64876
262.429	3.90512
262.648	6.51241
262.866	7.56599
263.085	4.88142
263.303	4.48655
263.522	7.62019
263.74	7.53986
263.959	13.39281
264.178	6.81392
264.396	6.03629
264.615	4.41181
264.833	10.68278
265.051	9.17224
265.27	9.04837
265.488	10.00845
265.707	6.30333
265.925	9.85702
266.144	4.70114
266.362	5.54004
266.58	5.28181
266.799	4.31614
267.017	5.2012
267.235	4.7106
267.454	3.09435
267.672	1.70889
267.89	3.77316
268.109	4.32762
268.327	3.81027
268.545	0.87538
268.763	3.58766
268.982	1.23558
269.2	4.81509
269.418	2.69693
269.636	2.08323
269.854	3.90035
270.073	3.28204
270.291	1.69381
270.509	2.05656
270.727	3.74759
270.945	6.61656
271.163	4.93074
271.381	1.46661
271.599	2.62114
271.817	4.85148
272.036	1.67105
272.254	2.76666
272.472	2.02822
272.69	2.03804
272.908	2.32255
273.126	3.8634
273.344	4.74671
273.562	1.67531
273.779	2.4018
273.997	3.54738
274.215	3.78147
274.433	2.62851
274.651	4.18619
274.869	4.25561
275.087	2.31592
275.305	3.90012
275.523	2.26989
275.74	3.09556
275.958	5.0219
276.176	7.21576
276.394	2.39348
276.612	2.97986
276.829	2.80839
277.047	2.46045
277.265	2.83902
277.483	3.35595
277.7	4.07829
277.918	3.2149
278.136	5.4639
278.353	2.71608
278.571	1.62491
278.789	4.67678
279.006	1.23833
279.224	2.75326
279.442	4.69829
279.659	3.11075
279.877	2.39149
280.094	5.21386
280.312	0.87579
280.529	3.29002
280.747	0.97197
280.964	2.24028
281.182	5.74112
281.399	2.32937
281.617	3.44354
281.834	2.30374
282.052	2.02369
282.269	2.68351
282.487	2.47852
282.704	1.77384
282.921	2.22199
283.139	3.29111
283.356	3.93318
283.574	3.24013
283.791	1.78691
284.008	4.93094
284.226	2.78596
284.443	2.8741
284.66	3.73263
284.877	2.99494
285.095	2.07765
285.312	1.30059
285.529	1.04263
285.746	0.68514
285.964	1.91269
286.181	1.26597
286.398	1.9072
286.615	2.4956
286.832	2.50258
287.05	0.69256
287.267	1.57167
287.484	1.87781
287.701	2.55951
287.918	2.41919
288.135	2.61566
288.352	1.35855
288.569	1.31087
288.786	2.31924
289.003	1.93956
289.22	2.69265
289.437	1.82024
289.654	2.81614
289.871	3.07145
290.088	2.77058
290.305	2.08861
290.522	1.70719
290.739	1.93953
290.956	2.92598
291.173	3.41481
291.39	3.21074
291.607	2.30715
291.824	1.79575
292.04	1.10704
292.257	2.777
292.474	3.12508
292.691	1.74134
292.908	1.02615
293.125	1.98413
293.341	1.04624
293.558	5.10019
293.775	1.86179
293.992	1.85325
294.208	0.67529
294.425	1.35183
294.642	1.70818
294.858	2.69142
295.075	0.68659
295.292	1.91204
295.508	2.38066
295.725	3.65932
295.942	1.8844
296.158	1.47003
296.375	2.25147
296.591	1.58723
296.808	2.06147
297.024	2.38353
297.241	2.39061
297.458	2.81316
297.674	0.79773
297.891	2.25667
298.107	2.23904
298.323	1.61023
298.54	3.45888
298.756	2.03009
298.973	1.23532
299.189	3.74365
299.406	2.12391
299.622	3.66549
299.838	3.65494
300.055	3.35907
300.271	1.78393
300.487	1.75208
300.704	2.29136
300.92	1.91776
301.136	5.09074
301.353	3.46127
301.569	2.89753
301.785	3.16827
302.001	3.69203
302.218	3.37193
302.434	3.5325
302.65	2.08707
302.866	2.79455
303.083	5.135
303.299	5.30781
303.515	3.44197
303.731	4.04315
303.947	2.50957
304.163	2.86265
304.379	3.49261
304.595	3.70443
304.812	2.87806
305.028	2.83702
305.244	3.15158
305.46	3.94091
305.676	4.43513
305.892	4.8522
306.108	4.21524
306.324	3.30358
306.54	5.31215
306.756	3.62935
306.972	3.79865
307.187	3.69234
307.403	4.78146
307.619	2.90556
307.835	4.46134
308.051	4.76191
308.267	2.69977
308.483	5.03078
308.699	4.43221
308.914	4.01247
309.13	3.79047
309.346	2.85643
309.562	3.21997
309.778	2.87927
309.993	4.37596
310.209	4.53887
310.425	3.05206
310.641	4.10268
310.856	3.38349
311.072	3.41092
311.288	4.02183
311.503	4.60789
311.719	2.80925
311.935	3.07669
312.15	4.85743
312.366	4.70819
312.581	4.70562
312.797	4.5596
313.013	4.87846
313.228	3.80596
313.444	3.76812
313.659	3.47267
313.875	4.48733
314.09	4.01642
314.306	5.0485
314.521	4.7948
314.737	4.85437
314.952	4.09086
315.168	4.3271
315.383	4.82405
315.599	3.67032
315.814	3.93865
316.029	4.74489
316.245	3.28943
316.46	2.30246
316.675	4.99116
316.891	5.76685
317.106	6.59309
317.321	4.18511
317.537	4.59549
317.752	5.0298
317.967	4.9504
318.183	3.62777
318.398	3.78016
318.613	4.8214
318.828	5.34433
319.043	4.60394
319.259	3.86815
319.474	4.22419
319.689	5.07413
319.904	2.36144
320.119	5.33977
320.334	4.26712
320.549	4.04119
320.765	5.12523
320.98	4.58799
321.195	4.2011
321.41	3.94004
321.625	4.72867
321.84	5.60731
322.055	5.66902
322.27	3.31002
322.485	2.77758
322.7	4.39177
322.915	4.9444
323.13	3.78742
323.345	5.81784
323.56	5.10731
323.775	5.06138
323.989	4.83139
324.204	4.1135
324.419	5.2183
324.634	3.20517
324.849	4.32303
325.064	6.88374
325.279	5.6147
325.493	4.71196
325.708	5.1107
325.923	3.66696
326.138	4.37839
326.352	5.6368
326.567	4.96929
326.782	3.87137
326.997	4.03619
327.211	4.73226
327.426	4.34452
327.641	4.22629
327.855	3.03193
328.07	5.13914
328.285	6.18758
328.499	3.99855
328.714	4.5073
328.928	4.56013
329.143	4.53717
329.358	5.40422
329.572	5.22285
329.787	5.97074
330.001	6.70916
330.216	3.07245
330.43	6.29759
330.645	5.35019
330.859	4.80271
331.074	3.21824
331.288	4.5208
331.503	5.9912
331.717	3.20411
331.931	4.3414
332.146	4.46457
332.36	6.46583
332.575	4.84202
332.789	4.35249
333.003	4.5714
333.218	5.08024
333.432	4.30032
333.646	5.28963
333.86	6.29708
334.075	5.99972
334.289	3.77648
334.503	3.28515
334.717	5.21527
334.932	4.76685
335.146	4.89161
335.36	3.42057
335.574	4.96711
335.788	4.42029
336.003	5.19438
336.217	5.65042
336.431	4.68717
336.645	3.90389
336.859	3.80839
337.073	4.43102
337.287	4.83498
337.501	3.44604
337.715	5.23366
337.929	5.12456
338.143	3.69363
338.357	4.34486
338.571	4.24467
338.785	5.55508
338.999	4.11997
339.213	4.234
339.427	3.62741
339.641	5.63285
339.855	3.99669
340.069	3.82148
340.283	5.45427
340.497	6.02211
340.711	4.96124
340.924	4.88541
341.138	3.72768
341.352	3.14066
341.566	4.86087
341.78	3.48129
341.993	3.96883
342.207	3.76496
342.421	5.0327
342.635	4.71811
342.848	4.28136
343.062	2.37851
343.276	4.1507
343.49	6.41574
343.703	3.94006
343.917	5.40021
344.131	5.5095
344.344	3.80877
344.558	4.00807
344.771	3.49152
344.985	5.69297
345.199	6.29652
345.412	4.8796
345.626	5.32286
345.839	3.29054
346.053	3.64249
346.266	3.80082
346.48	5.10105
346.693	5.05863
346.907	5.04673
347.12	3.64775
347.334	4.48956
347.547	4.91609
347.76	4.5803
347.974	5.4647
348.187	4.55142
348.401	4.24036
348.614	3.54454
348.827	4.47369
349.041	4.83883
349.254	3.07692
349.467	4.32021
349.681	3.74442
349.894	3.63257
350.107	5.57042
350.32	6.37718
350.534	3.55038
350.747	4.39266
350.96	3.85934
351.173	4.07312
351.386	4.38465
351.6	4.12937
351.813	4.37453
352.026	4.3845
352.239	3.84725
352.452	4.18039
352.665	5.79187
352.878	4.17939
353.092	6.65088
353.305	5.13611
353.518	4.80274
353.731	3.74507
353.944	5.68507
354.157	4.26541
354.37	4.2583
354.583	3.46559
354.796	3.94465
355.009	5.49458
355.222	4.74824
355.435	4.69222
355.647	5.9458
355.86	4.25298
356.073	5.01618
356.286	4.37799
356.499	5.6247
356.712	5.57792
356.925	5.42216
357.138	5.72088
357.35	4.30274
357.563	4.62469
357.776	5.13509
357.989	5.1752
358.201	5.6118
358.414	5.38155
358.627	6.39151
358.84	5.08632
359.052	4.22972
359.265	4.51991
359.478	5.83068
359.69	3.02442
359.903	5.96723
360.116	6.21845
360.328	4.16563
360.541	6.01099
360.753	5.04109
360.966	5.22246
361.179	5.51268
361.391	5.34334
361.604	4.93132
361.816	5.32337
362.029	5.4026
362.241	4.96514
362.454	5.55393
362.666	5.01232
362.879	6.08066
363.091	5.3768
363.304	5.13222
363.516	5.31495
363.728	4.66093
363.941	5.91236
364.153	5.83485
364.366	4.16937
364.578	4.71896
364.79	5.84823
365.003	5.86085
365.215	5.2105
365.427	6.0924
365.639	6.50286
365.852	5.87056
366.064	6.89334
366.276	5.43185
366.488	5.87244
366.701	5.7318
366.913	5.32528
367.125	5.80847
367.337	5.2973
367.549	5.35966
367.762	5.58547
367.974	5.69977
368.186	5.66221
368.398	6.50028
368.61	6.06358
368.822	6.30062
369.034	5.42887
369.246	6.88564
369.458	8.04543
369.67	5.16778
369.882	7.10939
370.094	4.48093
370.306	7.09271
370.518	5.74039
370.73	5.70439
370.942	5.67593
371.154	6.19607
371.366	6.16702
371.578	6.78938
371.79	6.48675
372.002	7.2909
372.214	8.4173
372.425	6.24699
372.637	7.8398
372.849	6.73408
373.061	4.83876
373.273	6.85043
373.484	6.91116
373.696	7.16957
373.908	4.94261
374.12	7.3928
374.331	7.24387
374.543	5.92027
374.755	5.95988
374.967	6.59013
375.178	7.74353
375.39	6.60502
375.602	6.97301
375.813	5.96102
376.025	6.32024
376.236	7.33513
376.448	7.44254
376.66	7.20124
376.871	7.40922
377.083	7.99716
377.294	8.91398
377.506	7.09446
377.717	8.50694
377.929	7.74761
378.14	7.52446
378.352	8.00297
378.563	8.47351
378.775	8.72966
378.986	7.00344
379.197	7.73021
379.409	7.01797
379.62	8.17355
379.832	8.0882
380.043	7.59187
380.254	8.15532
380.466	7.20127
380.677	10.11592
380.888	9.54401
381.1	10.19054
381.311	10.24709
381.522	8.76345
381.733	10.33329
381.945	8.33773
382.156	7.92722
382.367	8.36375
382.578	10.5288
382.789	10.75191
383.001	7.92503
383.212	10.04641
383.423	10.22654
383.634	9.41929
383.845	9.68067
384.056	8.69794
384.267	8.98237
384.478	9.05744
384.69	8.24868
384.901	9.78011
385.112	9.4489
385.323	10.54803
385.534	9.62246
385.745	10.03504
385.956	9.65946
386.167	8.74871
386.378	9.91518
386.588	9.24091
386.799	8.90015
387.01	8.5507
387.221	10.4529
387.432	9.8697
387.643	11.06233
387.854	9.78561
388.065	9.58362
388.275	9.79041
388.486	9.40874
388.697	10.05191
388.908	9.70943
389.119	10.94076
389.329	11.10836
389.54	10.33964
389.751	10.7728
389.962	11.34209
390.172	10.38468
390.383	10.64494
390.594	10.20545
390.804	10.12162
391.015	10.39429
391.226	11.00315
391.436	11.61
391.647	11.2151
391.858	11.57768
392.068	9.97981
392.279	10.5166
392.489	11.66499
392.7	11.80216
392.91	10.9907
393.121	10.77544
393.331	11.95399
393.542	12.30382
393.752	12.27369
393.963	12.03976
394.173	12.2243
394.384	12.18844
394.594	11.90791
394.804	10.99529
395.015	11.83572
395.225	12.33078
395.436	11.19083
395.646	12.2803
395.856	11.78154
396.067	10.91851
396.277	12.65518
396.487	12.38826
396.697	12.7871
396.908	12.73657
397.118	12.68004
397.328	12.46321
397.538	13.09855
397.749	12.18604
397.959	13.28641
398.169	13.03645
398.379	11.8351
398.589	12.81349
398.8	12.96513
399.01	13.01528
399.22	12.54562
399.43	14.19387
399.64	12.83547
399.85	13.33035
400.06	13.21681
400.27	12.76453
400.48	13.02326
400.69	13.80741
400.9	12.94337
401.11	12.43544
401.32	13.74668
401.53	12.90582
401.74	14.33018
401.95	13.48635
402.16	13.26113
402.37	13.65733
402.58	13.25853
402.79	13.91999
403	14.16029
403.209	13.24471
403.419	14.51092
403.629	13.37318
403.839	14.64667
404.049	14.50486
404.258	13.72143
404.468	13.81672
404.678	14.68888
404.888	15.06684
405.097	14.37751
405.307	14.1673
405.517	14.94527
405.727	14.89153
405.936	14.00857
406.146	14.61007
406.356	15.53585
406.565	14.36755
406.775	14.26918
406.984	14.20232
407.194	15.95441
407.404	14.50447
407.613	15.20846
407.823	15.19488
408.032	15.74508
408.242	15.26476
408.451	14.60527
408.661	14.98838
408.87	16.03828
409.08	14.26783
409.289	15.14237
409.499	15.44163
409.708	15.04829
409.918	13.81865
410.127	15.61001
410.336	16.39251
410.546	15.78519
410.755	15.17543
410.964	15.0815
411.174	14.54983
411.383	15.69297
411.592	15.5547
411.802	15.04978
412.011	15.99464
412.22	15.24119
412.429	16.63145
412.639	16.43816
412.848	16.31627
413.057	16.7628
413.266	16.33757
413.475	15.87209
413.685	16.36018
413.894	16.51674
414.103	16.4356
414.312	16.32556
414.521	15.61878
414.73	16.53272
414.939	17.48221
415.148	16.40705
415.357	16.30421
415.566	16.29867
415.776	16.34832
415.985	16.26557
416.194	17.00174
416.403	17.88697
416.611	15.73904
416.82	16.35843
417.029	16.74677
417.238	16.37669
417.447	16.43402
417.656	16.84578
417.865	16.84818
418.074	17.53534
418.283	18.6141
418.492	20.24619
418.7	19.681
418.909	22.29539
419.118	20.88413
419.327	21.736
419.536	21.60184
419.744	22.32472
419.953	24.01964
420.162	24.50193
420.371	24.23642
420.579	25.67773
420.788	26.63407
420.997	26.95714
421.205	27.49204
421.414	27.23574
421.623	27.7121
421.831	26.81893
422.04	27.23297
422.249	26.07377
422.457	25.98666
422.666	24.67365
422.874	25.79919
423.083	26.15816
423.291	26.19248
423.5	26.45693
423.708	27.14147
423.917	28.08619
424.125	27.4536
424.334	27.57095
424.542	29.38738
424.751	28.66709
424.959	28.01604
425.167	27.93189
425.376	27.43244
425.584	25.41171
425.793	24.65286
426.001	23.1245
426.209	22.71335
426.418	21.04554
426.626	19.79289
426.834	19.11022
427.042	18.76883
427.251	18.18173
427.459	18.87468
427.667	18.35032
427.875	17.50898
428.084	17.93604
428.292	19.27311
428.5	18.62287
428.708	17.87364
428.916	17.85638
429.124	18.39452
429.333	18.2707
429.541	18.44045
429.749	18.68779
429.957	18.66362
430.165	20.17419
430.373	17.50484
430.581	18.3104
430.789	19.40632
430.997	18.61129
431.205	18.08249
431.413	18.87557
431.621	18.39691
431.829	18.9723
432.037	18.68772
432.245	18.7621
432.453	19.18483
432.661	18.87676
432.869	20.45041
433.076	19.43748
433.284	20.22545
433.492	21.26067
433.7	21.31074
433.908	20.38334
434.116	20.74122
434.323	20.10237
434.531	20.02681
434.739	19.77511
434.947	19.6032
435.154	19.81953
435.362	19.10938
435.57	19.01279
435.778	18.64549
435.985	19.36847
436.193	18.9136
436.401	19.97951
436.608	19.14613
436.816	19.02501
437.023	20.20278
437.231	20.42538
437.439	19.62177
437.646	19.66823
437.854	19.66286
438.061	19.95877
438.269	19.68513
438.476	20.14083
438.684	20.11833
438.891	21.08613
439.099	21.05078
439.306	21.04285
439.514	21.46302
439.721	23.67764
439.929	23.37936
440.136	24.94324
440.343	25.08607
440.551	25.13297
440.758	27.02034
440.965	25.22251
441.173	24.92769
441.38	24.51998
441.587	23.58031
441.795	23.52497
442.002	22.24939
442.209	21.73417
442.416	21.16987
442.624	20.6982
442.831	20.07664
443.038	19.54564
443.245	19.3145
443.452	19.49517
443.66	20.27336
443.867	19.52024
444.074	19.75132
444.281	20.42717
444.488	20.95579
444.695	21.84959
444.902	22.61026
445.109	24.76565
445.316	24.90178
445.523	26.08705
445.73	27.06276
445.937	28.0901
446.144	29.03079
446.351	30.02472
446.558	28.28935
446.765	31.14729
446.972	29.6325
447.179	29.10314
447.386	29.45299
447.593	26.8539
447.8	27.79792
448.007	25.31145
448.214	23.95595
448.42	23.02514
448.627	22.85548
448.834	21.71198
449.041	21.11114
449.248	20.25381
449.454	20.51168
449.661	21.14626
449.868	19.82184
450.075	19.8003
450.281	19.00555
450.488	19.73276
450.695	19.47858
450.901	19.75216
451.108	19.9988
451.315	20.89772
451.521	19.96047
451.728	20.85949
451.935	19.91557
452.141	20.25754
452.348	20.18332
452.554	20.43726
452.761	20.14491
452.967	21.31872
453.174	20.41328
453.38	20.47012
453.587	19.83549
453.793	20.50414
454	20.7108
454.206	21.73116
454.413	20.81961
454.619	20.68449
454.825	20.00048
455.032	20.74086
455.238	20.94584
455.445	19.63331
455.651	20.54105
455.857	19.56279
456.064	20.60577
456.27	20.38029
456.476	20.11194
456.682	19.72669
456.889	20.75426
457.095	20.87102
457.301	21.88569
457.507	20.65055
457.714	20.729
457.92	20.73128
458.126	20.14483
458.332	20.79266
458.538	21.13384
458.744	22.48215
458.951	23.77782
459.157	26.96358
459.363	27.11019
459.569	27.81963
459.775	28.82855
459.981	28.82796
460.187	29.54858
460.393	29.13252
460.599	28.73213
460.805	27.23059
461.011	25.14275
461.217	24.15829
461.423	22.18683
461.629	21.04813
461.835	21.3669
462.041	20.85958
462.247	22.09039
462.453	20.6327
462.658	20.83123
462.864	21.5118
463.07	20.91367
463.276	20.93894
463.482	20.90358
463.688	22.1511
463.893	20.61398
464.099	20.83144
464.305	22.07714
464.511	20.88169
464.716	21.13232
464.922	21.6693
465.128	20.52473
465.333	21.97855
465.539	21.48062
465.745	21.36742
465.95	21.04127
466.156	23.05817
466.362	21.90336
466.567	21.26034
466.773	21.19693
466.978	22.36639
467.184	20.73661
467.389	20.35145
467.595	21.45873
467.8	20.96885
468.006	22.49005
468.211	22.10543
468.417	20.81461
468.622	21.72129
468.828	21.67717
469.033	21.65764
469.239	23.27966
469.444	21.21847
469.649	22.14541
469.855	21.66932
470.06	21.5805
470.266	20.94548
470.471	22.00572
470.676	21.8107
470.881	20.39061
471.087	22.73788
471.292	22.8692
471.497	20.90224
471.703	21.37002
471.908	21.25653
472.113	21.8628
472.318	22.20168
472.523	21.09573
472.729	21.98407
472.934	22.12821
473.139	21.4
473.344	22.05002
473.549	22.63394
473.754	21.45777
473.959	23.25442
474.164	21.4421
474.369	21.66719
474.575	22.30293
474.78	21.97348
474.985	21.37164
475.19	20.5665
475.395	21.49874
475.6	21.92562
475.804	23.08187
476.009	21.98271
476.214	21.79038
476.419	21.63852
476.624	21.01728
476.829	21.75056
477.034	22.35825
477.239	21.69023
477.444	22.256
477.648	22.46307
477.853	22.2696
478.058	21.81551
478.263	21.69791
478.468	21.56767
478.672	21.48865
478.877	23.20197
479.082	23.12027
479.287	22.57016
479.491	22.11566
479.696	21.5928
479.901	22.82592
480.105	22.66043
480.31	21.77474
480.515	22.42603
480.719	23.79465
480.924	22.248
481.128	22.67321
481.333	24.14163
481.538	25.10344
481.742	26.41768
481.947	28.95707
482.151	31.47781
482.356	34.5351
482.56	40.19543
482.765	45.27809
482.969	53.47488
483.174	60.05024
483.378	68.60151
483.582	71.85825
483.787	76.03225
483.991	77.2004
484.196	77.36593
484.4	75.56667
484.604	74.51409
484.809	68.20517
485.013	62.91167
485.217	56.51339
485.422	50.61398
485.626	45.79425
485.83	43.44008
486.034	42.47345
486.239	43.74934
486.443	45.66459
486.647	47.55653
486.851	50.2202
487.055	53.90476
487.26	55.26768
487.464	57.23614
487.668	56.62658
487.872	57.94292
488.076	57.78322
488.28	55.24748
488.484	51.57859
488.688	49.40249
488.892	46.22973
489.096	42.5383
489.3	39.28652
489.504	36.71591
489.708	34.47136
489.912	33.81618
490.116	33.33999
490.32	33.86674
490.524	36.66899
490.728	39.5188
490.932	42.2073
491.136	45.32735
491.34	47.54134
491.544	48.59784
491.748	48.6943
491.951	47.96272
492.155	46.75978
492.359	44.65392
492.563	40.85023
492.767	38.10333
492.97	33.78432
493.174	30.2574
493.378	27.45789
493.582	24.58371
493.785	23.36363
493.989	22.40403
494.193	21.56336
494.396	20.39784
494.6	21.50307
494.804	20.61974
495.007	21.10021
495.211	21.53717
495.414	22.44024
495.618	22.69119
495.822	23.4739
496.025	23.20553
496.229	23.92085
496.432	23.96987
496.636	24.59312
496.839	25.01274
497.043	25.81447
497.246	25.15769
497.45	24.93402
497.653	25.07216
497.856	24.29823
498.06	23.81946
498.263	23.46146
498.467	22.99642
498.67	23.48242
498.873	23.17853
499.077	22.7579
499.28	22.97579
499.483	23.09231
499.686	23.58044
499.89	22.80898
500.093	23.47891
500.296	22.54019
500.499	24.12336
500.703	23.11618
500.906	23.19478
501.109	24.12605
501.312	23.13857
501.515	22.66248
501.719	23.32196
501.922	23.63068
502.125	22.95753
502.328	22.99314
502.531	22.56038
502.734	23.10294
502.937	22.22891
503.14	23.09516
503.343	22.61358
503.546	23.01275
503.749	22.7494
503.952	23.50021
504.155	22.76281
504.358	23.52174
504.561	23.49945
504.764	22.41168
504.967	23.29418
505.17	23.17334
505.373	24.07895
505.576	23.29877
505.778	23.42169
505.981	22.80247
506.184	24.06596
506.387	22.0408
506.59	24.33833
506.793	24.15172
506.995	23.5196
507.198	22.00553
507.401	23.67978
507.604	23.61609
507.806	22.64322
508.009	23.02957
508.212	24.00961
508.414	22.93821
508.617	23.04988
508.82	23.30221
509.022	24.23239
509.225	23.64489
509.427	22.71912
509.63	24.21953
509.833	23.46279
510.035	23.0212
510.238	22.63882
510.44	24.27991
510.643	22.46278
510.845	24.53639
511.048	23.68498
511.25	23.13076
511.453	23.39617
511.655	23.70905
511.858	23.46163
512.06	24.00443
512.262	23.44079
512.465	24.20844
512.667	23.49057
512.869	22.98153
513.072	23.75144
513.274	23.94661
513.476	23.99033
513.679	24.18938
513.881	23.05605
514.083	24.69191
514.286	23.24776
514.488	22.96335
514.69	23.01673
514.892	22.83302
515.094	23.99147
515.297	23.24
515.499	23.76262
515.701	22.85662
515.903	24.85485
516.105	24.77408
516.307	24.05896
516.509	22.84078
516.711	22.99562
516.913	23.68729
517.116	23.67839
517.318	23.72358
517.52	24.28986
517.722	24.81222
517.924	24.66068
518.126	26.56987
518.328	26.62913
518.529	27.6954
518.731	28.35004
518.933	26.54675
519.135	26.70084
519.337	26.92862
519.539	25.59703
519.741	23.45685
519.943	23.92116
520.145	23.70919
520.346	24.3159
520.548	23.67141
520.75	23.85164
520.952	23.90739
521.153	24.16711
521.355	24.27598
521.557	23.39507
521.759	23.8883
521.96	23.87472
522.162	23.08129
522.364	24.56119
522.565	23.33064
522.767	24.13754
522.969	24.52788
523.17	24.06347
523.372	24.06202
523.573	23.70629
523.775	23.86293
523.977	22.99491
524.178	25.16402
524.38	23.73447
524.581	24.32353
524.783	24.2328
524.984	26.27179
525.186	27.11796
525.387	28.52042
525.589	28.93469
525.79	29.24561
525.991	29.50965
526.193	30.50806
526.394	29.83884
526.596	31.09241
526.797	32.13711
526.998	32.0286
527.2	34.46242
527.401	38.82497
527.602	42.91722
527.803	48.74301
528.005	53.10617
528.206	57.11987
528.407	59.75831
528.608	60.47451
528.81	60.80045
529.011	59.42497
529.212	59.79349
529.413	55.95537
529.614	51.70627
529.815	47.66272
530.017	43.34582
530.218	38.45632
530.419	34.54811
530.62	32.623
530.821	30.93386
531.022	28.65264
531.223	29.65726
531.424	29.27348
531.625	29.81736
531.826	29.92225
532.027	31.6375
532.228	34.55668
532.429	36.15708
532.63	38.02931
532.831	40.35447
533.032	40.80528
533.233	42.5081
533.433	41.57102
533.634	41.74164
533.835	39.86023
534.036	38.05312
534.237	35.91884
534.438	33.41241
534.638	29.79654
534.839	28.19526
535.04	27.13712
535.241	26.0409
535.441	27.60815
535.642	27.29799
535.843	27.30695
536.043	28.33363
536.244	29.07736
536.445	29.67074
536.645	30.53601
536.846	30.09464
537.047	30.1554
537.247	28.15361
537.448	27.22717
537.648	26.19872
537.849	24.63285
538.049	24.2971
538.25	24.61483
538.451	24.66786
538.651	23.66831
538.851	24.53569
539.052	25.09475
539.252	24.96952
539.453	24.22071
539.653	24.59938
539.854	25.47937
540.054	28.32517
540.254	32.10018
540.455	35.73528
540.655	37.94917
540.855	41.98546
541.056	44.30134
541.256	44.90699
541.456	46.29838
541.657	45.81547
541.857	45.85911
542.057	43.58399
542.257	41.42081
542.458	40.1584
542.658	37.64093
542.858	34.32296
543.058	32.95414
543.258	31.35518
543.458	28.44949
543.659	27.43175
543.859	27.56723
544.059	26.68371
544.259	25.28644
544.459	25.08131
544.659	24.23816
544.859	24.57931
545.059	24.10297
545.259	24.9611
545.459	24.4424
545.659	25.09231
545.859	24.43908
546.059	24.75087
546.259	24.02402
546.459	24.38234
546.659	24.06288
546.859	25.20718
547.059	24.8758
547.258	24.85234
547.458	24.63608
547.658	24.1535
547.858	23.95265
548.058	24.72625
548.258	24.46509
548.457	23.78657
548.657	26.20338
548.857	24.4667
549.057	24.91165
549.256	24.89169
549.456	24.16402
549.656	22.91878
549.855	25.77622
550.055	24.09406
550.255	25.81311
550.454	24.63934
550.654	24.80935
550.853	25.43357
551.053	24.91445
551.253	24.69851
551.452	24.79746
551.652	23.72211
551.851	23.50495
552.051	24.22528
552.25	24.22818
552.45	24.24308
552.649	24.49396
552.849	24.14118
553.048	24.59836
553.248	25.05957
553.447	24.01869
553.646	25.318
553.846	25.83971
554.045	25.56483
554.244	23.56166
554.444	25.8928
554.643	24.00823
554.842	25.6004
555.042	26.2725
555.241	24.17118
555.44	23.72128
555.64	25.16472
555.839	26.05401
556.038	24.80371
556.237	23.9782
556.436	24.71357
556.636	24.90373
556.835	23.84194
557.034	26.12807
557.233	24.54103
557.432	23.2519
557.631	25.18503
557.83	24.54873
558.029	24.18718
558.228	23.93758
558.427	24.20095
558.626	24.8836
558.825	23.81927
559.024	24.3089
559.223	26.48165
559.422	24.16102
559.621	24.85977
559.82	22.90355
560.019	24.52852
560.218	24.6259
560.417	22.65273
560.616	24.26605
560.815	27.37841
561.014	23.43213
561.212	26.13326
561.411	24.82037
561.61	23.29976
561.809	24.46732
562.008	25.79239
562.206	24.56831
562.405	25.28627
562.604	24.39326
562.803	24.98878
563.001	23.98728
563.2	23.91866
563.399	24.989
563.597	23.81733
563.796	24.28409
563.995	23.95127
564.193	25.25092
564.392	24.58237
564.59	26.4196
564.789	23.4744
564.988	24.0854
565.186	24.96147
565.385	24.90647
565.583	24.65376
565.782	24.7538
565.98	24.56288
566.179	24.94747
566.377	23.90514
566.575	24.47733
566.774	25.64472
566.972	25.44743
567.171	26.26636
567.369	25.76236
567.567	25.20247
567.766	25.13891
567.964	23.11472
568.162	25.44742
568.361	25.85533
568.559	24.65461
568.757	25.27827
568.956	24.90268
569.154	25.06888
569.352	25.18638
569.55	24.85294
569.748	24.8139
569.947	24.20319
570.145	23.83233
570.343	24.05708
570.541	25.6032
570.739	23.92701
570.937	24.76766
571.135	25.20231
571.333	26.31679
571.532	26.04804
571.73	25.01737
571.928	25.58653
572.126	25.12723
572.324	24.32182
572.522	26.02385
572.72	27.02057
572.918	24.7093
573.116	25.30523
573.313	24.87041
573.511	24.98885
573.709	24.11251
573.907	25.42946
574.105	24.60827
574.303	23.16112
574.501	23.61605
574.699	25.36114
574.896	25.07895
575.094	25.22219
575.292	23.70374
575.49	25.88101
575.688	24.55884
575.885	25.89938
576.083	26.57541
576.281	25.43718
576.478	24.12237
576.676	25.09495
576.874	23.56093
577.071	24.73294
577.269	26.91458
577.467	24.82826
577.664	24.60797
577.862	25.8232
578.059	23.75238
578.257	25.43551
578.455	24.18136
578.652	24.76097
578.85	22.58561
579.047	24.90411
579.245	24.61033
579.442	24.14343
579.64	24.55439
579.837	23.10065
580.034	27.48837
580.232	24.16886
580.429	23.37476
580.627	24.84198
580.824	25.9383
581.021	25.40761
581.219	24.34022
581.416	23.58725
581.613	26.11878
581.811	26.11434
582.008	23.89728
582.205	25.48477
582.402	24.96549
582.6	26.36568
582.797	24.73722
582.994	25.00056
583.191	25.40637
583.388	24.87741
583.586	25.66597
583.783	25.66909
583.98	24.25411
584.177	25.22331
584.374	21.53879
584.571	24.36703
584.768	24.9362
584.965	24.29821
585.162	25.04277
585.359	26.2082
585.556	24.53858
585.753	24.96582
585.95	23.38933
586.147	23.70126
586.344	24.94299
586.541	24.04358
586.738	23.15605
586.935	24.25817
587.132	23.949
587.329	26.00508
587.526	24.67412
587.722	29.68361
587.919	23.45903
588.116	25.26538
588.313	26.20018
588.51	26.96847
588.706	24.49762
588.903	25.2146
589.1	25.61298
589.297	27.58451
589.493	24.8733
589.69	25.35736
589.887	24.31946
590.083	23.83006
590.28	24.4767
590.477	25.52094
590.673	26.02592
590.87	26.75337
591.067	24.67171
591.263	25.27118
591.46	25.43885
591.656	24.37083
591.853	26.15205
592.049	23.76723
592.246	23.94489
592.442	26.37923
592.639	25.72602
592.835	24.26368
593.032	25.27978
593.228	23.6742
593.425	23.32493
593.621	22.79619
593.817	25.26527
594.014	24.28596
594.21	25.09183
594.406	26.12781
594.603	25.50524
594.799	24.50844
594.995	22.84396
595.192	26.29011
595.388	24.94066
595.584	25.01096
595.78	23.96188
595.977	27.38846
596.173	26.92919
596.369	25.16027
596.565	24.15035
596.761	23.74005
596.957	26.29812
597.154	24.47121
597.35	24.90652
597.546	24.25846
597.742	26.06063
597.938	25.11111
598.134	24.10846
598.33	25.14937
598.526	26.514
598.722	25.10606
598.918	27.03654
599.114	25.63847
599.31	23.79055
599.506	24.8655
599.702	24.09613
599.898	24.94637
600.094	26.08997
600.29	26.06243
600.485	26.31302
600.681	24.44824
600.877	27.11012
601.073	25.09298
601.269	27.20426
601.465	26.6613
601.66	23.88226
601.856	23.01051
602.052	26.78408
602.248	24.86035
602.443	23.58613
602.639	24.07085
602.835	24.46863
603.03	24.18584
603.226	26.22335
603.422	24.25391
603.617	24.77254
603.813	24.84466
604.009	25.11962
604.204	26.77716
604.4	24.02223
604.595	26.47742
604.791	24.35142
604.986	25.90401
605.182	24.76994
605.377	25.12539
605.573	25.02592
605.768	25.79594
605.964	25.99067
606.159	26.2877
606.355	26.61329
606.55	24.79111
606.746	27.11885
606.941	25.67103
607.136	27.64385
607.332	28.64655
607.527	23.58339
607.722	25.64683
607.918	24.70976
608.113	24.69124
608.308	26.54355
608.503	25.85866
608.699	26.06191
608.894	26.09692
609.089	24.51902
609.284	25.84082
609.479	25.28247
609.675	26.28895
609.87	25.62702
610.065	26.71157
610.26	26.54047
610.455	25.99395
610.65	25.46918
610.845	25.16554
611.04	26.4856
611.235	25.12227
611.43	24.6543
611.625	23.50495
611.82	27.10405
612.015	24.31785
612.21	27.09371
612.405	23.6004
612.6	27.14791
612.795	27.25898
612.99	25.61599
613.185	24.34403
613.38	24.84427
613.575	25.43168
613.77	29.22
613.965	23.27712
614.159	24.03472
614.354	27.18886
614.549	26.94247
614.744	26.81524
614.938	23.95144
615.133	23.61536
615.328	26.98352
615.523	26.34527
615.717	29.25507
615.912	24.36295
616.107	25.4165
616.301	24.89141
616.496	24.67905
616.691	27.19309
616.885	26.34381
617.08	29.97397
617.274	26.57676
617.469	28.33054
617.664	26.11789
617.858	24.88545
618.053	25.55819
618.247	24.78952
618.442	22.2017
618.636	27.75567
618.831	25.03002
619.025	24.3856
619.219	29.41233
619.414	21.68435
619.608	24.71706
619.803	24.71588
619.997	28.79873
620.191	27.04841
620.386	25.5597
620.58	25.5473
620.774	22.9419
620.969	23.26282
621.163	25.33494
621.357	24.29625
621.551	24.58378
621.746	25.30389
621.94	25.02122
622.134	30.20866
622.328	28.81499
622.522	22.7817
622.716	27.05522
622.911	27.96972
623.105	26.17604
623.299	26.14041
623.493	30.47142
623.687	24.37882
623.881	24.82612
624.075	26.74735
624.269	27.97371
624.463	22.83096
624.657	23.31885
624.851	26.9455
625.045	27.28809
625.239	27.41497
625.433	25.57631
625.627	27.95241
625.821	25.42389
626.015	24.82046
626.209	26.18655
626.403	24.1468
626.596	26.11094
626.79	27.0521
626.984	24.35163
627.178	26.66614
627.372	26.29692
627.565	27.0148
627.759	23.97108
627.953	24.06918
628.147	26.50555
628.34	26.66072
628.534	28.81966
628.728	25.70628
628.921	27.05192
629.115	26.75394
629.309	27.19855
629.502	27.26517
629.696	25.93796
629.89	25.46428
630.083	26.56075
630.277	26.30482
630.47	28.14354
630.664	25.34348
630.857	23.25663
631.051	27.05002
631.244	28.04927
631.438	27.31597
631.631	24.38075
631.825	28.11561
632.018	26.57193
632.212	28.79847
632.405	27.56917
632.598	24.24911
632.792	25.67308
632.985	22.27342
633.178	25.73353
633.372	25.31723
633.565	25.46849
633.758	27.98226
633.952	24.84028
634.145	24.54042
634.338	26.33047
634.531	24.82857
634.724	24.88599
634.918	25.90409
635.111	25.6152
635.304	24.98072
635.497	29.5303
635.69	26.75473
635.883	28.15359
636.077	24.4696
636.27	26.27392
636.463	26.04099
636.656	26.04215
636.849	25.35166
637.042	27.03334
637.235	28.07005
637.428	27.29669
637.621	27.34198
637.814	28.54639
638.007	28.00634
638.2	28.5654
638.393	29.04299
638.586	23.75901
638.778	25.2536
638.971	25.5644
639.164	28.80207
639.357	25.82409
639.55	29.04268
639.743	27.71217
639.935	26.5995
640.128	30.15685
640.321	26.94286
640.514	26.25436
640.707	30.03992
640.899	27.09724
641.092	21.88138
641.285	40.75815
641.477	21.41709
641.67	31.47854
641.863	28.56605
642.055	26.73237
642.248	25.44943
642.441	25.33625
642.633	27.36373
642.826	29.25267
643.018	29.29162
643.211	30.63117
643.403	29.58879
643.596	31.09429
643.788	29.75236
643.981	25.89515
644.173	28.5064
644.366	25.93226
644.558	22.17611
644.751	28.81362
644.943	22.9326
645.135	28.7634
645.328	30.25995
645.52	27.20634
645.712	28.9899
645.905	33.24427
646.097	23.9957
646.289	26.21883
646.482	31.80358
646.674	24.84463
646.866	29.05493
647.058	27.45592
647.251	24.16401
647.443	25.35935
647.635	27.13375
647.827	23.4706
648.019	25.24587
648.211	26.16154
648.404	26.0218
648.596	30.16743
648.788	26.19334
648.98	27.33519
649.172	27.4387
649.364	27.76377
649.556	23.00634
649.748	32.2926
649.94	25.42448
650.132	28.15261
650.324	24.32562
650.516	25.45904
650.708	29.05867
650.9	23.6402
651.092	23.2626
651.284	24.19048
651.476	24.60158
651.667	28.00972
651.859	29.53381
652.051	25.74006
652.243	26.29781
652.435	26.19048
652.627	28.28501
652.818	27.74737
653.01	23.17324
653.202	23.51076
653.394	25.06208
653.585	27.82104
653.777	36.29805
653.969	29.08188
654.16	28.547
654.352	23.73715
654.544	26.13731
654.735	28.09658
654.927	27.59412
655.118	30.20529
655.31	27.58938
655.502	29.75812
655.693	26.20171
655.885	28.74528
656.076	29.43631
656.268	27.69576
656.459	30.40121
656.651	29.82416
656.842	25.99862
657.034	25.05503
657.225	29.45649
657.416	30.22489
657.608	29.92169
657.799	27.2127
657.99	29.47575
658.182	26.41526
658.373	26.50748
658.564	28.99513
658.756	28.18112
658.947	26.95319
659.138	26.13992
659.33	26.08794
659.521	26.00115
659.712	27.58384
659.903	27.27392
660.094	26.92324
660.286	23.82088
660.477	31.58356
660.668	29.16478
660.859	26.94379
661.05	23.46297
661.241	28.9844
661.432	28.44903
661.623	26.64839
661.814	26.90072
662.006	23.13975
662.197	27.58973
662.388	29.92176
662.579	27.11132
662.77	29.52257
662.96	33.49994
663.151	29.0249
663.342	22.88399
663.533	28.59886
663.724	27.60998
663.915	31.65555
664.106	26.2764
664.297	30.729
664.488	28.4705
664.678	26.22849
664.869	28.95907
665.06	29.6874
665.251	28.46401
665.442	28.6013
665.632	24.40963
665.823	32.29544
666.014	19.60433
666.204	29.47777
666.395	30.83797
666.586	34.3571
666.776	29.20001
666.967	32.73697
667.158	26.7084
667.348	30.95189
667.539	25.40427
667.729	29.31926
667.92	26.50751
668.111	29.89457
668.301	29.52867
668.492	27.80134
668.682	27.74454
668.873	27.61947
669.063	24.57406
669.253	29.5645
669.444	29.8515
669.634	27.44093
669.825	33.22444
670.015	30.77577
670.206	24.92516
670.396	32.25642
670.586	27.90118
670.777	28.99097
670.967	21.69645
671.157	27.07364
671.347	26.79775
671.538	32.06528
671.728	29.22731
671.918	33.63721
672.108	30.55343
672.299	27.35678
672.489	29.8614
672.679	26.17025
672.869	29.79876
673.059	33.28189
673.249	29.89858
673.44	23.58183
673.63	27.79981
673.82	30.68681
674.01	26.20379
674.2	28.91985
674.39	36.99877
674.58	30.45633
674.77	28.43799
674.96	27.67658
675.15	40.38674
675.34	32.04965
675.53	27.91746
675.72	28.29522
675.91	23.5734
676.099	33.99507
676.289	34.73332
676.479	31.78064
676.669	25.91762
676.859	29.88008
677.049	26.32817
677.238	28.15067
677.428	34.50344
677.618	30.12736
677.808	32.71413
677.997	30.5546
678.187	25.06972
678.377	28.26081
678.567	27.73644
678.756	26.54897
678.946	28.52204
679.136	24.81695
679.325	26.60876
679.515	25.9268
679.704	26.20176
679.894	31.3016
680.084	30.05596
680.273	32.2388
680.463	27.20876
680.652	27.48426
680.842	29.42494
681.031	32.21808
681.221	27.16797
681.41	30.8549
681.6	28.7587
681.789	30.83819
681.978	33.42582
682.168	29.97406
682.357	29.95465
682.547	32.1831
682.736	30.49215
682.925	33.53951
683.115	33.17668
683.304	31.43827
683.493	31.11678
683.682	30.48922
683.872	31.92665
684.061	33.5577
684.25	31.69759
684.439	34.13972
684.629	31.81739
684.818	41.43852
685.007	29.31501
685.196	28.61516
685.385	34.94875
685.574	30.69334
685.763	31.94031
685.952	31.23553
686.142	26.21966
686.331	33.12048
686.52	23.88912
686.709	36.26956
686.898	34.80671
687.087	32.36216
687.276	36.02825
687.465	34.60124
687.654	29.82253
687.842	35.6055
688.031	27.28333
688.22	35.83796
688.409	31.2308
688.598	32.01635
688.787	40.12181
688.976	31.36359
689.165	38.46582
689.353	28.9519
689.542	32.19703
689.731	32.85237
689.92	37.38162
690.108	34.192
690.297	30.01012
690.486	31.03016
690.675	34.86325
690.863	38.06317
691.052	36.70344
691.241	32.40965
691.429	32.59468
691.618	37.8448
691.806	26.23516
691.995	30.09708
692.184	31.325
692.372	29.39801
692.561	33.23472
692.749	31.16234
692.938	41.03286
693.126	34.15024
693.315	31.19143
693.503	34.86257
693.692	34.69402
693.88	36.21929
694.068	40.54292
694.257	31.58621
694.445	33.34612
694.634	23.03727
694.822	35.47842
695.01	36.78992
695.199	38.37095
695.387	37.69435
695.575	36.74311
695.763	31.52101
695.952	30.36145
696.14	28.19458
696.328	31.47309
696.516	31.74113
696.705	33.42324
696.893	34.61054
697.081	26.0715
697.269	35.9175
697.457	30.28104
697.645	28.6486
697.833	35.35724
698.021	30.67352
698.21	30.9416
698.398	32.32825
698.586	28.90771
698.774	29.21774
698.962	32.45345
699.15	29.95522
699.338	27.76495
699.526	33.97861
699.714	30.69391
699.901	30.17743
700.089	35.74366
700.277	29.78233
700.465	31.98328
700.653	35.58141
700.841	34.20597
701.029	29.1626
701.217	38.09219
701.404	33.299
701.592	39.15479
701.78	41.1663
701.968	32.70665
702.155	32.00337
702.343	28.20104
702.531	38.29262
702.718	32.98438
702.906	32.68518
703.094	29.51476
703.281	38.13326
703.469	34.65969
703.657	38.39085
703.844	45.76967
704.032	41.78803
704.219	30.5576
704.407	35.7758
704.595	38.09651
704.782	33.23585
704.97	31.26222
705.157	31.74622
705.345	39.05676
705.532	45.73648
705.719	35.14432
705.907	40.43043
706.094	33.62253
706.282	41.13252
706.469	32.69176
706.656	34.66623
706.844	31.80387
707.031	38.40417
707.218	35.21308
707.406	41.19559
707.593	38.14463
707.78	37.84598
707.968	34.17831
708.155	30.95682
708.342	38.41217
708.529	37.51461
708.716	35.26313
708.904	42.35129
709.091	38.10932
709.278	29.07449
709.465	47.48637
709.652	43.65902
709.839	42.51668
710.026	36.78735
710.213	29.01318
710.4	37.31334
710.587	39.60792
710.774	40.02839
710.961	39.97563
711.148	34.87351
711.335	41.16717
711.522	34.1151
711.709	37.14292
711.896	47.03121
712.083	39.95065
712.27	32.12634
712.457	36.12188
712.644	29.41261
712.831	45.78799
713.017	35.90154
713.204	41.5775
713.391	32.70461
713.578	42.34859
713.765	43.80317
713.951	38.87913
714.138	52.52478
714.325	39.51799
714.512	37.4419
714.698	34.0247
714.885	46.87018
715.072	39.12194
715.258	37.4523
715.445	35.42902
715.631	44.04338
715.818	26.02989
716.005	35.45674
716.191	40.05379
716.378	36.25788
716.564	43.07031
716.751	32.45117
716.937	34.77631
717.124	43.43802
717.31	32.86214
717.497	46.12979
717.683	35.69353
717.869	49.82627
718.056	33.93721
718.242	41.07552
718.429	37.20414
718.615	32.01882
718.801	38.67428
718.988	41.74583
719.174	39.69929
719.36	39.35478
719.547	44.286
719.733	39.27859
719.919	39.83157
720.105	43.71311
720.291	37.82296
720.478	39.68792
720.664	39.159
720.85	34.7457
721.036	55.3474
721.222	47.07085
721.408	37.57757
721.595	50.62216
721.781	48.50654
721.967	43.99396
722.153	50.75638
722.339	41.88846
722.525	39.93999
722.711	34.31971
722.897	30.28534
723.083	34.63424
723.269	44.71245
723.455	55.28916
723.641	58.06898
723.827	40.46968
724.012	41.57555
724.198	37.54376
724.384	48.42555
724.57	42.67036
724.756	30.88456
724.942	29.01256
725.127	45.72399
725.313	46.91338
725.499	47.96685
725.685	51.94808
725.87	40.99677
726.056	33.86154
726.242	49.57482
726.428	31.82322
726.613	46.31039
726.799	39.08525
726.985	34.29254
727.17	29.82114
727.356	50.84957
727.541	34.35217
727.727	39.64689
727.913	44.23293
728.098	37.33637
728.284	44.36797
728.469	32.80201
728.655	35.6008
728.84	46.9617
729.026	44.50609
729.211	44.76886
729.397	43.24536
729.582	43.47749
729.767	42.34502
729.953	43.34478
730.138	47.09804
730.323	27.89432
730.509	35.00943
730.694	50.57698
730.879	43.47666
731.065	42.12284
731.25	54.94222
731.435	44.90719
731.621	31.12764
731.806	37.69229
731.991	40.4277
732.176	32.64564
732.361	49.74661
732.547	44.85414
732.732	31.14658
732.917	57.02847
733.102	34.77498
733.287	35.91871
733.472	42.06351
733.657	42.31114
733.842	31.0238
734.027	38.29712
734.212	39.66908
734.397	36.80369
734.582	42.91442
734.767	48.27206
734.952	50.51147
735.137	24.97058
735.322	48.24875
735.507	43.11321
735.692	40.85551
735.877	56.11895
736.062	55.92714
736.247	44.26833
736.431	40.95533
736.616	49.73341
736.801	43.96985
736.986	40.13725
737.171	36.67594
737.355	30.6339
737.54	50.73423
737.725	42.19411
737.909	60.14114
738.094	37.28352
738.279	50.46833
738.463	38.56954
738.648	44.94306
738.833	44.59661
739.017	55.11597
739.202	39.04584
739.386	38.79935
739.571	35.66377
739.756	46.10736
739.94	43.56197
740.125	47.52761
740.309	36.05769
740.494	48.02442
740.678	40.62346
740.863	47.97703
741.047	43.90059
741.231	50.68912
741.416	37.1129
741.6	54.80306
741.785	35.79028
741.969	48.58204
742.153	50.50491
742.338	27.84635
742.522	42.99533
742.706	47.15865
742.89	33.73596
743.075	43.80795
743.259	52.96215
743.443	50.6653
743.627	54.98903
743.812	60.33724
743.996	24.29118
744.18	38.64446
744.364	38.19777
744.548	64.33904
744.732	41.68982
744.916	50.96127
745.1	47.37976
745.285	40.73747
745.469	47.32858
745.653	56.33453
745.837	31.97916
746.021	62.37685
746.205	55.46671
746.389	44.431
746.573	41.3825
746.757	54.94713
746.94	43.01759
747.124	53.30335
747.308	32.89928
747.492	51.88142
747.676	39.14743
747.86	63.33458
748.044	39.79004
748.227	29.03845
748.411	73.99578
748.595	47.1981
748.779	36.22336
748.963	47.4902
749.146	46.22928
749.33	37.5402
749.514	35.88355
749.697	55.83385
749.881	38.86498
750.065	35.18315
750.248	44.44803
750.432	63.44773
750.616	45.31328
750.799	31.50514
750.983	62.8136
751.166	65.43706
751.35	31.26954
751.533	48.69364
751.717	55.19309
751.9	58.54912
752.084	42.21644
752.267	33.99397
752.451	39.32305
752.634	45.88092
752.818	49.79517
753.001	52.75754
753.184	52.79268
753.368	50.01305
753.551	16.8025
753.734	38.59592
753.918	62.99413
754.101	37.20911
754.284	49.27816
754.467	40.84493
754.651	39.48697
754.834	38.09491
755.017	54.81822
755.2	55.83704
755.384	36.31553
755.567	54.01182
755.75	53.82754
755.933	41.08429
756.116	46.32898
756.299	37.24732
756.482	33.04649
756.665	50.47413
756.848	42.88616
757.032	50.07033
757.215	29.95961
757.398	36.19712
757.581	35.39687
757.764	68.17066
757.947	42.617
758.129	57.89223
758.312	21.2364
758.495	43.64255
758.678	44.5612
758.861	39.89843
759.044	60.20714
759.227	37.85577
759.41	39.65513
759.592	50.44508
759.775	43.00846
759.958	58.93485
760.141	33.40984
760.324	63.32562
760.506	60.08881
760.689	56.69603
760.872	67.80329
761.054	51.21731
761.237	45.87647
761.42	47.34527
761.602	54.984
761.785	50.85286
761.968	58.00673
762.15	62.347
762.333	43.72329
762.515	46.9793
762.698	40.2387
762.88	54.04111
763.063	47.9035
763.245	51.39221
763.428	38.59987
763.61	40.37082
763.793	35.35641
763.975	46.47955
764.158	42.05988
764.34	42.22855
764.522	38.4573
764.705	44.7661
764.887	56.47947
765.069	33.97656
765.252	51.19601
765.434	53.65759
765.616	45.67521
765.799	41.44746
765.981	51.18563
766.163	39.1987
766.345	55.03757
766.528	38.09975
766.71	26.82454
766.892	46.76458
767.074	60.05696
767.256	43.62497
767.438	63.11803
767.62	51.12363
767.802	69.63409
767.985	52.89
768.167	67.50948
768.349	44.18044
768.531	52.59185
768.713	48.61103
768.895	56.8773
769.077	49.79789
769.259	76.9404
769.441	105.96211
769.623	59.04503
769.804	70.84426
769.986	61.39479
770.168	75.3379
770.35	92.36984
770.532	66.43807
770.714	72.44785
770.896	70.11846
771.077	33.73969
771.259	80.22274
771.441	61.5408
771.623	85.9299
771.804	104.6328
771.986	35.9606
772.168	54.09791
772.35	78.0942
772.531	100.66054
772.713	61.5887
772.894	87.7167
773.076	62.82022
773.258	53.63116
773.439	87.67836
773.621	94.07782
773.802	46.01388
773.984	59.95435
774.166	67.86615
774.347	90.38879
774.529	83.89066
774.71	33.25024
774.891	60.91401
775.073	56.38607
775.254	92.75108
775.436	51.12918
775.617	92.50263
775.799	50.85173
775.98	87.2511
776.161	93.26253
776.343	101.04364
776.524	62.31852
776.705	53.98759
776.886	34.55427
777.068	71.31109
777.249	111.58233
777.43	103.50224
777.611	47.18908
777.793	62.6385
777.974	96.70204
778.155	53.29723
778.336	52.38555
778.517	103.51033
778.698	52.86999
778.879	31.70673
779.061	15.72732
779.242	73.85674
779.423	78.49863
779.604	54.0295
779.785	62.07284
779.966	66.32908
780.147	81.74489
780.328	84.60849
780.509	113.77211
780.69	82.07456
780.871	51.10305
781.051	39.50665
781.232	69.00133
781.413	64.17598
781.594	56.36429
781.775	57.03844
781.956	50.44573
782.137	31.70312
782.317	53.52953
782.498	71.87599
782.679	66.82986
782.86	64.76609
783.04	55.05661
783.221	72.30299
783.402	101.32722
783.583	65.16921
783.763	72.46466
783.944	57.42746
784.124	43.20797
784.305	95.48001
784.486	74.30519
784.666	66.31635
784.847	39.03236
785.027	123.33035
785.208	52.26326
785.388	57.11482
785.569	52.69873
785.749	60.05342
785.93	55.08966
786.11	34.62696
786.291	72.98418
786.471	69.07088
786.652	80.07409
786.832	65.80409
787.012	69.04753
787.193	45.91268
787.373	68.81649
787.553	56.52392
787.734	69.63686
787.914	57.46939
788.094	73.1799
788.275	69.33927
788.455	58.96733
788.635	43.72407
788.815	63.78664
788.995	43.69885
789.176	37.19625
789.356	52.87532
789.536	57.90353
789.716	74.53174
789.896	49.04927
790.076	55.15079
790.256	68.6065
790.436	28.09065
790.616	48.29505
790.796	67.90421
790.976	54.66999
791.156	51.86347
791.336	81.83932
791.516	67.70036
791.696	57.99718
791.876	37.71485
792.056	65.44868
792.236	82.04536
792.416	83.00416
792.596	71.03402
792.776	69.6053
792.956	75.17458
793.135	92.9149
793.315	44.86077
793.495	84.98716
793.675	77.36025
793.854	77.8425
794.034	79.92002
794.214	43.19829
794.394	80.84539
794.573	87.70678
794.753	66.40005
794.933	44.09386
795.112	70.4385
795.292	81.16737
795.472	96.98334
795.651	44.23437
795.831	60.29269
796.01	59.35569
796.19	52.90408
796.369	61.72695
796.549	77.14811
796.728	56.6512
796.908	45.55029
797.087	40.69488
797.267	61.10608
797.446	42.55935
797.626	74.95975
797.805	76.65244
797.984	53.27067
798.164	76.33162
798.343	48.28426
798.522	71.01687
798.702	63.26909
798.881	46.33557
799.06	62.2845
799.239	33.30724
799.419	45.17939
799.598	95.73431
799.777	72.13592
799.956	84.40433
800.136	57.7799
800.315	53.4676
800.494	70.45167
800.673	83.76573
800.852	75.31993
801.031	88.72556
801.21	79.19392
801.389	56.90429
801.568	66.21197
801.747	96.26478
801.926	66.3473
802.105	90.96916
802.284	56.65387
802.463	94.08798
802.642	76.01822
802.821	70.82804
803	88.54492
803.179	78.0578
803.358	89.36409
803.537	51.89222
803.716	74.31526
803.895	49.56829
804.073	60.08525
804.252	56.09836
804.431	72.31104
804.61	63.45206
804.789	85.98375
804.967	53.24446
805.146	54.25518
805.325	107.19135
805.503	75.26962
805.682	40.14228
805.861	117.27822
806.039	85.78592
806.218	54.92523
806.397	71.5284
806.575	63.97296
806.754	69.74414
806.932	46.97191
807.111	94.30741
807.289	80.59603
807.468	72.48708
807.646	82.81707
807.825	74.60002
808.003	72.93349
808.182	81.31191
808.36	70.81507
808.539	46.35395
808.717	99.66956
808.895	50.33144
809.074	73.12153
809.252	64.04023
809.43	80.98274
809.609	90.75274
809.787	103.04183
809.965	61.18622
810.144	70.62875
810.322	60.63717
810.5	79.12192
810.678	61.49548
810.856	115.80897
811.035	100.53853
811.213	82.64932
811.391	96.31699
811.569	73.75531
811.747	133.15766
811.925	93.04002
812.103	56.26763
812.281	73.15161
812.459	114.52883
812.637	110.33035
812.816	88.37774
812.994	112.46576
813.171	94.24661
813.349	80.2906
813.527	99.05771
813.705	97.31352
813.883	119.46505
814.061	91.81613
814.239	115.56126
814.417	119.33575
814.595	88.54854
814.773	85.54703
814.95	75.18592
815.128	80.00491
815.306	75.75638
815.484	69.70666
815.662	59.11293
815.839	45.15268
816.017	69.74046
816.195	91.69059
816.372	68.97048
816.55	92.64807
816.728	104.68457
816.905	68.21669
817.083	106.99869
817.261	75.08202
817.438	131.48714
817.616	112.45667
817.793	59.01457
817.971	92.61762
818.148	85.9948
818.326	107.5422
818.503	84.85824
818.681	109.50511
818.858	66.56668
819.036	77.9143
819.213	76.61669
819.391	65.06245
819.568	59.25376
819.745	55.41862
819.923	85.67405
820.1	63.34301
820.277	54.19849
820.455	62.96107
820.632	65.19909
820.809	66.74167
820.986	51.42359
821.164	44.52852
821.341	39.93984
821.518	50.96598
821.695	42.93198
821.872	42.11855
822.05	39.514
822.227	35.5485
822.404	37.3433
822.581	40.35929
822.758	36.84166
822.935	37.84791
823.112	39.95426
823.289	36.96608
823.466	40.24351
823.643	38.73931
823.82	43.37224
823.997	41.28515
824.174	45.71918
824.351	54.02989
824.528	52.32787
824.705	49.48467
824.882	50.50355
825.059	61.98174
825.236	48.93621
825.412	49.10192
825.589	57.93718
825.766	69.70241
825.943	50.20998
826.12	56.07241
826.296	44.86387
826.473	51.51004
826.65	52.69069
826.827	57.70793
827.003	44.875
827.18	48.2687
827.357	53.07068
827.533	48.19097
827.71	35.43396
827.887	41.95447
828.063	50.90877
828.24	46.19554
828.416	54.45871
828.593	44.78873
828.769	61.84283
828.946	63.39436
829.122	67.52487
829.299	64.09985
829.475	40.21591
829.652	66.06145
829.828	96.99832
830.005	60.10349
830.181	86.25575
830.357	63.6097
830.534	84.51865
830.71	69.52422
830.886	86.96322
831.063	83.12679
831.239	100.43071
831.415	56.58612
831.592	99.14337
831.768	70.74367
831.944	61.54522
832.12	106.40117
832.296	94.80932
832.473	88.30155
832.649	59.20009
832.825	81.46993
833.001	52.32628
833.177	71.65382
833.353	65.27665
833.529	40.92736
833.705	58.26457
833.881	44.32015
834.058	45.77901
834.234	46.77988
834.41	50.63273
834.586	41.96886
834.761	47.22151
834.937	50.28399
835.113	51.03161
835.289	49.56747
835.465	56.94325
835.641	49.94679
835.817	55.85152
835.993	88.55858
836.169	49.10106
836.344	68.86338
836.52	77.38724
836.696	85.06617
836.872	64.07327
837.048	152.61001
837.223	65.0547
837.399	131.89841
837.575	105.67408
837.75	96.31353
837.926	126.03567
838.102	186.90353
838.277	152.99341
838.453	201.94849
838.628	200.77267
838.804	82.98729
838.98	196.75573
839.155	96.16915
839.331	126.25957
839.506	87.30773
839.682	94.00835
839.857	110.2484
840.033	127.10477
840.208	72.22933
840.384	39.84439
840.559	68.8084
840.734	101.10314
840.91	137.03505
841.085	84.66592
841.26	94.54568
841.436	90.13765
841.611	77.80622
841.786	111.49978
841.962	158.56688
842.137	104.22081
842.312	59.94412
842.487	84.81755
842.663	79.82419
842.838	97.36092
843.013	276.4838
843.188	142.49024
843.363	138.7916
843.538	326.70501
843.714	301.08362
843.889	269.46741
844.064	276.10362
844.239	229.62969
844.414	427.64279
844.589	220.68262
844.764	346.88412
844.939	342.96915
845.114	335.89807
845.289	348.66111
845.464	435.30376
845.639	320.06994
845.814	188.75901
845.989	255.54961
846.163	235.25851
846.338	239.38887
846.513	386.17447
846.688	258.19162
846.863	258.90648
847.038	255.10385
847.212	231.80613
847.387	294.53084
847.562	316.12754
847.737	374.04016
847.911	148.48485
848.086	173.14365
848.261	368.85845
848.435	213.38931
848.61	315.11222
848.785	143.84484
848.959	334.01473
849.134	421.54027
849.308	698.47018
849.483	296.90249
849.658	506.47679
849.832	215.27211
850.007	172.16952
850.181	649.83589
850.356	335.71021
850.53	617.12045
850.705	210.27033
850.879	117.19175
851.053	237.67
851.228	331.97475
851.402	356.36822
851.577	300.96779
851.751	431.73984
851.925	262.62077
852.099	105.38233
852.274	178.57881
852.448	283.92531
852.622	397.18266
852.797	273.19463
852.971	299.38452
853.145	452.45009
853.319	487.54628
853.493	589.08271
853.668	289.89005
853.842	823.46676
854.016	473.65935
854.19	459.6133
854.364	335.29653
854.538	341.79814
854.712	452.0517
854.886	246.83112
855.06	334.08636
855.234	119.25269
855.408	497.85872
855.582	346.86607
855.756	497.63981
855.93	440.9552
856.104	500.17421
856.278	431.14385
856.452	221.09429
856.626	357.67304
856.8	666.09783
856.973	348.65573
857.147	456.98244
857.321	409.17294
857.495	413.73155
857.669	401.95467
857.842	308.32601
858.016	426.89775
858.19	249.1112
858.364	603.0945
858.537	311.57595
858.711	369.04835
858.885	361.78303
859.058	198.19545
859.232	143.215
859.405	161.06704
859.579	456.49208
859.753	364.92938
859.926	216.58242
860.1	181.49718
860.273	373.13214
860.447	471.19612
860.62	279.84682
860.794	501.84703
860.967	314.50736
861.141	400.23443
861.314	672.79634
861.487	337.96752
861.661	369.03376
861.834	678.07565
862.008	389.94059
862.181	388.91037
862.354	350.02214
862.528	356.65928
862.701	284.67658
862.874	192.41097
863.047	246.99105
863.221	274.86238
863.394	144.73959
863.567	334.809
863.74	92.33693
863.913	401.10045
864.087	357.03196
864.26	483.70288
864.433	271.25414
864.606	593.9165
864.779	420.29836
864.952	198.63956
865.125	341.25723
865.298	356.06656
865.471	317.64119
865.644	541.15643
865.817	365.43943
865.99	497.24155
866.163	536.5973
866.336	216.55979
866.509	331.80619
866.682	282.55355
866.855	479.92449
867.028	165.52271
867.2	345.10895
867.373	77.46586
867.546	315.53718
867.719	716.819
867.892	370.65337
868.064	229.70563
868.237	262.70135
868.41	406.55533
868.583	161.41597
868.755	188.06537
868.928	308.57798
869.101	578.9612
869.273	472.2914
869.446	288.25462
869.619	652.96242
869.791	402.93054
869.964	460.90107
870.136	546.57938
870.309	260.44528
870.481	308.01729
870.654	159.15707
870.826	277.48654
870.999	244.1782
871.171	389.70045
871.344	195.99672
871.516	259.7527
871.689	199.94125
871.861	280.22426
872.033	179.42488
872.206	248.26313
872.378	327.71702
872.55	360.11376
872.723	177.99517
872.895	299.57926
873.067	412.34099
873.24	346.91172
873.412	256.41549
873.584	271.62788
873.756	239.81094
873.928	308.51373
874.101	309.6349
874.273	384.77832
874.445	129.4306
874.617	212.38308
874.789	271.71895
874.961	254.34617
875.133	312.74893
875.305	256.16939
875.477	203.21567
875.649	139.73954
875.821	188.95178
875.993	430.00489
876.165	235.29587
876.337	301.53854
876.509	303.93061
876.681	298.10658
876.853	303.33334
877.025	326.43458
877.197	214.70866
877.369	183.84857
877.541	328.02376
877.712	71.70153
877.884	160.96202
878.056	273.53169
878.228	146.75608
878.4	274.56325
878.571	164.9896
878.743	110.51764
878.915	221.56695
879.086	129.79058
879.258	153.11977
879.43	141.78615
879.601	128.3943
879.773	130.78718
879.945	39.2234
880.116	58.39761
880.288	42.15282
880.459	44.8843
880.631	40.20579
880.802	43.36492
880.974	42.2798
881.145	35.03933
881.317	43.41285
881.488	37.80894
881.66	39.7986
881.831	38.843
882.002	45.92249
882.174	40.13082
882.345	45.11038
882.517	34.15846
882.688	51.23899
882.859	44.66506
883.03	60.83522
883.202	59.48728
883.373	57.23492
883.544	53.97621
883.715	78.23334
883.887	70.60566
884.058	61.30219
884.229	79.29733
884.4	82.70853
884.571	95.76387
884.742	87.16606
884.914	91.11515
885.085	123.42623
885.256	155.79792
885.427	127.11085
885.598	143.41455
885.769	156.14894
885.94	151.68606
886.111	107.17602
886.282	175.90892
886.453	146.51191
886.624	102.23834
886.795	183.42717
886.966	160.34979
887.136	219.9029
887.307	156.02207
887.478	285.9308
887.649	262.26615
887.82	242.67404
887.991	213.28485
888.161	316.0304
888.332	248.44888
888.503	166.90588
888.674	381.9358
888.844	427.24922
889.015	319.47898
889.186	206.13762
889.356	324.16848
889.527	161.14689
889.698	723.52439
889.868	234.24598
890.039	421.59356
890.209	301.29615
890.38	293.04012
890.551	364.80948
890.721	471.65445
890.892	352.58328
891.062	322.50199
891.233	353.70707
891.403	322.53896
891.574	208.37218
891.744	239.84634
891.914	265.96464
892.085	309.15009
892.255	109.32702
892.425	357.76268
892.596	269.00008
892.766	326.84546
892.936	431.56513
893.107	336.94261
893.277	170.55942
893.447	126.55981
893.618	85.32346
893.788	180.32834
893.958	106.28952
894.128	92.41079
894.298	103.16803
894.468	132.88948
894.639	68.05768
894.809	49.42019
894.979	71.63933
895.149	87.79371
895.319	68.62486
895.489	94.29525
895.659	127.38513
895.829	82.23477
895.999	94.39434
896.169	66.66803
896.339	92.43471
896.509	189.85144
896.679	189.90346
896.849	207.32627
897.019	271.80601
897.189	231.84877
897.358	238.91986
897.528	304.12281
897.698	166.03052
897.868	324.36089
898.038	593.76543
898.208	527.2287
898.377	201.89733
898.547	751.71074
898.717	1578.73151
898.886	347.25869
899.056	724.29219
899.226	768.89625
899.395	832.85047
899.565	744.55042
899.735	587.44142
899.904	1096.00663
900.074	1893.2739
900.244	319.0871
900.413	1803.25351
900.583	491.54543
900.752	662.72577
900.922	741.55897
901.091	50.48608
901.261	696.68068
901.43	569.46852
901.599	825.08468
901.769	1371.08034
901.938	906.45075
902.108	729.69785
902.277	1102.81058
902.446	229.65853
902.616	256.09078
902.785	334.19505
902.954	612.43544
903.124	316.33288
903.293	227.94802
903.462	128.80798
903.631	157.53025
903.801	123.04583
903.97	68.67732
904.139	96.16376
904.308	77.81797
904.477	68.96252
904.646	40.95544
904.816	63.93856
904.985	96.14744
905.154	131.08752
