Data from WindowProjectSample_Transmission__14__00014__06417728512790795.txt Node

Date: Mon May 05 17:00:40 EDT 2025
User: jessi
Spectrometer: SR400872
Trigger mode: 0
Integration Time (sec): 5.000010E-1
Scans to average: 20
Electric dark correction enabled: true
Nonlinearity correction enabled: true
Boxcar width: 0
XAxis mode: Wavelengths
Number of Pixels in Spectrum: 3648
>>>>>Begin Spectral Data<<<<<
184.909	20914.98339
185.132	-5143.17929
185.355	-2982.54132
185.578	-17830.04662
185.801	1591.20131
186.024	10169.39011
186.247	-1890.99018
186.47	1125.85667
186.693	270.54321
186.916	361.27193
187.139	-3746.20186
187.362	3467.55409
187.585	4080.32519
187.808	3538.46601
188.031	12.31588
188.254	-51439.5028
188.476	-1667.07853
188.699	6339.26395
188.922	816.28868
189.145	-15294.26266
189.368	-666.61003
189.591	-1385.52986
189.813	2820.2368
190.036	-49326.88794
190.259	-873.08339
190.482	-4488.1844
190.705	6996.7672
190.927	-2475.52983
191.15	12776.72939
191.373	3499.37815
191.595	-8635.21786
191.818	-4108.15543
192.041	-7236.60397
192.263	-3226.90473
192.486	-817.89148
192.709	-3884.29556
192.931	7818.50157
193.154	-28974.54028
193.377	-2919.84956
193.599	-2732.78861
193.822	-9056.11697
194.044	-1867.1398
194.267	1222.13166
194.489	217.30478
194.712	-42387.01263
194.934	-32064.57065
195.157	1194.8163
195.379	1379.68852
195.602	-6499.256
195.824	-1308.73154
196.047	-8537.69555
196.269	2842.92139
196.492	-6542.74546
196.714	29162.34115
196.936	-8446.80229
197.159	-1145.02667
197.381	1196.36808
197.604	379.19251
197.826	11571.49585
198.048	-10966.78161
198.271	-2807.18591
198.493	7651.33692
198.715	2244.79125
198.938	-433.45257
199.16	7124.09083
199.382	-101212.38391
199.604	2233.80868
199.827	-1040.18529
200.049	-2953.3259
200.271	13750.82894
200.493	1244.30862
200.715	-38266.48015
200.938	-6052.44114
201.16	-4175.5436
201.382	19198.75775
201.604	2277.94448
201.826	2247.46475
202.048	-1905.47498
202.27	-1994.177
202.492	-35952.94049
202.715	2933.07053
202.937	-4450.73373
203.159	-6416.65141
203.381	1522.67527
203.603	6661.56831
203.825	6538.00225
204.047	2121.23943
204.269	-2610.92623
204.491	2232.09352
204.713	5997.26744
204.935	-501421.96202
205.156	1160.11295
205.378	-2837.49196
205.6	1572.65917
205.822	153213.76166
206.044	-919.31719
206.266	1562.72745
206.488	4500.21673
206.71	-5106.93345
206.932	1083.91029
207.153	11585.43463
207.375	-6933.41511
207.597	-37402.15596
207.819	-2751.35243
208.041	2501.82276
208.262	447.53819
208.484	686.08349
208.706	-817.26016
208.927	-759.18546
209.149	531.0323
209.371	-2895.79868
209.593	-254.65107
209.814	-771.79752
210.036	586.92189
210.258	-684.23421
210.479	1943.542
210.701	1722.01999
210.922	3275.75948
211.144	-3890.80007
211.366	1994.48436
211.587	6203.23616
211.809	-8056.2608
212.03	2303.97517
212.252	424.52216
212.473	2188.2404
212.695	-6306.99892
212.916	2947.71121
213.138	-608.68209
213.359	3673.19953
213.581	5191.12643
213.802	-753.2033
214.024	1057.82091
214.245	1969.62355
214.466	2715.95841
214.688	-3247.09926
214.909	-1225.05757
215.131	-1686.7778
215.352	-2936.08254
215.573	14627.83916
215.795	5170.40639
216.016	5343.93752
216.237	743.27225
216.459	3506.3151
216.68	1812.9168
216.901	5057.22201
217.122	-3043.20526
217.344	-11242.06354
217.565	3503.92962
217.786	8838.03753
218.007	13697.68838
218.228	-802.58717
218.45	5929.52005
218.671	726.50182
218.892	36436.94346
219.113	1528.99437
219.334	-241.14921
219.555	9135.06164
219.776	3171.11753
219.997	22614.60775
220.219	3070.78604
220.44	-9830.12568
220.661	468.73602
220.882	1528.44596
221.103	-1055.9143
221.324	2241.99593
221.545	2315.08356
221.766	-8758.65808
221.987	987.04435
222.208	1649.76222
222.429	4300.26469
222.65	304.59536
222.87	17427.516
223.091	728.04536
223.312	551.6165
223.533	1371.06436
223.754	1490.18734
223.975	1355.52096
224.196	2028.21976
224.417	1277.94954
224.637	563.94211
224.858	59.84404
225.079	1111.0046
225.3	664.85935
225.521	3739.0793
225.741	440.70792
225.962	517.40986
226.183	134.33886
226.404	678.80438
226.624	425.53683
226.845	598.94997
227.066	418.54989
227.286	264.61305
227.507	124.47025
227.728	116.25443
227.948	241.70515
228.169	74.50635
228.389	82.658
228.61	47.06286
228.831	64.3763
229.051	1.09896
229.272	39.48032
229.492	55.78961
229.713	13.50732
229.933	36.73843
230.154	32.80748
230.374	55.70609
230.595	38.26059
230.815	21.60322
231.036	40.08486
231.256	-9.35101
231.477	66.29663
231.697	38.27685
231.917	38.19424
232.138	55.06027
232.358	104.43815
232.579	102.44713
232.799	16.23012
233.019	98.79541
233.24	114.9312
233.46	36.0276
233.68	64.66067
233.901	42.23885
234.121	24.56353
234.341	13.8733
234.561	-5.0688
234.782	18.77431
235.002	65.81128
235.222	-3.36714
235.442	67.35867
235.662	31.10912
235.883	61.49187
236.103	47.93865
236.323	40.3671
236.543	29.32978
236.763	40.59706
236.983	43.96823
237.203	40.46234
237.423	58.01194
237.643	87.51047
237.864	74.89997
238.084	18.30826
238.304	25.01038
238.524	43.19324
238.744	39.29894
238.964	72.35106
239.184	60.9102
239.404	64.78414
239.624	32.70665
239.843	59.65967
240.063	36.51938
240.283	20.42673
240.503	25.95371
240.723	25.09732
240.943	14.06788
241.163	20.11041
241.383	14.15295
241.603	7.83373
241.822	9.32988
242.042	6.23288
242.262	8.2499
242.482	9.53235
242.702	11.19993
242.921	2.88387
243.141	6.6602
243.361	5.90121
243.581	9.72893
243.8	7.37496
244.02	5.32873
244.24	9.25234
244.459	8.6192
244.679	17.59356
244.899	10.49035
245.118	12.00266
245.338	11.25968
245.558	13.93029
245.777	7.86664
245.997	10.33385
246.216	10.41673
246.436	6.29274
246.655	4.83183
246.875	3.19697
247.094	6.17856
247.314	2.09839
247.533	3.60922
247.753	4.36144
247.972	3.40583
248.192	1.13552
248.411	1.78283
248.631	3.5334
248.85	4.75257
249.07	3.71576
249.289	5.42024
249.508	5.05401
249.728	7.54704
249.947	6.77608
250.166	8.62274
250.386	4.17306
250.605	6.95253
250.824	11.24163
251.044	7.99662
251.263	28.3846
251.482	14.78875
251.701	11.57778
251.921	0.00813
252.14	3.47036
252.359	3.81688
252.578	9.93698
252.798	3.48227
253.017	9.18927
253.236	3.99195
253.455	5.87148
253.674	10.48558
253.893	5.05009
254.112	8.15901
254.331	11.28873
254.551	8.86899
254.77	3.53026
254.989	13.34478
255.208	10.23483
255.427	14.31574
255.646	11.10256
255.865	21.71519
256.084	8.26898
256.303	10.87955
256.522	13.88659
256.741	2.47624
256.96	2.83392
257.179	8.07143
257.397	10.38918
257.616	6.19274
257.835	6.1799
258.054	15.28411
258.273	10.32896
258.492	11.00377
258.711	6.53311
258.93	3.08344
259.148	5.00278
259.367	4.45774
259.586	5.66476
259.805	2.55837
260.023	5.35093
260.242	3.93248
260.461	2.93431
260.68	1.27079
260.898	4.55061
261.117	1.45515
261.336	0.84611
261.554	3.5264
261.773	3.63022
261.992	0.90543
262.21	3.30636
262.429	3.37025
262.648	7.39082
262.866	8.16521
263.085	5.74878
263.303	4.98168
263.522	8.68759
263.74	8.78707
263.959	15.3613
264.178	7.18517
264.396	6.33929
264.615	4.64548
264.833	10.46318
265.051	8.63257
265.27	11.02248
265.488	10.83852
265.707	6.15614
265.925	11.07622
266.144	4.67758
266.362	5.92524
266.58	5.2417
266.799	5.02601
267.017	6.11923
267.235	5.35603
267.454	3.30685
267.672	1.78195
267.89	4.06611
268.109	4.31073
268.327	4.34935
268.545	0.96371
268.763	3.94429
268.982	1.50224
269.2	4.19116
269.418	3.12782
269.636	1.87409
269.854	4.44785
270.073	3.08522
270.291	1.98733
270.509	1.93612
270.727	4.3857
270.945	7.41567
271.163	7.11328
271.381	1.23077
271.599	3.17885
271.817	5.46636
272.036	1.77309
272.254	3.14645
272.472	2.51686
272.69	2.52333
272.908	2.33322
273.126	4.42169
273.344	5.38428
273.562	1.69026
273.779	2.56567
273.997	3.87835
274.215	4.14226
274.433	3.06924
274.651	4.35792
274.869	4.73262
275.087	2.85154
275.305	4.00695
275.523	2.52782
275.74	3.07175
275.958	5.46897
276.176	8.22302
276.394	2.44332
276.612	3.20195
276.829	3.257
277.047	2.49719
277.265	2.93304
277.483	3.57508
277.7	4.21716
277.918	3.38515
278.136	6.20859
278.353	2.73899
278.571	1.80043
278.789	4.25759
279.006	0.94725
279.224	2.94315
279.442	5.22052
279.659	3.67404
279.877	2.47159
280.094	5.93585
280.312	1.2039
280.529	3.44076
280.747	0.94803
280.964	2.66779
281.182	5.98072
281.399	2.66346
281.617	3.83773
281.834	2.50512
282.052	1.76786
282.269	3.22803
282.487	2.51228
282.704	1.99619
282.921	2.25459
283.139	3.32918
283.356	3.99618
283.574	3.93649
283.791	1.79296
284.008	5.54304
284.226	3.0026
284.443	3.38159
284.66	4.42382
284.877	3.35647
285.095	2.17935
285.312	1.68851
285.529	0.94675
285.746	0.79036
285.964	2.08068
286.181	1.43862
286.398	1.99383
286.615	2.62022
286.832	2.63969
287.05	0.58848
287.267	1.84877
287.484	1.81053
287.701	2.67943
287.918	2.63904
288.135	2.71539
288.352	1.22571
288.569	1.50476
288.786	2.56547
289.003	2.00921
289.22	3.08884
289.437	1.63094
289.654	2.9499
289.871	3.0855
290.088	3.18018
290.305	2.46773
290.522	1.95658
290.739	2.27854
290.956	3.30173
291.173	3.6537
291.39	3.61752
291.607	2.60077
291.824	1.84218
292.04	1.54914
292.257	3.15828
292.474	3.37606
292.691	2.20719
292.908	1.16156
293.125	1.78398
293.341	1.4096
293.558	5.12468
293.775	2.38738
293.992	2.30989
294.208	1.04308
294.425	1.69975
294.642	2.16635
294.858	3.55346
295.075	0.83417
295.292	2.252
295.508	2.5245
295.725	4.40449
295.942	2.14308
296.158	1.70007
296.375	2.56817
296.591	1.89232
296.808	2.17728
297.024	2.46263
297.241	2.77506
297.458	2.90518
297.674	0.83426
297.891	2.35626
298.107	2.11185
298.323	1.67955
298.54	3.68132
298.756	1.91946
298.973	1.26444
299.189	3.75901
299.406	1.84186
299.622	3.40565
299.838	3.4329
300.055	3.17842
300.271	1.22081
300.487	1.69533
300.704	2.00672
300.92	1.34827
301.136	4.92053
301.353	3.29287
301.569	2.42618
301.785	2.86833
302.001	3.24427
302.218	2.90839
302.434	2.96693
302.65	1.57969
302.866	2.2335
303.083	4.82719
303.299	4.60573
303.515	2.73952
303.731	2.9817
303.947	1.35319
304.163	2.13832
304.379	2.70772
304.595	3.1124
304.812	2.03417
305.028	2.05496
305.244	2.48099
305.46	3.34797
305.676	3.3997
305.892	3.99077
306.108	3.1934
306.324	2.29878
306.54	4.4966
306.756	3.18602
306.972	3.08771
307.187	2.6659
307.403	3.99864
307.619	2.28157
307.835	3.80241
308.051	4.18891
308.267	1.85723
308.483	3.87871
308.699	3.16565
308.914	2.78879
309.13	2.69335
309.346	1.61245
309.562	1.83991
309.778	1.51345
309.993	3.16415
310.209	2.80022
310.425	1.7845
310.641	2.6639
310.856	1.89697
311.072	1.76045
311.288	2.63259
311.503	2.76888
311.719	1.21721
311.935	1.13602
312.15	3.19094
312.366	2.78332
312.581	3.13204
312.797	2.80441
313.013	3.5242
313.228	2.17691
313.444	2.55157
313.659	2.169
313.875	3.24468
314.09	2.51083
314.306	4.01833
314.521	3.5339
314.737	3.33024
314.952	2.65738
315.168	2.77924
315.383	3.10896
315.599	2.40618
315.814	2.36693
316.029	3.3319
316.245	1.70649
316.46	1.2552
316.675	3.74954
316.891	4.22758
317.106	5.41483
317.321	2.94872
317.537	3.38169
317.752	3.52623
317.967	3.54657
318.183	1.92759
318.398	2.39354
318.613	3.4681
318.828	4.01099
319.043	3.44949
319.259	2.48458
319.474	2.93749
319.689	3.83516
319.904	1.22423
320.119	3.56082
320.334	3.05985
320.549	2.43058
320.765	3.75205
320.98	3.04357
321.195	3.25925
321.41	2.64476
321.625	3.47846
321.84	4.42602
322.055	4.25624
322.27	2.11482
322.485	1.83771
322.7	3.20933
322.915	3.40249
323.13	2.10614
323.345	4.05733
323.56	3.8524
323.775	3.3611
323.989	3.13972
324.204	2.89508
324.419	3.74653
324.634	1.80912
324.849	2.55083
325.064	5.8933
325.279	3.66995
325.493	3.16931
325.708	3.47345
325.923	2.06513
326.138	2.35309
326.352	4.20587
326.567	3.676
326.782	2.37256
326.997	2.25724
327.211	3.32189
327.426	3.01005
327.641	2.52362
327.855	1.51336
328.07	3.24901
328.285	4.37446
328.499	2.2953
328.714	3.04281
328.928	3.33405
329.143	2.62509
329.358	3.7073
329.572	3.7211
329.787	4.158
330.001	5.12837
330.216	1.69897
330.43	4.61799
330.645	4.29862
330.859	3.75102
331.074	2.15616
331.288	2.99176
331.503	4.04224
331.717	1.85038
331.931	3.06772
332.146	3.06691
332.36	4.56784
332.575	3.19583
332.789	2.93188
333.003	3.11671
333.218	3.26243
333.432	2.35958
333.646	3.67773
333.86	4.49153
334.075	4.31615
334.289	2.38077
334.503	1.86376
334.717	3.3734
334.932	3.1912
335.146	4.00205
335.36	2.40285
335.574	3.43603
335.788	3.19096
336.003	3.84556
336.217	3.44212
336.431	3.33966
336.645	2.3971
336.859	1.81585
337.073	2.75549
337.287	3.09162
337.501	1.9213
337.715	3.12442
337.929	3.61279
338.143	1.85961
338.357	2.75094
338.571	2.31683
338.785	3.41884
338.999	2.49555
339.213	2.48731
339.427	1.62163
339.641	4.11383
339.855	2.54178
340.069	2.34089
340.283	3.71896
340.497	4.60522
340.711	3.38205
340.924	2.7961
341.138	1.98766
341.352	1.80097
341.566	3.02541
341.78	1.64004
341.993	2.53398
342.207	2.12873
342.421	3.07361
342.635	2.78693
342.848	2.47053
343.062	1.05187
343.276	2.36129
343.49	4.54725
343.703	2.21442
343.917	3.81444
344.131	3.75683
344.344	2.27734
344.558	2.60524
344.771	1.90617
344.985	4.19261
345.199	4.25591
345.412	3.22439
345.626	3.259
345.839	1.5219
346.053	1.8916
346.266	2.11693
346.48	3.4183
346.693	3.14069
346.907	3.18451
347.12	2.08094
347.334	3.14002
347.547	3.10638
347.76	2.78091
347.974	3.86567
348.187	3.155
348.401	2.55131
348.614	2.26187
348.827	2.54554
349.041	3.28604
349.254	1.50896
349.467	2.53639
349.681	1.8821
349.894	2.2514
350.107	3.86382
350.32	4.33468
350.534	1.64233
350.747	2.48796
350.96	2.08953
351.173	2.35259
351.386	2.54538
351.6	2.54852
351.813	2.39621
352.026	2.67382
352.239	1.88297
352.452	2.529
352.665	3.63944
352.878	2.73451
353.092	4.44947
353.305	3.39179
353.518	2.96868
353.731	2.15261
353.944	3.62455
354.157	2.52442
354.37	2.30254
354.583	2.03529
354.796	1.58251
355.009	3.61084
355.222	3.00247
355.435	2.89545
355.647	3.54125
355.86	2.24847
356.073	2.84332
356.286	2.43804
356.499	3.45147
356.712	3.09818
356.925	3.35262
357.138	3.48292
357.35	2.1535
357.563	2.61552
357.776	2.88094
357.989	2.71187
358.201	3.19888
358.414	3.06108
358.627	3.94431
358.84	2.65567
359.052	1.86524
359.265	2.31604
359.478	3.67197
359.69	1.0622
359.903	3.3959
360.116	3.61127
360.328	1.63264
360.541	3.38672
360.753	2.22978
360.966	2.58982
361.179	2.6308
361.391	2.54919
361.604	2.23254
361.816	2.59989
362.029	2.48741
362.241	2.28364
362.454	2.60021
362.666	2.27881
362.879	3.13935
363.091	2.60413
363.304	2.41415
363.516	2.79473
363.728	2.15048
363.941	3.26176
364.153	2.74314
364.366	1.42428
364.578	2.09859
364.79	3.0733
365.003	2.90224
365.215	2.43446
365.427	3.18631
365.639	3.63457
365.852	2.92754
366.064	4.43881
366.276	2.74599
366.488	3.19227
366.701	2.57948
366.913	2.83216
367.125	2.68547
367.337	2.34016
367.549	2.54587
367.762	3.02336
367.974	2.84751
368.186	2.452
368.398	3.53846
368.61	3.35546
368.822	3.3825
369.034	2.7687
369.246	3.48535
369.458	5.22398
369.67	2.4075
369.882	4.25395
370.094	1.66951
370.306	4.09721
370.518	2.75251
370.73	2.52869
370.942	2.48936
371.154	2.98146
371.366	2.67445
371.578	3.29372
371.79	2.68425
372.002	3.82956
372.214	4.55933
372.425	3.01921
372.637	4.07629
372.849	3.42011
373.061	1.71096
373.273	3.43894
373.484	3.39823
373.696	3.73931
373.908	1.636
374.12	3.96599
374.331	3.4313
374.543	2.63537
374.755	2.54289
374.967	3.31624
375.178	3.77229
375.39	2.99383
375.602	3.23222
375.813	2.22956
376.025	2.57918
376.236	3.43647
376.448	3.51704
376.66	3.03085
376.871	3.03056
377.083	4.23645
377.294	4.45603
377.506	3.04443
377.717	4.32736
377.929	3.65053
378.14	3.042
378.352	3.69596
378.563	3.78625
378.775	4.36618
378.986	2.76352
379.197	3.52541
379.409	2.93085
379.62	3.98156
379.832	3.74519
380.043	3.34164
380.254	3.59271
380.466	2.8499
380.677	5.605
380.888	4.90726
381.1	5.26361
381.311	5.41141
381.522	3.70549
381.733	5.60992
381.945	3.60713
382.156	3.52867
382.367	3.3174
382.578	5.651
382.789	5.56742
383.001	3.27637
383.212	4.87349
383.423	4.97533
383.634	4.58459
383.845	4.334
384.056	3.53049
384.267	3.96778
384.478	3.96727
384.69	3.18773
384.901	4.22665
385.112	4.21018
385.323	5.0522
385.534	4.29963
385.745	4.21096
385.956	4.22282
386.167	3.48474
386.378	4.45962
386.588	3.47455
386.799	3.63193
387.01	3.21291
387.221	4.62675
387.432	4.08117
387.643	5.39458
387.854	4.02695
388.065	3.97247
388.275	4.098
388.486	3.89504
388.697	4.05258
388.908	3.853
389.119	4.96847
389.329	5.26796
389.54	4.27287
389.751	4.51138
389.962	5.24434
390.172	4.41241
390.383	4.20498
390.594	4.03543
390.804	4.05968
391.015	4.06312
391.226	4.67392
391.436	4.86885
391.647	4.783
391.858	5.01749
392.068	3.60593
392.279	3.92702
392.489	4.77749
392.7	5.32184
392.91	4.18003
393.121	4.16133
393.331	4.98133
393.542	5.35993
393.752	5.2111
393.963	5.07351
394.173	4.94551
394.384	5.16708
394.594	4.87092
394.804	4.13888
395.015	5.00777
395.225	5.18592
395.436	4.35078
395.646	5.16549
395.856	4.61705
396.067	3.8873
396.277	5.43134
396.487	5.17761
396.697	5.20035
396.908	5.21176
397.118	5.23982
397.328	5.04655
397.538	5.60649
397.749	4.44447
397.959	5.53243
398.169	5.36045
398.379	4.18297
398.589	5.41891
398.8	5.1779
399.01	5.13711
399.22	4.91241
399.43	6.51363
399.64	5.1952
399.85	5.42989
400.06	5.28666
400.27	4.75296
400.48	5.13914
400.69	6.07718
400.9	4.93665
401.11	4.60098
401.32	5.79029
401.53	4.99616
401.74	6.25155
401.95	5.6109
402.16	4.88709
402.37	5.42835
402.58	5.13365
402.79	5.76732
403	5.9792
403.209	4.9695
403.419	6.03506
403.629	4.84852
403.839	6.08885
404.049	6.02104
404.258	5.11179
404.468	5.07395
404.678	5.97737
404.888	6.29955
405.097	5.31021
405.307	5.45896
405.517	5.95179
405.727	5.83986
405.936	5.40007
406.146	5.80986
406.356	6.46561
406.565	5.62646
406.775	5.44171
406.984	5.38798
407.194	6.76796
407.404	5.62461
407.613	5.98107
407.823	6.10245
408.032	6.32247
408.242	6.32464
408.451	5.35901
408.661	5.58149
408.87	6.79891
409.08	5.29533
409.289	5.94634
409.499	5.91721
409.708	5.84523
409.918	4.56745
410.127	5.91079
410.336	6.78068
410.546	6.24404
410.755	5.66729
410.964	5.79167
411.174	5.35889
411.383	6.17873
411.592	6.23664
411.802	5.34005
412.011	6.28018
412.22	5.78315
412.429	6.9914
412.639	6.81674
412.848	6.53672
413.057	6.86762
413.266	6.77692
413.475	6.02586
413.685	6.3605
413.894	6.56619
414.103	6.82974
414.312	6.58485
414.521	5.90781
414.73	6.19286
414.939	7.47433
415.148	6.4463
415.357	6.43045
415.566	6.08331
415.776	6.08461
415.985	6.03047
416.194	6.87755
416.403	7.55791
416.611	5.62744
416.82	6.16457
417.029	6.52043
417.238	6.19134
417.447	6.02849
417.656	6.35658
417.865	6.24615
418.074	6.54666
418.283	6.68179
418.492	7.26561
418.7	7.06011
418.909	7.94178
419.118	7.10982
419.327	7.52395
419.536	7.37356
419.744	7.322
419.953	8.43098
420.162	8.66136
420.371	8.05279
420.579	8.40858
420.788	9.21625
420.997	9.35776
421.205	9.64027
421.414	9.45217
421.623	9.5059
421.831	9.21649
422.04	9.59812
422.249	8.87902
422.457	9.21772
422.666	8.55186
422.874	9.28434
423.083	9.31291
423.291	9.39597
423.5	9.25505
423.708	9.52516
423.917	9.93224
424.125	9.45092
424.334	9.37076
424.542	10.91095
424.751	10.48492
424.959	10.06012
425.167	10.31668
425.376	10.09194
425.584	9.0272
425.793	8.99179
426.001	8.14988
426.209	8.47823
426.418	7.35374
426.626	7.21645
426.834	7.04196
427.042	7.44534
427.251	7.08536
427.459	7.83187
427.667	7.41485
427.875	6.68913
428.084	7.00277
428.292	8.03509
428.5	7.58657
428.708	6.64623
428.916	6.71495
429.124	7.22185
429.333	7.05116
429.541	7.06425
429.749	7.32976
429.957	7.33128
430.165	8.84191
430.373	6.39271
430.581	7.42502
430.789	8.15248
430.997	7.19095
431.205	6.80802
431.413	7.50019
431.621	7.12238
431.829	7.76295
432.037	7.30355
432.245	7.58244
432.453	7.64356
432.661	7.2791
432.869	8.4988
433.076	7.17331
433.284	7.4615
433.492	7.96441
433.7	8.20094
433.908	7.5494
434.116	7.66569
434.323	7.77787
434.531	7.60842
434.739	7.93311
434.947	8.1625
435.154	8.05437
435.362	7.63802
435.57	7.48318
435.778	7.29902
435.985	7.75247
436.193	7.3345
436.401	8.26279
436.608	7.60211
436.816	7.37914
437.023	8.38725
437.231	8.53263
437.439	7.78584
437.646	8.01813
437.854	7.87231
438.061	8.11726
438.269	7.627
438.476	8.14263
438.684	7.82344
438.891	7.70998
439.099	7.46839
439.306	7.36306
439.514	7.3095
439.721	8.37644
439.929	8.0427
440.136	8.82449
440.343	8.87412
440.551	8.70257
440.758	10.27935
440.965	9.07992
441.173	8.86192
441.38	8.6667
441.587	8.64848
441.795	8.32341
442.002	8.19482
442.209	8.15486
442.416	8.19947
442.624	8.27189
442.831	8.1299
443.038	7.69056
443.245	7.34546
443.452	7.74114
443.66	8.21316
443.867	7.72574
444.074	7.64555
444.281	7.64069
444.488	7.72536
444.695	7.95966
444.902	7.78577
445.109	8.77934
445.316	8.52791
445.523	8.81947
445.73	8.94429
445.937	9.8117
446.144	10.22854
446.351	10.54972
446.558	9.68165
446.765	11.2826
446.972	10.74855
447.179	10.37352
447.386	10.99935
447.593	9.5802
447.8	10.35107
448.007	9.10934
448.214	8.72526
448.42	8.24996
448.627	8.70389
448.834	8.1621
449.041	7.9878
449.248	7.96634
449.454	8.40347
449.661	8.97301
449.868	7.79311
450.075	7.77114
450.281	6.89512
450.488	7.45079
450.695	7.46926
450.901	7.63619
451.108	7.76013
451.315	8.50897
451.521	7.89262
451.728	8.59487
451.935	7.62703
452.141	7.86969
452.348	7.92481
452.554	7.96313
452.761	7.73725
452.967	8.83669
453.174	8.07595
453.38	8.30404
453.587	7.45206
453.793	8.18118
454	8.61877
454.206	9.226
454.413	8.55292
454.619	8.24
454.825	7.66094
455.032	8.39023
455.238	8.44666
455.445	7.47599
455.651	8.13043
455.857	7.14913
456.064	7.88717
456.27	7.79043
456.476	7.83606
456.682	7.34931
456.889	8.21599
457.095	8.26911
457.301	9.36384
457.507	8.0588
457.714	8.08222
457.92	8.14181
458.126	7.62203
458.332	8.03699
458.538	7.87832
458.744	8.04447
458.951	8.09069
459.157	9.98369
459.363	9.21769
459.569	9.57316
459.775	10.25517
459.981	9.83369
460.187	10.26571
460.393	10.62188
460.599	10.77967
460.805	10.08837
461.011	9.25211
461.217	9.24767
461.423	9.0144
461.629	8.38324
461.835	8.66261
462.041	8.28111
462.247	9.1689
462.453	8.22627
462.658	8.21509
462.864	8.6474
463.07	8.35109
463.276	8.33472
463.482	8.2297
463.688	8.88276
463.893	7.88644
464.099	8.14952
464.305	8.99768
464.511	7.97303
464.716	8.23856
464.922	8.66623
465.128	7.81387
465.333	9.19343
465.539	8.6625
465.745	8.29897
465.95	8.38067
466.156	9.85484
466.362	9.02994
466.567	8.22569
466.773	8.07453
466.978	9.14129
467.184	7.88602
467.389	7.38856
467.595	8.47789
467.8	7.95477
468.006	9.0027
468.211	9.07787
468.417	7.76118
468.622	8.50093
468.828	8.74434
469.033	8.5813
469.239	9.73383
469.444	8.21795
469.649	8.87191
469.855	8.34787
470.06	8.33841
470.266	7.93048
470.471	8.68173
470.676	8.56888
470.881	7.48293
471.087	9.1805
471.292	9.87487
471.497	7.74251
471.703	8.33796
471.908	8.15429
472.113	8.4316
472.318	8.87691
472.523	7.89054
472.729	8.6564
472.934	8.68424
473.139	8.19141
473.344	8.65157
473.549	9.07518
473.754	8.10594
473.959	9.94574
474.164	7.96369
474.369	8.37004
474.575	8.93238
474.78	8.50421
474.985	8.12905
475.19	7.501
475.395	8.06535
475.6	8.44168
475.804	9.26118
476.009	8.52156
476.214	8.49047
476.419	8.34621
476.624	7.7687
476.829	8.10787
477.034	8.89509
477.239	8.17678
477.444	8.83354
477.648	8.89861
477.853	8.87469
478.058	8.43467
478.263	8.26557
478.468	8.05738
478.672	8.16303
478.877	9.29895
479.082	9.46794
479.287	8.86277
479.491	8.63963
479.696	8.20737
479.901	9.04723
480.105	9.03833
480.31	8.35135
480.515	8.64281
480.719	9.78394
480.924	8.47328
481.128	8.11719
481.333	8.85335
481.538	8.8257
481.742	8.99093
481.947	10.02303
482.151	10.83924
482.356	11.54041
482.56	13.44997
482.765	14.89208
482.969	17.6147
483.174	20.01109
483.378	23.19593
483.582	24.206
483.787	26.18322
483.991	27.0376
484.196	27.60287
484.4	27.47496
484.604	28.07582
484.809	25.71654
485.013	24.37847
485.217	22.41392
485.422	20.01609
485.626	18.09735
485.83	16.96496
486.034	16.06899
486.239	16.15597
486.443	16.46481
486.647	16.65229
486.851	17.66583
487.055	18.95215
487.26	19.03731
487.464	20.0026
487.668	19.78128
487.872	20.51625
488.076	20.7577
488.28	20.03964
488.484	18.94689
488.688	18.59441
488.892	17.62437
489.096	16.41089
489.3	15.16719
489.504	14.11597
489.708	13.42063
489.912	12.91679
490.116	12.51916
490.32	11.9904
490.524	12.98198
490.728	13.78393
490.932	14.4494
491.136	15.28923
491.34	16.49829
491.544	17.04063
491.748	17.01106
491.951	17.27459
492.155	16.81465
492.359	16.58729
492.563	15.35068
492.767	14.56165
492.97	13.10144
493.174	11.75029
493.378	10.75169
493.582	9.49512
493.785	9.10585
493.989	9.16127
494.193	9.12668
494.396	8.86533
494.6	9.25352
494.804	8.91332
495.007	8.5836
495.211	8.69969
495.414	8.7688
495.618	9.03707
495.822	9.50329
496.025	8.85964
496.229	9.27617
496.432	8.70008
496.636	9.00803
496.839	8.88056
497.043	9.7069
497.246	9.24809
497.45	8.83497
497.653	9.09832
497.856	9.14343
498.06	8.71459
498.263	9.00891
498.467	8.91205
498.67	9.44126
498.873	9.20809
499.077	8.87112
499.28	8.99862
499.483	9.13222
499.686	9.3341
499.89	9.13031
500.093	9.41445
500.296	8.58872
500.499	9.76485
500.703	9.00896
500.906	9.17038
501.109	9.75742
501.312	9.01745
501.515	8.87483
501.719	9.14551
501.922	9.55558
502.125	9.019
502.328	8.87037
502.531	8.54883
502.734	8.92285
502.937	8.19321
503.14	9.02276
503.343	8.58263
503.546	8.84489
503.749	8.53315
503.952	9.32397
504.155	8.65204
504.358	9.19814
504.561	8.98352
504.764	8.40689
504.967	9.12028
505.17	8.96546
505.373	9.76316
505.576	9.04257
505.778	9.42165
505.981	8.57118
506.184	9.64479
506.387	8.21186
506.59	9.96395
506.793	9.56602
506.995	9.2513
507.198	8.07817
507.401	9.23931
507.604	9.18493
507.806	8.61167
508.009	8.63149
508.212	9.4943
508.414	8.75827
508.617	8.69782
508.82	8.92773
509.022	9.751
509.225	9.23065
509.427	8.50238
509.63	9.70797
509.833	9.15958
510.035	8.89411
510.238	8.41031
510.44	9.68762
510.643	8.34714
510.845	10.01913
511.048	9.29122
511.25	8.83205
511.453	9.0103
511.655	9.2614
511.858	8.88814
512.06	9.40563
512.262	9.20476
512.465	9.5123
512.667	8.77362
512.869	8.52964
513.072	9.30278
513.274	9.42163
513.476	9.49743
513.679	9.56799
513.881	8.58706
514.083	9.86762
514.286	8.7047
514.488	8.76343
514.69	8.63538
514.892	8.40469
515.094	9.34401
515.297	8.68493
515.499	9.15387
515.701	8.62336
515.903	9.87503
516.105	9.96564
516.307	9.41923
516.509	8.25225
516.711	8.48449
516.913	9.14712
517.116	9.11168
517.318	8.91421
517.52	9.67892
517.722	9.41057
517.924	8.64677
518.126	9.43134
518.328	9.08229
518.529	9.76299
518.731	10.65135
518.933	9.25634
519.135	9.42939
519.337	10.08735
519.539	9.61394
519.741	8.53698
519.943	9.1553
520.145	9.12863
520.346	9.59832
520.548	9.05933
520.75	9.39617
520.952	8.99696
521.153	9.31284
521.355	9.34006
521.557	8.6743
521.759	9.20252
521.96	9.00501
522.162	8.60401
522.364	9.69247
522.565	8.85281
522.767	9.42678
522.969	9.61978
523.17	9.39509
523.372	9.32149
523.573	8.96543
523.775	9.05699
523.977	8.86938
524.178	10.12396
524.38	8.85251
524.581	9.48742
524.783	9.08507
524.984	9.5154
525.186	9.33775
525.387	9.9141
525.589	10.03451
525.79	10.0547
525.991	10.04839
526.193	10.72794
526.394	10.17845
526.596	11.12652
526.797	11.34336
526.998	11.0082
527.2	11.53553
527.401	13.26195
527.602	14.18101
527.803	16.42135
528.005	17.60893
528.206	19.10698
528.407	20.28908
528.608	20.64314
528.81	21.23016
529.011	20.82692
529.212	21.81621
529.413	20.6889
529.614	19.56823
529.815	18.44114
530.017	17.04791
530.218	15.14025
530.419	13.45371
530.62	12.99019
530.821	12.11082
531.022	10.7107
531.223	11.28756
531.424	11.04161
531.625	10.98001
531.826	10.68036
532.027	11.20643
532.228	12.28879
532.429	12.48492
532.63	12.96418
532.831	13.75999
533.032	14.10976
533.233	14.94745
533.433	14.69831
533.634	14.99334
533.835	14.328
534.036	13.83653
534.237	13.44833
534.438	12.48982
534.638	11.30613
534.839	10.71752
535.04	10.37427
535.241	9.69789
535.441	10.42397
535.642	10.005
535.843	9.45591
536.043	9.74363
536.244	9.96866
536.445	10.25601
536.645	11.01434
536.846	10.63916
537.047	11.18934
537.247	10.06576
537.448	9.86641
537.648	9.6966
537.849	9.46708
538.049	9.39887
538.25	9.73539
538.451	9.53597
538.651	8.92871
538.851	9.65626
539.052	9.93605
539.252	9.76741
539.453	9.44958
539.653	9.41418
539.854	9.31504
540.054	9.38897
540.254	11.0219
540.455	12.04666
540.655	12.33931
540.855	13.94861
541.056	15.14436
541.256	15.21022
541.456	16.25793
541.657	16.02719
541.857	16.68042
542.057	15.52606
542.257	15.06838
542.458	15.1747
542.658	14.75631
542.858	12.9064
543.058	12.73538
543.258	12.05329
543.458	10.7035
543.659	10.2199
543.859	10.57299
544.059	10.18641
544.259	9.55271
544.459	10.0763
544.659	9.37932
544.859	9.82631
545.059	9.32065
545.259	9.83185
545.459	9.5788
545.659	10.02924
545.859	9.55093
546.059	9.63783
546.259	9.07076
546.459	8.84984
546.659	9.02022
546.859	9.89152
547.059	9.62751
547.258	9.69858
547.458	9.76262
547.658	9.07172
547.858	8.9152
548.058	9.58025
548.258	9.28865
548.457	8.92868
548.657	10.58931
548.857	9.3361
549.057	9.7496
549.256	9.65711
549.456	8.87838
549.656	8.22476
549.855	10.3384
550.055	9.01509
550.255	10.32858
550.454	9.44659
550.654	9.71869
550.853	10.11564
551.053	9.60474
551.253	9.44179
551.452	9.59104
551.652	8.62929
551.851	8.44141
552.051	9.05678
552.25	8.89937
552.45	8.90997
552.649	9.08734
552.849	8.70379
553.048	9.32889
553.248	9.69239
553.447	8.64653
553.646	9.63137
553.846	10.79167
554.045	10.11458
554.244	8.4108
554.444	10.08739
554.643	8.53889
554.842	10.05825
555.042	10.44107
555.241	8.7517
555.44	8.4932
555.64	9.47214
555.839	10.18851
556.038	9.46673
556.237	8.78715
556.436	9.25283
556.636	9.38193
556.835	8.6238
557.034	10.069
557.233	9.07888
557.432	8.20244
557.631	9.80605
557.83	8.89106
558.029	8.80318
558.228	8.66871
558.427	8.44766
558.626	9.32192
558.825	8.56747
559.024	8.94011
559.223	10.23735
559.422	8.98862
559.621	9.36084
559.82	7.5876
560.019	9.09055
560.218	8.77684
560.417	7.44748
560.616	8.79525
560.815	11.24108
561.014	8.17805
561.212	10.14801
561.411	9.28142
561.61	8.19623
561.809	8.93459
562.008	10.34363
562.206	8.90463
562.405	9.402
562.604	9.06391
562.803	9.25724
563.001	8.87256
563.2	8.28968
563.399	9.43253
563.597	8.26029
563.796	9.04555
563.995	8.26732
564.193	9.52458
564.392	8.95587
564.59	10.40525
564.789	7.92883
564.988	8.88179
565.186	9.34089
565.385	9.03013
565.583	8.85867
565.782	9.20001
565.98	9.04148
566.179	9.01023
566.377	8.65483
566.575	8.71661
566.774	10.1667
566.972	9.72629
567.171	10.58166
567.369	10.10833
567.567	9.34449
567.766	9.37183
567.964	7.9135
568.162	9.67999
568.361	9.93476
568.559	8.83973
568.757	9.3608
568.956	9.17881
569.154	9.09462
569.352	9.47989
569.55	8.99876
569.748	9.11625
569.947	8.70905
570.145	8.44343
570.343	8.48952
570.541	10.14981
570.739	8.31075
570.937	9.12643
571.135	9.55602
571.333	10.73816
571.532	10.55269
571.73	9.37391
571.928	9.92274
572.126	9.58989
572.324	9.0716
572.522	10.08609
572.72	11.04641
572.918	9.21735
573.116	9.65707
573.313	9.01255
573.511	9.20277
573.709	8.75329
573.907	9.76844
574.105	8.90562
574.303	8.24391
574.501	8.21776
574.699	9.50613
574.896	9.44745
575.094	9.68932
575.292	8.40778
575.49	9.8692
575.688	9.08497
575.885	10.11918
576.083	10.79066
576.281	9.55316
576.478	8.68125
576.676	9.57811
576.874	8.21212
577.071	9.01749
577.269	10.76033
577.467	9.00157
577.664	8.9774
577.862	9.82439
578.059	8.4118
578.257	9.6779
578.455	8.85289
578.652	9.09821
578.85	7.68367
579.047	9.12717
579.245	8.81186
579.442	8.92486
579.64	8.90488
579.837	7.63626
580.034	10.99007
580.232	8.72808
580.429	8.19189
580.627	9.45221
580.824	9.95778
581.021	9.5285
581.219	8.71166
581.416	8.43819
581.613	10.06999
581.811	9.98422
582.008	8.29648
582.205	9.62602
582.402	9.34922
582.6	10.83668
582.797	9.07966
582.994	9.3597
583.191	9.66064
583.388	8.77266
583.586	9.74768
583.783	9.8798
583.98	8.21339
584.177	9.11181
584.374	6.80837
584.571	8.82672
584.768	8.96984
584.965	8.56649
585.162	9.58979
585.359	10.386
585.556	9.09794
585.753	9.39204
585.95	7.94605
586.147	8.1361
586.344	9.22746
586.541	8.84519
586.738	8.09181
586.935	8.95669
587.132	8.49949
587.329	9.91766
587.526	8.95355
587.722	13.20345
587.919	7.96892
588.116	9.38838
588.313	10.10203
588.51	10.88545
588.706	8.93933
588.903	9.57826
589.1	9.86334
589.297	11.47232
589.493	9.05326
589.69	9.59362
589.887	8.69307
590.083	8.28685
590.28	8.48519
590.477	9.95332
590.673	9.65968
590.87	10.07545
591.067	8.58653
591.263	9.40525
591.46	9.45763
591.656	8.8752
591.853	10.4492
592.049	8.49681
592.246	8.73236
592.442	9.94319
592.639	10.18896
592.835	8.45356
593.032	9.46979
593.228	7.91697
593.425	8.08207
593.621	7.62336
593.817	9.37664
594.014	8.36398
594.21	9.32812
594.406	10.04663
594.603	9.46546
594.799	8.49695
594.995	7.44633
595.192	10.10654
595.388	8.90047
595.584	8.73725
595.78	8.15245
595.977	11.56629
596.173	10.50063
596.369	9.00625
596.565	8.39947
596.761	8.10651
596.957	10.27471
597.154	8.69824
597.35	8.9036
597.546	8.72996
597.742	9.6474
597.938	9.34461
598.134	8.61875
598.33	9.33823
598.526	10.11891
598.722	9.38772
598.918	10.59277
599.114	9.64618
599.31	8.21738
599.506	9.13219
599.702	8.44712
599.898	9.17065
600.094	9.86811
600.29	9.87158
600.485	10.08295
600.681	8.45488
600.877	10.62938
601.073	9.21421
601.269	11.06099
601.465	10.35787
601.66	8.25186
601.856	7.41672
602.052	11.05042
602.248	8.92282
602.443	7.49144
602.639	8.18181
602.835	8.65349
603.03	8.39833
603.226	10.06295
603.422	8.5241
603.617	8.95238
603.813	8.85494
604.009	8.89726
604.204	10.41668
604.4	8.15204
604.595	10.20641
604.791	8.59468
604.986	9.47664
605.182	8.63478
605.377	9.05835
605.573	8.96965
605.768	9.34585
605.964	9.76229
606.159	9.7682
606.355	10.08378
606.55	8.8387
606.746	10.01427
606.941	9.17072
607.136	10.81957
607.332	11.71534
607.527	8.22235
607.722	9.55352
607.918	8.86001
608.113	8.44747
608.308	9.94021
608.503	9.75643
608.699	9.67968
608.894	9.72061
609.089	8.54614
609.284	9.5783
609.479	8.95634
609.675	9.90718
609.87	9.25842
610.065	10.05516
610.26	10.13932
610.455	10.02138
610.65	9.39634
610.845	9.72725
611.04	10.15656
611.235	9.19848
611.43	9.17672
611.625	8.33435
611.82	10.76729
612.015	8.70806
612.21	11.09989
612.405	8.13172
612.6	11.21834
612.795	11.00883
612.99	9.97265
613.185	8.41071
613.38	8.58633
613.575	9.53646
613.77	12.34595
613.965	7.82326
614.159	8.47647
614.354	10.59355
614.549	10.53546
614.744	9.99602
614.938	8.1149
615.133	7.98976
615.328	10.71894
615.523	10.49748
615.717	12.55248
615.912	8.62586
616.107	9.57412
616.301	9.13447
616.496	8.59932
616.691	11.31433
616.885	10.0888
617.08	12.60624
617.274	10.56649
617.469	11.63019
617.664	10.28189
617.858	8.86996
618.053	9.73121
618.247	9.17424
618.442	7.10345
618.636	11.05535
618.831	8.69717
619.025	8.73134
619.219	12.82061
619.414	6.21762
619.608	9.19993
619.803	8.51357
619.997	11.97589
620.191	10.64453
620.386	10.03694
620.58	9.25651
620.774	7.53588
620.969	7.76027
621.163	9.63899
621.357	8.18402
621.551	9.21284
621.746	9.65469
621.94	9.11434
622.134	13.31815
622.328	12.01597
622.522	7.72421
622.716	10.74683
622.911	10.74498
623.105	10.54285
623.299	9.95643
623.493	13.02655
623.687	8.62813
623.881	8.64529
624.075	10.27145
624.269	10.94351
624.463	7.30284
624.657	7.67423
624.851	10.32633
625.045	10.34968
625.239	10.52741
625.433	8.87288
625.627	11.51559
625.821	8.86747
626.015	8.76055
626.209	9.67075
626.403	7.91123
626.596	9.9989
626.79	10.61663
626.984	8.46351
627.178	10.31719
627.372	10.08925
627.565	10.36585
627.759	8.18378
627.953	8.37427
628.147	9.98426
628.34	10.65484
628.534	12.07215
628.728	9.3811
628.921	10.7637
629.115	10.53394
629.309	10.64451
629.502	11.06708
629.696	9.7608
629.89	9.59519
630.083	9.84559
630.277	10.0113
630.47	11.69134
630.664	9.28522
630.857	7.99934
631.051	10.56431
631.244	11.22154
631.438	10.7161
631.631	8.79993
631.825	11.49843
632.018	10.20738
632.212	12.10448
632.405	11.29076
632.598	8.84453
632.792	9.75841
632.985	6.73355
633.178	9.24433
633.372	9.67557
633.565	9.43353
633.758	11.27581
633.952	8.78033
634.145	8.5833
634.338	9.20018
634.531	9.2173
634.724	8.73137
634.918	9.78453
635.111	9.30766
635.304	9.41165
635.497	12.84975
635.69	10.33604
635.883	11.25462
636.077	8.70575
636.27	10.47162
636.463	10.24673
636.656	10.07299
636.849	9.63565
637.042	10.45452
637.235	12.34119
637.428	10.9756
637.621	10.58097
637.814	12.14818
638.007	11.71529
638.2	11.69712
638.393	12.22874
638.586	8.18455
638.778	9.4221
638.971	9.60786
639.164	12.40118
639.357	10.25311
639.55	12.39671
639.743	11.18094
639.935	10.59611
640.128	13.43018
640.321	11.3505
640.514	10.79657
640.707	13.73209
640.899	11.0997
641.092	7.98065
641.285	25.75623
641.477	7.08808
641.67	14.42054
641.863	12.31488
642.055	10.79975
642.248	10.17541
642.441	9.77859
642.633	11.30514
642.826	12.27789
643.018	12.47056
643.211	13.26189
643.403	13.59146
643.596	13.85508
643.788	13.0239
643.981	9.88079
644.173	11.79793
644.366	9.92366
644.558	7.7326
644.751	12.15058
644.943	8.70395
645.135	13.49243
645.328	13.25504
645.52	11.67104
645.712	12.25437
645.905	15.62499
646.097	8.90124
646.289	11.42626
646.482	14.11987
646.674	9.43181
646.866	12.45896
647.058	11.57601
647.251	9.20256
647.443	10.03861
647.635	10.21969
647.827	8.94082
648.019	8.97567
648.211	10.48099
648.404	10.94966
648.596	13.53416
648.788	11.35726
648.98	11.047
649.172	11.73517
649.364	11.38579
649.556	8.31103
649.748	15.38104
649.94	9.1268
650.132	11.98362
650.324	9.74604
650.516	9.78515
650.708	12.54102
650.9	8.77725
651.092	8.37694
651.284	8.56527
651.476	9.32715
651.667	12.0611
651.859	13.31656
652.051	10.88
652.243	11.24765
652.435	10.29751
652.627	11.59717
652.818	11.71931
653.01	8.61169
653.202	9.72164
653.394	10.20675
653.585	11.56254
653.777	18.3623
653.969	13.70565
654.16	13.15446
654.352	9.29798
654.544	10.90684
654.735	13.15227
654.927	11.27382
655.118	13.69955
655.31	12.49472
655.502	13.28702
655.693	10.68165
655.885	12.10636
656.076	13.70178
656.268	11.48267
656.459	13.68859
656.651	13.65114
656.842	10.52626
657.034	10.01806
657.225	12.64209
657.416	14.05926
657.608	13.68829
657.799	11.64837
657.99	13.81718
658.182	10.16763
658.373	10.12778
658.564	13.34296
658.756	11.80269
658.947	10.982
659.138	9.79491
659.33	10.57321
659.521	9.9807
659.712	11.02692
659.903	10.7849
660.094	10.5597
660.286	8.7414
660.477	14.44549
660.668	12.2773
660.859	11.11249
661.05	9.28864
661.241	11.56701
661.432	11.89368
661.623	10.65017
661.814	10.66816
662.006	8.97782
662.197	12.05113
662.388	13.69016
662.579	11.74612
662.77	13.79685
662.96	16.72283
663.151	13.4821
663.342	8.43739
663.533	12.78071
663.724	11.56318
663.915	15.18236
664.106	11.87282
664.297	15.35618
664.488	12.98364
664.678	10.48334
664.869	13.34472
665.06	13.35516
665.251	12.13633
665.442	13.16232
665.632	10.18305
665.823	15.92878
666.014	6.69823
666.204	13.73706
666.395	14.36007
666.586	16.60128
666.776	13.55718
666.967	15.75432
667.158	12.21193
667.348	15.30466
667.539	10.18847
667.729	14.05166
667.92	10.89301
668.111	14.08029
668.301	13.74447
668.492	11.58506
668.682	12.6913
668.873	12.32749
669.063	9.9732
669.253	12.47294
669.444	15.17362
669.634	11.88513
669.825	15.73855
670.015	14.75045
670.206	10.73231
670.396	16.27848
670.586	11.7515
670.777	13.1399
670.967	8.06196
671.157	12.07759
671.347	11.15745
671.538	15.63846
671.728	13.60724
671.918	16.26976
672.108	14.57803
672.299	11.95165
672.489	12.89265
672.679	11.22742
672.869	14.14441
673.059	17.19391
673.249	13.20969
673.44	10.33024
673.63	11.9895
673.82	14.44891
674.01	10.67108
674.2	13.52115
674.39	18.54193
674.58	14.23544
674.77	12.84555
674.96	12.42376
675.15	21.70923
675.34	15.12817
675.53	13.04389
675.72	12.11362
675.91	9.68593
676.099	17.19188
676.289	18.33234
676.479	15.47841
676.669	12.20277
676.859	13.74103
677.049	11.09644
677.238	13.09126
677.428	17.25729
677.618	14.06079
677.808	17.45711
677.997	14.38653
678.187	11.21654
678.377	13.22565
678.567	11.42616
678.756	12.1839
678.946	12.70124
679.136	10.40184
679.325	11.88799
679.515	11.07422
679.704	10.31958
679.894	15.1392
680.084	13.72711
680.273	15.47843
680.463	11.11681
680.652	11.2766
680.842	12.87032
681.031	15.07368
681.221	11.07034
681.41	14.30679
681.6	12.67873
681.789	14.52697
681.978	15.66677
682.168	13.86349
682.357	13.68729
682.547	14.45287
682.736	13.80902
682.925	16.26672
683.115	16.09984
683.304	15.34384
683.493	13.64784
683.682	14.64766
683.872	14.60638
684.061	16.13097
684.25	14.76895
684.439	19.29365
684.629	15.84659
684.818	22.0414
685.007	14.10829
685.196	12.75147
685.385	18.46227
685.574	15.25138
685.763	14.75663
685.952	14.74703
686.142	11.5153
686.331	17.62268
686.52	10.3164
686.709	19.48581
686.898	18.81658
687.087	16.27562
687.276	18.46293
687.465	17.31458
687.654	13.36927
687.842	18.09733
688.031	11.35466
688.22	18.08101
688.409	15.00318
688.598	14.7983
688.787	20.95477
688.976	14.66189
689.165	19.75371
689.353	13.36294
689.542	15.66326
689.731	17.39048
689.92	20.59963
690.108	17.17828
690.297	14.15706
690.486	15.16925
690.675	16.73966
690.863	19.38825
691.052	18.98967
691.241	15.71417
691.429	15.95143
691.618	18.94141
691.806	12.24383
691.995	14.31332
692.184	15.059
692.372	14.1088
692.561	15.19897
692.749	16.15783
692.938	24.68573
693.126	16.78106
693.315	14.74752
693.503	17.63239
693.692	18.45117
693.88	18.34466
694.068	21.44958
694.257	15.76254
694.445	17.76729
694.634	10.73549
694.822	17.99089
695.01	20.1418
695.199	22.41233
695.387	20.31211
695.575	19.33416
695.763	15.42459
695.952	15.03654
696.14	11.6785
696.328	14.11797
696.516	16.49728
696.705	16.78867
696.893	16.4833
697.081	11.84221
697.269	18.15639
697.457	12.82641
697.645	12.37251
697.833	17.706
698.021	13.35983
698.21	13.96464
698.398	14.64702
698.586	12.46128
698.774	11.78901
698.962	14.85777
699.15	12.15577
699.338	11.01745
699.526	16.07493
699.714	13.16272
699.901	13.31125
700.089	16.85972
700.277	13.30441
700.465	14.49155
700.653	16.96291
700.841	15.94203
701.029	13.17608
701.217	19.79494
701.404	15.63427
701.592	19.95637
701.78	22.71922
701.968	14.96459
702.155	15.25231
702.343	12.71299
702.531	20.04198
702.718	17.74629
702.906	14.69892
703.094	14.74518
703.281	20.0452
703.469	15.90673
703.657	19.80695
703.844	26.74534
704.032	23.08076
704.219	15.84163
704.407	18.94448
704.595	21.7012
704.782	18.54884
704.97	16.91446
705.157	16.34845
705.345	23.41427
705.532	29.30202
705.719	20.59552
705.907	23.31396
706.094	19.72737
706.282	26.92712
706.469	20.38789
706.656	21.25783
706.844	20.0813
707.031	25.21356
707.218	22.36051
707.406	26.78214
707.593	24.84281
707.78	24.19282
707.968	22.32438
708.155	19.65155
708.342	24.42519
708.529	24.89111
708.716	23.93493
708.904	27.61111
709.091	24.76325
709.278	19.02898
709.465	29.50157
709.652	27.47894
709.839	26.46128
710.026	22.87716
710.213	16.46712
710.4	22.9683
710.587	23.48634
710.774	25.67249
710.961	25.87769
711.148	21.96684
711.335	25.12025
711.522	21.30406
711.709	23.85679
711.896	28.89976
712.083	26.08103
712.27	19.54069
712.457	23.86987
712.644	17.43263
712.831	29.71865
713.017	23.4909
713.204	24.39906
713.391	19.68068
713.578	25.47699
713.765	26.8069
713.951	22.48044
714.138	33.24067
714.325	22.38158
714.512	20.84703
714.698	17.55934
714.885	25.76275
715.072	21.28178
715.258	20.31084
715.445	18.16706
715.631	24.62892
715.818	10.74197
716.005	17.5666
716.191	21.50702
716.378	18.33976
716.564	22.41985
716.751	15.78546
716.937	18.22662
717.124	23.14505
717.31	16.3457
717.497	27.44083
717.683	16.90655
717.869	27.45396
718.056	17.91884
718.242	21.70111
718.429	19.47666
718.615	15.2075
718.801	19.71475
718.988	23.8808
719.174	22.38304
719.36	18.7682
719.547	25.54848
719.733	21.36275
719.919	21.75247
720.105	22.36685
720.291	19.77392
720.478	21.13704
720.664	19.97571
720.85	18.20125
721.036	32.23687
721.222	27.46675
721.408	20.74307
721.595	27.9305
721.781	27.32256
721.967	25.05496
722.153	27.57089
722.339	23.32673
722.525	22.45488
722.711	16.49125
722.897	15.85574
723.083	19.53286
723.269	25.09626
723.455	33.53039
723.641	38.96448
723.827	21.46139
724.012	23.03999
724.198	21.48194
724.384	26.86908
724.57	22.36256
724.756	15.37049
724.942	13.7983
725.127	26.78795
725.313	27.59565
725.499	27.0665
725.685	31.01641
725.87	23.10645
726.056	18.02433
726.242	26.70965
726.428	15.15437
726.613	25.01499
726.799	19.99028
726.985	16.67135
727.17	14.57146
727.356	30.96023
727.541	17.15291
727.727	21.51843
727.913	25.38239
728.098	19.37495
728.284	24.70084
728.469	17.06413
728.655	17.85046
728.84	26.50919
729.026	24.93829
729.211	25.12732
729.397	23.58229
729.582	25.01698
729.767	21.07205
729.953	23.42929
730.138	27.64285
730.323	12.19747
730.509	17.23563
730.694	29.60602
730.879	24.98443
731.065	22.85637
731.25	33.2701
731.435	25.15742
731.621	16.17353
731.806	19.20226
731.991	22.74641
732.176	16.15007
732.361	29.17013
732.547	23.34819
732.732	15.33121
732.917	32.77574
733.102	17.30941
733.287	19.40877
733.472	21.61865
733.657	20.71553
733.842	16.00678
734.027	19.17545
734.212	20.79903
734.397	18.20107
734.582	22.85003
734.767	26.52124
734.952	29.2563
735.137	11.78429
735.322	29.36144
735.507	24.70313
735.692	23.23994
735.877	32.6461
736.062	32.67776
736.247	24.40576
736.431	22.01134
736.616	26.89761
736.801	24.41406
736.986	22.80023
737.171	18.12382
737.355	17.12714
737.54	29.42394
737.725	23.45744
737.909	37.49993
738.094	21.36952
738.279	26.6554
738.463	22.38135
738.648	26.12142
738.833	24.8619
739.017	34.40296
739.202	22.12859
739.386	21.65139
739.571	19.16606
739.756	27.83808
739.94	22.77184
740.125	26.33261
740.309	20.02948
740.494	27.1475
740.678	24.04209
740.863	25.55734
741.047	23.96197
741.231	31.56527
741.416	20.70242
741.6	31.55752
741.785	18.96326
741.969	27.81181
742.153	31.11365
742.338	13.01017
742.522	23.06244
742.706	27.48107
742.89	16.70833
743.075	23.8402
743.259	30.72639
743.443	30.33
743.627	30.46375
743.812	36.00355
743.996	14.47569
744.18	22.47145
744.364	22.09152
744.548	37.54568
744.732	23.27515
744.916	29.18662
745.1	27.8823
745.285	22.16495
745.469	26.3605
745.653	33.12508
745.837	17.44386
746.021	37.09149
746.205	31.33146
746.389	24.71113
746.573	23.50883
746.757	32.72588
746.94	20.94082
747.124	31.82194
747.308	17.5427
747.492	31.72095
747.676	19.37974
747.86	39.41426
748.044	22.62065
748.227	15.16037
748.411	48.25071
748.595	24.72922
748.779	20.65563
748.963	26.97931
749.146	25.77855
749.33	20.47985
749.514	19.86883
749.697	31.05324
749.881	20.67704
750.065	18.73964
750.248	25.68859
750.432	38.45678
750.616	25.09549
750.799	18.11343
750.983	40.70802
751.166	39.4996
751.35	16.37914
751.533	31.97069
751.717	34.98173
751.9	33.14151
752.084	23.14106
752.267	20.38569
752.451	19.3241
752.634	25.83271
752.818	28.72043
753.001	30.66173
753.184	32.03831
753.368	26.69834
753.551	7.38831
753.734	20.60379
753.918	40.7122
754.101	20.80444
754.284	29.64319
754.467	22.26914
754.651	22.04177
754.834	21.43346
755.017	31.41458
755.2	32.54266
755.384	19.0624
755.567	29.81787
755.75	31.65393
755.933	22.86213
756.116	31.53116
756.299	22.59003
756.482	18.5201
756.665	29.45891
756.848	25.94105
757.032	26.62818
757.215	17.57986
757.398	19.81042
757.581	20.35117
757.764	42.89697
757.947	25.12998
758.129	31.77418
758.312	9.10532
758.495	24.70508
758.678	25.33279
758.861	23.17884
759.044	38.1272
759.227	19.22913
759.41	20.87658
759.592	31.25854
759.775	22.87068
759.958	30.94332
760.141	17.14533
760.324	40.67375
760.506	35.02872
760.689	30.11545
760.872	40.36271
761.054	28.23483
761.237	24.05902
761.42	27.02399
761.602	31.13576
761.785	28.64636
761.968	32.58537
762.15	37.0134
762.333	25.02771
762.515	29.17219
762.698	23.0819
762.88	31.15753
763.063	28.40481
763.245	33.28266
763.428	20.37554
763.61	22.32387
763.793	17.97325
763.975	27.69604
764.158	23.27092
764.34	21.16374
764.522	19.60416
764.705	23.75429
764.887	34.79098
765.069	15.92688
765.252	29.03928
765.434	29.62728
765.616	26.51425
765.799	19.93465
765.981	30.0982
766.163	20.50182
766.345	33.99872
766.528	21.00483
766.71	12.45663
766.892	26.9279
767.074	33.82887
767.256	23.197
767.438	38.0446
767.62	27.00243
767.802	42.35628
767.985	30.37326
768.167	39.2264
768.349	21.77894
768.531	30.75532
768.713	28.78359
768.895	32.42311
769.077	29.30338
769.259	45.567
769.441	63.30985
769.623	32.08331
769.804	38.82027
769.986	35.06811
770.168	44.07938
770.35	53.00103
770.532	40.7828
770.714	44.94376
770.896	42.62952
771.077	19.47916
771.259	46.74081
771.441	41.47458
771.623	49.39914
771.804	60.328
771.986	20.68052
772.168	32.46444
772.35	46.84373
772.531	63.15817
772.713	38.48812
772.894	53.47285
773.076	36.60949
773.258	32.25164
773.439	52.30601
773.621	57.97133
773.802	28.9737
773.984	32.699
774.166	41.91026
774.347	54.73018
774.529	48.73192
774.71	18.14786
774.891	37.10381
775.073	33.13718
775.254	52.70742
775.436	32.46998
775.617	64.01269
775.799	33.0986
775.98	52.07954
776.161	57.80609
776.343	59.77331
776.524	38.00399
776.705	35.84893
776.886	18.80612
777.068	44.0119
777.249	88.55001
777.43	62.61725
777.611	25.17649
777.793	34.9169
777.974	58.18125
778.155	32.39585
778.336	28.49668
778.517	67.70047
778.698	29.44583
778.879	18.28791
779.061	12.30503
779.242	42.91251
779.423	43.15893
779.604	32.62055
779.785	35.88068
779.966	42.39493
780.147	52.5224
780.328	50.79141
780.509	70.93723
780.69	51.87648
780.871	30.23478
781.051	24.20526
781.232	39.18558
781.413	40.75563
781.594	35.49923
781.775	33.8664
781.956	32.16066
782.137	16.15227
782.317	32.37995
782.498	39.4218
782.679	39.96223
782.86	42.43492
783.04	31.41748
783.221	41.03741
783.402	62.30353
783.583	37.80651
783.763	48.10674
783.944	32.68044
784.124	23.87923
784.305	60.12706
784.486	48.29861
784.666	37.59014
784.847	22.59356
785.027	82.57424
785.208	31.16997
785.388	29.38489
785.569	32.47447
785.749	36.21319
785.93	32.56003
786.11	22.30053
786.291	47.10639
786.471	41.04439
786.652	50.17939
786.832	35.97254
787.012	40.9463
787.193	25.48292
787.373	41.00685
787.553	32.54636
787.734	41.82707
787.914	33.79729
788.094	50.72461
788.275	40.79918
788.455	34.03635
788.635	24.75214
788.815	40.49182
788.995	27.18336
789.176	21.96841
789.356	30.91993
789.536	36.41997
789.716	43.82737
789.896	30.43981
790.076	32.14045
790.256	41.95365
790.436	15.68851
790.616	27.2847
790.796	40.83804
790.976	34.53388
791.156	31.42454
791.336	44.01872
791.516	42.67873
791.696	35.64524
791.876	22.26899
792.056	41.41779
792.236	51.25355
792.416	46.3314
792.596	43.42097
792.776	44.61262
792.956	45.98223
793.135	59.52106
793.315	26.14432
793.495	51.72782
793.675	46.93157
793.854	47.92171
794.034	51.04637
794.214	24.96977
794.394	47.7329
794.573	55.11776
794.753	38.81702
794.933	27.78919
795.112	42.23085
795.292	51.46138
795.472	60.66376
795.651	24.89061
795.831	38.90498
796.01	35.35126
796.19	36.59458
796.369	37.64562
796.549	44.45915
796.728	35.92543
796.908	23.93416
797.087	25.64325
797.267	36.68762
797.446	26.44064
797.626	44.73743
797.805	43.98902
797.984	30.3911
798.164	46.97195
798.343	29.93196
798.522	39.93848
798.702	40.40114
798.881	24.54142
799.06	36.0346
799.239	17.99051
799.419	28.91894
799.598	58.9572
799.777	44.17062
799.956	53.50525
800.136	35.75042
800.315	28.69816
800.494	42.4898
800.673	51.14958
800.852	47.88868
801.031	52.41694
801.21	46.43037
801.389	32.6097
801.568	39.88879
801.747	63.45852
801.926	37.81599
802.105	56.11074
802.284	31.48927
802.463	58.35832
802.642	41.2847
802.821	40.51311
803	57.19086
803.179	48.83475
803.358	52.3367
803.537	29.9774
803.716	38.76712
803.895	32.47165
804.073	36.49431
804.252	30.58292
804.431	45.14699
804.61	36.94488
804.789	48.00229
804.967	32.41614
805.146	33.50495
805.325	67.41514
805.503	43.4347
805.682	23.16995
805.861	83.42358
806.039	55.93505
806.218	34.83791
806.397	40.95623
806.575	39.34842
806.754	44.159
806.932	29.07351
807.111	52.29291
807.289	50.9096
807.468	40.95022
807.646	51.31152
807.825	46.3219
808.003	42.65404
808.182	52.74924
808.36	39.43804
808.539	30.66243
808.717	57.79361
808.895	31.91628
809.074	41.68176
809.252	39.40613
809.43	46.9358
809.609	57.07824
809.787	64.0974
809.965	35.31765
810.144	41.13127
810.322	37.13204
810.5	44.72146
810.678	35.07349
810.856	70.0787
811.035	52.45691
811.213	48.94101
811.391	59.51106
811.569	43.32744
811.747	93.69937
811.925	54.60569
812.103	33.23406
812.281	37.9827
812.459	63.30309
812.637	63.76642
812.816	52.78637
812.994	70.94696
813.171	60.23228
813.349	48.9526
813.527	54.73956
813.705	60.9908
813.883	78.72053
814.061	54.541
814.239	67.14986
814.417	75.30087
814.595	47.22191
814.773	47.06664
814.95	40.94133
815.128	48.94966
815.306	37.8891
815.484	37.63717
815.662	31.02291
815.839	28.77108
816.017	36.13801
816.195	57.00906
816.372	37.48097
816.55	51.55959
816.728	66.45123
816.905	39.67153
817.083	63.81336
817.261	40.12434
817.438	85.15672
817.616	65.5106
817.793	37.3457
817.971	53.58305
818.148	53.0327
818.326	60.8949
818.503	45.86164
818.681	65.64978
818.858	39.07308
819.036	42.11269
819.213	46.33134
819.391	34.08783
819.568	36.6582
819.745	31.16818
819.923	53.3065
820.1	39.11644
820.277	32.04888
820.455	37.09299
820.632	40.81931
820.809	44.18636
820.986	27.73524
821.164	23.32681
821.341	21.20901
821.518	31.67381
821.695	23.3349
821.872	21.19026
822.05	18.9667
822.227	15.40702
822.404	16.27888
822.581	18.5492
822.758	15.91778
822.935	16.37471
823.112	18.09898
823.289	15.43208
823.466	18.15625
823.643	17.21648
823.82	20.21544
823.997	18.29893
824.174	20.7438
824.351	27.60023
824.528	25.70573
824.705	22.98458
824.882	25.14595
825.059	32.31476
825.236	24.21269
825.412	24.96903
825.589	30.09527
825.766	42.38836
825.943	27.07174
826.12	31.35959
826.296	22.86972
826.473	28.86969
826.65	28.89457
826.827	34.19331
827.003	22.70369
827.18	26.24193
827.357	28.74391
827.533	24.79701
827.71	14.92417
827.887	22.26123
828.063	25.17025
828.24	21.20264
828.416	27.98738
828.593	23.20092
828.769	32.63217
828.946	32.86868
829.122	33.56605
829.299	33.74567
829.475	21.58893
829.652	32.54948
829.828	53.48798
830.005	35.39611
830.181	48.77034
830.357	35.23771
830.534	49.35201
830.71	37.17771
830.886	49.29021
831.063	46.23548
831.239	58.60149
831.415	30.52108
831.592	61.02414
831.768	38.06585
831.944	32.88528
832.12	64.76384
832.296	62.37529
832.473	50.2196
832.649	35.81967
832.825	52.86196
833.001	32.53175
833.177	43.63121
833.353	41.33573
833.529	24.56713
833.705	38.30215
833.881	25.63464
834.058	24.93587
834.234	26.52005
834.41	26.9197
834.586	21.03504
834.761	24.75786
834.937	28.5106
835.113	28.52319
835.289	23.80069
835.465	29.44374
835.641	26.4977
835.817	29.09977
835.993	48.73144
836.169	26.21258
836.344	38.48512
836.52	44.1525
836.696	41.01941
836.872	32.80231
837.048	90.67533
837.223	36.07312
837.399	68.72932
837.575	53.11077
837.75	47.82499
837.926	69.65498
838.102	105.47491
838.277	81.18733
838.453	111.94288
838.628	112.49084
838.804	44.31088
838.98	100.41156
839.155	53.26857
839.331	74.1011
839.506	49.66965
839.682	53.98873
839.857	72.06722
840.033	82.88
840.208	38.05097
840.384	21.40308
840.559	40.36193
840.734	62.18831
840.91	78.31137
841.085	49.93985
841.26	48.02716
841.436	45.31323
841.611	44.47596
841.786	63.79107
841.962	83.98481
842.137	55.10928
842.312	32.83603
842.487	47.83247
842.663	39.63618
842.838	45.94049
843.013	153.92344
843.188	75.55367
843.363	63.85076
843.538	130.81957
843.714	129.4869
843.889	130.73606
844.064	139.2504
844.239	115.02969
844.414	137.13623
844.589	90.76747
844.764	163.81458
844.939	161.56235
845.114	176.9258
845.289	165.3861
845.464	225.86255
845.639	152.345
845.814	67.90863
845.989	86.77165
846.163	114.07493
846.338	116.09106
846.513	162.97673
846.688	104.72872
846.863	108.89453
847.038	103.00918
847.212	114.41197
847.387	118.09025
847.562	124.48917
847.737	153.4412
847.911	57.43976
848.086	75.44298
848.261	249.87089
848.435	101.47335
848.61	154.99627
848.785	80.21012
848.959	161.60711
849.134	212.1719
849.308	224.25556
849.483	121.2216
849.658	185.5184
849.832	101.31516
850.007	85.89334
850.181	245.36104
850.356	95.61666
850.53	233.19397
850.705	77.71697
850.879	48.99651
851.053	109.91579
851.228	96.39395
851.402	133.75465
851.577	168.4092
851.751	190.6107
851.925	125.67062
852.099	55.04422
852.274	87.85404
852.448	111.98848
852.622	147.61166
852.797	119.94354
852.971	115.53769
853.145	124.94172
853.319	349.44186
853.493	173.31356
853.668	98.46553
853.842	229.33903
854.016	180.13567
854.19	212.74607
854.364	125.48369
854.538	129.62666
854.712	183.66713
854.886	113.36083
855.06	102.80283
855.234	50.19234
855.408	194.62617
855.582	164.52434
855.756	167.68642
855.93	221.0937
856.104	144.19472
856.278	167.29942
856.452	118.68569
856.626	164.86025
856.8	263.86954
856.973	152.93662
857.147	140.13252
857.321	142.27195
857.495	177.22207
857.669	115.75363
857.842	103.55211
858.016	180.05557
858.19	88.3656
858.364	284.31024
858.537	108.18017
858.711	133.94932
858.885	116.44742
859.058	98.0712
859.232	56.04729
859.405	69.86893
859.579	171.20009
859.753	142.44708
859.926	99.4249
860.1	70.57125
860.273	125.83683
860.447	205.818
860.62	103.47508
860.794	250.58961
860.967	142.03142
861.141	179.2963
861.314	257.29328
861.487	146.09941
861.661	203.52303
861.834	203.31307
862.008	172.44507
862.181	125.9254
862.354	133.20222
862.528	155.25881
862.701	102.82979
862.874	71.53224
863.047	112.14801
863.221	117.0944
863.394	56.28054
863.567	208.85737
863.74	41.18475
863.913	166.1058
864.087	145.18299
864.26	179.11541
864.433	127.29475
864.606	230.25281
864.779	128.18805
864.952	67.95737
865.125	104.33541
865.298	123.3081
865.471	132.36308
865.644	256.82632
865.817	205.26781
865.99	176.88853
866.163	196.43013
866.336	107.89129
866.509	132.86194
866.682	107.00712
866.855	186.72389
867.028	84.72666
867.2	161.76322
867.373	47.62619
867.546	138.71201
867.719	266.48451
867.892	159.32495
868.064	93.5001
868.237	150.65246
868.41	131.69803
868.583	86.55545
868.755	82.42192
868.928	124.91311
869.101	267.87033
869.273	195.71383
869.446	151.28727
869.619	193.29226
869.791	118.68668
869.964	190.52613
870.136	177.7183
870.309	136.58797
870.481	142.61244
870.654	67.01054
870.826	144.60878
870.999	105.79543
871.171	177.33849
871.344	110.23136
871.516	121.14853
871.689	92.19974
871.861	135.00358
872.033	98.18127
872.206	120.80149
872.378	185.85059
872.55	117.05783
872.723	76.91708
872.895	115.59108
873.067	182.12061
873.24	205.83419
873.412	107.01776
873.584	117.84483
873.756	103.23464
873.928	144.89301
874.101	153.22263
874.273	167.81144
874.445	56.81395
874.617	78.65912
874.789	144.06699
874.961	105.86414
875.133	156.41258
875.305	132.41996
875.477	86.72341
875.649	75.69978
875.821	87.52261
875.993	222.47793
876.165	85.73995
876.337	152.29294
876.509	116.03055
876.681	150.50167
876.853	142.64911
877.025	146.88077
877.197	96.01965
877.369	88.36322
877.541	172.6983
877.712	48.03542
877.884	78.1309
878.056	168.09404
878.228	88.87557
878.4	154.70528
878.571	86.22203
878.743	62.72566
878.915	142.92235
879.086	84.18959
879.258	103.89268
879.43	95.98826
879.601	84.61053
879.773	86.24966
879.945	23.43537
880.116	38.7298
880.288	24.93441
880.459	27.6152
880.631	21.17058
880.802	26.06585
880.974	24.55629
881.145	17.46361
881.317	22.64662
881.488	17.8737
881.66	20.06127
881.831	17.89681
882.002	25.32891
882.174	18.29819
882.345	22.9849
882.517	13.13061
882.688	26.27908
882.859	23.13862
883.03	35.77264
883.202	33.59736
883.373	29.11807
883.544	28.98819
883.715	51.03318
883.887	41.96051
884.058	35.62319
884.229	51.02941
884.4	52.5527
884.571	58.11694
884.742	48.27574
884.914	55.35844
885.085	79.52891
885.256	97.68196
885.427	80.12181
885.598	96.20738
885.769	100.66407
885.94	94.75414
886.111	64.57048
886.282	115.63012
886.453	93.88308
886.624	65.82255
886.795	111.68556
886.966	94.82643
887.136	121.46119
887.307	78.98661
887.478	161.00103
887.649	130.37343
887.82	141.43732
887.991	114.46724
888.161	151.5432
888.332	150.06614
888.503	73.68181
888.674	201.29643
888.844	209.52037
889.015	168.88905
889.186	77.56494
889.356	197.8274
889.527	74.93155
889.698	346.5316
889.868	111.43556
890.039	147.51197
890.209	132.44017
890.38	175.76713
890.551	144.61731
890.721	211.77545
890.892	168.27118
891.062	116.56564
891.233	149.80821
891.403	118.02321
891.574	88.82204
891.744	119.4997
891.914	157.47545
892.085	128.67678
892.255	42.11332
892.425	204.9716
892.596	165.28745
892.766	153.14339
892.936	208.92002
893.107	172.99325
893.277	99.71439
893.447	72.26904
893.618	49.012
893.788	114.46089
893.958	66.54406
894.128	64.82613
894.298	72.77584
894.468	100.6626
894.639	43.95782
894.809	33.6231
894.979	49.48398
895.149	58.43759
895.319	47.24042
895.489	69.10193
895.659	79.89789
895.829	53.92823
895.999	58.70285
896.169	42.3669
896.339	50.65541
896.509	111.2511
896.679	129.47383
896.849	123.28461
897.019	169.28093
897.189	133.02936
897.358	114.31276
897.528	174.84334
897.698	60.11552
897.868	154.07722
898.038	272.77054
898.208	247.22965
898.377	80.94541
898.547	254.3299
898.717	406.61426
898.886	161.65367
899.056	257.32856
899.226	379.30693
899.395	229.6021
899.565	293.80687
899.735	191.42235
899.904	330.50336
900.074	268.99375
900.244	124.10528
900.413	491.37611
900.583	103.48934
900.752	171.95661
900.922	290.40009
901.091	39.84308
901.261	257.15092
901.43	230.10526
901.599	245.65952
901.769	550.13668
901.938	288.77916
902.108	263.66928
902.277	352.54549
902.446	97.6695
902.616	114.62938
902.785	177.8544
902.954	283.73232
903.124	181.81443
903.293	153.14786
903.462	80.51286
903.631	115.44956
903.801	83.96349
903.97	45.31682
904.139	78.0939
904.308	55.45868
904.477	46.79251
904.646	27.42396
904.816	43.58189
904.985	63.59219
905.154	97.50517
