Data from WindowProjectSample3_Transmission__14__00014.txt Node

Date: Sun May 04 09:55:57 EDT 2025
User: jessi
Spectrometer: SR400872
Trigger mode: 0
Integration Time (sec): 5.000070E-1
Scans to average: 10
Electric dark correction enabled: true
Nonlinearity correction enabled: true
Boxcar width: 0
XAxis mode: Wavelengths
Number of Pixels in Spectrum: 3648
>>>>>Begin Spectral Data<<<<<
184.909	-5938.043
185.132	10501.70801
185.355	-8444.37699
185.578	-54404.99312
185.801	5841.52199
186.024	-133527.7357
186.247	-835.23779
186.47	1539.76017
186.693	1316.04648
186.916	-439.43993
187.139	-2531904.51727
187.362	-3268.43224
187.585	7402.93708
187.808	1797.51038
188.031	-40.21256
188.254	4907.08131
188.476	-1729.2663
188.699	2492.25217
188.922	513.93487
189.145	-5941.4706
189.368	-4575.17682
189.591	1992.2299
189.813	-147627.31128
190.036	9412.07275
190.259	1330.76258
190.482	5729.75869
190.705	16537.26965
190.927	16850.93991
191.15	-4110.765
191.373	2156.43941
191.595	1585.2313
191.818	16928.83643
192.041	986.99451
192.263	-7840.60919
192.486	-1548.81786
192.709	2816.5898
192.931	-3440.28422
193.154	13582.21585
193.377	2466.29386
193.599	29545.26125
193.822	2091.17818
194.044	2065.76966
194.267	1076.51378
194.489	-6.71676
194.712	3653.4207
194.934	34158.71066
195.157	-562.21233
195.379	10553.71407
195.602	1907.62501
195.824	4689.31207
196.047	6192.22699
196.269	14075.02065
196.492	-11748.26926
196.714	3949.88733
196.936	7196.91372
197.159	10708.47219
197.381	4196.0534
197.604	1865671.13413
197.826	2029.87532
198.048	1907.30827
198.271	9558.62497
198.493	1994.89691
198.715	2669.6261
198.938	8434.27458
199.16	3446.92366
199.382	10136.97917
199.604	10242.68683
199.827	1827.95703
200.049	3043.00087
200.271	20880.57785
200.493	1806.08831
200.715	7325.19375
200.938	8109.62213
201.16	-3838.84857
201.382	32371.14849
201.604	4064.79882
201.826	8213.89033
202.048	4390.37715
202.27	1854.30047
202.492	5854.43141
202.715	19965.21687
202.937	3942.32849
203.159	1524.53937
203.381	2049.22407
203.603	2787.77636
203.825	-1515.67449
204.047	-23720.30997
204.269	3371.10587
204.491	7425.06035
204.713	-1755886.21364
204.935	2273.11801
205.156	3763.88468
205.378	1675.39757
205.6	37662.55629
205.822	4814.34322
206.044	3841.54091
206.266	5797.60668
206.488	1508.84776
206.71	9374.36278
206.932	1429.8323
207.153	29880.45768
207.375	16586.03588
207.597	12524.48468
207.819	38415.93798
208.041	-44334.90176
208.262	1131.47191
208.484	13655.69642
208.706	3651.42025
208.927	2385.73613
209.149	945.27307
209.371	3693.73162
209.593	1099.62045
209.814	10664.14619
210.036	-482422.75798
210.258	1564.59383
210.479	2501.16587
210.701	3562.73377
210.922	-5701.28936
211.144	-3039.54634
211.366	5224.18521
211.587	2497.25651
211.809	5732.81066
212.03	-66939.54521
212.252	488.16934
212.473	893.48576
212.695	761.66943
212.916	1284.73044
213.138	636.41364
213.359	5017.86989
213.581	2830.34282
213.802	916.38752
214.024	7354.83906
214.245	-12968.09661
214.466	481.28933
214.688	3756.95626
214.909	10811.98332
215.131	4460.18751
215.352	2749.27153
215.573	11990.47698
215.795	2179.04617
216.016	1940.26665
216.237	-768951.56231
216.459	1883.72526
216.68	5529.57432
216.901	3305.39789
217.122	782.9343
217.344	2902.2857
217.565	7384.0443
217.786	3536.19096
218.007	891.26413
218.228	2266.47894
218.45	-17955.55783
218.671	46338.05187
218.892	20292.0618
219.113	1710.47565
219.334	6845.28292
219.555	-8040.14969
219.776	1779.78451
219.997	3955.19095
220.219	1119.29645
220.44	1665.82946
220.661	1759.2272
220.882	5544.89931
221.103	1441.25235
221.324	8068.25228
221.545	3145.04644
221.766	3216.56549
221.987	1497.10829
222.208	1028.40089
222.429	2199.65327
222.65	203.44768
222.87	643.38078
223.091	1786.88025
223.312	1017.74368
223.533	2134.2463
223.754	1578.63113
223.975	1646.06262
224.196	1049.06737
224.417	5239.13911
224.637	686.47678
224.858	55.73535
225.079	1150.27895
225.3	612.47008
225.521	2261.02562
225.741	669.0686
225.962	625.22804
226.183	178.04791
226.404	999.32331
226.624	584.86373
226.845	624.79223
227.066	460.49442
227.286	301.8403
227.507	189.9732
227.728	156.78096
227.948	270.6943
228.169	89.02043
228.389	108.96853
228.61	57.92335
228.831	83.77814
229.051	7.71871
229.272	51.44209
229.492	70.37705
229.713	21.17481
229.933	52.85389
230.154	44.28147
230.374	75.83929
230.595	58.97664
230.815	35.94871
231.036	57.77552
231.256	-11.14706
231.477	98.16271
231.697	55.6428
231.917	61.03166
232.138	83.646
232.358	160.20741
232.579	152.12838
232.799	20.33308
233.019	137.57143
233.24	160.41537
233.46	60.51198
233.68	90.29494
233.901	59.47242
234.121	47.0357
234.341	19.19115
234.561	-2.42767
234.782	33.79521
235.002	97.73765
235.222	-0.027
235.442	89.5447
235.662	49.36862
235.883	91.51539
236.103	76.45062
236.323	55.87168
236.543	41.52227
236.763	60.49534
236.983	61.47074
237.203	63.62753
237.423	92.95692
237.643	124.65501
237.864	111.57981
238.084	28.45073
238.304	40.82198
238.524	66.80867
238.744	60.9715
238.964	98.0535
239.184	88.23997
239.404	95.53093
239.624	49.45858
239.843	82.68727
240.063	49.03648
240.283	34.39508
240.503	36.58574
240.723	36.30168
240.943	20.53223
241.163	27.58609
241.383	19.99122
241.603	9.87649
241.822	12.40539
242.042	9.15341
242.262	11.8762
242.482	13.5267
242.702	16.15656
242.921	4.75095
243.141	10.98307
243.361	9.6718
243.581	14.41453
243.8	11.71811
244.02	8.76596
244.24	15.47267
244.459	14.62402
244.679	28.39731
244.899	19.15779
245.118	21.3524
245.338	18.64183
245.558	22.44358
245.777	11.64289
245.997	14.13376
246.216	14.96728
246.436	8.81623
246.655	5.56283
246.875	4.52532
247.094	8.39713
247.314	3.42838
247.533	5.68228
247.753	6.75594
247.972	5.29524
248.192	1.8117
248.411	3.1721
248.631	5.62351
248.85	7.15555
249.07	6.59631
249.289	9.64691
249.508	7.38966
249.728	11.8165
249.947	11.4079
250.166	14.42496
250.386	8.13557
250.605	11.97087
250.824	17.36243
251.044	12.29003
251.263	36.51195
251.482	20.8186
251.701	17.62535
251.921	0.3745
252.14	5.94296
252.359	6.67925
252.578	15.42657
252.798	5.40069
253.017	13.9776
253.236	7.04646
253.455	9.4833
253.674	18.56685
253.893	8.35872
254.112	12.33929
254.331	18.42437
254.551	15.09119
254.77	6.83962
254.989	19.72213
255.208	16.82864
255.427	22.52362
255.646	20.25167
255.865	32.41262
256.084	13.24831
256.303	15.43612
256.522	19.55552
256.741	4.5626
256.96	4.73933
257.179	13.41791
257.397	16.98729
257.616	8.85144
257.835	9.66155
258.054	22.78643
258.273	15.06081
258.492	15.74843
258.711	10.03492
258.93	4.3289
259.148	6.29451
259.367	6.42245
259.586	7.75192
259.805	3.50178
260.023	7.17272
260.242	5.56577
260.461	4.03933
260.68	2.23915
260.898	6.50664
261.117	2.25812
261.336	1.50819
261.554	5.96733
261.773	5.5801
261.992	1.5487
262.21	5.49831
262.429	6.71383
262.648	11.18995
262.866	12.00533
263.085	8.62253
263.303	7.90152
263.522	12.85963
263.74	13.74511
263.959	22.41393
264.178	11.61219
264.396	9.90134
264.615	7.37457
264.833	17.13119
265.051	14.3697
265.27	15.61538
265.488	15.80476
265.707	9.80147
265.925	15.69574
266.144	7.37727
266.362	8.71552
266.58	8.59313
266.799	7.58578
267.017	9.04436
267.235	7.77413
267.454	4.97165
267.672	3.09897
267.89	6.88726
268.109	7.10267
268.327	6.71165
268.545	1.86834
268.763	5.7203
268.982	2.97755
269.2	7.31672
269.418	4.45547
269.636	3.7345
269.854	7.47496
270.073	5.28883
270.291	2.62292
270.509	2.95881
270.727	6.99108
270.945	10.78955
271.163	10.93027
271.381	2.52777
271.599	4.16521
271.817	7.81986
272.036	2.52002
272.254	4.74692
272.472	3.77634
272.69	3.74676
272.908	4.19268
273.126	6.27873
273.344	8.15586
273.562	3.12754
273.779	4.14376
273.997	6.16572
274.215	6.33775
274.433	4.68751
274.651	7.38889
274.869	7.2846
275.087	4.41123
275.305	6.32787
275.523	4.30137
275.74	4.52281
275.958	8.43105
276.176	12.13034
276.394	3.77036
276.612	5.02108
276.829	5.57948
277.047	4.5919
277.265	4.89285
277.483	5.6289
277.7	6.46699
277.918	5.38749
278.136	9.37904
278.353	4.70107
278.571	2.97222
278.789	7.57284
279.006	1.82385
279.224	4.38432
279.442	7.46039
279.659	5.46113
279.877	3.96509
280.094	8.51418
280.312	2.02941
280.529	5.68522
280.747	1.95451
280.964	3.66648
281.182	8.6503
281.399	4.22036
281.617	5.77482
281.834	4.00188
282.052	2.93576
282.269	4.83913
282.487	3.87391
282.704	3.44145
282.921	3.42187
283.139	5.1968
283.356	6.43199
283.574	5.72246
283.791	3.08357
284.008	8.07878
284.226	4.62566
284.443	5.06635
284.66	6.08938
284.877	4.97635
285.095	3.05447
285.312	2.37498
285.529	1.41653
285.746	1.21461
285.964	3.0934
286.181	2.0812
286.398	3.06403
286.615	4.09372
286.832	3.82822
287.05	1.17924
287.267	2.84885
287.484	2.79763
287.701	4.25332
287.918	4.14692
288.135	4.10206
288.352	1.74309
288.569	2.34826
288.786	3.84741
289.003	3.08042
289.22	4.39369
289.437	2.54394
289.654	4.37941
289.871	4.45439
290.088	4.39658
290.305	3.5483
290.522	2.74864
290.739	3.16452
290.956	4.64956
291.173	5.64536
291.39	5.36878
291.607	3.64894
291.824	2.98165
292.04	1.96301
292.257	4.46468
292.474	5.12596
292.691	3.22629
292.908	1.77832
293.125	2.58867
293.341	1.65176
293.558	7.83164
293.775	3.05197
293.992	3.38004
294.208	1.45487
294.425	2.25993
294.642	2.93564
294.858	5.05221
295.075	1.39918
295.292	3.1806
295.508	3.9278
295.725	5.66714
295.942	3.26766
296.158	2.50378
296.375	3.88513
296.591	3.25626
296.808	3.60409
297.024	4.32765
297.241	4.68318
297.458	5.10558
297.674	2.13848
297.891	4.53428
298.107	4.55457
298.323	3.77828
298.54	6.75893
298.756	4.67019
298.973	3.61181
299.189	7.42733
299.406	5.15669
299.622	7.45714
299.838	7.74895
300.055	7.36722
300.271	4.94948
300.487	5.46317
300.704	6.14513
300.92	5.3368
301.136	10.23402
301.353	8.75794
301.569	7.41257
301.785	7.97711
302.001	8.83394
302.218	8.40314
302.434	8.99486
302.65	6.569
302.866	7.7205
303.083	11.35306
303.299	11.52303
303.515	8.67601
303.731	9.52523
303.947	7.03867
304.163	8.63379
304.379	9.01727
304.595	9.72021
304.812	8.16757
305.028	8.37956
305.244	8.41589
305.46	10.20865
305.676	10.59364
305.892	11.39854
306.108	10.44407
306.324	9.29424
306.54	12.12351
306.756	10.32981
306.972	9.73261
307.187	9.57068
307.403	11.37282
307.619	9.20708
307.835	11.37293
308.051	11.74418
308.267	8.57441
308.483	12.06858
308.699	10.83176
308.914	10.70691
309.13	10.30321
309.346	9.04688
309.562	9.4887
309.778	9.24378
309.993	11.45341
310.209	11.16538
310.425	9.55616
310.641	11.08091
310.856	10.00625
311.072	9.93972
311.288	11.09373
311.503	12.03093
311.719	9.35349
311.935	9.41313
312.15	12.22569
312.366	11.901
312.581	12.20778
312.797	11.78782
313.013	12.65946
313.228	10.71888
313.444	11.01086
313.659	10.36826
313.875	11.98691
314.09	11.14239
314.306	13.03962
314.521	12.58582
314.737	12.36747
314.952	11.70014
315.168	11.61163
315.383	12.07783
315.599	10.68993
315.814	11.34417
316.029	12.3757
316.245	10.38807
316.46	9.05892
316.675	13.26157
316.891	13.95177
317.106	15.79024
317.321	11.857
317.537	12.62327
317.752	12.75222
317.967	12.72519
318.183	10.67623
318.398	11.47868
318.613	13.17134
318.828	13.9139
319.043	12.72744
319.259	11.68985
319.474	12.27334
319.689	13.63636
319.904	9.21021
320.119	13.61581
320.334	12.07132
320.549	11.68867
320.765	14.00919
320.98	12.54458
321.195	12.42452
321.41	12.47233
321.625	13.24053
321.84	14.66061
322.055	14.13172
322.27	11.74932
322.485	10.59522
322.7	13.07587
322.915	13.6518
323.13	12.16491
323.345	15.17277
323.56	13.92945
323.775	14.19693
323.989	13.52792
324.204	13.56114
324.419	14.65411
324.634	11.7069
324.849	13.38731
325.064	16.7132
325.279	15.05311
325.493	14.18218
325.708	14.97107
325.923	12.65113
326.138	13.38023
326.352	15.84308
326.567	15.24203
326.782	12.99063
326.997	13.27908
327.211	14.56565
327.426	14.18637
327.641	13.70059
327.855	11.94698
328.07	14.90335
328.285	16.65711
328.499	13.28554
328.714	14.36379
328.928	14.29545
329.143	14.04119
329.358	15.6016
329.572	15.66298
329.787	16.36846
330.001	17.79175
330.216	12.1984
330.43	17.27152
330.645	15.62006
330.859	15.40267
331.074	12.87316
331.288	14.71837
331.503	16.87328
331.717	12.71632
331.931	14.49286
332.146	15.22984
332.36	17.55721
332.575	15.3353
332.789	15.19528
333.003	15.56791
333.218	15.80261
333.432	14.55607
333.646	16.29648
333.86	17.74368
334.075	17.58967
334.289	14.71422
334.503	13.28364
334.717	16.52959
334.932	15.38507
335.146	16.54691
335.36	14.29401
335.574	16.97404
335.788	15.91999
336.003	16.71323
336.217	17.14702
336.431	16.34407
336.645	15.02398
336.859	14.07401
337.073	15.51658
337.287	16.13952
337.501	13.74926
337.715	16.63082
337.929	16.42968
338.143	14.846
338.357	15.79992
338.571	15.86092
338.785	17.82558
338.999	15.92433
339.213	16.05107
339.427	15.59033
339.641	18.37003
339.855	15.85519
340.069	15.51186
340.283	17.8885
340.497	18.80712
340.711	17.71602
340.924	16.92871
341.138	15.82911
341.352	15.01448
341.566	17.0436
341.78	15.24482
341.993	16.44598
342.207	15.93421
342.421	17.65611
342.635	16.90084
342.848	16.67907
343.062	14.00326
343.276	16.49346
343.49	19.85273
343.703	16.14259
343.917	18.74997
344.131	18.966
344.344	16.44428
344.558	17.20126
344.771	16.10976
344.985	19.22961
345.199	20.04538
345.412	18.51391
345.626	18.59877
345.839	15.83085
346.053	16.70559
346.266	16.9364
346.48	18.57026
346.693	18.59703
346.907	18.56742
347.12	16.91868
347.334	18.11564
347.547	18.25853
347.76	17.7568
347.974	19.37527
348.187	18.3408
348.401	17.60417
348.614	16.49402
348.827	17.6958
349.041	18.47046
349.254	15.62879
349.467	17.56551
349.681	17.17632
349.894	16.81541
350.107	19.54668
350.32	20.81988
350.534	17.10955
350.747	18.01955
350.96	17.85529
351.173	17.88656
351.386	17.98635
351.6	17.50095
351.813	18.20546
352.026	18.05366
352.239	17.27251
352.452	17.90649
352.665	20.09323
352.878	18.00113
353.092	21.18786
353.305	19.58579
353.518	19.03583
353.731	17.43568
353.944	19.62797
354.157	18.4197
354.37	18.44915
354.583	17.33605
354.796	17.61806
355.009	20.38201
355.222	19.26055
355.435	19.04013
355.647	20.59287
355.86	18.54516
356.073	19.27175
356.286	18.62104
356.499	20.74229
356.712	20.54507
356.925	20.3908
357.138	20.70041
357.35	18.84176
357.563	19.19205
357.776	20.00362
357.989	19.94997
358.201	20.59593
358.414	20.32637
358.627	21.5253
358.84	19.80423
359.052	18.63535
359.265	18.7996
359.478	21.22391
359.69	17.25756
359.903	21.13369
360.116	21.10935
360.328	18.45705
360.541	20.8643
360.753	19.70784
360.966	19.9093
361.179	20.34338
361.391	20.24306
361.604	19.85512
361.816	20.51866
362.029	20.4673
362.241	19.94762
362.454	20.7562
362.666	20.06838
362.879	21.58121
363.091	20.71716
363.304	20.23888
363.516	20.20317
363.728	19.48512
363.941	20.93931
364.153	20.7576
364.366	18.26507
364.578	19.30648
364.79	20.86534
365.003	20.95174
365.215	19.67429
365.427	21.18628
365.639	21.73071
365.852	20.55956
366.064	22.00107
366.276	20.31573
366.488	20.72692
366.701	20.39447
366.913	20.12027
367.125	20.31739
367.337	19.72143
367.549	20.06411
367.762	20.1037
367.974	20.27865
368.186	20.54924
368.398	21.66945
368.61	20.85894
368.822	21.28996
369.034	20.05131
369.246	21.61496
369.458	23.47304
369.67	19.56059
369.882	22.35492
370.094	18.31412
370.306	21.98052
370.518	20.1642
370.73	20.42678
370.942	20.18376
371.154	20.77046
371.366	20.66498
371.578	21.60005
371.79	20.85991
372.002	22.0945
372.214	23.48736
372.425	20.88923
372.637	22.92662
372.849	21.58872
373.061	18.88184
373.273	21.47489
373.484	21.66086
373.696	21.74278
373.908	18.27113
374.12	22.05314
374.331	21.56926
374.543	20.05067
374.755	19.88233
374.967	21.08315
375.178	22.53428
375.39	20.42826
375.602	21.19241
375.813	19.33758
376.025	20.5304
376.236	21.44856
376.448	22.17156
376.66	21.42907
376.871	21.53968
377.083	22.44103
377.294	23.79679
377.506	21.08165
377.717	23.24025
377.929	22.11179
378.14	21.1451
378.352	22.16129
378.563	22.37389
378.775	23.33375
378.986	20.81488
379.197	22.07981
379.409	20.99192
379.62	22.06633
379.832	21.76576
380.043	21.66149
380.254	21.98438
380.466	20.3293
380.677	24.68183
380.888	24.09108
381.1	24.78822
381.311	24.92957
381.522	22.06879
381.733	24.81022
381.945	21.58218
382.156	21.517
382.367	21.46406
382.578	24.87357
382.789	25.42674
383.001	21.26228
383.212	24.25119
383.423	23.98434
383.634	23.3893
383.845	23.0916
384.056	22.22671
384.267	22.6013
384.478	22.41387
384.69	21.30168
384.901	23.10347
385.112	22.50679
385.323	24.73623
385.534	23.01994
385.745	22.80234
385.956	22.82954
386.167	21.59389
386.378	23.16915
386.588	21.91225
386.799	21.72564
387.01	21.0346
387.221	23.60396
387.432	22.69692
387.643	24.5059
387.854	22.54275
388.065	22.50166
388.275	22.56404
388.486	21.98394
388.697	23.04875
388.908	22.26829
389.119	23.99831
389.329	24.13163
389.54	22.94508
389.751	22.92087
389.962	23.97455
390.172	22.88265
390.383	22.89769
390.594	22.08761
390.804	22.2858
391.015	22.5739
391.226	23.27675
391.436	23.77241
391.647	23.58722
391.858	23.96131
392.068	21.67211
392.279	22.33258
392.489	23.833
392.7	24.15584
392.91	22.37244
393.121	22.6292
393.331	23.82585
393.542	24.39868
393.752	24.16914
393.963	23.76956
394.173	23.62052
394.384	24.06396
394.594	23.63803
394.804	22.38767
395.015	23.60988
395.225	24.29084
395.436	22.36407
395.646	23.79276
395.856	23.17992
396.067	21.8342
396.277	24.44371
396.487	23.98083
396.697	24.05157
396.908	24.05134
397.118	24.03044
397.328	23.53198
397.538	24.37302
397.749	22.51541
397.959	24.29053
398.169	23.69983
398.379	22.04181
398.589	23.92458
398.8	24.00294
399.01	23.99142
399.22	23.36046
399.43	25.6055
399.64	23.68474
399.85	23.87219
400.06	23.79863
400.27	22.77997
400.48	23.3811
400.69	24.67618
400.9	22.93098
401.11	22.56457
401.32	24.42583
401.53	22.93079
401.74	25.13069
401.95	24.11766
402.16	23.1366
402.37	24.11159
402.58	23.16689
402.79	24.10201
403	24.4809
403.209	22.94497
403.419	24.78422
403.629	23.22054
403.839	24.77539
404.049	24.75058
404.258	23.37851
404.468	23.11962
404.678	24.77843
404.888	25.20371
405.097	23.97016
405.307	23.83503
405.517	24.78605
405.727	24.45324
405.936	23.61457
406.146	24.41245
406.356	25.53202
406.565	23.96795
406.775	23.75438
406.984	23.86264
407.194	25.97612
407.404	24.02001
407.613	24.44104
407.823	24.95608
408.032	25.56899
408.242	25.09572
408.451	23.59399
408.661	23.73882
408.87	25.76262
409.08	23.32399
409.289	24.27914
409.499	24.53536
409.708	24.09629
409.918	22.1119
410.127	24.61404
410.336	25.72426
410.546	25.18619
410.755	23.99361
410.964	23.87642
411.174	23.4291
411.383	24.91018
411.592	24.67318
411.802	23.46105
412.011	24.87982
412.22	24.04826
412.429	25.91475
412.639	25.53121
412.848	25.42938
413.057	26.18808
413.266	25.59137
413.475	24.52606
413.685	25.14438
413.894	25.40801
414.103	25.58415
414.312	25.32247
414.521	24.43154
414.73	24.66608
414.939	26.67539
415.148	25.44418
415.357	24.8679
415.566	24.80693
415.776	24.71703
415.985	24.64678
416.194	25.88078
416.403	26.83076
416.611	24.01472
416.82	24.70807
417.029	25.43156
417.238	24.70631
417.447	24.42763
417.656	25.06425
417.865	24.73285
418.074	25.27927
418.283	25.29085
418.492	26.36745
418.7	26.37637
418.909	27.12793
419.118	25.8664
419.327	25.93158
419.536	25.86458
419.744	25.43565
419.953	26.61087
420.162	26.64202
420.371	26.27323
420.579	27.53811
420.788	28.39114
420.997	28.75345
421.205	29.28617
421.414	28.83217
421.623	28.79284
421.831	28.23446
422.04	28.65344
422.249	27.20018
422.457	27.47699
422.666	26.25639
422.874	27.20276
423.083	27.61667
423.291	27.88678
423.5	28.0347
423.708	28.8064
423.917	29.4505
424.125	28.78936
424.334	28.97202
424.542	30.82735
424.751	30.05024
424.959	29.15934
425.167	28.94316
425.376	28.67609
425.584	26.71246
425.793	27.01844
426.001	26.13454
426.209	27.39628
426.418	26.14074
426.626	26.11103
426.834	26.0033
427.042	26.50149
427.251	25.74589
427.459	27.2061
427.667	26.83106
427.875	25.34621
428.084	26.04532
428.292	27.54268
428.5	26.99549
428.708	25.6679
428.916	25.77592
429.124	26.43723
429.333	26.19115
429.541	26.47475
429.749	26.6004
429.957	26.48211
430.165	28.50646
430.373	25.24177
430.581	26.48042
430.789	27.73038
430.997	26.26407
431.205	25.93418
431.413	26.86576
431.621	26.5448
431.829	27.39854
432.037	26.45329
432.245	26.75651
432.453	27.02039
432.661	26.60149
432.869	28.42359
433.076	26.17085
433.284	26.59935
433.492	27.60164
433.7	28.05301
433.908	26.80248
434.116	27.16272
434.323	27.28611
434.531	27.06507
434.739	27.65685
434.947	27.75858
435.154	27.72282
435.362	27.18681
435.57	26.77087
435.778	26.68661
435.985	27.38365
436.193	26.55176
436.401	28.14335
436.608	27.02759
436.816	26.71392
437.023	28.66154
437.231	28.69129
437.439	27.2641
437.646	27.77815
437.854	27.7522
438.061	27.83351
438.269	27.11993
438.476	27.97465
438.684	27.48192
438.891	27.14261
439.099	27.03066
439.306	26.61148
439.514	26.74687
439.721	27.89139
439.929	27.13926
440.136	28.10247
440.343	27.72333
440.551	27.29379
440.758	29.22201
440.965	28.21877
441.173	27.82847
441.38	27.37672
441.587	28.17464
441.795	27.51273
442.002	28.05584
442.209	28.09831
442.416	28.20451
442.624	28.42803
442.831	28.1403
443.038	27.45616
443.245	27.13165
443.452	27.4909
443.66	28.43523
443.867	27.27505
444.074	27.38952
444.281	27.15732
444.488	27.46555
444.695	27.66126
444.902	27.31308
445.109	28.21125
445.316	27.57641
445.523	27.69435
445.73	27.80131
445.937	28.76499
446.144	29.6628
446.351	30.33647
446.558	28.55499
446.765	31.38801
446.972	30.04069
447.179	29.26265
447.386	29.62563
447.593	27.86129
447.8	28.94804
448.007	27.98676
448.214	28.13632
448.42	27.82481
448.627	29.30673
448.834	28.2029
449.041	27.8913
449.248	27.82825
449.454	28.94028
449.661	29.83257
449.868	27.90713
450.075	27.68118
450.281	26.49644
450.488	27.04665
450.695	27.25005
450.901	27.66458
451.108	27.46894
451.315	28.93741
451.521	28.0359
451.728	28.88902
451.935	27.50487
452.141	28.07449
452.348	28.09912
452.554	28.07405
452.761	27.86246
452.967	29.46256
453.174	28.2703
453.38	28.56721
453.587	27.27153
453.793	28.28716
454	28.74723
454.206	30.06217
454.413	28.98079
454.619	28.62871
454.825	27.53785
455.032	28.77676
455.238	29.04836
455.445	27.41943
455.651	28.44522
455.857	26.78879
456.064	28.29891
456.27	28.03585
456.476	28.17695
456.682	27.42383
456.889	28.53227
457.095	28.73265
457.301	30.26375
457.507	28.31065
457.714	28.3734
457.92	28.31303
458.126	27.81539
458.332	28.24291
458.538	27.89106
458.744	28.14927
458.951	28.03568
459.157	29.52893
459.363	28.52126
459.569	28.56998
459.775	29.21614
459.981	28.89745
460.187	29.36699
460.393	29.33939
460.599	29.85297
460.805	29.06503
461.011	29.05684
461.217	29.95799
461.423	29.85568
461.629	28.82425
461.835	29.5182
462.041	28.9362
462.247	30.2885
462.453	28.47933
462.658	28.38919
462.864	29.57115
463.07	28.76272
463.276	28.86892
463.482	28.78259
463.688	30.00596
463.893	27.97774
464.099	28.44775
464.305	30.09374
464.511	28.47388
464.716	28.63133
464.922	29.60696
465.128	28.22817
465.333	30.16451
465.539	29.59049
465.745	28.91388
465.95	28.86544
466.156	31.54568
466.362	29.71471
466.567	28.98093
466.773	28.29494
466.978	30.14758
467.184	28.00779
467.389	27.44177
467.595	29.11132
467.8	28.23976
468.006	30.29323
468.211	30.15923
468.417	28.31947
468.622	29.65649
468.828	29.5754
469.033	29.50557
469.239	31.58525
469.444	28.73863
469.649	29.80648
469.855	29.23271
470.06	29.62199
470.266	28.37084
470.471	30.22804
470.676	29.78708
470.881	28.04438
471.087	30.76893
471.292	30.99006
471.497	28.16642
471.703	29.36251
471.908	28.83313
472.113	29.44116
472.318	30.37086
472.523	28.56924
472.729	29.76821
472.934	29.62596
473.139	29.17317
473.344	29.4284
473.549	30.58246
473.754	28.55464
473.959	31.31635
474.164	28.86571
474.369	29.4522
474.575	30.06524
474.78	29.35848
474.985	28.88585
475.19	27.93444
475.395	28.94619
475.6	29.36743
475.804	30.53826
476.009	29.76747
476.214	29.40554
476.419	28.9804
476.624	28.10864
476.829	29.04982
477.034	30.07565
477.239	29.04196
477.444	29.66404
477.648	30.02763
477.853	30.20943
478.058	29.37788
478.263	29.03029
478.468	28.83364
478.672	28.94678
478.877	30.84022
479.082	31.36812
479.287	30.14461
479.491	29.64656
479.696	29.0472
479.901	30.48227
480.105	30.35315
480.31	29.16553
480.515	29.77362
480.719	31.58191
480.924	29.41063
481.128	28.91546
481.333	29.72125
481.538	30.00318
481.742	29.41878
481.947	30.09456
482.151	31.34945
482.356	34.21239
482.56	40.01179
482.765	45.29125
482.969	52.99086
483.174	59.42384
483.378	67.33651
483.582	69.49984
483.787	72.5532
483.991	73.46952
484.196	73.07143
484.4	70.78864
484.604	68.96876
484.809	62.68585
485.013	57.34405
485.217	51.2516
485.422	45.71204
485.626	41.91573
485.83	40.65984
486.034	40.46368
486.239	42.10151
486.443	44.05177
486.647	46.01745
486.851	48.76117
487.055	51.9132
487.26	52.64037
487.464	54.66417
487.668	54.05048
487.872	54.58271
488.076	53.86046
488.28	51.34478
488.484	47.84286
488.688	45.61805
488.892	42.64051
489.096	39.47233
489.3	36.26371
489.504	34.01968
489.708	32.60282
489.912	32.14954
490.116	31.93855
490.32	32.78901
490.524	36.01288
490.728	38.40657
490.932	41.3721
491.136	43.69489
491.34	45.6305
491.544	46.35322
491.748	46.1083
491.951	45.50151
492.155	43.81929
492.359	41.86285
492.563	38.10656
492.767	34.92514
492.97	31.15252
493.174	30.13227
493.378	30.3702
493.582	29.85857
493.785	30.64851
493.989	30.64203
494.193	30.51426
494.396	30.08707
494.6	30.80169
494.804	30.08831
495.007	29.61828
495.211	29.87496
495.414	29.88899
495.618	30.24795
495.822	30.98681
496.025	30.02132
496.229	30.74718
496.432	29.72162
496.636	30.23668
496.839	30.23575
497.043	31.5329
497.246	30.38422
497.45	29.9864
497.653	30.44022
497.856	30.68339
498.06	29.75268
498.263	30.39644
498.467	30.25812
498.67	31.40654
498.873	30.81316
499.077	30.43116
499.28	30.42334
499.483	30.63548
499.686	31.22153
499.89	30.50715
500.093	31.13867
500.296	30.15578
500.499	31.67582
500.703	30.24338
500.906	30.65452
501.109	31.73417
501.312	30.57467
501.515	30.37537
501.719	30.89844
501.922	31.49973
502.125	30.62291
502.328	30.22574
502.531	29.44501
502.734	30.3711
502.937	28.82916
503.14	30.25869
503.343	29.58919
503.546	30.14565
503.749	29.69332
503.952	30.71241
504.155	29.75974
504.358	31.00347
504.561	30.61398
504.764	29.43859
504.967	30.70479
505.17	30.40508
505.373	32.17266
505.576	30.61379
505.778	31.08044
505.981	30.05554
506.184	31.52326
506.387	29.36818
506.59	32.181
506.793	31.6235
506.995	30.82116
507.198	29.20332
507.401	31.01612
507.604	31.12505
507.806	29.87838
508.009	29.96982
508.212	31.02328
508.414	30.24181
508.617	30.16017
508.82	30.60707
509.022	31.94817
509.225	30.9889
509.427	29.61635
509.63	31.93584
509.833	30.66272
510.035	30.33109
510.238	29.5522
510.44	31.68454
510.643	29.26759
510.845	32.36863
511.048	31.14703
511.25	30.20933
511.453	30.60212
511.655	30.95304
511.858	30.43418
512.06	31.54897
512.262	30.82235
512.465	31.51386
512.667	30.56809
512.869	29.88874
513.072	30.99396
513.274	31.6297
513.476	31.45638
513.679	31.41746
513.881	29.97348
514.083	32.4485
514.286	30.36525
514.488	30.2653
514.69	29.81627
514.892	29.49316
515.094	31.36536
515.297	30.09513
515.499	30.72654
515.701	30.28268
515.903	31.89851
516.105	32.10047
516.307	31.36063
516.509	29.13355
516.711	29.69427
516.913	30.65161
517.116	30.67003
517.318	30.20354
517.52	31.41343
517.722	31.22622
517.924	29.84001
518.126	31.05426
518.328	30.28815
518.529	31.23659
518.731	32.28054
518.933	30.68662
519.135	30.88429
519.337	31.91085
519.539	31.44449
519.741	29.72722
519.943	30.96507
520.145	30.81922
520.346	31.64021
520.548	31.03414
520.75	31.23091
520.952	30.66116
521.153	31.40582
521.355	31.46377
521.557	30.01566
521.759	30.82946
521.96	30.95833
522.162	29.83396
522.364	32.01117
522.565	30.2236
522.767	31.25742
522.969	31.65273
523.17	31.41565
523.372	31.13072
523.573	30.5372
523.775	30.93048
523.977	29.98277
524.178	32.16994
524.38	30.39653
524.581	31.34789
524.783	30.40378
524.984	31.3697
525.186	30.91409
525.387	31.33742
525.589	30.85872
525.79	30.70236
525.991	30.47288
526.193	31.2466
526.394	30.03789
526.596	31.19725
526.797	31.23248
526.998	30.59897
527.2	32.65433
527.401	37.32195
527.602	41.4093
527.803	47.20294
528.005	50.7741
528.206	53.5868
528.407	55.87225
528.608	55.87848
528.81	56.00239
529.011	54.11309
529.212	54.16599
529.413	50.531
529.614	46.45462
529.815	42.39011
530.017	38.19822
530.218	33.86178
530.419	31.132
530.62	31.4825
530.821	31.40088
531.022	30.42577
531.223	31.65606
531.424	31.58353
531.625	31.46554
531.826	31.01229
532.027	31.14495
532.228	33.15965
532.429	34.57229
532.63	36.24153
532.831	38.3008
533.032	38.61541
533.233	39.63973
533.433	38.65395
533.634	38.69996
533.835	36.57691
534.036	34.84424
534.237	32.70289
534.438	31.2724
534.638	30.72526
534.839	31.05388
535.04	31.93729
535.241	31.07788
535.441	32.6517
535.642	31.64013
535.843	30.49985
536.043	30.47362
536.244	30.53226
536.445	30.67209
536.645	31.81504
536.846	31.40342
537.047	32.1063
537.247	30.71955
537.448	31.18625
537.648	31.39234
537.849	31.40175
538.049	31.53593
538.25	32.24434
538.451	31.61364
538.651	30.73883
538.851	31.59928
539.052	32.68147
539.252	32.01813
539.453	31.29949
539.653	31.70288
539.854	30.99241
540.054	31.25437
540.254	31.93942
540.455	34.84013
540.655	36.59751
540.855	40.15128
541.056	41.86665
541.256	41.94152
541.456	43.05988
541.657	42.28959
541.857	42.28463
542.057	39.53063
542.257	37.53576
542.458	36.69005
542.658	34.1405
542.858	31.29648
543.058	32.6422
543.258	31.9509
543.458	30.90691
543.659	30.84703
543.859	32.13826
544.059	32.13715
544.259	31.50666
544.459	32.40117
544.659	31.46044
544.859	32.05117
545.059	31.22859
545.259	32.32013
545.459	31.98961
545.659	32.20155
545.859	31.60888
546.059	31.44997
546.259	30.92369
546.459	30.40648
546.659	30.78777
546.859	32.13961
547.059	31.88936
547.258	32.02391
547.458	32.25083
547.658	30.81975
547.858	30.82846
548.058	32.12138
548.258	31.43274
548.457	31.02841
548.657	34.04519
548.857	31.46262
549.057	32.41073
549.256	32.42536
549.456	31.50638
549.656	29.53716
549.855	33.11091
550.055	31.06446
550.255	33.48941
550.454	31.71289
550.654	32.27889
550.853	33.01632
551.053	32.49388
551.253	31.78968
551.452	31.87179
551.652	30.61568
551.851	30.25651
552.051	31.09642
552.25	31.20056
552.45	30.95652
552.649	31.38754
552.849	30.82882
553.048	31.5857
553.248	32.37293
553.447	30.3984
553.646	32.53428
553.846	33.43786
554.045	32.81369
554.244	30.21514
554.444	33.71323
554.643	30.7783
554.842	33.4069
555.042	34.25183
555.241	30.65477
555.44	30.68455
555.64	32.59257
555.839	34.24469
556.038	32.31
556.237	30.75271
556.436	31.73266
556.636	32.3452
556.835	31.17423
557.034	33.71074
557.233	31.58363
557.432	30.23471
557.631	33.19749
557.83	31.4924
558.029	31.16067
558.228	30.78715
558.427	30.73698
558.626	32.06708
558.825	30.66209
559.024	31.61804
559.223	34.00734
559.422	31.15696
559.621	32.42754
559.82	28.96772
560.019	31.40629
560.218	31.32449
560.417	28.87004
560.616	30.96001
560.815	35.61262
561.014	29.78996
561.212	33.69704
561.411	32.11191
561.61	30.14286
561.809	31.46431
562.008	33.34653
562.206	31.41521
562.405	32.45632
562.604	31.40524
562.803	31.92154
563.001	31.43012
563.2	30.20816
563.399	32.12635
563.597	30.31174
563.796	31.28671
563.995	30.49079
564.193	32.44011
564.392	31.43531
564.59	34.58333
564.789	29.91189
564.988	31.46625
565.186	32.12186
565.385	31.68074
565.583	31.27569
565.782	31.67142
565.98	31.59067
566.179	31.50925
566.377	30.87428
566.575	31.13607
566.774	33.32227
566.972	32.84088
567.171	34.18447
567.369	33.20998
567.567	32.21842
567.766	32.18642
567.964	29.52008
568.162	32.58163
568.361	33.19807
568.559	31.56092
568.757	32.45995
568.956	32.05736
569.154	31.86657
569.352	32.29995
569.55	31.9839
569.748	31.94678
569.947	31.10218
570.145	30.85126
570.343	30.89469
570.541	33.14675
570.739	30.49008
570.937	31.9545
571.135	32.20911
571.333	33.8372
571.532	33.95282
571.73	32.61535
571.928	33.57279
572.126	32.43508
572.324	31.51168
572.522	33.56417
572.72	35.29014
572.918	32.11284
573.116	32.60115
573.313	32.15898
573.511	31.85123
573.709	31.47955
573.907	33.35614
574.105	31.66533
574.303	30.13787
574.501	30.45828
574.699	32.55759
574.896	32.5513
575.094	32.78072
575.292	30.4836
575.49	33.2381
575.688	31.98939
575.885	33.5037
576.083	34.79326
576.281	32.61211
576.478	31.24167
576.676	32.92326
576.874	30.53529
577.071	32.15606
577.269	35.71506
577.467	32.28499
577.664	31.92935
577.862	33.71077
578.059	30.82865
578.257	33.10346
578.455	31.81297
578.652	32.10828
578.85	29.76764
579.047	32.44783
579.245	32.06094
579.442	32.25065
579.64	31.95176
579.837	29.62359
580.034	35.61879
580.232	31.70442
580.429	30.52022
580.627	33.02162
580.824	33.79119
581.021	32.93085
581.219	31.59892
581.416	31.19218
581.613	34.28179
581.811	34.07999
582.008	30.57921
582.205	33.23594
582.402	32.61855
582.6	34.51255
582.797	31.95127
582.994	32.97501
583.191	33.25696
583.388	32.28053
583.586	33.75319
583.783	33.353
583.98	30.9729
584.177	32.15775
584.374	28.49328
584.571	32.18249
584.768	31.93822
584.965	31.79299
585.162	33.36066
585.359	34.84939
585.556	32.01558
585.753	32.69858
585.95	30.42506
586.147	31.01167
586.344	33.24714
586.541	32.00894
586.738	30.82377
586.935	31.85981
587.132	31.33954
587.329	34.01615
587.526	32.16898
587.722	39.86076
587.919	30.56249
588.116	33.34893
588.313	34.40718
588.51	36.09083
588.706	32.09711
588.903	33.37799
589.1	33.43692
589.297	36.10925
589.493	32.6361
589.69	33.51984
589.887	31.55176
590.083	30.89663
590.28	31.53356
590.477	33.82627
590.673	33.91638
590.87	34.27117
591.067	32.34323
591.263	33.24872
591.46	32.83404
591.656	32.25189
591.853	34.66779
592.049	31.14451
592.246	31.76668
592.442	35.10676
592.639	34.259
592.835	31.05457
593.032	33.37102
593.228	30.62129
593.425	30.54988
593.621	30.4444
593.817	33.31982
594.014	31.42505
594.21	32.96389
594.406	34.12389
594.603	33.82022
594.799	31.88566
594.995	29.47172
595.192	34.42063
595.388	32.35274
595.584	32.24909
595.78	30.65385
595.977	35.63833
596.173	35.13413
596.369	32.30047
596.565	31.42883
596.761	30.82281
596.957	34.54646
597.154	31.68713
597.35	32.15751
597.546	31.80505
597.742	33.82637
597.938	32.91789
598.134	31.69114
598.33	33.15518
598.526	35.36534
598.722	33.48029
598.918	35.57483
599.114	33.88482
599.31	31.0335
599.506	32.79758
599.702	31.03539
599.898	32.88882
600.094	34.47925
600.29	34.13852
600.485	34.50354
600.681	31.68829
600.877	35.7957
601.073	32.68788
601.269	35.4497
601.465	34.8632
601.66	30.96869
601.856	29.61807
602.052	35.34383
602.248	32.36194
602.443	29.87158
602.639	30.97984
602.835	31.70737
603.03	31.66832
603.226	34.81723
603.422	32.00653
603.617	32.58475
603.813	32.36971
604.009	32.41545
604.204	34.51754
604.4	30.89213
604.595	34.3077
604.791	31.78037
604.986	33.37948
605.182	32.05488
605.377	32.62515
605.573	32.38894
605.768	33.36535
605.964	34.00363
606.159	34.14406
606.355	34.6775
606.55	31.91072
606.746	34.84272
606.941	32.644
607.136	35.77877
607.332	37.5307
607.527	30.76116
607.722	33.22707
607.918	32.47914
608.113	31.77737
608.308	34.11632
608.503	33.29283
608.699	33.46174
608.894	33.68068
609.089	31.81794
609.284	33.28648
609.479	32.42082
609.675	34.21776
609.87	32.51643
610.065	34.32538
610.26	34.46262
610.455	34.57107
610.65	32.89178
610.845	32.98668
611.04	34.6245
611.235	32.89621
611.43	31.83915
611.625	30.62248
611.82	35.85143
612.015	31.73939
612.21	35.45216
612.405	30.11081
612.6	36.07823
612.795	35.33929
612.99	33.77611
613.185	30.84769
613.38	31.56747
613.575	32.67667
613.77	38.89136
613.965	30.04146
614.159	31.63672
614.354	35.54644
614.549	34.9012
614.744	34.157
614.938	30.80201
615.133	29.97685
615.328	35.32992
615.523	34.75902
615.717	38.8188
615.912	31.42472
616.107	33.34352
616.301	32.61062
616.496	31.577
616.691	35.83602
616.885	34.64238
617.08	39.44286
617.274	35.10848
617.469	37.30412
617.664	34.32012
617.858	31.60879
618.053	34.18689
618.247	33.09185
618.442	28.92886
618.636	36.0196
618.831	32.06151
619.025	32.45329
619.219	38.55745
619.414	27.197
619.608	32.98133
619.803	32.29672
619.997	37.41173
620.191	35.62271
620.386	34.07372
620.58	32.41916
620.774	29.87108
620.969	29.75051
621.163	33.708
621.357	31.26952
621.551	32.83055
621.746	33.24137
621.94	33.05809
622.134	40.44366
622.328	37.61871
622.522	30.28005
622.716	35.64137
622.911	36.4615
623.105	35.83883
623.299	34.68584
623.493	40.09171
623.687	31.81562
623.881	32.36177
624.075	34.81863
624.269	35.96032
624.463	30.34059
624.657	30.55215
624.851	34.93353
625.045	36.14182
625.239	35.49356
625.433	33.3112
625.627	36.96135
625.821	32.71837
626.015	32.25586
626.209	34.43173
626.403	31.74507
626.596	34.78816
626.79	35.76
626.984	31.53978
627.178	34.54171
627.372	34.986
627.565	35.57668
627.759	30.95972
627.953	31.62356
628.147	34.69761
628.34	35.3738
628.534	38.62326
628.728	33.75038
628.921	36.03547
629.115	35.05283
629.309	35.75904
629.502	36.36601
629.696	34.50006
629.89	33.75101
630.083	34.4524
630.277	35.34377
630.47	37.625
630.664	32.85979
630.857	30.66258
631.051	35.58299
631.244	36.71876
631.438	35.51745
631.631	31.43195
631.825	37.15554
632.018	35.92526
632.212	38.62575
632.405	36.80337
632.598	31.84264
632.792	34.58508
632.985	28.58813
633.178	33.43307
633.372	34.54117
633.565	33.56143
633.758	37.69962
633.952	32.32748
634.145	31.8822
634.338	33.89134
634.531	32.99213
634.724	33.05422
634.918	34.48188
635.111	33.39555
635.304	33.18972
635.497	39.86941
635.69	34.66666
635.883	37.56416
636.077	32.16568
636.27	35.77076
636.463	34.13437
636.656	34.75251
636.849	33.39692
637.042	35.08482
637.235	37.83602
637.428	35.85509
637.621	34.93029
637.814	38.31943
638.007	37.84969
638.2	37.80414
638.393	38.89052
638.586	30.95466
638.778	32.79836
638.971	34.06706
639.164	38.03849
639.357	34.70185
639.55	37.53241
639.743	36.7115
639.935	35.90295
640.128	39.52455
640.321	36.27002
640.514	34.48805
640.707	40.36338
640.899	36.65736
641.092	29.92249
641.285	54.83175
641.477	28.36318
641.67	41.71314
641.863	38.71223
642.055	35.96159
642.248	34.57684
642.441	34.09404
642.633	36.07313
642.826	38.71222
643.018	38.17621
643.211	40.78655
643.403	39.90326
643.596	41.69277
643.788	39.9156
643.981	34.63213
644.173	38.04456
644.366	34.59072
644.558	30.82341
644.751	38.66998
644.943	31.26703
645.135	40.46957
645.328	40.85161
645.52	36.75648
645.712	38.44871
645.905	44.17937
646.097	32.09882
646.289	35.66044
646.482	41.80505
646.674	33.70028
646.866	39.29075
647.058	37.29049
647.251	32.09498
647.443	33.54019
647.635	35.57915
647.827	32.0491
648.019	32.81928
648.211	34.87676
648.404	35.08154
648.596	40.80045
648.788	36.31277
648.98	36.74478
649.172	36.24422
649.364	36.65342
649.556	29.82447
649.748	44.28495
649.94	31.98103
650.132	37.32024
650.324	32.81266
650.516	33.46844
650.708	39.04716
650.9	31.99625
651.092	34.17499
651.284	32.01536
651.476	33.21443
651.667	37.6636
651.859	39.37538
652.051	35.81669
652.243	35.66033
652.435	34.60196
652.627	37.72937
652.818	37.26356
653.01	31.7805
653.202	32.74558
653.394	34.58189
653.585	37.45716
653.777	48.87764
653.969	38.97308
654.16	39.62335
654.352	32.28717
654.544	35.25833
654.735	38.49991
654.927	36.75273
655.118	39.88931
655.31	38.4086
655.502	39.81317
655.693	34.55412
655.885	37.58368
656.076	40.52565
656.268	36.29943
656.459	41.08688
656.651	40.56841
656.842	34.43697
657.034	34.54074
657.225	39.63051
657.416	40.59389
657.608	40.75977
657.799	35.54598
657.99	39.95323
658.182	34.91093
658.373	34.43283
658.564	38.78167
658.756	37.40989
658.947	36.79105
659.138	34.14448
659.33	35.22987
659.521	34.72382
659.712	36.69627
659.903	36.03928
660.094	35.47008
660.286	31.85915
660.477	42.70926
660.668	38.55164
660.859	36.54414
661.05	32.44009
661.241	38.17049
661.432	38.4158
661.623	35.47596
661.814	35.05424
662.006	31.53045
662.197	37.75566
662.388	41.56818
662.579	37.55802
662.77	41.56438
662.96	45.70407
663.151	39.21918
663.342	30.98329
663.533	39.06497
663.724	37.43196
663.915	43.47348
664.106	36.51962
664.297	43.4568
664.488	39.27358
664.678	35.2278
664.869	39.94524
665.06	39.47722
665.251	37.09719
665.442	38.52382
665.632	32.97049
665.823	43.70363
666.014	27.2133
666.204	39.73814
666.395	43.29411
666.586	47.76775
666.776	39.69784
666.967	43.92551
667.158	38.1346
667.348	42.82653
667.539	34.44412
667.729	40.94066
667.92	34.4293
668.111	41.45635
668.301	38.84596
668.492	36.55022
668.682	38.42812
668.873	37.39625
669.063	34.31675
669.253	38.41315
669.444	41.60827
669.634	37.47552
669.825	45.42203
670.015	42.42686
670.206	33.52914
670.396	45.61171
670.586	38.43175
670.777	40.19369
670.967	30.69102
671.157	36.42778
671.347	36.00171
671.538	43.3017
671.728	39.41536
671.918	46.65791
672.108	42.19748
672.299	36.34951
672.489	40.64454
672.679	34.84155
672.869	40.28307
673.059	46.23341
673.249	39.99872
673.44	34.30481
673.63	38.24206
673.82	41.76272
674.01	35.34534
674.2	39.34073
674.39	50.48361
674.58	41.36236
674.77	38.6896
674.96	38.24826
675.15	54.77174
675.34	43.85509
675.53	38.8321
675.72	37.27541
675.91	33.00732
676.099	46.48892
676.289	47.04796
676.479	44.03852
676.669	38.0049
676.859	40.74734
677.049	35.45517
677.238	38.50788
677.428	46.55273
677.618	41.19958
677.808	44.36124
677.997	41.73748
678.187	35.18194
678.377	39.219
678.567	37.90976
678.756	37.48342
678.946	38.57359
679.136	33.68324
679.325	36.18015
679.515	35.58131
679.704	35.07358
679.894	41.46911
680.084	39.85523
680.273	44.25732
680.463	36.2692
680.652	36.61542
680.842	39.47525
681.031	43.83366
681.221	36.17179
681.41	42.53876
681.6	38.36233
681.789	41.4933
681.978	45.49439
682.168	40.6003
682.357	40.2957
682.547	42.35098
682.736	40.95828
682.925	44.82106
683.115	44.12719
683.304	44.64884
683.493	41.47408
683.682	41.33595
683.872	42.12167
684.061	46.19511
684.25	42.3665
684.439	47.28894
684.629	43.07047
684.818	55.14228
685.007	40.21227
685.196	38.39021
685.385	47.25532
685.574	41.63138
685.763	43.50829
685.952	42.09433
686.142	35.36742
686.331	46.99405
686.52	32.96305
686.709	47.56227
686.898	47.32551
687.087	43.84714
687.276	48.39283
687.465	45.55546
687.654	40.41313
687.842	47.98022
688.031	35.80659
688.22	46.9397
688.409	42.01037
688.598	41.4092
688.787	53.8677
688.976	42.13295
689.165	50.26682
689.353	39.77776
689.542	43.3242
689.731	44.94029
689.92	50.3695
690.108	46.63867
690.297	40.62057
690.486	41.68419
690.675	47.18969
690.863	51.66853
691.052	49.98227
691.241	44.10172
691.429	44.0447
691.618	50.38057
691.806	36.67536
691.995	43.41971
692.184	43.08502
692.372	40.94033
692.561	44.95845
692.749	42.66036
692.938	55.93634
693.126	45.10541
693.315	41.52147
693.503	46.5985
693.692	45.73582
693.88	49.1386
694.068	54.99415
694.257	43.20661
694.445	46.13027
694.634	32.07419
694.822	49.07224
695.01	49.97226
695.199	49.97058
695.387	51.26627
695.575	50.76456
695.763	44.3799
695.952	41.26367
696.14	36.32874
696.328	41.66084
696.516	43.36817
696.705	46.56095
696.893	44.67221
697.081	34.94167
697.269	46.60193
697.457	38.31032
697.645	37.22464
697.833	46.87401
698.021	38.9005
698.21	40.98027
698.398	42.26821
698.586	37.781
698.774	37.60937
698.962	41.63653
699.15	38.66126
699.338	36.44032
699.526	46.26584
699.714	40.08255
699.901	41.92164
700.089	49.62382
700.277	40.50649
700.465	43.25417
700.653	48.90814
700.841	46.57737
701.029	40.05475
701.217	51.04162
701.404	44.61587
701.592	54.08667
701.78	54.90961
701.968	42.40506
702.155	43.01468
702.343	35.95471
702.531	51.44929
702.718	46.86817
702.906	42.69651
703.094	42.05538
703.281	52.32774
703.469	45.44586
703.657	50.59211
703.844	63.82751
704.032	55.81236
704.219	40.87678
704.407	46.78162
704.595	52.13781
704.782	45.34243
704.97	42.49532
705.157	43.40074
705.345	55.21271
705.532	63.01486
705.719	48.68541
705.907	53.23202
706.094	46.43214
706.282	56.0788
706.469	43.91371
706.656	47.6861
706.844	43.23095
707.031	51.84399
707.218	47.67279
707.406	56.73716
707.593	50.39044
707.78	52.31912
707.968	47.39336
708.155	41.70215
708.342	49.44022
708.529	50.94417
708.716	47.54524
708.904	57.84353
709.091	52.81356
709.278	40.16499
709.465	61.51231
709.652	58.904
709.839	56.73564
710.026	48.37975
710.213	38.37825
710.4	50.33254
710.587	52.30381
710.774	54.63817
710.961	54.59217
711.148	47.46241
711.335	55.96703
711.522	46.60514
711.709	50.3977
711.896	62.91355
712.083	53.89173
712.27	44.45749
712.457	49.39428
712.644	38.98749
712.831	61.39123
713.017	50.74216
713.204	53.73535
713.391	45.89694
713.578	56.96008
713.765	57.30741
713.951	52.29342
714.138	70.98428
714.325	53.87646
714.512	50.64202
714.698	45.59784
714.885	60.40614
715.072	51.72892
715.258	50.39673
715.445	46.91155
715.631	59.73717
715.818	33.86369
716.005	46.17651
716.191	54.65831
716.378	47.91773
716.564	57.30681
716.751	45.4508
716.937	47.71202
717.124	58.45411
717.31	45.15122
717.497	61.40254
717.683	45.19344
717.869	70.47436
718.056	48.51829
718.242	53.74948
718.429	50.73718
718.615	44.23233
718.801	53.35506
718.988	57.31908
719.174	56.28793
719.36	51.83606
719.547	63.58243
719.733	53.3884
719.919	56.10349
720.105	56.87797
720.291	51.37132
720.478	54.80923
720.664	52.05752
720.85	49.45949
721.036	76.55327
721.222	65.98803
721.408	52.56659
721.595	69.21167
721.781	65.60112
721.967	60.80381
722.153	68.50598
722.339	59.79552
722.525	55.44509
722.711	46.83118
722.897	44.25582
723.083	49.7868
723.269	62.45705
723.455	74.1838
723.641	78.83779
723.827	56.00858
724.012	58.58075
724.198	51.0663
724.384	66.73813
724.57	58.64937
724.756	41.60697
724.942	39.10891
725.127	62.88384
725.313	65.88189
725.499	65.37703
725.685	69.77262
725.87	58.07928
726.056	47.41408
726.242	67.93498
726.428	42.20935
726.613	62.87235
726.799	52.65035
726.985	46.81115
727.17	41.88859
727.356	69.75338
727.541	46.00742
727.727	53.94223
727.913	62.0065
728.098	49.96677
728.284	61.84691
728.469	44.7573
728.655	48.72031
728.84	61.22257
729.026	62.15944
729.211	62.37224
729.397	58.56913
729.582	62.24326
729.767	56.36991
729.953	58.46436
730.138	63.74066
730.323	38.5765
730.509	47.08513
730.694	70.91404
730.879	59.36376
731.065	54.03252
731.25	75.67094
731.435	61.71471
731.621	42.391
731.806	50.40702
731.991	56.96105
732.176	43.82095
732.361	67.21506
732.547	57.63267
732.732	43.53157
732.917	76.26661
733.102	47.44317
733.287	48.99906
733.472	56.11556
733.657	57.89101
733.842	44.60545
734.027	54.3635
734.212	57.59519
734.397	50.46483
734.582	59.2942
734.767	66.57752
734.952	74.11414
735.137	33.76154
735.322	72.07685
735.507	61.18294
735.692	59.83839
735.877	78.75296
736.062	74.01352
736.247	65.06839
736.431	57.01316
736.616	68.50037
736.801	61.5107
736.986	59.47073
737.171	48.60891
737.355	44.29622
737.54	69.23282
737.725	59.42325
737.909	83.77788
738.094	52.95396
738.279	68.27786
738.463	54.33533
738.648	62.29446
738.833	62.69942
739.017	76.05277
739.202	53.09758
739.386	57.78899
739.571	49.82781
739.756	63.7075
739.94	57.29112
740.125	66.74838
740.309	51.31583
740.494	68.25669
740.678	59.69214
740.863	64.93449
741.047	59.55259
741.231	72.13968
741.416	51.89072
741.6	79.55091
741.785	52.50837
741.969	68.65317
742.153	72.01346
742.338	42.45629
742.522	60.50708
742.706	69.53915
742.89	47.68974
743.075	62.42883
743.259	77.00398
743.443	69.11606
743.627	74.71317
743.812	84.275
743.996	42.78449
744.18	57.35216
744.364	56.24342
744.548	89.22224
744.732	59.87797
744.916	71.52021
745.1	69.58651
745.285	57.41187
745.469	67.52423
745.653	81.42677
745.837	44.74269
746.021	89.09082
746.205	75.83451
746.389	62.24247
746.573	60.64951
746.757	80.53455
746.94	58.06437
747.124	75.0884
747.308	48.09574
747.492	74.0525
747.676	51.46814
747.86	91.07017
748.044	55.39943
748.227	42.75864
748.411	104.44053
748.595	62.7141
748.779	50.17956
748.963	68.46989
749.146	62.68146
749.33	53.01682
749.514	50.42946
749.697	76.7505
749.881	56.37191
750.065	52.0035
750.248	62.21565
750.432	90.98665
750.616	63.04688
750.799	47.45308
750.983	88.44979
751.166	94.44207
751.35	45.37036
751.533	69.06564
751.717	79.73378
751.9	82.65099
752.084	58.86996
752.267	51.04894
752.451	56.76619
752.634	65.5305
752.818	70.86747
753.001	73.28891
753.184	76.46883
753.368	69.99068
753.551	26.43361
753.734	54.08315
753.918	87.43279
754.101	54.04505
754.284	75.43822
754.467	58.33488
754.651	56.54994
754.834	53.73733
755.017	78.63974
755.2	78.20116
755.384	49.30704
755.567	73.88421
755.75	79.62036
755.933	61.35683
756.116	66.56113
756.299	57.74391
756.482	52.68485
756.665	69.70451
756.848	64.96352
757.032	71.09119
757.215	47.00584
757.398	53.77438
757.581	55.48988
757.764	97.3652
757.947	61.91339
758.129	81.24588
758.312	31.88535
758.495	58.88396
758.678	65.61447
758.861	58.83223
759.044	86.55207
759.227	52.9113
759.41	54.89613
759.592	70.17357
759.775	62.66078
759.958	77.37777
760.141	48.94362
760.324	96.89753
760.506	85.9603
760.689	78.84959
760.872	94.83845
761.054	73.83487
761.237	61.52813
761.42	69.58371
761.602	75.60208
761.785	73.21959
761.968	77.4531
762.15	85.95058
762.333	59.36953
762.515	67.98216
762.698	57.95019
762.88	74.95667
763.063	63.7624
763.245	70.05029
763.428	50.69469
763.61	57.13222
763.793	46.9545
763.975	65.43944
764.158	57.92211
764.34	57.57409
764.522	52.97652
764.705	62.74065
764.887	80.89929
765.069	48.18593
765.252	75.12862
765.434	75.0647
765.616	67.70431
765.799	61.1653
765.981	74.95849
766.163	58.84034
766.345	79.46238
766.528	57.60107
766.71	37.28426
766.892	68.23422
767.074	85.19137
767.256	65.05042
767.438	91.20374
767.62	70.44402
767.802	98.36425
767.985	75.8708
768.167	99.97609
768.349	58.11999
768.531	77.71479
768.713	69.55878
768.895	79.90379
769.077	77.88688
769.259	106.6111
769.441	141.03077
769.623	87.20711
769.804	94.50445
769.986	90.02332
770.168	106.8278
770.35	125.12129
770.532	93.06988
770.714	104.86368
770.896	105.84391
771.077	57.13215
771.259	110.50305
771.441	90.19145
771.623	116.74619
771.804	131.81947
771.986	57.77576
772.168	72.02725
772.35	116.6591
772.531	142.40113
772.713	86.80961
772.894	119.82196
773.076	88.19871
773.258	83.3612
773.439	118.23994
773.621	129.36481
773.802	66.79353
773.984	81.8399
774.166	93.44557
774.347	124.0557
774.529	115.56627
774.71	48.06948
774.891	86.07516
775.073	80.14123
775.254	120.30262
775.436	77.88148
775.617	134.53787
775.799	78.31244
775.98	124.60153
776.161	128.85985
776.343	131.71909
776.524	90.68411
776.705	79.90704
776.886	52.00866
777.068	97.14049
777.249	153.07324
777.43	140.07035
777.611	66.21668
777.793	81.34785
777.974	128.63974
778.155	80.99996
778.336	69.63233
778.517	146.02779
778.698	70.39699
778.879	51.50282
779.061	33.96888
779.242	96.31474
779.423	103.59225
779.604	82.56344
779.785	89.6701
779.966	87.79487
780.147	119.70069
780.328	118.18179
780.509	158.97007
780.69	106.22962
780.871	70.72656
781.051	62.65747
781.232	95.30787
781.413	94.21401
781.594	86.70946
781.775	83.55894
781.956	73.232
782.137	52.30951
782.317	77.35649
782.498	97.00184
782.679	91.28741
782.86	97.57657
783.04	77.08297
783.221	98.8926
783.402	138.81608
783.583	98.31667
783.763	107.37411
783.944	80.82649
784.124	59.66577
784.305	132.61966
784.486	101.35152
784.666	87.0979
784.847	59.02491
785.027	153.09935
785.208	81.65888
785.388	81.37931
785.569	85.1837
785.749	86.67947
785.93	76.54025
786.11	58.34009
786.291	103.03328
786.471	93.55875
786.652	110.18687
786.832	86.61576
787.012	102.09459
787.193	65.13643
787.373	94.06106
787.553	81.60009
787.734	98.95283
787.914	80.77829
788.094	102.08096
788.275	100.83806
788.455	85.33035
788.635	65.16776
788.815	95.80244
788.995	67.27987
789.176	58.68186
789.356	73.16228
789.536	86.79185
789.716	107.54008
789.896	75.09579
790.076	80.4507
790.256	94.713
790.436	43.49776
790.616	72.77681
790.796	99.62921
790.976	81.8568
791.156	73.7746
791.336	109.12673
791.516	102.97113
791.696	86.04712
791.876	61.99893
792.056	96.86043
792.236	109.26832
792.416	106.82108
792.596	103.47387
792.776	103.96201
792.956	102.548
793.135	123.51046
793.315	66.42725
793.495	119.32628
793.675	106.11482
793.854	109.05605
794.034	114.31909
794.214	68.86273
794.394	105.87895
794.573	123.15206
794.753	94.56286
794.933	70.48692
795.112	93.05426
795.292	113.66511
795.472	136.23845
795.651	63.28197
795.831	85.72918
796.01	85.16406
796.19	83.19491
796.369	88.96718
796.549	101.99606
796.728	85.74791
796.908	62.06634
797.087	67.80113
797.267	76.38981
797.446	67.76738
797.626	104.90659
797.805	103.19362
797.984	74.07711
798.164	109.32564
798.343	69.0363
798.522	93.2096
798.702	92.02857
798.881	62.53755
799.06	85.70219
799.239	51.69958
799.419	71.17581
799.598	131.11396
799.777	101.25952
799.956	125.22857
800.136	80.57721
800.315	77.81227
800.494	103.22971
800.673	118.25979
800.852	106.7371
801.031	112.40329
801.21	105.37724
801.389	86.30436
801.568	95.0402
801.747	142.46004
801.926	93.29693
802.105	129.9119
802.284	79.43571
802.463	132.16838
802.642	96.48855
802.821	97.0192
803	128.38856
803.179	112.00685
803.358	121.71836
803.537	79.20418
803.716	94.94908
803.895	73.67718
804.073	90.32272
804.252	75.7543
804.431	102.33393
804.61	87.18744
804.789	120.15952
804.967	77.38259
805.146	82.34222
805.325	136.98742
805.503	105.08015
805.682	58.68623
805.861	160.36767
806.039	119.15402
806.218	84.79928
806.397	97.23084
806.575	90.08503
806.754	101.59804
806.932	66.99022
807.111	132.22471
807.289	120.84057
807.468	95.71456
807.646	122.61635
807.825	109.59273
808.003	98.61865
808.182	116.92876
808.36	99.40341
808.539	77.6913
808.717	130.15461
808.895	77.76085
809.074	102.69198
809.252	95.76225
809.43	111.145
809.609	121.66819
809.787	135.76578
809.965	93.24915
810.144	95.73332
810.322	88.85287
810.5	109.82319
810.678	87.28622
810.856	158.99433
811.035	125.01017
811.213	112.23549
811.391	132.05195
811.569	98.01257
811.747	169.51844
811.925	130.16738
812.103	76.2029
812.281	91.6966
812.459	149.03048
812.637	146.55627
812.816	120.9867
812.994	149.86391
813.171	131.3366
813.349	110.13352
813.527	130.84415
813.705	145.31677
813.883	168.26818
814.061	126.30231
814.239	154.01353
814.417	158.25325
814.595	111.7503
814.773	104.3226
814.95	110.55273
815.128	114.89321
815.306	104.2502
815.484	94.99696
815.662	76.57561
815.839	72.6245
816.017	79.38758
816.195	127.0342
816.372	90.70763
816.55	117.07505
816.728	139.31759
816.905	94.75183
817.083	148.85524
817.261	102.65286
817.438	162.01899
817.616	152.93142
817.793	85.24243
817.971	122.75965
818.148	115.38375
818.326	140.51191
818.503	106.27709
818.681	136.03188
818.858	87.52589
819.036	97.58519
819.213	104.43337
819.391	81.77981
819.568	77.89974
819.745	73.22229
819.923	123.06328
820.1	81.69568
820.277	74.61826
820.455	86.76939
820.632	92.10665
820.809	90.67636
820.986	66.81386
821.164	57.59163
821.341	53.70566
821.518	63.99374
821.695	52.99658
821.872	51.70622
822.05	48.14969
822.227	43.10203
822.404	44.92826
822.581	49.54672
822.758	46.07855
822.935	46.62513
823.112	51.0296
823.289	46.21631
823.466	52.43521
823.643	50.8945
823.82	57.31406
823.997	56.15236
824.174	63.98467
824.351	75.14081
824.528	74.13454
824.705	69.19766
824.882	74.6418
825.059	87.30039
825.236	68.31456
825.412	70.04301
825.589	77.74431
825.766	95.80986
825.943	71.18528
826.12	76.54596
826.296	59.80811
826.473	65.22264
826.65	66.62789
826.827	75.05195
827.003	57.99851
827.18	61.66709
827.357	67.20366
827.533	63.5195
827.71	46.01677
827.887	58.77228
828.063	65.29395
828.24	60.47826
828.416	74.89315
828.593	68.6616
828.769	89.84882
828.946	95.9171
829.122	100.89674
829.299	90.54928
829.475	62.6076
829.652	93.19695
829.828	142.07597
830.005	91.1539
830.181	121.01934
830.357	87.3348
830.534	126.42511
830.71	90.16246
830.886	110.42752
831.063	115.43254
831.239	136.36087
831.415	77.96981
831.592	134.96391
831.768	97.38477
831.944	80.20964
832.12	134.28506
832.296	127.74392
832.473	112.24861
832.649	84.30908
832.825	105.40779
833.001	69.94656
833.177	95.68041
833.353	84.22935
833.529	57.49561
833.705	75.50793
833.881	61.76439
834.058	61.8292
834.234	67.7828
834.41	67.07128
834.586	57.70759
834.761	68.20428
834.937	72.39544
835.113	77.17487
835.289	71.56035
835.465	83.79068
835.641	74.77102
835.817	82.83725
835.993	132.28184
836.169	77.47745
836.344	104.7892
836.52	118.06438
836.696	105.34613
836.872	79.9257
837.048	192.55321
837.223	98.32351
837.399	171.14854
837.575	132.82195
837.75	129.34493
837.926	155.00103
838.102	241.92356
838.277	201.03096
838.453	222.30773
838.628	217.6121
838.804	105.19318
838.98	234.55036
839.155	110.95583
839.331	151.83833
839.506	110.06232
839.682	109.58664
839.857	135.29189
840.033	157.62571
840.208	94.03083
840.384	52.18238
840.559	97.56416
840.734	132.65289
840.91	179.86548
841.085	117.08018
841.26	118.96597
841.436	104.53354
841.611	112.10208
841.786	161.51699
841.962	200.41743
842.137	130.52855
842.312	94.43975
842.487	112.50912
842.663	90.64479
842.838	124.1863
843.013	304.0159
843.188	169.48888
843.363	184.70867
843.538	285.55522
843.714	281.57364
843.889	283.57115
844.064	274.94864
844.239	247.32723
844.414	290.72597
844.589	202.77389
844.764	331.63514
844.939	299.64675
845.114	405.25643
845.289	337.65535
845.464	375.41411
845.639	299.35713
845.814	192.35136
845.989	196.12103
846.163	205.84181
846.338	250.11621
846.513	349.5367
846.688	232.71872
846.863	213.84579
847.038	210.70903
847.212	215.81994
847.387	253.0338
847.562	255.45435
847.737	260.47702
847.911	117.74123
848.086	153.89088
848.261	400.96916
848.435	219.50197
848.61	320.46142
848.785	163.09714
848.959	293.71416
849.134	402.48264
849.308	509.10922
849.483	241.27584
849.658	346.16252
849.832	218.81362
850.007	204.06429
850.181	426.31047
850.356	191.48021
850.53	388.2768
850.705	148.9987
850.879	102.6069
851.053	252.58435
851.228	227.75158
851.402	283.15406
851.577	351.51975
851.751	326.17942
851.925	265.50365
852.099	123.13117
852.274	191.07405
852.448	224.28275
852.622	295.92633
852.797	252.07892
852.971	232.04506
853.145	279.5443
853.319	468.09141
853.493	363.36847
853.668	213.60463
853.842	402.58864
854.016	326.06424
854.19	429.01007
854.364	278.17995
854.538	287.38076
854.712	350.10155
854.886	262.34684
855.06	222.53809
855.234	96.41919
855.408	406.48361
855.582	355.57983
855.756	335.0806
855.93	425.51874
856.104	297.53398
856.278	334.99139
856.452	263.57698
856.626	299.09413
856.8	459.28584
856.973	302.47946
857.147	285.19524
857.321	283.22988
857.495	362.17384
857.669	248.92309
857.842	223.1521
858.016	402.36529
858.19	176.75748
858.364	609.53341
858.537	234.60544
858.711	260.38628
858.885	201.08572
859.058	198.35961
859.232	123.11012
859.405	146.04672
859.579	339.43901
859.753	286.5461
859.926	192.11846
860.1	144.61576
860.273	237.09106
860.447	433.62343
860.62	227.73571
860.794	453.76677
860.967	270.57959
861.141	377.66141
861.314	495.46536
861.487	312.99969
861.661	397.11336
861.834	429.56274
862.008	333.54827
862.181	270.16348
862.354	281.08959
862.528	297.62866
862.701	194.90813
862.874	143.82777
863.047	221.98401
863.221	230.10147
863.394	117.33855
863.567	363.69378
863.74	91.65669
863.913	366.32561
864.087	290.17498
864.26	321.38443
864.433	233.85327
864.606	471.38306
864.779	261.98578
864.952	137.6127
865.125	208.24455
865.298	231.0395
865.471	265.30694
865.644	413.11541
865.817	370.13585
865.99	332.21037
866.163	411.52982
866.336	209.65914
866.509	233.18858
866.682	202.91335
866.855	353.10556
867.028	150.94878
867.2	311.05132
867.373	111.40875
867.546	272.69334
867.719	443.50165
867.892	268.60456
868.064	179.22731
868.237	282.3142
868.41	283.96259
868.583	164.30144
868.755	150.97488
868.928	215.49061
869.101	451.20326
869.273	330.29122
869.446	294.17665
869.619	358.22995
869.791	240.49227
869.964	354.0493
870.136	312.87241
870.309	282.34417
870.481	265.0492
870.654	146.39168
870.826	268.53325
870.999	222.25207
871.171	309.94249
871.344	197.68143
871.516	222.54946
871.689	172.95034
871.861	261.66958
872.033	191.51477
872.206	228.31612
872.378	335.57607
872.55	221.89423
872.723	147.63931
872.895	207.44387
873.067	358.96591
873.24	330.83476
873.412	210.31739
873.584	237.54216
873.756	210.77914
873.928	273.78974
874.101	264.30593
874.273	272.10701
874.445	103.24095
874.617	163.1358
874.789	251.47969
874.961	231.09002
875.133	281.63986
875.305	246.30177
875.477	160.91064
875.649	136.59545
875.821	178.40095
875.993	363.32521
876.165	167.35376
876.337	260.56547
876.509	249.64909
876.681	252.65147
876.853	276.69959
877.025	267.23654
877.197	182.92168
877.369	165.20245
877.541	300.09888
877.712	100.66794
877.884	151.83233
878.056	269.89731
878.228	155.78413
878.4	275.97352
878.571	160.47169
878.743	111.86598
878.915	217.39102
879.086	157.76721
879.258	175.63424
879.43	153.31118
879.601	139.52874
879.773	144.99451
879.945	54.3147
880.116	72.57711
880.288	53.06804
880.459	58.16178
880.631	49.92273
880.802	54.53681
880.974	54.14636
881.145	44.02729
881.317	52.90385
881.488	47.17145
881.66	50.06476
881.831	46.62299
882.002	57.74687
882.174	49.0482
882.345	57.20569
882.517	43.10337
882.688	68.25631
882.859	60.13139
883.03	85.68864
883.202	86.29658
883.373	81.07771
883.544	77.16885
883.715	114.55192
883.887	101.31974
884.058	90.42696
884.229	117.72763
884.4	117.65863
884.571	134.10105
884.742	109.9477
884.914	118.1682
885.085	153.58231
885.256	196.60769
885.427	170.21562
885.598	180.62306
885.769	186.52563
885.94	198.62247
886.111	134.62782
886.282	213.51328
886.453	162.93126
886.624	136.55032
886.795	223.93721
886.966	175.26215
887.136	223.79801
887.307	153.05376
887.478	286.2734
887.649	255.74654
887.82	242.87497
887.991	205.16756
888.161	286.25454
888.332	234.02979
888.503	148.09441
888.674	334.28437
888.844	354.22163
889.015	286.02892
889.186	156.13196
889.356	345.15542
889.527	135.36273
889.698	497.57704
889.868	186.5337
890.039	263.86817
890.209	205.68962
890.38	282.06831
890.551	232.12114
890.721	342.71417
890.892	290.43613
891.062	225.26352
891.233	268.86725
891.403	195.29611
891.574	164.1722
891.744	227.38958
891.914	233.6601
892.085	217.62797
892.255	95.86789
892.425	322.73002
892.596	238.1325
892.766	264.25727
892.936	307.6402
893.107	273.38669
893.277	166.5241
893.447	133.80872
893.618	101.99309
893.788	180.72817
893.958	105.66337
894.128	105.53255
894.298	112.89545
894.468	149.72676
894.639	80.59188
894.809	66.38188
894.979	87.81054
895.149	107.18829
895.319	85.89562
895.489	107.72899
895.659	144.91822
895.829	108.85413
895.999	116.26408
896.169	94.52443
896.339	120.30396
896.509	218.68386
896.679	236.14455
896.849	250.14914
897.019	309.26997
897.189	220.77361
897.358	213.17263
897.528	297.66241
897.698	124.857
897.868	272.12763
898.038	432.89694
898.208	397.14931
898.377	136.37011
898.547	362.86054
898.717	486.62344
898.886	282.83294
899.056	436.92996
899.226	485.50636
899.395	325.22947
899.565	467.26067
899.735	335.01969
899.904	504.90925
900.074	405.13975
900.244	179.96118
900.413	647.75816
900.583	169.59425
900.752	294.51673
900.922	423.5211
901.091	68.67453
901.261	371.99075
901.43	364.95745
901.599	346.44334
901.769	708.26241
901.938	499.1553
902.108	390.67235
902.277	490.80054
902.446	143.53565
902.616	186.66831
902.785	217.61348
902.954	382.74873
903.124	232.8218
903.293	178.89032
903.462	119.72442
903.631	160.41343
903.801	123.94854
903.97	77.79853
904.139	113.35829
904.308	94.79508
904.477	82.31605
904.646	61.47727
904.816	83.59165
904.985	118.28566
905.154	174.12402
