Data from WindowProjectSample_Transmission__44__00044__0008531536810468698.txt Node

Date: Mon May 05 18:00:06 EDT 2025
User: jessi
Spectrometer: SR400872
Trigger mode: 0
Integration Time (sec): 5.000010E-1
Scans to average: 20
Electric dark correction enabled: true
Nonlinearity correction enabled: true
Boxcar width: 0
XAxis mode: Wavelengths
Number of Pixels in Spectrum: 3648
>>>>>Begin Spectral Data<<<<<
184.909	21437.8772
185.132	-5520.1707
185.355	-3242.3992
185.578	-19038.57949
185.801	1679.59409
186.024	10843.45814
186.247	-1896.28063
186.47	1306.39118
186.693	437.36033
186.916	297.64339
187.139	-3900.8968
187.362	3842.18307
187.585	4232.49515
187.808	3643.2362
188.031	-91.31921
188.254	-54257.73361
188.476	-726.05015
188.699	6199.52678
188.922	721.08391
189.145	-15909.73484
189.368	-689.84215
189.591	-1469.1182
189.813	3199.84962
190.036	-49563.50733
190.259	-919.08672
190.482	-4633.97325
190.705	7278.24814
190.927	-2634.25268
191.15	13565.51824
191.373	3405.21131
191.595	-8954.32287
191.818	-4283.56043
192.041	-5698.63901
192.263	-3395.54288
192.486	-872.73352
192.709	-4020.2529
192.931	8256.03506
193.154	-29524.45928
193.377	-2980.48989
193.599	-2504.01131
193.822	-9481.42564
194.044	-2094.34578
194.267	1149.94749
194.489	274.02339
194.712	-44226.78233
194.934	-33326.06118
195.157	1252.92389
195.379	1437.90661
195.602	-7141.0682
195.824	-1327.15981
196.047	-9290.85036
196.269	2835.6234
196.492	-6847.35342
196.714	28944.03558
196.936	-8824.38807
197.159	-1272.27587
197.381	1083.02909
197.604	382.68789
197.826	12427.15456
198.048	-11367.66707
198.271	-2823.90648
198.493	7686.3123
198.715	2407.42373
198.938	-556.58639
199.16	7043.21043
199.382	-103782.2988
199.604	2836.59909
199.827	-1133.71219
200.049	-3016.05551
200.271	13898.53643
200.493	1206.60053
200.715	-36900.28889
200.938	-6275.14332
201.16	-4155.08784
201.382	20782.13074
201.604	2335.41094
201.826	2364.44513
202.048	-1922.33209
202.27	-2001.39002
202.492	-36832.03531
202.715	2985.76486
202.937	-4678.1604
203.159	-6688.61358
203.381	1513.30768
203.603	6616.89737
203.825	6517.56677
204.047	2247.23704
204.269	-2839.63148
204.491	2237.64347
204.713	5743.94627
204.935	-497178.4068
205.156	1223.12191
205.378	-2906.76149
205.6	1604.70189
205.822	158510.30569
206.044	-1001.73215
206.266	1610.72502
206.488	4912.55273
206.71	-5394.25116
206.932	1092.77262
207.153	12726.64729
207.375	-7134.94522
207.597	-40176.76558
207.819	-2772.71759
208.041	2554.09626
208.262	508.27294
208.484	721.9749
208.706	-849.38788
208.927	-852.73242
209.149	539.09059
209.371	-2982.00769
209.593	-128.60368
209.814	-935.62697
210.036	628.68985
210.258	-675.34485
210.479	1733.99902
210.701	1697.00503
210.922	3285.46742
211.144	-4318.27586
211.366	2177.45834
211.587	7578.26343
211.809	-8405.39777
212.03	2342.12313
212.252	429.29491
212.473	2127.07805
212.695	-5867.66869
212.916	3033.96951
213.138	-748.12668
213.359	3887.77181
213.581	5399.44375
213.802	-719.77795
214.024	1162.36582
214.245	2119.28686
214.466	2627.28349
214.688	-3072.29465
214.909	-1291.77199
215.131	-1801.03079
215.352	-3085.10655
215.573	15290.39446
215.795	5256.30335
216.016	5591.05607
216.237	870.9438
216.459	3666.38582
216.68	1759.53045
216.901	5080.00651
217.122	-3014.63507
217.344	-11979.03684
217.565	3617.74437
217.786	9192.7455
218.007	15722.53031
218.228	-876.26734
218.45	6008.11867
218.671	757.0791
218.892	38258.8085
219.113	1628.7871
219.334	-383.72291
219.555	10740.17813
219.776	3164.89124
219.997	23509.94544
220.219	2991.18158
220.44	-10729.43006
220.661	466.54048
220.882	1568.21785
221.103	-1035.96498
221.324	2281.43598
221.545	2330.01274
221.766	-9363.40306
221.987	872.54152
222.208	1814.09095
222.429	4410.04145
222.65	150.80389
222.87	19728.12559
223.091	786.93184
223.312	565.56863
223.533	1404.43199
223.754	1516.97292
223.975	1381.15357
224.196	2039.17464
224.417	1356.64685
224.637	636.51818
224.858	56.30842
225.079	1076.14255
225.3	662.24856
225.521	3817.578
225.741	496.84273
225.962	528.42919
226.183	150.18571
226.404	680.69121
226.624	441.15852
226.845	675.4434
227.066	409.39158
227.286	252.91532
227.507	131.13447
227.728	119.57058
227.948	240.52898
228.169	75.76851
228.389	88.69477
228.61	47.13701
228.831	64.69264
229.051	2.80329
229.272	39.10462
229.492	58.03572
229.713	13.78338
229.933	37.31245
230.154	32.33491
230.374	56.31815
230.595	38.42423
230.815	24.73711
231.036	39.73637
231.256	-9.29679
231.477	71.47619
231.697	40.55549
231.917	42.98634
232.138	54.62032
232.358	109.14015
232.579	108.24859
232.799	19.32694
233.019	103.9675
233.24	115.19586
233.46	37.21615
233.68	64.08196
233.901	47.87337
234.121	26.45008
234.341	12.28758
234.561	-8.44836
234.782	22.64351
235.002	70.03236
235.222	-4.64441
235.442	67.81352
235.662	33.31508
235.883	60.88518
236.103	50.80125
236.323	36.67727
236.543	30.23795
236.763	41.3026
236.983	43.77284
237.203	42.65371
237.423	64.53929
237.643	89.29579
237.864	75.56351
238.084	16.75738
238.304	25.9878
238.524	47.01919
238.744	39.95695
238.964	76.33256
239.184	64.91169
239.404	65.94236
239.624	32.49343
239.843	62.13005
240.063	37.38226
240.283	22.50503
240.503	27.31892
240.723	25.24075
240.943	14.00109
241.163	21.55169
241.383	15.40892
241.603	7.17008
241.822	10.35426
242.042	5.78459
242.262	8.42711
242.482	9.73396
242.702	10.98277
242.921	2.93134
243.141	6.48269
243.361	6.7679
243.581	9.65047
243.8	7.66203
244.02	5.23683
244.24	9.56568
244.459	9.06502
244.679	18.69818
244.899	11.45212
245.118	13.34636
245.338	12.49535
245.558	14.13087
245.777	8.44908
245.997	10.56996
246.216	10.74805
246.436	6.49198
246.655	4.84896
246.875	3.18523
247.094	6.38864
247.314	2.03751
247.533	3.71087
247.753	4.5571
247.972	3.5337
248.192	1.37604
248.411	1.94193
248.631	3.57385
248.85	4.77307
249.07	3.95891
249.289	6.26746
249.508	5.05159
249.728	7.70843
249.947	7.20649
250.166	8.55791
250.386	4.29783
250.605	7.10785
250.824	10.70881
251.044	7.46279
251.263	29.76784
251.482	14.99319
251.701	12.38072
251.921	-0.40118
252.14	3.26221
252.359	3.98002
252.578	10.19125
252.798	3.71198
253.017	9.17601
253.236	3.87848
253.455	5.96412
253.674	11.07012
253.893	5.07729
254.112	7.88092
254.331	12.52744
254.551	8.31755
254.77	3.29447
254.989	13.72487
255.208	8.87758
255.427	15.39868
255.646	12.51183
255.865	22.11334
256.084	8.80081
256.303	10.79401
256.522	14.14527
256.741	2.63427
256.96	2.73474
257.179	8.65616
257.397	10.9837
257.616	5.69403
257.835	6.04192
258.054	15.45033
258.273	10.80597
258.492	11.29363
258.711	7.09085
258.93	3.1855
259.148	4.9219
259.367	4.7649
259.586	5.79487
259.805	2.45358
260.023	5.52669
260.242	4.09997
260.461	2.96379
260.68	1.30054
260.898	4.67484
261.117	1.45197
261.336	1.03367
261.554	3.49445
261.773	3.50563
261.992	0.70617
262.21	3.5219
262.429	3.66171
262.648	7.62264
262.866	8.10077
263.085	5.82995
263.303	4.79245
263.522	9.0314
263.74	9.2137
263.959	15.87175
264.178	7.39146
264.396	6.51549
264.615	4.65632
264.833	11.2038
265.051	9.07374
265.27	10.98597
265.488	11.35084
265.707	6.33286
265.925	11.76514
266.144	4.79162
266.362	5.72054
266.58	5.56557
266.799	4.99348
267.017	6.39689
267.235	5.58392
267.454	3.15074
267.672	1.93771
267.89	4.38668
268.109	4.80074
268.327	4.45967
268.545	0.89592
268.763	4.27914
268.982	1.22652
269.2	4.38896
269.418	3.17208
269.636	1.93611
269.854	5.10731
270.073	3.22697
270.291	1.75252
270.509	1.73687
270.727	4.56473
270.945	7.63442
271.163	7.51458
271.381	1.3079
271.599	3.39954
271.817	5.5838
272.036	1.71315
272.254	3.24382
272.472	2.59227
272.69	2.85228
272.908	2.43738
273.126	4.54355
273.344	5.44767
273.562	1.88744
273.779	2.75377
273.997	3.91034
274.215	4.32445
274.433	2.99288
274.651	4.53632
274.869	4.89045
275.087	2.86576
275.305	4.12725
275.523	2.53534
275.74	2.96375
275.958	5.70675
276.176	8.68174
276.394	2.476
276.612	3.34195
276.829	3.24958
277.047	2.59592
277.265	2.99309
277.483	3.81339
277.7	4.25114
277.918	3.33851
278.136	6.66019
278.353	2.92045
278.571	1.84922
278.789	4.44958
279.006	0.97167
279.224	3.15245
279.442	5.38216
279.659	3.56641
279.877	2.5196
280.094	6.06488
280.312	0.77815
280.529	3.55403
280.747	0.86763
280.964	2.74763
281.182	6.26737
281.399	2.79997
281.617	4.05259
281.834	2.57816
282.052	1.89012
282.269	3.37043
282.487	2.61116
282.704	2.1229
282.921	2.14574
283.139	3.51638
283.356	4.15764
283.574	3.90123
283.791	1.96945
284.008	5.824
284.226	3.03709
284.443	3.4236
284.66	4.51077
284.877	3.50593
285.095	2.07214
285.312	1.63051
285.529	0.99931
285.746	0.89193
285.964	2.13667
286.181	1.49057
286.398	1.90613
286.615	2.66679
286.832	2.70645
287.05	0.6074
287.267	1.85724
287.484	1.80315
287.701	2.68122
287.918	2.57668
288.135	2.79534
288.352	1.28567
288.569	1.48016
288.786	2.61286
289.003	2.07148
289.22	3.04909
289.437	1.6996
289.654	2.97744
289.871	3.09548
290.088	3.02741
290.305	2.47497
290.522	1.81179
290.739	2.12276
290.956	3.22062
291.173	3.67295
291.39	3.52378
291.607	2.45847
291.824	1.64346
292.04	1.479
292.257	3.0818
292.474	3.37797
292.691	2.05698
292.908	0.98538
293.125	1.67565
293.341	1.25821
293.558	5.0702
293.775	2.03279
293.992	1.93353
294.208	0.81041
294.425	1.33788
294.642	1.93957
294.858	2.64292
295.075	0.71995
295.292	2.09084
295.508	2.46613
295.725	4.23308
295.942	1.64959
296.158	1.22227
296.375	2.06983
296.591	1.5082
296.808	1.78464
297.024	1.951
297.241	2.36942
297.458	2.39509
297.674	0.2098
297.891	1.9153
298.107	1.4682
298.323	1.15192
298.54	3.11167
298.756	1.24848
298.973	0.60179
299.189	3.09406
299.406	1.14424
299.622	2.88874
299.838	2.72143
300.055	2.70924
300.271	0.43315
300.487	1.04212
300.704	1.18012
300.92	0.60935
301.136	4.28615
301.353	2.77717
301.569	1.89467
301.785	2.21171
302.001	2.65729
302.218	2.26084
302.434	2.31363
302.65	0.70752
302.866	1.56599
303.083	4.07677
303.299	3.88442
303.515	2.00324
303.731	2.10765
303.947	0.61594
304.163	1.19437
304.379	2.12404
304.595	2.55398
304.812	1.26468
305.028	1.19285
305.244	1.80578
305.46	2.73244
305.676	2.77854
305.892	3.25903
306.108	2.29228
306.324	1.41284
306.54	3.72391
306.756	2.57437
306.972	2.47901
307.187	1.69533
307.403	3.42781
307.619	1.64239
307.835	3.23668
308.051	3.48855
308.267	0.98711
308.483	2.87186
308.699	2.60232
308.914	2.07554
309.13	1.8011
309.346	0.59358
309.562	0.91712
309.778	0.56721
309.993	2.44484
310.209	1.93708
310.425	0.96592
310.641	1.70139
310.856	0.98368
311.072	0.96761
311.288	1.83248
311.503	1.86468
311.719	0.32779
311.935	0.21119
312.15	2.18087
312.366	1.85215
312.581	2.2398
312.797	1.79283
313.013	2.55328
313.228	1.31772
313.444	1.90662
313.659	1.31871
313.875	2.37414
314.09	1.75323
314.306	3.08385
314.521	2.73996
314.737	2.51805
314.952	1.91837
315.168	1.7585
315.383	2.26032
315.599	1.85424
315.814	1.5106
316.029	2.64814
316.245	0.77014
316.46	0.47935
316.675	3.0977
316.891	3.61541
317.106	4.58355
317.321	2.4324
317.537	2.43219
317.752	2.64836
317.967	2.80517
318.183	1.15803
318.398	1.58956
318.613	2.72618
318.828	3.36265
319.043	2.63554
319.259	1.70658
319.474	2.16394
319.689	3.13916
319.904	0.63106
320.119	2.52143
320.334	2.26649
320.549	1.78983
320.765	2.90173
320.98	2.27743
321.195	2.77667
321.41	1.83513
321.625	2.6257
321.84	3.75792
322.055	3.78234
322.27	1.57892
322.485	1.15377
322.7	2.29492
322.915	2.90316
323.13	1.06755
323.345	3.352
323.56	2.88518
323.775	2.6208
323.989	2.38283
324.204	2.19713
324.419	2.97611
324.634	0.92537
324.849	1.83056
325.064	5.05331
325.279	2.78812
325.493	2.42033
325.708	2.86723
325.923	1.37715
326.138	1.32476
326.352	3.54896
326.567	2.93841
326.782	1.61821
326.997	1.35731
327.211	2.47961
327.426	2.39696
327.641	1.51612
327.855	0.56648
328.07	2.29158
328.285	3.52933
328.499	1.48003
328.714	2.25352
328.928	2.76498
329.143	1.93919
329.358	2.91633
329.572	3.00012
329.787	3.23714
330.001	4.40214
330.216	0.9202
330.43	3.44166
330.645	3.612
330.859	2.92647
331.074	1.53968
331.288	2.05853
331.503	3.10342
331.717	1.07426
331.931	2.19476
332.146	2.09049
332.36	3.52918
332.575	2.47323
332.789	2.37176
333.003	2.29268
333.218	2.36262
333.432	1.39433
333.646	2.68521
333.86	3.54935
334.075	3.51044
334.289	1.59677
334.503	1.19561
334.717	2.28209
334.932	2.44853
335.146	3.28178
335.36	1.74074
335.574	2.60867
335.788	2.38363
336.003	2.98455
336.217	2.41555
336.431	2.46447
336.645	1.37642
336.859	0.95254
337.073	1.8884
337.287	2.24354
337.501	1.04989
337.715	2.29992
337.929	2.94939
338.143	0.95367
338.357	1.88285
338.571	1.24708
338.785	2.44907
338.999	1.62129
339.213	1.48483
339.427	0.75209
339.641	3.19459
339.855	1.92536
340.069	1.47621
340.283	2.82571
340.497	3.84815
340.711	2.24441
340.924	1.74577
341.138	1.04711
341.352	0.90289
341.566	2.25248
341.78	0.47639
341.993	1.6171
342.207	1.01287
342.421	2.10262
342.635	1.86949
342.848	1.48617
343.062	0.183
343.276	1.28638
343.49	3.76974
343.703	1.38015
343.917	2.80238
344.131	2.68502
344.344	1.25559
344.558	1.52281
344.771	1.01311
344.985	3.51167
345.199	3.27521
345.412	2.2081
345.626	2.06747
345.839	0.65497
346.053	0.93606
346.266	1.00412
346.48	2.55213
346.693	2.18415
346.907	2.21065
347.12	1.07555
347.334	2.24593
347.547	2.22188
347.76	1.44717
347.974	2.90669
348.187	2.11372
348.401	1.55277
348.614	1.27043
348.827	1.50514
349.041	2.3105
349.254	0.56502
349.467	1.6482
349.681	0.73718
349.894	1.42622
350.107	2.9963
350.32	3.29064
350.534	0.58975
350.747	1.45911
350.96	1.12684
351.173	1.25659
351.386	1.53271
351.6	1.41385
351.813	1.28648
352.026	1.58505
352.239	0.58446
352.452	1.50871
352.665	2.52569
352.878	1.78691
353.092	3.4228
353.305	2.39317
353.518	1.96968
353.731	1.15998
353.944	2.89902
354.157	1.25132
354.37	0.96515
354.583	1.03927
354.796	0.33827
355.009	2.68373
355.222	1.96553
355.435	1.79598
355.647	2.53162
355.86	0.92118
356.073	1.65746
356.286	1.27823
356.499	2.24791
356.712	1.94863
356.925	2.19912
357.138	2.31086
357.35	0.91771
357.563	1.3652
357.776	1.73332
357.989	1.28276
358.201	1.96759
358.414	1.74307
358.627	2.58464
358.84	1.33344
359.052	0.69928
359.265	0.8496
359.478	2.43044
359.69	-0.39015
359.903	2.06757
360.116	2.18058
360.328	0.32413
360.541	2.2077
360.753	0.68917
360.966	1.07736
361.179	1.14279
361.391	1.06607
361.604	0.78806
361.816	1.16224
362.029	0.93107
362.241	0.77663
362.454	0.96692
362.666	0.75734
362.879	1.46844
363.091	1.15819
363.304	0.76924
363.516	1.39997
363.728	0.60534
363.941	1.7687
364.153	1.0117
364.366	-0.19943
364.578	0.63864
364.79	1.6661
365.003	1.25581
365.215	0.93754
365.427	1.67565
365.639	2.24912
365.852	1.5512
366.064	3.18102
366.276	1.07421
366.488	1.77
366.701	1.02691
366.913	1.46014
367.125	1.23971
367.337	0.81493
367.549	1.03918
367.762	1.5869
367.974	1.54099
368.186	0.7741
368.398	2.03403
368.61	1.89513
368.822	1.93379
369.034	1.38182
369.246	1.85544
369.458	3.52873
369.67	0.75676
369.882	2.80907
370.094	0.13901
370.306	2.86808
370.518	1.23254
370.73	0.79407
370.942	0.81861
371.154	1.25112
371.366	0.8579
371.578	1.53661
371.79	0.71471
372.002	2.2753
372.214	2.68623
372.425	1.44905
372.637	2.28782
372.849	1.54958
373.061	-0.02452
373.273	1.58528
373.484	1.69465
373.696	2.01042
373.908	-0.08752
374.12	2.30744
374.331	1.52666
374.543	0.8447
374.755	0.69151
374.967	1.56106
375.178	1.86239
375.39	1.15107
375.602	1.41403
375.813	0.38834
376.025	0.47029
376.236	1.37303
376.448	1.55509
376.66	0.90918
376.871	0.91429
377.083	2.2516
377.294	2.2542
377.506	0.99173
377.717	2.22795
377.929	1.50429
378.14	0.74039
378.352	1.60427
378.563	1.48746
378.775	2.16546
378.986	0.67773
379.197	1.23392
379.409	1.00562
379.62	1.87795
379.832	1.76643
380.043	1.0895
380.254	1.40245
380.466	0.57516
380.677	3.40195
380.888	2.73696
381.1	3.11031
381.311	2.97497
381.522	1.24876
381.733	3.47453
381.945	1.1201
382.156	1.51626
382.367	0.89565
382.578	3.36908
382.789	3.20813
383.001	1.02618
383.212	2.31655
383.423	2.37261
383.634	2.22009
383.845	1.73617
384.056	0.94838
384.267	1.34059
384.478	1.24908
384.69	0.5378
384.901	1.63046
385.112	1.57074
385.323	2.37227
385.534	1.70596
385.745	1.52269
385.956	1.66336
386.167	0.69737
386.378	1.73598
386.588	0.57645
386.799	0.84402
387.01	0.24618
387.221	1.94453
387.432	1.23565
387.643	2.69914
387.854	1.18115
388.065	1.03613
388.275	1.22303
388.486	1.02748
388.697	1.14801
388.908	1.14735
389.119	2.18824
389.329	2.45571
389.54	1.38421
389.751	1.64519
389.962	2.22101
390.172	1.58202
390.383	0.97573
390.594	0.95717
390.804	0.87094
391.015	0.90149
391.226	1.38726
391.436	1.58526
391.647	1.52126
391.858	1.78195
392.068	0.26784
392.279	0.51957
392.489	1.35227
392.7	2.19628
392.91	0.63961
393.121	0.8504
393.331	1.6215
393.542	2.10517
393.752	1.49551
393.963	1.54977
394.173	1.37289
394.384	1.74195
394.594	1.39409
394.804	0.56713
395.015	1.42109
395.225	1.68448
395.436	0.6732
395.646	1.72614
395.856	0.83704
396.067	0.56127
396.277	2.05277
396.487	1.69572
396.697	1.50157
396.908	1.75935
397.118	1.82127
397.328	1.60903
397.538	2.10831
397.749	0.952
397.959	1.899
398.169	2.00777
398.379	0.61535
398.589	1.92511
398.8	1.39724
399.01	1.35367
399.22	1.26108
399.43	3.07437
399.64	1.26673
399.85	1.935
400.06	1.42
400.27	0.99301
400.48	1.47867
400.69	2.59048
400.9	1.1204
401.11	0.99034
401.32	2.00076
401.53	1.33915
401.74	2.68052
401.95	2.10493
402.16	0.85356
402.37	1.76081
402.58	1.15647
402.79	2.05476
403	2.24996
403.209	1.18071
403.419	2.17039
403.629	1.12048
403.839	2.11883
404.049	2.10265
404.258	1.12187
404.468	1.04176
404.678	1.80837
404.888	2.12697
405.097	0.96381
405.307	1.49902
405.517	1.8784
405.727	1.71096
405.936	1.3673
406.146	1.73688
406.356	2.42493
406.565	1.56519
406.775	1.22195
406.984	1.31533
407.194	2.64226
407.404	1.66102
407.613	1.98427
407.823	2.15436
408.032	2.26757
408.242	2.34352
408.451	1.3548
408.661	1.6458
408.87	2.79569
409.08	1.27707
409.289	1.94767
409.499	1.82668
409.708	1.79569
409.918	0.57066
410.127	1.86989
410.336	2.77915
410.546	2.14839
410.755	1.42902
410.964	1.48722
411.174	1.25461
411.383	2.05583
411.592	2.05248
411.802	1.13029
412.011	2.38078
412.22	1.69979
412.429	2.8929
412.639	2.71889
412.848	2.52015
413.057	2.63751
413.266	2.66231
413.475	1.86885
413.685	2.30663
413.894	2.48644
414.103	2.70148
414.312	2.52773
414.521	1.82895
414.73	1.92279
414.939	3.29826
415.148	2.31693
415.357	2.11012
415.566	1.61185
415.776	1.73498
415.985	1.5755
416.194	2.43275
416.403	2.98359
416.611	1.13361
416.82	1.57028
417.029	1.89005
417.238	1.47743
417.447	1.32913
417.656	1.547
417.865	1.36701
418.074	1.51515
418.283	1.7252
418.492	2.20864
418.7	2.09626
418.909	2.6644
419.118	1.99211
419.327	2.12826
419.536	1.92774
419.744	1.57461
419.953	2.59834
420.162	2.61117
420.371	1.78225
420.579	1.68508
420.788	2.60713
420.997	2.55677
421.205	2.5993
421.414	2.34876
421.623	2.37319
421.831	2.05147
422.04	2.6973
422.249	1.97599
422.457	2.52864
422.666	1.90826
422.874	2.79979
423.083	2.85157
423.291	2.79976
423.5	2.4185
423.708	2.64887
423.917	2.92835
424.125	2.55729
424.334	2.26171
424.542	3.86547
424.751	3.27336
424.959	3.0254
425.167	3.22068
425.376	3.14383
425.584	2.48722
425.793	2.66136
426.001	1.98363
426.209	2.68108
426.418	1.90336
426.626	1.99534
426.834	1.77988
427.042	2.138
427.251	1.89054
427.459	2.63339
427.667	2.32469
427.875	1.61302
428.084	1.90876
428.292	2.96018
428.5	2.53373
428.708	1.82963
428.916	1.76563
429.124	2.3017
429.333	1.968
429.541	2.07585
429.749	2.36685
429.957	2.27391
430.165	3.78867
430.373	1.48856
430.581	2.41873
430.789	3.14715
430.997	1.99717
431.205	1.91748
431.413	2.40313
431.621	2.06878
431.829	2.64562
432.037	2.07005
432.245	2.48437
432.453	2.41783
432.661	2.14135
432.869	3.32764
433.076	1.7323
433.284	2.18767
433.492	2.57654
433.7	2.83229
433.908	2.03516
434.116	2.33472
434.323	2.39053
434.531	2.23305
434.739	2.53488
434.947	2.89065
435.154	2.71932
435.362	2.43903
435.57	2.22871
435.778	2.00114
435.985	2.59845
436.193	2.15089
436.401	2.97825
436.608	2.42544
436.816	2.15762
437.023	3.29346
437.231	3.25513
437.439	2.54742
437.646	2.71738
437.854	2.61959
438.061	2.83954
438.269	2.30983
438.476	2.74013
438.684	2.39436
438.891	2.22651
439.099	1.96591
439.306	1.72932
439.514	1.90219
439.721	2.62106
439.929	2.14234
440.136	2.84563
440.343	2.74704
440.551	2.47176
440.758	4.00436
440.965	2.98682
441.173	2.72603
441.38	2.37595
441.587	2.72595
441.795	2.33838
442.002	2.638
442.209	2.53691
442.416	2.81648
442.624	2.78423
442.831	2.63853
443.038	2.22137
443.245	1.94004
443.452	2.26773
443.66	2.82617
443.867	2.12169
444.074	2.21295
444.281	2.09076
444.488	2.3319
444.695	2.40944
444.902	2.19713
445.109	2.8674
445.316	2.44104
445.523	2.35106
445.73	2.31661
445.937	2.91606
446.144	3.17023
446.351	3.22879
446.558	2.55633
446.765	3.57683
446.972	3.56623
447.179	2.95595
447.386	3.79298
447.593	2.7659
447.8	3.49448
448.007	2.57386
448.214	2.64575
448.42	2.26877
448.627	3.00989
448.834	2.39149
449.041	2.37608
449.248	2.36231
449.454	2.92659
449.661	3.4854
449.868	2.36931
450.075	2.24849
450.281	1.47779
450.488	1.92548
450.695	2.19486
450.901	2.13775
451.108	2.29199
451.315	3.01367
451.521	2.46068
451.728	3.07702
451.935	2.14537
452.141	2.45324
452.348	2.50998
452.554	2.36067
452.761	2.26116
452.967	3.37053
453.174	2.55083
453.38	2.68941
453.587	1.99131
453.793	2.54912
454	3.22183
454.206	3.62571
454.413	3.1508
454.619	2.84349
454.825	2.17921
455.032	2.90245
455.238	3.07834
455.445	1.98006
455.651	2.65973
455.857	1.64349
456.064	2.38134
456.27	2.36038
456.476	2.40359
456.682	1.8742
456.889	2.8436
457.095	2.89743
457.301	4.04018
457.507	2.55113
457.714	2.638
457.92	2.55377
458.126	2.15572
458.332	2.39408
458.538	2.21647
458.744	2.27857
458.951	2.27728
459.157	3.76217
459.363	2.70544
459.569	2.66873
459.775	3.36878
459.981	2.55678
460.187	2.95
460.393	3.38407
460.599	3.79382
460.805	3.08247
461.011	2.81281
461.217	3.19168
461.423	3.1715
461.629	2.52122
461.835	2.94154
462.041	2.51574
462.247	3.46272
462.453	2.60163
462.658	2.70721
462.864	3.11115
463.07	2.84058
463.276	2.82465
463.482	2.86484
463.688	3.33127
463.893	2.49725
464.099	2.57147
464.305	3.53474
464.511	2.34842
464.716	2.69018
464.922	3.02666
465.128	2.34065
465.333	3.66524
465.539	3.03333
465.745	2.49156
465.95	2.79141
466.156	4.18043
466.362	3.37518
466.567	2.60648
466.773	2.45175
466.978	3.56616
467.184	2.22967
467.389	1.62385
467.595	2.98009
467.8	2.26874
468.006	3.41252
468.211	3.36647
468.417	2.16559
468.622	2.9172
468.828	3.17242
469.033	2.8437
469.239	4.29596
469.444	2.57626
469.649	3.32807
469.855	2.61605
470.06	2.78546
470.266	2.27521
470.471	3.11675
470.676	2.91363
470.881	1.94382
471.087	3.43368
471.292	4.29941
471.497	2.10761
471.703	2.66852
471.908	2.46131
472.113	2.72871
472.318	3.29104
472.523	2.28984
472.729	2.97006
472.934	3.10275
473.139	2.45118
473.344	3.07059
473.549	3.30769
473.754	2.41238
473.959	4.26136
474.164	2.32681
474.369	2.68297
474.575	3.29481
474.78	2.7795
474.985	2.39798
475.19	1.7733
475.395	2.31585
475.6	2.70636
475.804	3.48231
476.009	2.62586
476.214	2.82957
476.419	2.64707
476.624	1.83032
476.829	2.27731
477.034	3.05952
477.239	2.24752
477.444	3.0662
477.648	2.89706
477.853	2.97771
478.058	2.48763
478.263	2.20569
478.468	2.00458
478.672	2.18366
478.877	3.23651
479.082	3.45047
479.287	2.79291
479.491	2.6285
479.696	2.09835
479.901	3.01346
480.105	2.96244
480.31	2.28029
480.515	2.47924
480.719	3.70315
480.924	2.25513
481.128	2.04437
481.333	2.64462
481.538	2.60057
481.742	2.36897
481.947	2.89978
482.151	3.15796
482.356	3.04624
482.56	3.79071
482.765	3.95087
482.969	4.8422
483.174	5.59141
483.378	6.70459
483.582	6.6237
483.787	7.60638
483.991	7.46588
484.196	7.78703
484.4	7.6411
484.604	8.39646
484.809	7.08475
485.013	6.9612
485.217	6.30102
485.422	5.62474
485.626	5.09766
485.83	4.63946
486.034	4.37437
486.239	4.58526
486.443	4.53314
486.647	4.31421
486.851	4.94867
487.055	5.48343
487.26	4.86852
487.464	5.34281
487.668	4.89302
487.872	4.97361
488.076	5.53897
488.28	5.14645
488.484	4.75657
488.688	4.7928
488.892	4.78092
489.096	4.62255
489.3	4.08695
489.504	3.81248
489.708	3.85855
489.912	3.77183
490.116	3.68984
490.32	3.00891
490.524	3.57311
490.728	3.76866
490.932	3.67114
491.136	3.67382
491.34	4.44333
491.544	4.60961
491.748	4.35629
491.951	4.47445
492.155	4.20182
492.359	4.32325
492.563	3.62857
492.767	3.48897
492.97	3.29919
493.174	2.90196
493.378	2.81282
493.582	2.21747
493.785	2.41772
493.989	2.532
494.193	2.59366
494.396	2.29261
494.6	2.95371
494.804	2.48957
495.007	2.09527
495.211	2.14169
495.414	2.38351
495.618	2.57144
495.822	3.13628
496.025	2.43629
496.229	2.80694
496.432	2.05215
496.636	2.4511
496.839	2.28029
497.043	3.15259
497.246	2.52515
497.45	2.18721
497.653	2.32298
497.856	2.47657
498.06	1.84634
498.263	2.3058
498.467	2.13349
498.67	2.76297
498.873	2.57428
499.077	2.27198
499.28	2.22753
499.483	2.55346
499.686	2.67848
499.89	2.63264
500.093	2.91748
500.296	2.09201
500.499	3.1703
500.703	2.4192
500.906	2.54506
501.109	3.44038
501.312	2.36458
501.515	2.3664
501.719	2.63378
501.922	3.29794
502.125	2.59082
502.328	2.38686
502.531	1.9389
502.734	2.3667
502.937	1.51875
503.14	2.56559
503.343	1.90129
503.546	2.20589
503.749	1.97625
503.952	2.78056
504.155	1.95914
504.358	2.60716
504.561	2.34168
504.764	1.77894
504.967	2.30446
505.17	2.32116
505.373	3.13295
505.576	2.54155
505.778	2.75447
505.981	2.03502
506.184	2.94691
506.387	1.58519
506.59	3.44308
506.793	2.95507
506.995	2.55445
507.198	1.5106
507.401	2.44764
507.604	2.59053
507.806	1.79194
508.009	1.97575
508.212	2.64511
508.414	1.97744
508.617	1.90241
508.82	2.2865
509.022	2.8572
509.225	2.38463
509.427	1.52771
509.63	2.88407
509.833	2.23511
510.035	2.07142
510.238	1.48676
510.44	2.84656
510.643	1.27981
510.845	3.35289
511.048	2.3947
511.25	1.99158
511.453	2.13617
511.655	2.42444
511.858	1.94954
512.06	2.63155
512.262	2.28648
512.465	2.55037
512.667	1.82028
512.869	1.73062
513.072	2.38089
513.274	2.64169
513.476	2.39765
513.679	2.75419
513.881	1.71668
514.083	3.10209
514.286	1.87179
514.488	2.00571
514.69	1.83549
514.892	1.64957
515.094	2.44375
515.297	1.95631
515.499	2.28359
515.701	1.86895
515.903	3.07441
516.105	3.07515
516.307	2.6126
516.509	1.2791
516.711	1.60257
516.913	2.29229
517.116	2.07331
517.318	1.88447
517.52	2.66074
517.722	2.4461
517.924	1.42972
518.126	2.22669
518.328	1.67145
518.529	2.32974
518.731	3.13771
518.933	1.73258
519.135	1.95069
519.337	2.73055
519.539	2.20373
519.741	1.27361
519.943	1.92966
520.145	1.98453
520.346	2.34302
520.548	1.87108
520.75	2.20459
520.952	1.91361
521.153	2.19711
521.355	2.32421
521.557	1.68222
521.759	2.34528
521.96	2.14268
522.162	1.72476
522.364	2.66573
522.565	1.93728
522.767	2.53533
522.969	2.78012
523.17	2.4204
523.372	2.4941
523.573	1.72645
523.775	2.02935
523.977	1.77549
524.178	3.18158
524.38	1.79292
524.581	2.40794
524.783	1.88997
524.984	2.2846
525.186	2.0137
525.387	2.34971
525.589	2.03429
525.79	1.95244
525.991	1.71546
526.193	2.33936
526.394	1.49068
526.596	2.44535
526.797	2.29378
526.998	1.99925
527.2	1.62969
527.401	2.76972
527.602	2.6915
527.803	3.60915
528.005	3.35923
528.206	3.77031
528.407	4.06777
528.608	3.70202
528.81	3.88425
529.011	3.46017
529.212	4.33946
529.413	3.81479
529.614	3.60862
529.815	3.71746
530.017	3.48789
530.218	3.04722
530.419	2.44079
530.62	2.69962
530.821	2.5926
531.022	1.79361
531.223	2.55606
531.424	2.65197
531.625	2.42886
531.826	2.24105
532.027	2.30261
532.228	3.03132
532.429	2.49361
532.63	2.38632
532.831	2.66708
533.032	2.78801
533.233	3.07193
533.433	2.95488
533.634	3.16418
533.835	2.64642
534.036	2.36715
534.237	2.62011
534.438	2.30485
534.638	1.8847
534.839	1.9279
535.04	2.34553
535.241	1.84179
535.441	2.68144
535.642	2.26507
535.843	1.561
536.043	1.67833
536.244	1.85924
536.445	1.93348
536.645	2.62763
536.846	2.16049
537.047	2.87638
537.247	1.79931
537.448	1.93256
537.648	1.99484
537.849	2.02982
538.049	1.9404
538.25	2.40992
538.451	2.16384
538.651	1.76502
538.851	2.42536
539.052	2.69879
539.252	2.41581
539.453	2.19078
539.653	2.04759
539.854	2.07789
540.054	1.89293
540.254	2.75777
540.455	2.8228
540.655	2.21394
540.855	2.74332
541.056	3.18289
541.256	2.7716
541.456	3.50238
541.657	2.86923
541.857	3.69547
542.057	2.5562
542.257	2.58391
542.458	3.17758
542.658	3.50184
542.858	2.23336
543.058	3.04074
543.258	2.61513
543.458	1.84117
543.659	1.68973
543.859	2.44535
544.059	2.30975
544.259	2.01067
544.459	2.594
544.659	1.83379
544.859	2.30563
545.059	1.86136
545.259	2.39204
545.459	2.26854
545.659	2.49558
545.859	2.17043
546.059	2.38362
546.259	1.77188
546.459	1.34978
546.659	1.68623
546.859	2.40906
547.059	2.25258
547.258	2.34552
547.458	2.38586
547.658	1.61894
547.858	1.66575
548.058	2.29588
548.258	2.10639
548.457	1.84826
548.657	3.4697
548.857	2.21539
549.057	2.93247
549.256	2.6837
549.456	2.29655
549.656	1.4837
549.855	3.81692
550.055	2.34611
550.255	3.54947
550.454	2.80377
550.654	3.23795
550.853	3.60036
551.053	3.16911
551.253	2.85819
551.452	3.10386
551.652	1.89017
551.851	1.57099
552.051	2.22461
552.25	2.20397
552.45	1.98422
552.649	2.281
552.849	1.9947
553.048	2.58177
553.248	2.82916
553.447	1.89757
553.646	2.94536
553.846	4.13264
554.045	3.40912
554.244	1.97503
554.444	3.44169
554.643	2.20662
554.842	3.53188
555.042	3.989
555.241	2.42704
555.44	2.195
555.64	2.88966
555.839	3.54838
556.038	3.10456
556.237	2.5107
556.436	2.73799
556.636	3.06579
556.835	2.25023
557.034	3.79917
557.233	2.73993
557.432	1.96748
557.631	3.35878
557.83	2.82152
558.029	2.51632
558.228	2.51294
558.427	2.22699
558.626	3.08243
558.825	2.28501
559.024	2.86972
559.223	4.09193
559.422	2.88667
559.621	3.30008
559.82	1.45481
560.019	2.85622
560.218	2.50997
560.417	1.08225
560.616	2.68106
560.815	5.09075
561.014	1.83919
561.212	3.6846
561.411	2.86302
561.61	1.97908
561.809	2.63129
562.008	4.17231
562.206	2.75107
562.405	3.11473
562.604	2.78804
562.803	2.93628
563.001	2.99146
563.2	2.01659
563.399	3.36648
563.597	2.184
563.796	3.0562
563.995	1.96058
564.193	3.39623
564.392	2.55116
564.59	4.3916
564.789	1.56833
564.988	2.73584
565.186	2.91369
565.385	2.72182
565.583	2.4566
565.782	2.71612
565.98	2.47314
566.179	2.6377
566.377	1.98965
566.575	2.06772
566.774	3.50949
566.972	3.32821
567.171	4.04787
567.369	3.78034
567.567	2.91112
567.766	3.00681
567.964	1.4931
568.162	3.41155
568.361	3.7939
568.559	2.87641
568.757	3.13191
568.956	3.05332
569.154	2.9608
569.352	3.55273
569.55	2.8016
569.748	2.95768
569.947	2.27617
570.145	2.44208
570.343	2.20939
570.541	4.12502
570.739	1.96825
570.937	2.92747
571.135	3.08485
571.333	4.3679
571.532	4.28588
571.73	2.97992
571.928	3.4873
572.126	3.37454
572.324	2.59318
572.522	3.71471
572.72	4.5678
572.918	2.88389
573.116	3.10326
573.313	2.80501
573.511	2.7593
573.709	2.78304
573.907	3.49442
574.105	2.63231
574.303	1.93638
574.501	1.98037
574.699	3.20928
574.896	3.04333
575.094	3.45964
575.292	2.13034
575.49	3.51628
575.688	2.91809
575.885	3.90259
576.083	4.58818
576.281	3.30843
576.478	2.61989
576.676	3.56031
576.874	2.36657
577.071	3.05512
577.269	4.81402
577.467	2.9041
577.664	3.27174
577.862	3.73461
578.059	2.85343
578.257	3.82662
578.455	3.18693
578.652	3.17218
578.85	1.96768
579.047	3.56516
579.245	3.21833
579.442	3.41489
579.64	3.35663
579.837	2.10301
580.034	5.36997
580.232	3.18615
580.429	2.77278
580.627	4.00035
580.824	4.41133
581.021	3.95571
581.219	3.29288
581.416	2.95423
581.613	4.65862
581.811	4.47669
582.008	2.88784
582.205	4.22886
582.402	3.86546
582.6	4.89875
582.797	3.93436
582.994	4.12613
583.191	4.4522
583.388	3.72294
583.586	4.37867
583.783	4.82611
583.98	2.84189
584.177	3.85338
584.374	1.57763
584.571	3.63979
584.768	3.77152
584.965	3.45076
585.162	4.4094
585.359	5.20256
585.556	3.87673
585.753	4.10794
585.95	2.73279
586.147	3.13938
586.344	4.25549
586.541	3.78446
586.738	2.86993
586.935	3.67174
587.132	3.28787
587.329	4.72116
587.526	3.82448
587.722	8.03138
587.919	2.72918
588.116	4.00413
588.313	4.99697
588.51	5.68037
588.706	3.76295
588.903	4.31835
589.1	4.67736
589.297	6.47115
589.493	3.73216
589.69	4.42426
589.887	3.34919
590.083	2.90252
590.28	3.20863
590.477	4.73895
590.673	4.19428
590.87	4.87155
591.067	3.46059
591.263	4.32466
591.46	4.32793
591.656	3.69335
591.853	5.50159
592.049	3.44754
592.246	3.57061
592.442	5.02901
592.639	5.09683
592.835	3.09802
593.032	4.35689
593.228	2.73766
593.425	2.85829
593.621	2.84183
593.817	3.98858
594.014	3.22713
594.21	4.13841
594.406	4.94057
594.603	4.19659
594.799	3.54058
594.995	2.15046
595.192	4.90648
595.388	3.61001
595.584	3.55799
595.78	2.82256
595.977	6.28734
596.173	5.29463
596.369	3.68968
596.565	3.01276
596.761	2.6363
596.957	4.63435
597.154	3.17807
597.35	3.28034
597.546	3.13463
597.742	3.97448
597.938	4.06849
598.134	3.07676
598.33	4.00447
598.526	5.06007
598.722	4.4917
598.918	5.60895
599.114	4.66743
599.31	3.03519
599.506	4.32941
599.702	3.70978
599.898	4.56103
600.094	5.11137
600.29	5.11893
600.485	5.04579
600.681	3.87586
600.877	5.85363
601.073	4.4651
601.269	6.53106
601.465	5.76684
601.66	3.39587
601.856	2.71532
602.052	6.35435
602.248	4.00935
602.443	2.35184
602.639	3.04706
602.835	3.49954
603.03	3.55015
603.226	4.92333
603.422	3.31934
603.617	3.89332
603.813	3.81051
604.009	3.43291
604.204	4.99649
604.4	2.79439
604.595	4.78511
604.791	3.18845
604.986	4.16915
605.182	3.19736
605.377	3.48045
605.573	3.5231
605.768	3.84096
605.964	4.49383
606.159	4.67436
606.355	5.12655
606.55	3.9609
606.746	5.19623
606.941	4.27993
607.136	6.1057
607.332	6.98203
607.527	3.25791
607.722	4.81422
607.918	4.229
608.113	3.45166
608.308	5.20212
608.503	4.66658
608.699	4.60017
608.894	4.66976
609.089	3.51565
609.284	4.59305
609.479	3.77739
609.675	4.75299
609.87	3.92354
610.065	4.67347
610.26	4.94262
610.455	4.8972
610.65	4.13633
610.845	4.69572
611.04	4.96278
611.235	4.00876
611.43	4.25017
611.625	3.32565
611.82	5.78989
612.015	3.85734
612.21	6.18458
612.405	3.34173
612.6	6.56849
612.795	6.32894
612.99	5.66759
613.185	3.5347
613.38	3.90708
613.575	5.22475
613.77	7.76361
613.965	3.53528
614.159	4.06809
614.354	6.24481
614.549	6.27933
614.744	5.57494
614.938	3.82462
615.133	3.66745
615.328	6.55534
615.523	6.40903
615.717	8.02256
615.912	4.56852
616.107	5.02151
616.301	4.54168
616.496	4.04634
616.691	6.95495
616.885	5.85033
617.08	7.84325
617.274	6.4693
617.469	7.60028
617.664	5.83362
617.858	4.4683
618.053	5.33755
618.247	4.61552
618.442	2.73791
618.636	6.7198
618.831	4.31365
619.025	4.47877
619.219	8.46358
619.414	1.70803
619.608	4.93952
619.803	4.08812
619.997	7.63295
620.191	6.3726
620.386	5.52359
620.58	5.12662
620.774	3.32481
620.969	3.29907
621.163	5.37782
621.357	3.62567
621.551	5.0843
621.746	5.41233
621.94	5.01907
622.134	9.27216
622.328	7.81526
622.522	3.56293
622.716	6.5914
622.911	6.34568
623.105	6.18711
623.299	5.59121
623.493	9.19838
623.687	4.46873
623.881	4.62353
624.075	6.31796
624.269	6.59657
624.463	3.37777
624.657	3.39012
624.851	5.97135
625.045	6.2017
625.239	6.27624
625.433	4.32453
625.627	7.33139
625.821	4.61472
626.015	4.26583
626.209	5.16692
626.403	2.95626
626.596	5.49691
626.79	5.8141
626.984	3.827
627.178	5.73415
627.372	5.48607
627.565	5.84448
627.759	3.63615
627.953	3.85792
628.147	5.67299
628.34	6.13107
628.534	7.78755
628.728	5.08422
628.921	6.42171
629.115	6.28515
629.309	6.37761
629.502	6.69647
629.696	5.61954
629.89	5.26888
630.083	5.71152
630.277	5.84479
630.47	7.87342
630.664	5.22435
630.857	3.81289
631.051	6.67103
631.244	6.84817
631.438	6.96032
631.631	4.8315
631.825	7.07349
632.018	6.23057
632.212	7.77252
632.405	7.23445
632.598	4.5855
632.792	5.80642
632.985	2.80887
633.178	5.02634
633.372	5.65125
633.565	5.61115
633.758	7.11851
633.952	4.6128
634.145	4.53758
634.338	5.25514
634.531	5.08885
634.724	4.50504
634.918	5.79752
635.111	5.11323
635.304	4.96508
635.497	8.84775
635.69	6.07679
635.883	7.20045
636.077	4.3699
636.27	6.41905
636.463	6.31074
636.656	6.2383
636.849	5.39821
637.042	6.43845
637.235	8.94382
637.428	7.14396
637.621	6.56789
637.814	8.05219
638.007	8.07441
638.2	8.2741
638.393	8.84415
638.586	4.24472
638.778	5.31849
638.971	6.04794
639.164	8.27
639.357	6.9391
639.55	8.43981
639.743	7.13618
639.935	7.13966
640.128	9.93367
640.321	7.68744
640.514	6.68311
640.707	10.13862
640.899	7.7052
641.092	3.94193
641.285	22.20387
641.477	3.62492
641.67	9.94684
641.863	8.47367
642.055	6.95564
642.248	6.725
642.441	6.31526
642.633	7.38502
642.826	8.08724
643.018	8.87261
643.211	9.34207
643.403	10.08612
643.596	10.17972
643.788	9.45147
643.981	6.15267
644.173	7.92238
644.366	6.27519
644.558	4.10356
644.751	8.20103
644.943	5.03676
645.135	9.90992
645.328	9.82534
645.52	8.44681
645.712	8.59556
645.905	12.45815
646.097	5.12385
646.289	7.9855
646.482	10.55847
646.674	5.67466
646.866	8.64639
647.058	7.85401
647.251	5.49241
647.443	6.19191
647.635	6.32867
647.827	5.68137
648.019	5.23855
648.211	7.07814
648.404	7.27352
648.596	9.98274
648.788	7.86674
648.98	7.41693
649.172	8.00312
649.364	7.95781
649.556	4.4683
649.748	11.35387
649.94	5.82475
650.132	8.18304
650.324	5.72652
650.516	5.90444
650.708	8.95573
650.9	4.91181
651.092	4.54413
651.284	4.75741
651.476	5.19759
651.667	8.29962
651.859	9.71517
652.051	6.99407
652.243	7.42562
652.435	6.52798
652.627	8.10639
652.818	7.91947
653.01	4.62113
653.202	6.11029
653.394	6.96499
653.585	8.12834
653.777	15.08049
653.969	9.88531
654.16	9.93295
654.352	5.8503
654.544	7.38917
654.735	9.40142
654.927	7.46258
655.118	10.21936
655.31	9.04809
655.502	9.45863
655.693	6.74282
655.885	8.49226
656.076	10.21027
656.268	8.05275
656.459	10.49765
656.651	9.95091
656.842	6.93307
657.034	6.25903
657.225	9.06706
657.416	10.53138
657.608	10.02368
657.799	7.71731
657.99	9.5062
658.182	6.13769
658.373	6.10924
658.564	9.55395
658.756	7.91498
658.947	6.83889
659.138	5.81791
659.33	6.27401
659.521	6.02823
659.712	7.05334
659.903	6.68306
660.094	6.23668
660.286	4.6085
660.477	10.63153
660.668	8.37291
660.859	7.24704
661.05	5.17178
661.241	8.32428
661.432	8.21478
661.623	7.0086
661.814	6.75244
662.006	5.25642
662.197	8.59362
662.388	9.76156
662.579	8.38358
662.77	13.35986
662.96	13.31285
663.151	10.14849
663.342	4.28859
663.533	8.94611
663.724	7.93062
663.915	11.82527
664.106	8.42964
664.297	12.09451
664.488	9.57202
664.678	7.00207
664.869	9.72873
665.06	10.17371
665.251	8.47938
665.442	9.90092
665.632	6.43696
665.823	12.63502
666.014	3.35611
666.204	9.71162
666.395	11.24104
666.586	13.56578
666.776	10.17055
666.967	12.04149
667.158	8.5009
667.348	11.84491
667.539	6.31334
667.729	10.57378
667.92	7.27624
668.111	10.36664
668.301	10.2993
668.492	7.91287
668.682	8.68557
668.873	8.41058
669.063	6.27267
669.253	8.96907
669.444	11.72964
669.634	8.31636
669.825	12.22024
670.015	11.16102
670.206	7.42241
670.396	13.30868
670.586	8.16463
670.777	9.86534
670.967	4.82118
671.157	8.57295
671.347	7.53862
671.538	12.49247
671.728	10.37684
671.918	13.0361
672.108	10.82319
672.299	8.35176
672.489	9.4387
672.679	7.54294
672.869	10.50681
673.059	13.94844
673.249	10.52531
673.44	6.89806
673.63	8.55029
673.82	11.31928
674.01	7.36342
674.2	10.82568
674.39	15.2495
674.58	10.75887
674.77	9.51865
674.96	8.6457
675.15	18.51159
675.34	11.88909
675.53	9.55635
675.72	8.27255
675.91	5.88674
676.099	13.64037
676.289	14.7976
676.479	12.10368
676.669	8.27606
676.859	10.52148
677.049	7.55434
677.238	9.76986
677.428	13.1435
677.618	10.41133
677.808	14.01674
677.997	10.72795
678.187	7.24848
678.377	9.65711
678.567	8.11421
678.756	8.33373
678.946	9.15704
679.136	6.2403
679.325	7.80372
679.515	7.53959
679.704	6.47748
679.894	10.90912
680.084	10.03331
680.273	11.94744
680.463	6.8104
680.652	7.09449
680.842	8.8839
681.031	11.26739
681.221	7.20254
681.41	10.24904
681.6	8.5694
681.789	10.6926
681.978	12.17956
682.168	10.15957
682.357	10.44109
682.547	10.68737
682.736	10.05807
682.925	12.8337
683.115	12.7421
683.304	11.54128
683.493	10.19456
683.682	11.16187
683.872	11.23264
684.061	12.86476
684.25	11.29242
684.439	16.53346
684.629	11.9246
684.818	18.63523
685.007	10.47379
685.196	9.44322
685.385	14.91563
685.574	11.3448
685.763	11.26529
685.952	11.05991
686.142	7.97363
686.331	14.05703
686.52	7.01132
686.709	15.79899
686.898	15.43344
687.087	12.09303
687.276	14.89927
687.465	14.04999
687.654	9.94551
687.842	14.7157
688.031	7.67389
688.22	14.30705
688.409	11.37571
688.598	11.51522
688.787	17.71841
688.976	11.23657
689.165	16.50717
689.353	9.92432
689.542	12.83872
689.731	14.67067
689.92	17.04417
690.108	13.65353
690.297	10.49831
690.486	11.88287
690.675	13.46282
690.863	16.27057
691.052	15.86731
691.241	12.3004
691.429	12.79693
691.618	15.60011
691.806	8.30579
691.995	11.38001
692.184	11.76078
692.372	11.07747
692.561	11.64346
692.749	12.97675
692.938	21.55487
693.126	13.49779
693.315	11.21074
693.503	14.08277
693.692	15.09423
693.88	14.73355
694.068	18.20081
694.257	12.77018
694.445	14.28895
694.634	7.02677
694.822	15.03402
695.01	16.05234
695.199	18.4131
695.387	16.9985
695.575	16.28091
695.763	11.87104
695.952	11.83819
696.14	7.75445
696.328	10.66228
696.516	12.97989
696.705	13.47775
696.893	13.00077
697.081	7.7677
697.269	15.12098
697.457	9.30766
697.645	8.49186
697.833	14.35343
698.021	9.38025
698.21	9.62566
698.398	10.70332
698.586	8.18685
698.774	6.97867
698.962	10.9377
699.15	7.9763
699.338	6.7542
699.526	12.16306
699.714	9.02427
699.901	9.18657
700.089	12.97368
700.277	9.14771
700.465	10.83231
700.653	13.31288
700.841	12.77431
701.029	9.60628
701.217	16.24418
701.404	12.43183
701.592	16.09328
701.78	19.36354
701.968	11.70653
702.155	10.91162
702.343	8.93819
702.531	16.84442
702.718	14.52561
702.906	11.28607
703.094	11.29318
703.281	17.29995
703.469	11.52793
703.657	16.99972
703.844	24.33528
704.032	19.30665
704.219	12.31754
704.407	15.33621
704.595	18.46327
704.782	15.18828
704.97	13.42312
705.157	13.04195
705.345	19.78376
705.532	26.29196
705.719	16.73073
705.907	20.15199
706.094	16.29396
706.282	22.63446
706.469	15.92426
706.656	17.69868
706.844	15.97126
707.031	20.71777
707.218	18.95061
707.406	23.119
707.593	19.98004
707.78	20.27942
707.968	18.28886
708.155	15.16424
708.342	20.75709
708.529	20.94252
708.716	19.22993
708.904	23.87905
709.091	20.03357
709.278	14.98785
709.465	24.94061
709.652	23.72716
709.839	22.84483
710.026	18.85566
710.213	12.49413
710.4	18.59194
710.587	20.05081
710.774	21.07199
710.961	22.06391
711.148	18.07485
711.335	20.92872
711.522	17.44344
711.709	19.89939
711.896	25.23081
712.083	21.49034
712.27	14.70021
712.457	19.20865
712.644	13.19967
712.831	25.77641
713.017	19.11376
713.204	20.81587
713.391	15.1883
713.578	21.49918
713.765	23.83387
713.951	19.59866
714.138	29.33592
714.325	18.93674
714.512	17.04076
714.698	14.30197
714.885	22.35191
715.072	17.62536
715.258	16.86471
715.445	14.44124
715.631	21.46372
715.818	7.63079
716.005	13.92305
716.191	19.10491
716.378	14.17348
716.564	19.29405
716.751	12.77925
716.937	14.50823
717.124	20.01593
717.31	12.90558
717.497	24.48204
717.683	13.55178
717.869	25.20992
718.056	14.77089
718.242	18.6272
718.429	16.56296
718.615	12.24648
718.801	16.36616
718.988	21.59647
719.174	19.08054
719.36	15.16303
719.547	22.95011
719.733	18.14686
719.919	17.46005
720.105	19.34792
720.291	16.83263
720.478	18.72498
720.664	16.25763
720.85	15.42151
721.036	29.38484
721.222	24.93871
721.408	16.57313
721.595	24.96046
721.781	24.09961
721.967	22.69283
722.153	24.30776
722.339	20.89203
722.525	19.88188
722.711	12.7737
722.897	11.689
723.083	16.88129
723.269	22.61565
723.455	31.62074
723.641	36.26343
723.827	18.64958
724.012	20.56903
724.198	17.05669
724.384	24.11986
724.57	20.06834
724.756	12.07692
724.942	9.9406
725.127	24.13763
725.313	24.57301
725.499	24.19545
725.685	27.8109
725.87	20.60473
726.056	14.35217
726.242	23.93264
726.428	11.18382
726.613	22.54995
726.799	17.01888
726.985	13.92452
727.17	11.52393
727.356	28.86095
727.541	14.91271
727.727	17.69842
727.913	21.9557
728.098	16.60392
728.284	22.00002
728.469	13.28039
728.655	15.12963
728.84	23.55366
729.026	22.32127
729.211	22.31075
729.397	19.93313
729.582	22.17579
729.767	18.02625
729.953	20.14746
730.138	25.27037
730.323	8.52152
730.509	13.03806
730.694	26.49269
730.879	21.69678
731.065	20.30575
731.25	30.5733
731.435	21.54967
731.621	12.44713
731.806	16.29666
731.991	19.2417
732.176	12.9306
732.361	26.51523
732.547	20.34477
732.732	12.08131
732.917	30.55507
733.102	13.46069
733.287	16.24621
733.472	18.61074
733.657	18.49043
733.842	12.73528
734.027	17.39026
734.212	18.23416
734.397	15.06376
734.582	18.88776
734.767	23.7239
734.952	25.47852
735.137	8.43667
735.322	26.27055
735.507	20.74755
735.692	20.08065
735.877	30.66744
736.062	28.54487
736.247	20.68707
736.431	19.22011
736.616	25.33778
736.801	22.10549
736.986	20.00684
737.171	14.39796
737.355	13.29057
737.54	26.41227
737.725	20.04031
737.909	34.56455
738.094	17.6411
738.279	23.19681
738.463	18.66421
738.648	23.89613
738.833	22.31802
739.017	31.54612
739.202	18.49375
739.386	19.14638
739.571	15.52845
739.756	24.74248
739.94	20.19428
740.125	23.22733
740.309	17.3318
740.494	25.24965
740.678	21.31307
740.863	22.37926
741.047	21.41796
741.231	29.3554
741.416	16.84203
741.6	28.97602
741.785	16.80151
741.969	26.31106
742.153	28.8082
742.338	9.44926
742.522	19.9086
742.706	25.14049
742.89	13.83113
743.075	20.62181
743.259	27.70646
743.443	27.36968
743.627	28.02182
743.812	34.36052
743.996	12.3139
744.18	19.9015
744.364	18.44051
744.548	35.22104
744.732	19.91583
744.916	25.86484
745.1	24.60848
745.285	19.62747
745.469	24.56814
745.653	32.26153
745.837	14.51959
746.021	35.383
746.205	28.29508
746.389	22.51794
746.573	19.72042
746.757	30.56328
746.94	19.21292
747.124	28.19436
747.308	14.05461
747.492	28.50752
747.676	16.57364
747.86	37.18721
748.044	18.69926
748.227	12.87372
748.411	46.06702
748.595	22.61048
748.779	16.58007
748.963	24.24874
749.146	21.97501
749.33	17.98492
749.514	16.53761
749.697	28.29114
749.881	17.2045
750.065	15.23776
750.248	22.49539
750.432	36.25944
750.616	20.25857
750.799	15.76429
750.983	38.28013
751.166	38.51903
751.35	13.30314
751.533	25.35049
751.717	32.34731
751.9	31.63074
752.084	19.6727
752.267	16.80285
752.451	17.38027
752.634	22.86213
752.818	26.11104
753.001	27.73454
753.184	29.79297
753.368	24.06673
753.551	3.13128
753.734	17.05251
753.918	38.1768
754.101	18.57906
754.284	27.17934
754.467	19.64295
754.651	18.2312
754.834	16.17714
755.017	29.14803
755.2	29.74953
755.384	15.70961
755.567	26.2583
755.75	28.39834
755.933	19.64824
756.116	28.1856
756.299	18.65798
756.482	16.309
756.665	27.55114
756.848	22.74671
757.032	23.64325
757.215	14.84306
757.398	16.87811
757.581	17.22798
757.764	41.31178
757.947	22.5831
758.129	28.50022
758.312	6.37907
758.495	21.34723
758.678	20.86517
758.861	20.6767
759.044	35.33481
759.227	16.6818
759.41	16.38988
759.592	27.04585
759.775	21.63952
759.958	28.37741
760.141	14.90912
760.324	37.64741
760.506	33.06276
760.689	27.73223
760.872	37.65087
761.054	24.85878
761.237	21.30415
761.42	24.94243
761.602	28.14191
761.785	24.92085
761.968	30.34079
762.15	35.48357
762.333	22.13255
762.515	26.01076
762.698	19.48243
762.88	28.83504
763.063	26.00032
763.245	30.15276
763.428	16.98663
763.61	18.95988
763.793	14.9272
763.975	23.92878
764.158	20.34079
764.34	17.59373
764.522	15.53576
764.705	20.04068
764.887	31.84727
765.069	11.96106
765.252	26.15669
765.434	26.61192
765.616	22.16939
765.799	17.71365
765.981	25.97938
766.163	16.88748
766.345	31.05793
766.528	18.48763
766.71	8.80304
766.892	23.78652
767.074	32.4586
767.256	19.95762
767.438	35.02318
767.62	23.85774
767.802	40.48584
767.985	27.94277
768.167	36.3284
768.349	18.52774
768.531	28.06956
768.713	26.21841
768.895	30.87347
769.077	26.5714
769.259	43.82448
769.441	61.32942
769.623	29.49068
769.804	35.47698
769.986	33.73017
770.168	41.77293
770.35	53.76778
770.532	39.93474
770.714	41.25158
770.896	41.29381
771.077	16.25103
771.259	44.02671
771.441	37.66
771.623	46.23725
771.804	59.47469
771.986	17.6094
772.168	28.5371
772.35	42.69041
772.531	61.43054
772.713	35.78454
772.894	47.0973
773.076	34.43304
773.258	29.70665
773.439	50.7442
773.621	56.11711
773.802	23.93597
773.984	28.35657
774.166	38.60199
774.347	53.64684
774.529	47.16729
774.71	16.55462
774.891	34.70877
775.073	30.43656
775.254	49.65075
775.436	29.23263
775.617	61.70851
775.799	30.93933
775.98	51.6851
776.161	56.97229
776.343	57.86357
776.524	35.92077
776.705	32.77528
776.886	15.89674
777.068	40.2864
777.249	86.49295
777.43	60.66442
777.611	22.9169
777.793	32.46649
777.974	60.4566
778.155	29.77764
778.336	25.42422
778.517	67.57562
778.698	27.44787
778.879	15.78413
779.061	7.92812
779.242	42.53674
779.423	43.22823
779.604	29.54883
779.785	31.8736
779.966	40.24162
780.147	50.35695
780.328	47.91083
780.509	69.52068
780.69	48.19273
780.871	28.75095
781.051	19.25759
781.232	36.78449
781.413	38.88545
781.594	32.86969
781.775	31.21458
781.956	27.52363
782.137	11.84585
782.317	31.35261
782.498	38.52036
782.679	35.77712
782.86	37.49171
783.04	28.2058
783.221	37.33413
783.402	61.0608
783.583	37.73098
783.763	47.498
783.944	30.48583
784.124	19.85101
784.305	58.19835
784.486	45.99763
784.666	35.08382
784.847	18.06494
785.027	81.29675
785.208	28.15318
785.388	27.57196
785.569	28.8107
785.749	33.84209
785.93	30.45034
786.11	19.6688
786.291	43.40135
786.471	38.84073
786.652	47.61768
786.832	34.22588
787.012	38.81072
787.193	22.5881
787.373	36.25452
787.553	31.77303
787.734	39.67382
787.914	31.76833
788.094	48.88136
788.275	39.32642
788.455	33.17317
788.635	22.16624
788.815	38.67837
788.995	24.74854
789.176	19.44716
789.356	27.07355
789.536	34.12971
789.716	41.66261
789.896	26.98907
790.076	30.31022
790.256	40.37876
790.436	12.66898
790.616	23.53931
790.796	38.1604
790.976	31.26162
791.156	27.19248
791.336	42.23909
791.516	39.72646
791.696	33.24831
791.876	19.31359
792.056	38.46815
792.236	48.04903
792.416	45.57528
792.596	39.84936
792.776	40.83698
792.956	44.56546
793.135	58.03079
793.315	23.89116
793.495	49.53166
793.675	45.2156
793.854	45.59487
794.034	48.36071
794.214	21.92572
794.394	45.03172
794.573	51.60715
794.753	36.81292
794.933	25.55727
795.112	38.17292
795.292	48.13477
795.472	59.22667
795.651	21.4152
795.831	36.28616
796.01	31.92556
796.19	32.64638
796.369	36.14748
796.549	41.43334
796.728	32.77961
796.908	19.86282
797.087	22.83529
797.267	32.97853
797.446	23.30329
797.626	41.61237
797.805	41.22655
797.984	26.25895
798.164	44.64036
798.343	26.20104
798.522	37.87682
798.702	37.48496
798.881	22.6902
799.06	33.56075
799.239	15.42762
799.419	24.59464
799.598	58.88236
799.777	41.22353
799.956	49.82069
800.136	32.42578
800.315	25.2719
800.494	39.3628
800.673	47.82219
800.852	45.90888
801.031	50.71092
801.21	43.32963
801.389	31.39516
801.568	37.74944
801.747	61.55488
801.926	34.19155
802.105	56.17253
802.284	30.02159
802.463	55.65137
802.642	38.71393
802.821	38.15642
803	54.28715
803.179	48.61542
803.358	49.7986
803.537	28.08255
803.716	37.87961
803.895	30.08086
804.073	33.6206
804.252	26.5864
804.431	42.46386
804.61	34.11234
804.789	48.08981
804.967	29.00822
805.146	29.09139
805.325	66.51758
805.503	41.90956
805.682	20.85496
805.861	80.78156
806.039	54.17308
806.218	30.17789
806.397	39.27047
806.575	36.23657
806.754	40.20675
806.932	24.59415
807.111	51.60251
807.289	49.61035
807.468	36.81677
807.646	49.29921
807.825	44.75895
808.003	38.73922
808.182	50.93239
808.36	39.04291
808.539	26.75333
808.717	58.5205
808.895	28.95752
809.074	41.32051
809.252	36.90579
809.43	44.58621
809.609	53.73129
809.787	58.18739
809.965	33.6139
810.144	36.418
810.322	34.33075
810.5	44.57562
810.678	32.49611
810.856	66.84982
811.035	52.54103
811.213	44.90981
811.391	54.97468
811.569	39.0543
811.747	89.16492
811.925	53.08882
812.103	30.6504
812.281	35.52929
812.459	63.71093
812.637	60.96411
812.816	48.99013
812.994	70.17617
813.171	58.3778
813.349	43.66935
813.527	51.19402
813.705	57.8621
813.883	75.82573
814.061	51.31235
814.239	66.01716
814.417	72.54488
814.595	47.74458
814.773	45.11965
814.95	39.63729
815.128	47.15299
815.306	39.62352
815.484	36.69225
815.662	28.06462
815.839	24.81682
816.017	32.00643
816.195	53.69426
816.372	34.04291
816.55	52.42472
816.728	64.67745
816.905	36.08393
817.083	61.62465
817.261	41.14038
817.438	87.18282
817.616	68.4723
817.793	32.51893
817.971	50.28422
818.148	50.33857
818.326	58.23592
818.503	44.29194
818.681	63.81091
818.858	36.28464
819.036	39.8142
819.213	44.8564
819.391	31.85865
819.568	31.91506
819.745	26.30794
819.923	51.58179
820.1	35.11862
820.277	29.93068
820.455	35.14386
820.632	36.60679
820.809	41.58323
820.986	25.11105
821.164	20.09681
821.341	17.45304
821.518	28.55066
821.695	19.61017
821.872	17.48031
822.05	14.49719
822.227	11.15
822.404	11.50937
822.581	14.11736
822.758	10.82923
822.935	11.03101
823.112	12.39484
823.289	9.96903
823.466	13.17144
823.643	11.99558
823.82	14.93392
823.997	12.71721
824.174	15.43113
824.351	22.88862
824.528	20.75003
824.705	17.88006
824.882	21.10232
825.059	27.93454
825.236	19.20555
825.412	20.41368
825.589	25.85374
825.766	38.44543
825.943	22.43632
826.12	27.25817
826.296	18.12595
826.473	24.84378
826.65	24.23054
826.827	30.73457
827.003	19.64017
827.18	21.91271
827.357	25.15868
827.533	20.71512
827.71	10.47774
827.887	17.93022
828.063	21.33172
828.24	16.73312
828.416	24.52054
828.593	19.62344
828.769	28.30767
828.946	29.76972
829.122	30.96426
829.299	30.18643
829.475	17.49815
829.652	28.15874
829.828	50.26177
830.005	31.79114
830.181	44.26381
830.357	31.5722
830.534	44.86845
830.71	33.69804
830.886	46.79749
831.063	42.68776
831.239	56.53195
831.415	26.14044
831.592	59.1957
831.768	33.85209
831.944	29.31896
832.12	64.58624
832.296	59.36309
832.473	47.81911
832.649	32.41735
832.825	49.57963
833.001	26.93848
833.177	42.86687
833.353	39.64969
833.529	21.49447
833.705	34.76034
833.881	21.39404
834.058	20.75807
834.234	23.78781
834.41	22.96943
834.586	17.21121
834.761	21.448
834.937	24.24464
835.113	25.25523
835.289	20.87799
835.465	25.4589
835.641	22.84356
835.817	25.97133
835.993	44.87253
836.169	21.77449
836.344	36.05268
836.52	39.87261
836.696	37.17984
836.872	27.7098
837.048	87.61612
837.223	32.8159
837.399	67.46751
837.575	49.10683
837.75	46.71235
837.926	67.1799
838.102	101.13647
838.277	80.97375
838.453	109.35063
838.628	113.87532
838.804	40.91841
838.98	97.61778
839.155	49.1568
839.331	68.70408
839.506	47.66278
839.682	50.29561
839.857	68.35206
840.033	81.47992
840.208	36.28535
840.384	17.26935
840.559	39.715
840.734	58.99947
840.91	75.77085
841.085	44.86705
841.26	46.2121
841.436	41.1857
841.611	39.39336
841.786	63.45887
841.962	85.49727
842.137	53.72721
842.312	29.91417
842.487	42.71068
842.663	35.39864
842.838	45.12277
843.013	154.53575
843.188	70.38636
843.363	79.01192
843.538	125.28145
843.714	131.48582
843.889	133.90605
844.064	142.1879
844.239	112.83608
844.414	127.83423
844.589	88.15855
844.764	165.44021
844.939	158.89511
845.114	178.05516
845.289	168.16636
845.464	225.03472
845.639	150.42623
845.814	66.82177
845.989	82.8163
846.163	107.08392
846.338	117.0483
846.513	159.25238
846.688	99.28315
846.863	109.94599
847.038	100.04019
847.212	110.43767
847.387	114.77083
847.562	120.2132
847.737	149.1365
847.911	56.72232
848.086	71.99855
848.261	223.94432
848.435	104.42254
848.61	146.44935
848.785	76.35258
848.959	159.48513
849.134	215.84334
849.308	228.3457
849.483	120.317
849.658	189.75198
849.832	97.56048
850.007	84.36393
850.181	258.57992
850.356	90.18983
850.53	237.94028
850.705	72.52438
850.879	38.52476
851.053	115.63707
851.228	100.24255
851.402	130.71328
851.577	176.90446
851.751	189.77948
851.925	128.13305
852.099	52.19504
852.274	86.32141
852.448	112.59783
852.622	129.87299
852.797	118.52812
852.971	115.09083
853.145	125.35318
853.319	343.02586
853.493	180.54377
853.668	100.6621
853.842	233.72029
854.016	182.67294
854.19	214.37758
854.364	125.61022
854.538	132.74842
854.712	186.96098
854.886	108.89502
855.06	105.18141
855.234	43.12944
855.408	200.71248
855.582	166.29747
855.756	171.48977
855.93	219.0635
856.104	149.11716
856.278	163.22861
856.452	121.59895
856.626	158.68371
856.8	262.08046
856.973	158.25629
857.147	146.19579
857.321	146.33859
857.495	178.85427
857.669	114.90262
857.842	107.80752
858.016	176.86563
858.19	85.40719
858.364	288.59644
858.537	114.99668
858.711	131.2391
858.885	113.25361
859.058	103.40364
859.232	49.55679
859.405	72.31787
859.579	173.36742
859.753	139.63217
859.926	94.81079
860.1	64.21713
860.273	128.97196
860.447	205.79682
860.62	111.84667
860.794	253.64054
860.967	139.9996
861.141	182.78375
861.314	267.36007
861.487	159.92708
861.661	203.62062
861.834	200.88007
862.008	180.45666
862.181	126.98583
862.354	139.87344
862.528	148.36172
862.701	105.44709
862.874	63.93986
863.047	111.02459
863.221	106.71841
863.394	50.58993
863.567	211.51351
863.74	42.17264
863.913	167.49433
864.087	144.19505
864.26	177.03729
864.433	121.23046
864.606	225.71777
864.779	130.7378
864.952	58.68976
865.125	109.64982
865.298	117.21358
865.471	128.32612
865.644	256.84386
865.817	210.07755
865.99	171.13312
866.163	201.1211
866.336	104.70783
866.509	121.11999
866.682	106.28822
866.855	193.8276
867.028	78.56954
867.2	169.96941
867.373	40.59559
867.546	128.77189
867.719	271.65884
867.892	163.48531
868.064	84.4325
868.237	151.90209
868.41	129.8074
868.583	70.06614
868.755	81.67825
868.928	120.37105
869.101	273.36548
869.273	195.92722
869.446	160.27059
869.619	191.76941
869.791	126.46809
869.964	189.29748
870.136	176.37838
870.309	143.50631
870.481	139.48521
870.654	66.08003
870.826	149.09717
870.999	106.66211
871.171	175.47233
871.344	110.24717
871.516	132.94098
871.689	87.85447
871.861	126.60147
872.033	97.03761
872.206	108.31528
872.378	179.86379
872.55	113.49713
872.723	65.8859
872.895	122.76608
873.067	191.08579
873.24	205.04666
873.412	110.39346
873.584	118.46225
873.756	115.26695
873.928	150.55827
874.101	148.84196
874.273	164.24252
874.445	55.44007
874.617	78.46447
874.789	140.47805
874.961	106.86902
875.133	159.37743
875.305	132.17822
875.477	85.68729
875.649	67.97334
875.821	89.82014
875.993	226.216
876.165	87.67731
876.337	149.83731
876.509	112.15907
876.681	144.52274
876.853	146.54723
877.025	143.68842
877.197	93.37228
877.369	85.57917
877.541	180.70297
877.712	47.5921
877.884	82.46651
878.056	165.11096
878.228	85.49207
878.4	157.15847
878.571	86.01695
878.743	63.01933
878.915	144.72574
879.086	81.09935
879.258	102.49738
879.43	96.19488
879.601	84.14843
879.773	86.25103
879.945	18.93393
880.116	37.80331
880.288	22.68601
880.459	24.79142
880.631	18.4291
880.802	22.76085
880.974	20.87974
881.145	14.07962
881.317	19.50785
881.488	14.23544
881.66	15.88559
881.831	13.42943
882.002	21.21407
882.174	13.88613
882.345	19.0002
882.517	8.54391
882.688	22.65802
882.859	18.5291
883.03	31.59932
883.202	28.86133
883.373	24.57302
883.544	24.75835
883.715	46.97475
883.887	35.87107
884.058	30.89612
884.229	45.74093
884.4	46.94778
884.571	53.40308
884.742	44.25405
884.914	48.94195
885.085	76.75903
885.256	95.30602
885.427	74.70979
885.598	90.73166
885.769	95.99234
885.94	89.51541
886.111	57.8739
886.282	111.95199
886.453	91.39369
886.624	59.84028
886.795	109.47128
886.966	88.59076
887.136	124.03078
887.307	75.34665
887.478	154.8927
887.649	132.12204
887.82	140.20537
887.991	107.14062
888.161	154.90393
888.332	148.29289
888.503	75.90267
888.674	200.21051
888.844	214.35992
889.015	168.20393
889.186	74.26357
889.356	201.87922
889.527	75.11041
889.698	348.06682
889.868	116.30882
890.039	144.84927
890.209	121.0432
890.38	173.57084
890.551	146.0476
890.721	211.34301
890.892	173.88639
891.062	120.84486
891.233	152.74836
891.403	113.10616
891.574	96.71922
891.744	116.62816
891.914	155.71073
892.085	133.10362
892.255	45.81335
892.425	203.6
892.596	163.26207
892.766	147.32405
892.936	214.6039
893.107	172.91357
893.277	93.44762
893.447	72.85043
893.618	48.86042
893.788	111.87819
893.958	55.78878
894.128	62.53062
894.298	68.28778
894.468	97.57243
894.639	38.68173
894.809	26.90546
894.979	45.27031
895.149	55.39845
895.319	45.09258
895.489	65.13142
895.659	79.20573
895.829	51.64821
895.999	57.92425
896.169	37.59037
896.339	51.32706
896.509	105.93166
896.679	125.28301
896.849	118.86902
897.019	171.99751
897.189	124.63716
897.358	111.24316
897.528	176.80911
897.698	58.40842
897.868	152.44041
898.038	273.87486
898.208	258.94439
898.377	69.05208
898.547	258.19178
898.717	413.2895
898.886	156.08263
899.056	257.08719
899.226	390.62645
899.395	230.66285
899.565	289.91892
899.735	195.57407
899.904	322.43428
900.074	264.23149
900.244	128.8803
900.413	493.8928
900.583	102.84558
900.752	175.54543
900.922	296.71741
901.091	31.3578
901.261	254.69221
901.43	246.65151
901.599	250.77506
901.769	560.86594
901.938	286.37037
902.108	273.888
902.277	362.83811
902.446	88.87612
902.616	100.72195
902.785	166.83554
902.954	280.50539
903.124	192.08189
903.293	156.06952
903.462	79.40884
903.631	114.10308
903.801	85.20692
903.97	41.40246
904.139	74.73812
904.308	54.87327
904.477	44.29551
904.646	24.25101
904.816	42.6567
904.985	64.26358
905.154	96.84362
