Data from WindowProjectSample3_Transmission__19__00019.txt Node

Date: Sun May 04 10:01:58 EDT 2025
User: jessi
Spectrometer: SR400872
Trigger mode: 0
Integration Time (sec): 5.000070E-1
Scans to average: 10
Electric dark correction enabled: true
Nonlinearity correction enabled: true
Boxcar width: 0
XAxis mode: Wavelengths
Number of Pixels in Spectrum: 3648
>>>>>Begin Spectral Data<<<<<
184.909	-5627.13359
185.132	10997.98135
185.355	-8673.24596
185.578	-53275.69437
185.801	3285.38736
186.024	-133420.96263
186.247	-852.1728
186.47	1402.45188
186.693	1184.10808
186.916	-532.36929
187.139	-2566661.36426
187.362	-2976.78006
187.585	7603.93138
187.808	2126.68293
188.031	-104.25108
188.254	4976.82365
188.476	-2085.55064
188.699	2592.98354
188.922	360.87651
189.145	-6069.48896
189.368	-4143.52763
189.591	1739.10145
189.813	-155431.26481
190.036	9238.35844
190.259	1498.65644
190.482	5568.24953
190.705	16404.2968
190.927	17721.02514
191.15	-4170.17107
191.373	2037.85397
191.595	1534.33189
191.818	17037.97588
192.041	964.77423
192.263	-8204.28389
192.486	-1705.08538
192.709	2919.11631
192.931	-3532.42504
193.154	13864.70883
193.377	2544.30545
193.599	27520.61121
193.822	2171.90687
194.044	2189.20263
194.267	1096.39049
194.489	-112.13442
194.712	3562.87026
194.934	33932.70063
195.157	-535.40002
195.379	11727.15675
195.602	1835.80195
195.824	4784.50823
196.047	6866.82706
196.269	13951.33519
196.492	-11200.90856
196.714	3887.36166
196.936	6815.06869
197.159	10453.89924
197.381	4814.69586
197.604	2103862.32631
197.826	1902.42607
198.048	2086.07294
198.271	9888.6867
198.493	2030.06002
198.715	2743.7543
198.938	9169.97132
199.16	3498.50569
199.382	10177.87688
199.604	9706.70883
199.827	1888.09102
200.049	3185.00701
200.271	22432.16986
200.493	1806.67664
200.715	7594.17808
200.938	7846.93337
201.16	-3866.73212
201.382	34589.64824
201.604	3965.00619
201.826	8266.74257
202.048	4398.76668
202.27	1942.90768
202.492	6019.80939
202.715	18606.16192
202.937	4120.29528
203.159	1534.36407
203.381	2068.36398
203.603	2711.30462
203.825	-1490.92338
204.047	-24164.57865
204.269	3476.08271
204.491	7725.91263
204.713	-1729001.5311
204.935	2364.75409
205.156	3874.91229
205.378	1659.78669
205.6	38014.81533
205.822	4686.14129
206.044	3399.92296
206.266	6218.33585
206.488	1565.07739
206.71	9892.52221
206.932	1478.53836
207.153	29410.88793
207.375	17523.1153
207.597	12678.62912
207.819	39028.08313
208.041	-45080.19836
208.262	1368.1047
208.484	14107.9252
208.706	3759.70069
208.927	2195.49434
209.149	920.27284
209.371	3799.76681
209.593	1253.74441
209.814	9312.24144
210.036	-475783.41948
210.258	1461.28457
210.479	2360.20432
210.701	3461.38797
210.922	-5531.20999
211.144	-3289.34412
211.366	5277.75719
211.587	2605.51751
211.809	5987.17603
212.03	-64165.66049
212.252	515.2189
212.473	899.58624
212.695	862.4025
212.916	1347.79129
213.138	635.00991
213.359	5370.83428
213.581	2716.58321
213.802	861.62294
214.024	7472.56312
214.245	-14832.91439
214.466	396.66518
214.688	3866.18773
214.909	10371.41105
215.131	4347.24532
215.352	2745.25236
215.573	11750.85092
215.795	2161.79096
216.016	1930.20047
216.237	-760488.56645
216.459	2069.46746
216.68	6062.06802
216.901	3182.09582
217.122	752.86783
217.344	2981.69517
217.565	7159.20989
217.786	3580.76047
218.007	951.27429
218.228	2775.26455
218.45	-17304.4408
218.671	50474.65753
218.892	20193.64412
219.113	1739.91453
219.334	8364.41062
219.555	-7992.45089
219.776	1845.09145
219.997	4303.56149
220.219	1234.95772
220.44	1549.59679
220.661	1600.2505
220.882	5798.57258
221.103	1580.57676
221.324	7794.36124
221.545	3195.95039
221.766	3030.90037
221.987	1497.58477
222.208	974.76375
222.429	2311.38795
222.65	244.18576
222.87	836.61294
223.091	1717.38231
223.312	1105.82306
223.533	2021.79841
223.754	1595.69199
223.975	1777.22312
224.196	1078.70566
224.417	5352.9633
224.637	736.18149
224.858	89.8642
225.079	1226.50038
225.3	675.65665
225.521	2280.05753
225.741	634.97577
225.962	632.56127
226.183	164.48204
226.404	999.72367
226.624	562.16803
226.845	625.1903
227.066	458.31141
227.286	289.17881
227.507	198.1636
227.728	160.77655
227.948	277.71944
228.169	101.54948
228.389	106.84742
228.61	60.45545
228.831	84.79379
229.051	10.3217
229.272	52.64302
229.492	73.20626
229.713	23.35101
229.933	54.45636
230.154	45.3141
230.374	76.14782
230.595	57.88938
230.815	34.0566
231.036	61.4302
231.256	-9.13049
231.477	100.89534
231.697	58.11457
231.917	60.91885
232.138	87.2191
232.358	159.16428
232.579	148.69698
232.799	27.50548
233.019	132.76396
233.24	166.07479
233.46	56.85855
233.68	93.19954
233.901	62.73042
234.121	40.87621
234.341	17.01997
234.561	1.41396
234.782	58.62861
235.002	99.93122
235.222	0.83903
235.442	93.45308
235.662	46.6844
235.883	90.00053
236.103	76.97858
236.323	55.71961
236.543	41.10026
236.763	63.62745
236.983	60.67899
237.203	65.03888
237.423	91.16103
237.643	131.98313
237.864	117.13
238.084	31.52278
238.304	42.90642
238.524	69.00706
238.744	59.00076
238.964	97.7332
239.184	87.49627
239.404	95.00971
239.624	52.34631
239.843	87.86372
240.063	50.70029
240.283	32.22954
240.503	34.95803
240.723	35.69938
240.943	21.08313
241.163	29.24538
241.383	20.84272
241.603	10.45601
241.822	12.93184
242.042	9.4031
242.262	12.63876
242.482	14.07788
242.702	15.60481
242.921	4.88555
243.141	11.24664
243.361	10.11062
243.581	14.65707
243.8	12.16602
244.02	8.07479
244.24	14.68348
244.459	13.09153
244.679	27.78878
244.899	18.95795
245.118	22.26355
245.338	18.8004
245.558	21.49972
245.777	12.48189
245.997	14.34438
246.216	14.72244
246.436	8.31849
246.655	5.85343
246.875	4.43183
247.094	8.68541
247.314	3.37912
247.533	5.27723
247.753	6.50512
247.972	5.49098
248.192	2.11357
248.411	3.33269
248.631	5.43244
248.85	7.30304
249.07	6.53004
249.289	9.56184
249.508	6.93262
249.728	11.60109
249.947	12.04258
250.166	13.05097
250.386	7.75022
250.605	10.14785
250.824	17.58378
251.044	12.75409
251.263	36.13106
251.482	20.73998
251.701	16.60801
251.921	-0.22518
252.14	5.945
252.359	6.2839
252.578	14.68833
252.798	5.62916
253.017	13.9559
253.236	7.15043
253.455	9.46858
253.674	19.00359
253.893	8.69626
254.112	13.12739
254.331	17.16929
254.551	16.22435
254.77	6.66211
254.989	20.69735
255.208	18.14049
255.427	22.08618
255.646	20.2147
255.865	32.45194
256.084	13.00662
256.303	15.4965
256.522	21.24442
256.741	4.20413
256.96	5.39374
257.179	11.28238
257.397	17.18166
257.616	8.55875
257.835	9.5445
258.054	22.8947
258.273	15.14699
258.492	16.39297
258.711	9.66988
258.93	4.3303
259.148	5.75968
259.367	6.49369
259.586	8.08595
259.805	3.25187
260.023	7.33415
260.242	5.38296
260.461	4.03884
260.68	2.27663
260.898	6.42616
261.117	2.11924
261.336	1.58974
261.554	5.6528
261.773	5.87909
261.992	1.37955
262.21	5.91623
262.429	6.83784
262.648	10.54049
262.866	12.95336
263.085	7.92899
263.303	8.06702
263.522	13.41037
263.74	13.67511
263.959	23.29363
264.178	11.98041
264.396	10.47691
264.615	8.38419
264.833	17.87821
265.051	14.80119
265.27	14.93613
265.488	16.12115
265.707	9.50421
265.925	16.19301
266.144	7.83067
266.362	8.90359
266.58	9.07903
266.799	7.33415
267.017	9.44646
267.235	8.02692
267.454	5.14286
267.672	2.99743
267.89	6.86559
268.109	7.1424
268.327	6.86032
268.545	1.87965
268.763	6.23036
268.982	2.8483
269.2	7.81981
269.418	4.8303
269.636	3.53759
269.854	7.37027
270.073	5.27228
270.291	2.82224
270.509	3.16217
270.727	7.09714
270.945	11.06752
271.163	10.94424
271.381	2.95751
271.599	4.61628
271.817	8.08129
272.036	2.6005
272.254	5.03046
272.472	3.92928
272.69	3.7579
272.908	3.87356
273.126	6.34085
273.344	7.89294
273.562	3.02127
273.779	3.93521
273.997	5.95916
274.215	6.85221
274.433	4.73482
274.651	7.17067
274.869	7.35935
275.087	4.52602
275.305	6.61343
275.523	4.30833
275.74	4.69552
275.958	8.26788
276.176	11.97216
276.394	4.17971
276.612	5.15725
276.829	5.1847
277.047	4.4238
277.265	4.78959
277.483	5.78398
277.7	6.49897
277.918	5.38567
278.136	9.60024
278.353	4.53235
278.571	3.10213
278.789	7.4733
279.006	1.88636
279.224	4.35034
279.442	7.34566
279.659	5.61904
279.877	3.94539
280.094	8.55422
280.312	1.76204
280.529	5.45411
280.747	1.86249
280.964	4.23321
281.182	8.45422
281.399	4.28251
281.617	5.59338
281.834	3.91502
282.052	3.28678
282.269	4.8829
282.487	4.00375
282.704	3.43672
282.921	3.60162
283.139	4.97144
283.356	6.63195
283.574	5.83201
283.791	2.99512
284.008	8.21466
284.226	4.76922
284.443	5.09262
284.66	6.2657
284.877	5.19435
285.095	3.16444
285.312	2.4622
285.529	1.68828
285.746	1.44133
285.964	3.35265
286.181	2.2116
286.398	2.92994
286.615	4.17485
286.832	4.06087
287.05	1.03481
287.267	3.05877
287.484	2.9455
287.701	4.28517
287.918	4.06798
288.135	4.30506
288.352	1.92619
288.569	2.32605
288.786	3.93525
289.003	3.08702
289.22	4.37353
289.437	2.5844
289.654	4.57396
289.871	4.56517
290.088	4.30826
290.305	3.36901
290.522	2.63856
290.739	3.23862
290.956	4.93238
291.173	5.53751
291.39	5.4099
291.607	3.73494
291.824	3.07771
292.04	1.97206
292.257	4.5664
292.474	5.05322
292.691	3.23507
292.908	1.8275
293.125	2.66806
293.341	1.77889
293.558	7.60797
293.775	3.12102
293.992	3.12953
294.208	1.28062
294.425	2.12981
294.642	2.8138
294.858	3.99613
295.075	1.39873
295.292	3.08948
295.508	3.6656
295.725	5.53164
295.942	2.69729
296.158	1.81056
296.375	3.29395
296.591	2.3348
296.808	2.42389
297.024	2.90826
297.241	3.30297
297.458	3.45709
297.674	0.29176
297.891	2.81527
298.107	2.23612
298.323	1.77836
298.54	4.18701
298.756	2.08485
298.973	1.21277
299.189	4.45849
299.406	1.92227
299.622	4.54707
299.838	4.37337
300.055	3.92392
300.271	0.82404
300.487	1.50553
300.704	1.75954
300.92	1.02624
301.136	5.65248
301.353	4.57388
301.569	3.24565
301.785	3.43299
302.001	4.16768
302.218	3.55177
302.434	3.67667
302.65	1.07612
302.866	2.51272
303.083	5.73271
303.299	5.84526
303.515	2.62198
303.731	3.29204
303.947	1.02931
304.163	2.10468
304.379	3.32823
304.595	3.69462
304.812	2.11479
305.028	1.98463
305.244	2.5361
305.46	4.18577
305.676	3.96024
305.892	4.91225
306.108	3.38107
306.324	2.66118
306.54	5.68191
306.756	3.94924
306.972	3.79394
307.187	2.46731
307.403	5.38769
307.619	2.51085
307.835	4.76843
308.051	5.08967
308.267	1.47711
308.483	4.16154
308.699	3.80551
308.914	3.14347
309.13	2.82506
309.346	0.86614
309.562	1.54823
309.778	0.96492
309.993	3.8023
310.209	2.60633
310.425	1.36799
310.641	2.39836
310.856	1.39448
311.072	1.46668
311.288	2.59031
311.503	3.01803
311.719	0.76568
311.935	0.39214
312.15	3.12942
312.366	2.92962
312.581	3.60027
312.797	2.77516
313.013	3.7396
313.228	1.98833
313.444	2.88481
313.659	2.07665
313.875	3.43563
314.09	2.78791
314.306	4.81206
314.521	4.21165
314.737	3.61616
314.952	3.28284
315.168	2.88099
315.383	3.47735
315.599	2.75767
315.814	2.36736
316.029	4.05196
316.245	1.10093
316.46	1.03773
316.675	4.69321
316.891	5.74603
317.106	7.17382
317.321	3.98607
317.537	3.58109
317.752	3.92548
317.967	4.02951
318.183	1.83671
318.398	2.88943
318.613	4.43079
318.828	4.86075
319.043	4.44327
319.259	2.6684
319.474	3.34614
319.689	4.75186
319.904	0.7588
320.119	3.86527
320.334	3.69
320.549	2.87869
320.765	4.866
320.98	3.2883
321.195	4.36316
321.41	2.78535
321.625	4.18407
321.84	5.73709
322.055	5.67779
322.27	2.47799
322.485	1.94435
322.7	3.65165
322.915	4.69614
323.13	1.80763
323.345	4.89608
323.56	4.11537
323.775	3.9927
323.989	3.81013
324.204	3.51782
324.419	4.20974
324.634	1.22207
324.849	2.8223
325.064	6.02014
325.279	4.3677
325.493	3.81164
325.708	4.54384
325.923	2.20707
326.138	1.91871
326.352	5.20298
326.567	4.34915
326.782	2.59242
326.997	1.96985
327.211	4.12549
327.426	3.64981
327.641	2.70631
327.855	0.92273
328.07	3.83464
328.285	5.39423
328.499	2.65454
328.714	3.72292
328.928	4.35075
329.143	3.07765
329.358	4.75983
329.572	4.65825
329.787	4.7606
330.001	6.59036
330.216	1.25172
330.43	5.16051
330.645	5.46481
330.859	4.41932
331.074	2.35354
331.288	3.58169
331.503	4.75471
331.717	1.71719
331.931	3.10311
332.146	3.19488
332.36	5.96311
332.575	3.87631
332.789	3.52699
333.003	2.99135
333.218	3.82901
333.432	2.22275
333.646	3.82139
333.86	5.11542
334.075	5.39814
334.289	2.23191
334.503	1.91187
334.717	3.80707
334.932	3.71388
335.146	4.85837
335.36	3.04816
335.574	4.21111
335.788	4.04208
336.003	5.28785
336.217	4.34608
336.431	4.31122
336.645	2.45859
336.859	1.58775
337.073	2.82989
337.287	3.27858
337.501	1.98131
337.715	3.18776
337.929	3.81422
338.143	1.62024
338.357	3.00843
338.571	1.79859
338.785	3.56466
338.999	2.38042
339.213	2.47874
339.427	1.35961
339.641	4.84919
339.855	2.84521
340.069	2.63659
340.283	4.61646
340.497	5.59205
340.711	3.6901
340.924	2.61263
341.138	1.73329
341.352	1.44718
341.566	3.34634
341.78	0.93593
341.993	2.39664
342.207	1.58073
342.421	3.23032
342.635	2.92276
342.848	2.30371
343.062	0.43342
343.276	2.20996
343.49	5.73883
343.703	2.22421
343.917	4.07712
344.131	4.14502
344.344	2.26219
344.558	2.2885
344.771	1.7738
344.985	4.62905
345.199	5.07547
345.412	3.34175
345.626	3.36662
345.839	1.01999
346.053	1.57798
346.266	1.70122
346.48	3.99688
346.693	3.40418
346.907	3.8086
347.12	1.80673
347.334	3.47874
347.547	3.34821
347.76	2.60976
347.974	4.61549
348.187	3.56446
348.401	2.46524
348.614	2.12782
348.827	2.52009
349.041	3.84904
349.254	1.03449
349.467	2.88799
349.681	1.39142
349.894	2.1839
350.107	4.28676
350.32	4.89788
350.534	1.12236
350.747	2.60633
350.96	1.77929
351.173	2.08264
351.386	2.32108
351.6	2.53793
351.813	1.97053
352.026	3.01604
352.239	1.07987
352.452	2.65927
352.665	3.78748
352.878	2.55417
353.092	5.38111
353.305	3.60525
353.518	2.83229
353.731	1.84264
353.944	4.20831
354.157	2.08049
354.37	1.62091
354.583	1.47659
354.796	0.64803
355.009	4.23983
355.222	2.79475
355.435	2.78264
355.647	3.97357
355.86	1.4994
356.073	2.58415
356.286	2.12581
356.499	3.58507
356.712	3.09264
356.925	3.16897
357.138	3.81018
357.35	1.39979
357.563	2.21798
357.776	2.63982
357.989	2.03703
358.201	3.18443
358.414	2.82038
358.627	3.85144
358.84	2.1617
359.052	1.39035
359.265	1.28794
359.478	3.92123
359.69	-0.3284
359.903	3.1258
360.116	3.36989
360.328	0.71212
360.541	3.34351
360.753	1.23211
360.966	1.81494
361.179	1.83197
361.391	1.67724
361.604	1.19218
361.816	1.8361
362.029	1.52773
362.241	1.23722
362.454	1.66248
362.666	1.25209
362.879	2.24545
363.091	1.92465
363.304	1.28995
363.516	2.31161
363.728	0.95194
363.941	2.94126
364.153	1.5977
364.366	-0.14995
364.578	0.93487
364.79	2.75097
365.003	2.20056
365.215	1.856
365.427	2.64187
365.639	3.73311
365.852	2.50245
366.064	4.47965
366.276	1.79609
366.488	2.83648
366.701	1.86079
366.913	2.00772
367.125	2.12209
367.337	1.66573
367.549	1.85376
367.762	2.51825
367.974	2.35034
368.186	1.55488
368.398	3.47086
368.61	2.90613
368.822	3.17218
369.034	2.35977
369.246	2.95199
369.458	4.95485
369.67	1.27355
369.882	4.51679
370.094	0.21555
370.306	4.0944
370.518	1.94625
370.73	1.60857
370.942	1.39561
371.154	1.91576
371.366	1.64206
371.578	2.77986
371.79	1.3593
372.002	3.46046
372.214	4.11905
372.425	2.62912
372.637	3.65942
372.849	2.50089
373.061	0.22404
373.273	2.87551
373.484	2.8665
373.696	3.20238
373.908	-0.12551
374.12	3.54342
374.331	2.83588
374.543	1.39375
374.755	1.3313
374.967	2.38619
375.178	3.09012
375.39	2.01818
375.602	2.39309
375.813	0.88477
376.025	0.93752
376.236	2.18558
376.448	2.48107
376.66	1.59816
376.871	1.59891
377.083	3.1155
377.294	3.41269
377.506	1.53736
377.717	3.58284
377.929	2.38265
378.14	1.27375
378.352	2.87791
378.563	2.75495
378.775	3.49831
378.986	1.5184
379.197	2.36386
379.409	1.7828
379.62	3.1923
379.832	2.54783
380.043	1.89595
380.254	2.40043
380.466	0.92742
380.677	5.17276
380.888	4.6191
381.1	4.93902
381.311	4.76421
381.522	2.29713
381.733	5.47315
381.945	1.8976
382.156	2.55
382.367	1.73567
382.578	5.35579
382.789	5.21228
383.001	1.77159
383.212	3.81891
383.423	3.92518
383.634	3.55499
383.845	2.7546
384.056	1.90076
384.267	2.40526
384.478	2.09174
384.69	1.13137
384.901	2.75761
385.112	2.74382
385.323	3.98748
385.534	2.77833
385.745	2.53316
385.956	2.89335
386.167	1.24246
386.378	2.78606
386.588	1.08516
386.799	1.53411
387.01	0.53107
387.221	3.20812
387.432	2.02216
387.643	4.37399
387.854	2.23565
388.065	2.00996
388.275	2.15495
388.486	2.03036
388.697	2.27071
388.908	2.16212
389.119	3.55776
389.329	4.35502
389.54	2.4483
389.751	2.85776
389.962	3.58133
390.172	2.70624
390.383	1.75734
390.594	1.66932
390.804	1.69053
391.015	1.82692
391.226	2.57268
391.436	2.82206
391.647	2.80384
391.858	3.08204
392.068	0.73109
392.279	1.27471
392.489	2.63336
392.7	3.48412
392.91	1.19774
393.121	1.65639
393.331	2.8909
393.542	3.78117
393.752	3.10393
393.963	2.6371
394.173	2.48204
394.384	3.09905
394.594	2.42882
394.804	1.24652
395.015	2.64491
395.225	3.23368
395.436	1.42593
395.646	2.99488
395.856	1.81135
396.067	1.13421
396.277	3.7255
396.487	3.03279
396.697	2.69972
396.908	3.41018
397.118	3.44551
397.328	2.71681
397.538	3.55041
397.749	1.79365
397.959	3.66448
398.169	3.29182
398.379	1.40692
398.589	3.32291
398.8	2.74634
399.01	2.73075
399.22	2.53015
399.43	5.12375
399.64	2.50516
399.85	3.44109
400.06	2.66087
400.27	2.09426
400.48	2.78241
400.69	4.31028
400.9	2.18507
401.11	2.07516
401.32	3.69873
401.53	2.16582
401.74	4.51566
401.95	3.82421
402.16	1.89044
402.37	3.2295
402.58	2.22455
402.79	3.55436
403	3.73031
403.209	2.27447
403.419	3.65403
403.629	2.31743
403.839	3.61846
404.049	3.81502
404.258	2.21654
404.468	1.92569
404.678	3.51461
404.888	3.76979
405.097	2.03833
405.307	2.87652
405.517	3.37422
405.727	3.34214
405.936	2.52507
406.146	3.20282
406.356	4.37207
406.565	3.02872
406.775	2.44609
406.984	2.6285
407.194	4.85379
407.404	3.12661
407.613	3.35473
407.823	3.90684
408.032	4.37337
408.242	4.31419
408.451	2.70311
408.661	3.0297
408.87	4.929
409.08	2.87493
409.289	3.62145
409.499	3.30668
409.708	3.31712
409.918	1.29075
410.127	3.24142
410.336	4.75669
410.546	4.04413
410.755	2.78413
410.964	2.85649
411.174	2.54448
411.383	3.77631
411.592	3.70263
411.802	2.37909
412.011	4.40894
412.22	3.37313
412.429	4.8666
412.639	4.70757
412.848	4.67556
413.057	5.06045
413.266	4.56119
413.475	3.36221
413.685	4.1723
413.894	4.39018
414.103	4.61575
414.312	4.17087
414.521	3.434
414.73	3.4506
414.939	5.39774
415.148	4.00274
415.357	3.76575
415.566	3.2099
415.776	3.29864
415.985	3.05445
416.194	4.3096
416.403	5.17953
416.611	2.34274
416.82	2.91619
417.029	3.55676
417.238	2.82987
417.447	2.78715
417.656	3.06514
417.865	2.72624
418.074	3.14641
418.283	3.30381
418.492	4.12165
418.7	3.97322
418.909	4.70014
419.118	3.55
419.327	3.81114
419.536	3.55274
419.744	2.9657
419.953	4.23532
420.162	4.10054
420.371	3.06261
420.579	3.11088
420.788	4.25842
420.997	4.31366
421.205	4.221
421.414	4.02732
421.623	3.9356
421.831	3.61202
422.04	4.38986
422.249	3.39601
422.457	4.04666
422.666	3.42874
422.874	4.49741
423.083	4.47268
423.291	4.30832
423.5	4.02372
423.708	4.25343
423.917	4.82896
424.125	4.23055
424.334	3.81101
424.542	5.8859
424.751	4.9505
424.959	4.64586
425.167	5.031
425.376	4.88714
425.584	4.05083
425.793	4.51227
426.001	3.44273
426.209	4.73447
426.418	3.52045
426.626	3.70264
426.834	3.48235
427.042	4.13705
427.251	3.60436
427.459	4.81475
427.667	4.36656
427.875	3.18021
428.084	3.737
428.292	5.22825
428.5	4.65088
428.708	3.37836
428.916	3.41606
429.124	4.28968
429.333	3.88251
429.541	3.78398
429.749	4.20533
429.957	3.96295
430.165	6.18901
430.373	3.12041
430.581	4.25297
430.789	5.25972
430.997	3.78338
431.205	3.58956
431.413	4.17878
431.621	3.89767
431.829	4.75662
432.037	3.81432
432.245	4.44089
432.453	4.38026
432.661	3.92165
432.869	5.75448
433.076	3.41182
433.284	3.99237
433.492	4.71627
433.7	5.13382
433.908	3.93252
434.116	4.29475
434.323	4.42617
434.531	4.40248
434.739	4.73832
434.947	5.15063
435.154	4.97877
435.362	4.46991
435.57	4.12745
435.778	4.01475
435.985	4.72899
436.193	4.01594
436.401	5.39215
436.608	4.41531
436.816	3.96181
437.023	5.81314
437.231	5.71579
437.439	4.50213
437.646	4.99562
437.854	4.78005
438.061	5.0534
438.269	4.13953
438.476	5.01684
438.684	4.49526
438.891	4.17806
439.099	3.95508
439.306	3.26759
439.514	3.60784
439.721	4.7253
439.929	3.8817
440.136	4.7697
440.343	4.60498
440.551	4.24709
440.758	5.99707
440.965	5.04012
441.173	4.60626
441.38	4.1418
441.587	4.65298
441.795	4.23598
442.002	4.82951
442.209	4.87071
442.416	5.12446
442.624	5.04897
442.831	5.02687
443.038	4.20145
443.245	3.90431
443.452	4.40952
443.66	5.22914
443.867	3.99441
444.074	4.21509
444.281	4.05581
444.488	4.43133
444.695	4.49358
444.902	4.10937
445.109	5.05347
445.316	4.26257
445.523	4.16376
445.73	3.77741
445.937	4.76369
446.144	5.12261
446.351	5.12172
446.558	4.14433
446.765	5.56327
446.972	5.53991
447.179	4.66521
447.386	5.74435
447.593	4.42318
447.8	5.49691
448.007	4.58701
448.214	4.73019
448.42	4.27376
448.627	5.74541
448.834	4.73089
449.041	4.45689
449.248	4.53948
449.454	5.55871
449.661	6.33239
449.868	4.55718
450.075	4.27328
450.281	3.08156
450.488	3.85573
450.695	3.96575
450.901	4.03365
451.108	4.30917
451.315	5.48282
451.521	4.61174
451.728	5.34535
451.935	4.10967
452.141	4.47481
452.348	4.63827
452.554	4.50719
452.761	4.36391
452.967	6.06882
453.174	4.73618
453.38	4.99583
453.587	3.77878
453.793	4.91052
454	5.43351
454.206	6.54912
454.413	5.78367
454.619	5.10825
454.825	4.24673
455.032	5.27922
455.238	5.61643
455.445	3.7619
455.651	4.83189
455.857	3.26121
456.064	4.63541
456.27	4.54737
456.476	4.62803
456.682	3.79172
456.889	5.11823
457.095	5.30148
457.301	6.77436
457.507	4.63026
457.714	4.96987
457.92	4.81273
458.126	4.10564
458.332	4.50532
458.538	4.27075
458.744	4.35405
458.951	4.33889
459.157	5.86343
459.363	4.76477
459.569	4.62748
459.775	5.37094
459.981	4.34617
460.187	4.85372
460.393	5.29912
460.599	5.9184
460.805	5.10696
461.011	5.1711
461.217	6.06085
461.423	6.04866
461.629	4.8655
461.835	5.75109
462.041	4.74393
462.247	6.39744
462.453	4.86558
462.658	5.05619
462.864	5.73294
463.07	5.22651
463.276	5.34162
463.482	5.25343
463.688	6.24369
463.893	4.48275
464.099	4.77588
464.305	6.2933
464.511	4.71327
464.716	5.18042
464.922	5.75519
465.128	4.35539
465.333	6.59483
465.539	5.44042
465.745	5.02896
465.95	5.21314
466.156	7.45329
466.362	6.12381
466.567	5.04872
466.773	4.63094
466.978	6.41646
467.184	4.36127
467.389	3.38789
467.595	5.69717
467.8	4.51867
468.006	6.39939
468.211	6.18973
468.417	4.29162
468.622	5.59856
468.828	5.7851
469.033	5.5322
469.239	7.79286
469.444	4.81519
469.649	6.14977
469.855	5.0198
470.06	5.48711
470.266	4.26342
470.471	5.76454
470.676	5.60419
470.881	3.93951
471.087	6.50071
471.292	6.93327
471.497	4.16614
471.703	5.09524
471.908	4.76383
472.113	5.21865
472.318	6.01782
472.523	4.47802
472.729	5.53129
472.934	5.57785
473.139	4.99671
473.344	5.70204
473.549	6.42826
473.754	4.52106
473.959	7.127
474.164	4.78655
474.369	5.18152
474.575	6.06728
474.78	5.34676
474.985	4.95075
475.19	3.97027
475.395	4.68543
475.6	5.21786
475.804	6.38659
476.009	5.1636
476.214	5.12383
476.419	4.83927
476.624	3.86272
476.829	4.56802
477.034	5.65711
477.239	4.67538
477.444	5.38069
477.648	5.60253
477.853	5.67993
478.058	4.76414
478.263	4.69304
478.468	4.25909
478.672	4.45573
478.877	6.31752
479.082	6.8496
479.287	5.48682
479.491	5.45975
479.696	4.22526
479.901	5.98871
480.105	5.79089
480.31	4.74044
480.515	5.03423
480.719	6.92336
480.924	4.59427
481.128	4.21955
481.333	5.16647
481.538	5.17025
481.742	4.68314
481.947	5.20029
482.151	5.43327
482.356	5.56103
482.56	6.84745
482.765	7.39606
482.969	9.02893
483.174	10.288
483.378	11.79912
483.582	11.84974
483.787	12.96712
483.991	12.85055
484.196	13.01742
484.4	12.63411
484.604	12.96227
484.809	11.21778
485.013	10.81158
485.217	9.53582
485.422	8.41558
485.626	7.69735
485.83	7.42578
486.034	7.24252
486.239	7.4654
486.443	7.59531
486.647	7.67226
486.851	8.64224
487.055	9.38524
487.26	8.73983
487.464	9.53032
487.668	8.75497
487.872	8.91691
488.076	9.3216
488.28	8.7018
488.484	8.08589
488.688	7.92377
488.892	7.80752
489.096	7.31629
489.3	6.46126
489.504	6.11485
489.708	6.27831
489.912	6.22007
490.116	6.00187
490.32	5.39356
490.524	6.29799
490.728	6.58005
490.932	6.88076
491.136	7.08079
491.34	8.08983
491.544	8.23622
491.748	7.86009
491.951	7.92648
492.155	7.44908
492.359	7.43036
492.563	6.33686
492.767	5.93205
492.97	5.601
493.174	5.17886
493.378	5.52542
493.582	4.96285
493.785	5.39806
493.989	5.67554
494.193	5.56774
494.396	5.16394
494.6	6.04303
494.804	5.3805
495.007	4.76543
495.211	4.87021
495.414	5.14358
495.618	5.39107
495.822	6.20745
496.025	5.15056
496.229	5.88326
496.432	4.74746
496.636	5.21277
496.839	5.09463
497.043	6.51208
497.246	5.38082
497.45	4.99965
497.653	5.12492
497.856	5.51258
498.06	4.3888
498.263	5.08251
498.467	4.885
498.67	6.13303
498.873	5.63187
499.077	4.974
499.28	5.05422
499.483	5.50967
499.686	5.91163
499.89	5.57955
500.093	5.82979
500.296	4.82034
500.499	6.65457
500.703	5.24999
500.906	5.49365
501.109	6.85156
501.312	5.32823
501.515	5.21208
501.719	5.69504
501.922	6.59773
502.125	5.66958
502.328	5.3953
502.531	4.39316
502.734	5.24913
502.937	3.85317
503.14	5.31642
503.343	4.43921
503.546	5.0862
503.749	4.59839
503.952	5.7747
504.155	4.49973
504.358	5.7921
504.561	5.40037
504.764	4.19145
504.967	5.27337
505.17	5.27307
505.373	6.63813
505.576	5.37634
505.778	5.81764
505.981	4.69365
506.184	6.27338
506.387	3.95332
506.59	6.67146
506.793	6.19291
506.995	5.62854
507.198	3.79903
507.401	5.53118
507.604	5.63126
507.806	4.36261
508.009	4.62023
508.212	5.62304
508.414	4.72729
508.617	4.73161
508.82	5.20769
509.022	6.17163
509.225	5.53428
509.427	3.99214
509.63	6.19871
509.833	5.1464
510.035	4.97625
510.238	3.96926
510.44	6.05338
510.643	3.41959
510.845	7.06276
511.048	5.45179
511.25	4.83305
511.453	5.04647
511.655	5.4944
511.858	4.85785
512.06	5.79251
512.262	5.18434
512.465	5.83838
512.667	4.73069
512.869	4.31259
513.072	5.51912
513.274	6.01592
513.476	5.77007
513.679	5.90478
513.881	4.35391
514.083	6.81824
514.286	4.63345
514.488	4.84766
514.69	4.50993
514.892	4.14046
515.094	5.70302
515.297	4.78469
515.499	5.29242
515.701	4.43798
515.903	6.63903
516.105	6.52907
516.307	5.93708
516.509	3.55763
516.711	3.95412
516.913	5.11645
517.116	4.92748
517.318	4.69381
517.52	5.95531
517.722	5.3594
517.924	4.11343
518.126	5.25493
518.328	4.46896
518.529	5.33801
518.731	6.3226
518.933	4.57346
519.135	5.00479
519.337	5.97815
519.539	5.55421
519.741	3.78103
519.943	5.04951
520.145	4.86236
520.346	5.63875
520.548	4.97908
520.75	5.54704
520.952	4.91199
521.153	5.41302
521.355	5.5283
521.557	4.29824
521.759	5.26266
521.96	5.15927
522.162	4.35962
522.364	6.08187
522.565	4.51144
522.767	5.6804
522.969	6.03073
523.17	5.50925
523.372	5.52916
523.573	4.49851
523.775	4.92643
523.977	4.25078
524.178	6.31496
524.38	4.503
524.581	5.64811
524.783	4.54441
524.984	5.4639
525.186	4.95668
525.387	5.46133
525.589	4.96467
525.79	4.73363
525.991	4.39963
526.193	5.20092
526.394	4.01448
526.596	5.20007
526.797	5.13848
526.998	4.6514
527.2	4.46357
527.401	6.11117
527.602	6.3021
527.803	8.04625
528.005	8.15709
528.206	8.67903
528.407	9.19981
528.608	8.67765
528.81	8.94508
529.011	8.24302
529.212	9.38211
529.413	8.30512
529.614	7.6817
529.815	7.52005
530.017	6.85251
530.218	5.94335
530.419	5.2011
530.62	5.55518
530.821	5.47715
531.022	4.44486
531.223	5.6069
531.424	5.55845
531.625	5.42347
531.826	5.26631
532.027	5.15811
532.228	6.0263
532.429	5.6335
532.63	5.65397
532.831	6.21156
533.032	6.1995
533.233	6.76483
533.433	6.3913
533.634	6.60635
533.835	5.93718
534.036	5.46804
534.237	5.34387
534.438	4.98016
534.638	4.54969
534.839	4.94057
535.04	5.7043
535.241	4.854
535.441	6.38754
535.642	5.44058
535.843	4.36734
536.043	4.4269
536.244	4.5689
536.445	4.57826
536.645	5.65426
536.846	5.17015
537.047	6.02667
537.247	4.54095
537.448	5.0529
537.648	5.28264
537.849	5.17921
538.049	5.16954
538.25	5.92214
538.451	5.64801
538.651	4.60638
538.851	5.73318
539.052	6.30951
539.252	5.88871
539.453	5.24545
539.653	5.16678
539.854	5.07089
540.054	4.95401
540.254	5.59734
540.455	6.04081
540.655	5.36216
540.855	6.366
541.056	7.07884
541.256	6.46341
541.456	7.502
541.657	6.61277
541.857	7.51854
542.057	5.91646
542.257	5.73186
542.458	6.41159
542.658	6.28962
542.858	4.72231
543.058	6.14129
543.258	5.70831
543.458	4.4767
543.659	4.42413
543.859	5.77407
544.059	5.78372
544.259	5.11562
544.459	6.03799
544.659	4.84909
544.859	5.60337
545.059	4.80223
545.259	5.88078
545.459	5.45847
545.659	5.85471
545.859	5.22309
546.059	5.34167
546.259	4.46937
546.459	4.03846
546.659	4.46679
546.859	5.77619
547.059	5.42526
547.258	5.66479
547.458	5.66709
547.658	4.47607
547.858	4.55622
548.058	5.74089
548.258	5.31902
548.457	4.80837
548.657	8.16937
548.857	5.31296
549.057	6.21294
549.256	6.10618
549.456	5.44527
549.656	3.78651
549.855	7.60322
550.055	5.34688
550.255	7.4129
550.454	6.15786
550.654	6.66404
550.853	7.19003
551.053	6.7634
551.253	6.01873
551.452	6.05234
551.652	4.63488
551.851	4.13337
552.051	5.37023
552.25	4.85598
552.45	4.78368
552.649	5.14788
552.849	4.79898
553.048	5.47605
553.248	6.18033
553.447	4.61182
553.646	6.69912
553.846	7.50847
554.045	6.81364
554.244	4.58907
554.444	7.5978
554.643	4.6799
554.842	7.34062
555.042	8.25291
555.241	5.22048
555.44	4.81115
555.64	6.29416
555.839	7.63949
556.038	6.6878
556.237	5.60418
556.436	5.75152
556.636	6.53761
556.835	4.99812
557.034	7.71243
557.233	5.69114
557.432	4.64073
557.631	7.19388
557.83	6.01728
558.029	5.38358
558.228	5.63052
558.427	4.88358
558.626	6.52021
558.825	4.98527
559.024	6.46334
559.223	8.13994
559.422	5.82323
559.621	6.7619
559.82	3.389
560.019	6.07168
560.218	5.60494
560.417	2.84032
560.616	5.53973
560.815	9.64012
561.014	4.43521
561.212	7.25761
561.411	6.0129
561.61	3.98708
561.809	5.49474
562.008	7.86955
562.206	5.69916
562.405	6.5762
562.604	5.81086
562.803	6.34505
563.001	5.98301
563.2	4.35008
563.399	6.6315
563.597	4.71866
563.796	6.11058
563.995	4.49688
564.193	6.52219
564.392	5.39674
564.59	8.69352
564.789	3.83473
564.988	5.38073
565.186	6.13303
565.385	5.5926
565.583	5.13681
565.782	5.58183
565.98	5.36349
566.179	5.52794
566.377	4.28113
566.575	4.87924
566.774	6.73573
566.972	6.87466
567.171	7.87713
567.369	7.2682
567.567	5.95717
567.766	6.188
567.964	3.62051
568.162	6.68754
568.361	7.36753
568.559	5.79724
568.757	6.29607
568.956	5.89548
569.154	5.96987
569.352	7.08928
569.55	5.78028
569.748	5.91344
569.947	5.01603
570.145	5.03194
570.343	4.68641
570.541	7.2304
570.739	4.5296
570.937	5.99978
571.135	6.19635
571.333	7.64086
571.532	7.66493
571.73	6.10294
571.928	7.02877
572.126	6.37512
572.324	5.51253
572.522	7.33474
572.72	8.57542
572.918	5.79851
573.116	6.30938
573.313	5.99298
573.511	5.7494
573.709	5.47176
573.907	6.73532
574.105	5.4938
574.303	4.09667
574.501	4.32972
574.699	6.36038
574.896	6.42663
575.094	6.49868
575.292	4.48801
575.49	7.12005
575.688	6.0226
575.885	7.60234
576.083	8.22921
576.281	6.5171
576.478	5.60256
576.676	7.0356
576.874	4.7569
577.071	5.85095
577.269	9.3126
577.467	6.18156
577.664	6.35423
577.862	7.48169
578.059	5.31411
578.257	7.54282
578.455	6.15454
578.652	6.67869
578.85	4.37025
579.047	6.80568
579.245	6.52088
579.442	6.34219
579.64	6.3334
579.837	4.38244
580.034	9.85718
580.232	6.25141
580.429	5.33543
580.627	7.17455
580.824	8.30483
581.021	7.3793
581.219	5.99799
581.416	5.36476
581.613	8.60628
581.811	8.55305
582.008	5.83352
582.205	7.84972
582.402	6.90515
582.6	8.63124
582.797	6.97006
582.994	7.81178
583.191	7.89544
583.388	7.13972
583.586	8.16329
583.783	8.23117
583.98	5.91662
584.177	6.87751
584.374	2.64396
584.571	7.01628
584.768	6.9997
584.965	6.62705
585.162	7.94338
585.359	9.40773
585.556	6.67401
585.753	7.51158
585.95	5.34853
586.147	5.96996
586.344	7.69016
586.541	6.94043
586.738	5.35565
586.935	6.89418
587.132	5.90688
587.329	8.64877
587.526	6.79067
587.722	14.02432
587.919	5.1494
588.116	7.76028
588.313	8.96691
588.51	10.19579
588.706	6.82633
588.903	7.71592
589.1	8.24234
589.297	10.83419
589.493	6.7902
589.69	7.77029
589.887	5.97576
590.083	5.13207
590.28	5.85556
590.477	8.28984
590.673	8.01528
590.87	9.06039
591.067	6.46617
591.263	7.66697
591.46	7.83601
591.656	6.62968
591.853	8.8965
592.049	5.86863
592.246	6.58084
592.442	9.37975
592.639	8.30449
592.835	5.5036
593.032	7.79233
593.228	4.9995
593.425	5.23848
593.621	4.85048
593.817	7.4598
594.014	6.14416
594.21	7.10905
594.406	8.31509
594.603	7.59257
594.799	6.33764
594.995	3.553
595.192	8.40681
595.388	6.37663
595.584	6.23057
595.78	4.8042
595.977	9.77738
596.173	9.23017
596.369	6.22679
596.565	5.3831
596.761	4.49298
596.957	8.38625
597.154	5.44625
597.35	5.88005
597.546	5.61495
597.742	7.37366
597.938	7.21262
598.134	5.60261
598.33	7.25315
598.526	9.6779
598.722	8.05162
598.918	9.86376
599.114	8.01227
599.31	6.14769
599.506	7.57163
599.702	6.10011
599.898	8.08386
600.094	8.99251
600.29	8.79251
600.485	8.34083
600.681	6.67292
600.877	10.2608
601.073	7.70408
601.269	10.43941
601.465	9.62011
601.66	6.25853
601.856	4.66209
602.052	9.92522
602.248	6.66116
602.443	4.1023
602.639	5.23755
602.835	5.84841
603.03	5.73358
603.226	8.15186
603.422	5.5616
603.617	6.28007
603.813	5.99327
604.009	5.6316
604.204	8.19984
604.4	4.42533
604.595	7.89856
604.791	5.26241
604.986	6.97338
605.182	5.47859
605.377	5.96726
605.573	5.84905
605.768	7.08498
605.964	7.63114
606.159	8.21847
606.355	9.13943
606.55	6.95578
606.746	8.7693
606.941	7.50803
607.136	10.81825
607.332	12.02489
607.527	5.28345
607.722	7.86973
607.918	7.08506
608.113	5.76132
608.308	8.09998
608.503	7.85126
608.699	7.57072
608.894	7.55655
609.089	5.80181
609.284	7.36662
609.479	6.18269
609.675	7.72711
609.87	6.3533
610.065	7.77244
610.26	8.59568
610.455	8.39113
610.65	6.73134
610.845	7.9052
611.04	9.08327
611.235	7.22082
611.43	6.92292
611.625	5.46236
611.82	9.83528
612.015	6.33813
612.21	10.66105
612.405	5.56214
612.6	11.32709
612.795	10.27882
612.99	9.63868
613.185	6.11676
613.38	6.16419
613.575	8.67384
613.77	12.78232
613.965	5.31705
614.159	6.43187
614.354	10.70795
614.549	10.05046
614.744	9.53107
614.938	6.14675
615.133	5.7918
615.328	10.15666
615.523	10.35758
615.717	13.55906
615.912	7.14132
616.107	8.58812
616.301	7.77221
616.496	6.60331
616.691	11.49042
616.885	9.43311
617.08	12.91187
617.274	10.86245
617.469	12.58352
617.664	9.69427
617.858	7.08403
618.053	8.99173
618.247	7.9232
618.442	4.15436
618.636	10.8525
618.831	7.48382
619.025	7.72714
619.219	13.25629
619.414	2.10581
619.608	8.51414
619.803	6.65358
619.997	12.45576
620.191	10.67933
620.386	9.26487
620.58	8.38133
620.774	4.96474
620.969	5.21375
621.163	8.88685
621.357	6.07507
621.551	7.88209
621.746	8.81309
621.94	8.59195
622.134	15.65482
622.328	13.19222
622.522	5.85272
622.716	10.92913
622.911	10.4417
623.105	10.54838
623.299	9.29978
623.493	15.42869
623.687	6.62371
623.881	7.89063
624.075	9.67814
624.269	11.21928
624.463	5.0756
624.657	5.50863
624.851	9.7217
625.045	10.59803
625.239	9.98372
625.433	7.01783
625.627	11.24218
625.821	7.33375
626.015	6.37349
626.209	8.32524
626.403	5.35624
626.596	8.98888
626.79	9.56353
626.984	5.6331
627.178	8.82705
627.372	9.01314
627.565	9.96942
627.759	5.35327
627.953	5.75407
628.147	8.80416
628.34	9.7058
628.534	12.35688
628.728	7.82862
628.921	10.55059
629.115	10.04601
629.309	10.24946
629.502	11.08808
629.696	9.57158
629.89	8.565
630.083	9.04066
630.277	9.70172
630.47	12.87214
630.664	8.49136
630.857	5.91027
631.051	11.01681
631.244	11.75372
631.438	10.91549
631.631	7.06071
631.825	12.0587
632.018	10.32579
632.212	12.91841
632.405	11.98649
632.598	7.52513
632.792	9.17827
632.985	3.47976
633.178	7.90221
633.372	8.7185
633.565	8.58468
633.758	11.93844
633.952	7.06391
634.145	7.21267
634.338	7.92116
634.531	7.98219
634.724	7.34182
634.918	9.56155
635.111	8.49127
635.304	8.03723
635.497	14.39379
635.69	10.13204
635.883	11.85924
636.077	6.60421
636.27	10.5212
636.463	9.7692
636.656	10.79873
636.849	8.12234
637.042	10.14647
637.235	13.84596
637.428	11.45425
637.621	10.58863
637.814	13.35281
638.007	13.35146
638.2	14.01591
638.393	14.96408
638.586	6.94598
638.778	8.34587
638.971	10.35582
639.164	13.88719
639.357	11.32279
639.55	14.05371
639.743	12.52676
639.935	11.55862
640.128	15.84941
640.321	12.90786
640.514	10.75826
640.707	16.53193
640.899	12.33353
641.092	6.25964
641.285	30.37675
641.477	5.0253
641.67	16.45726
641.863	14.07256
642.055	11.11271
642.248	11.72396
642.441	9.84182
642.633	11.58692
642.826	13.9938
643.018	13.94846
643.211	15.51861
643.403	15.33521
643.596	17.08401
643.788	15.86478
643.981	10.32071
644.173	12.99192
644.366	9.95824
644.558	6.58916
644.751	13.48016
644.943	7.18244
645.135	16.47344
645.328	16.5844
645.52	13.66971
645.712	14.13352
645.905	21.10471
646.097	8.30175
646.289	12.43288
646.482	16.85969
646.674	9.86542
646.866	14.61393
647.058	13.27861
647.251	8.42188
647.443	10.06958
647.635	11.074
647.827	8.99741
648.019	8.3588
648.211	11.66134
648.404	12.63495
648.596	16.14203
648.788	12.91892
648.98	13.14378
649.172	13.05725
649.364	12.62122
649.556	6.60664
649.748	18.56981
649.94	8.30243
650.132	13.65567
650.324	8.87171
650.516	9.59948
650.708	14.91908
650.9	7.08248
651.092	6.88315
651.284	6.76036
651.476	8.0985
651.667	13.56538
651.859	15.48702
652.051	11.63759
652.243	12.54036
652.435	10.17159
652.627	13.05353
652.818	13.66308
653.01	7.34917
653.202	9.40738
653.394	11.33625
653.585	13.58849
653.777	25.39035
653.969	15.56131
654.16	16.02414
654.352	8.90731
654.544	11.19451
654.735	16.01503
654.927	12.27442
655.118	16.7783
655.31	15.06094
655.502	15.39335
655.693	10.2794
655.885	13.7936
656.076	16.97076
656.268	12.51521
656.459	16.15617
656.651	17.10332
656.842	10.59822
657.034	9.15264
657.225	14.32855
657.416	16.56829
657.608	15.82413
657.799	11.3653
657.99	14.06936
658.182	9.01647
658.373	9.5687
658.564	13.85096
658.756	11.21217
658.947	10.89789
659.138	8.56519
659.33	9.59419
659.521	9.05789
659.712	10.62465
659.903	10.62729
660.094	9.70065
660.286	7.24671
660.477	17.3292
660.668	13.54305
660.859	12.24691
661.05	7.9439
661.241	14.35324
661.432	14.17723
661.623	11.86534
661.814	10.81013
662.006	7.58985
662.197	14.11018
662.388	16.09397
662.579	13.54371
662.77	17.7854
662.96	22.55448
663.151	16.46775
663.342	7.91801
663.533	14.99333
663.724	12.64613
663.915	18.14944
664.106	12.96247
664.297	20.29608
664.488	15.88288
664.678	11.36665
664.869	15.79513
665.06	16.87449
665.251	14.72466
665.442	15.5685
665.632	10.52315
665.823	20.69443
666.014	4.13546
666.204	15.72503
666.395	19.01348
666.586	24.56832
666.776	16.62547
666.967	20.01343
667.158	13.67571
667.348	19.17314
667.539	9.8977
667.729	16.89103
667.92	10.38891
668.111	16.94722
668.301	15.54104
668.492	12.57372
668.682	13.53339
668.873	12.5462
669.063	9.88007
669.253	13.88799
669.444	17.67088
669.634	13.57313
669.825	21.26658
670.015	16.94995
670.206	11.23005
670.396	22.02235
670.586	13.34357
670.777	15.72962
670.967	6.58368
671.157	13.55702
671.347	12.053
671.538	20.60427
671.728	15.96542
671.918	22.33341
672.108	18.23719
672.299	13.90743
672.489	15.27854
672.679	12.4242
672.869	16.61562
673.059	22.22106
673.249	17.26189
673.44	11.62818
673.63	13.96579
673.82	18.34938
674.01	11.16819
674.2	17.33335
674.39	26.80522
674.58	17.36519
674.77	16.02034
674.96	15.3233
675.15	31.77688
675.34	19.27504
675.53	15.22074
675.72	13.07265
675.91	9.90656
676.099	22.41509
676.289	24.56783
676.479	19.15906
676.669	13.54694
676.859	17.90082
677.049	10.98333
677.238	15.60423
677.428	22.20298
677.618	16.25911
677.808	19.75757
677.997	17.00413
678.187	10.50422
678.377	14.79992
678.567	12.59049
678.756	13.24958
678.946	13.19863
679.136	9.54479
679.325	10.87636
679.515	10.72085
679.704	8.89013
679.894	15.79988
680.084	14.78125
680.273	19.09773
680.463	10.25653
680.652	10.64946
680.842	14.17339
681.031	17.69465
681.221	10.46245
681.41	15.9868
681.6	13.80787
681.789	17.55772
681.978	19.93272
682.168	15.9255
682.357	16.84971
682.547	18.37055
682.736	15.94112
682.925	20.73637
683.115	21.06354
683.304	18.94808
683.493	17.47749
683.682	18.01988
683.872	17.17539
684.061	20.81138
684.25	18.9839
684.439	24.71242
684.629	19.56928
684.818	31.56262
685.007	15.3959
685.196	15.39205
685.385	24.18301
685.574	18.86474
685.763	17.41126
685.952	17.95557
686.142	12.0093
686.331	23.06947
686.52	9.00853
686.709	24.15038
686.898	23.65286
687.087	20.57204
687.276	24.56537
687.465	21.10841
687.654	14.80358
687.842	24.33432
688.031	10.45647
688.22	22.22329
688.409	17.87675
688.598	18.14622
688.787	29.41857
688.976	17.82546
689.165	26.08247
689.353	15.97442
689.542	19.26224
689.731	21.43405
689.92	27.71826
690.108	22.30153
690.297	16.87616
690.486	18.54876
690.675	21.62235
690.863	27.09812
691.052	26.23273
691.241	20.47697
691.429	20.51595
691.618	25.96772
691.806	12.67547
691.995	18.28239
692.184	18.71462
692.372	16.39447
692.561	19.11631
692.749	18.60427
692.938	32.15702
693.126	21.6001
693.315	16.48132
693.503	22.17263
693.692	22.79604
693.88	24.52007
694.068	31.15551
694.257	19.14073
694.445	21.10829
694.634	9.59804
694.822	25.66043
695.01	26.20521
695.199	27.3604
695.387	28.64291
695.575	27.33053
695.763	18.86029
695.952	18.16447
696.14	11.73056
696.328	16.46936
696.516	19.3048
696.705	21.36487
696.893	20.14493
697.081	10.18963
697.269	21.79866
697.457	12.89334
697.645	11.59627
697.833	21.02856
698.021	12.39843
698.21	14.76971
698.398	16.37404
698.586	11.26853
698.774	10.89172
698.962	15.02643
699.15	11.70359
699.338	9.67303
699.526	18.63546
699.714	13.59444
699.901	15.10522
700.089	22.71239
700.277	13.97062
700.465	16.86543
700.653	22.91066
700.841	21.02226
701.029	15.14848
701.217	25.31096
701.404	20.52478
701.592	27.11496
701.78	30.93397
701.968	17.04049
702.155	17.97797
702.343	12.99235
702.531	27.29413
702.718	22.44744
702.906	19.60534
703.094	16.00972
703.281	28.2998
703.469	18.20963
703.657	27.11207
703.844	39.55384
704.032	31.56235
704.219	17.66188
704.407	23.64667
704.595	29.08901
704.782	21.63643
704.97	19.02358
705.157	19.48689
705.345	32.15662
705.532	37.25087
705.719	24.06719
705.907	30.34864
706.094	22.06683
706.282	33.17481
706.469	20.23996
706.656	22.94044
706.844	20.58506
707.031	27.61007
707.218	22.42155
707.406	32.54083
707.593	27.49591
707.78	26.38484
707.968	21.17056
708.155	17.03701
708.342	26.24623
708.529	26.58098
708.716	23.32199
708.904	33.42886
709.091	27.39599
709.278	16.05899
709.465	33.85407
709.652	35.30444
709.839	31.47688
710.026	24.7951
710.213	13.41277
710.4	24.76858
710.587	29.08116
710.774	32.03027
710.961	31.04882
711.148	23.82185
711.335	31.82796
711.522	23.38848
711.709	25.17684
711.896	37.52406
712.083	28.9836
712.27	19.06786
712.457	25.57082
712.644	15.42705
712.831	38.42189
713.017	25.56321
713.204	29.50558
713.391	19.38978
713.578	33.74212
713.765	33.33294
713.951	28.31379
714.138	45.01333
714.325	29.95963
714.512	24.66633
714.698	20.95249
714.885	34.89487
715.072	27.81386
715.258	26.9882
715.445	22.7139
715.631	34.96798
715.818	9.22049
716.005	22.0808
716.191	29.5742
716.378	24.46824
716.564	32.43066
716.751	20.52978
716.937	23.02454
717.124	35.19646
717.31	21.95118
717.497	38.15562
717.683	20.67251
717.869	44.98721
718.056	24.51378
718.242	32.26439
718.429	27.51206
718.615	19.65813
718.801	27.63732
718.988	34.97675
719.174	30.82929
719.36	25.72701
719.547	39.45428
719.733	30.39065
719.919	30.55118
720.105	33.01128
720.291	28.21075
720.478	30.16402
720.664	27.25352
720.85	25.51079
721.036	50.30718
721.222	40.90651
721.408	27.60383
721.595	43.82318
721.781	43.87728
721.967	38.98056
722.153	43.44255
722.339	35.57072
722.525	33.11359
722.711	22.66842
722.897	17.36359
723.083	25.97352
723.269	39.38025
723.455	51.67581
723.641	54.7356
723.827	32.99527
724.012	34.82685
724.198	28.01097
724.384	42.34597
724.57	34.18835
724.756	17.98396
724.942	13.10313
725.127	39.57511
725.313	41.99634
725.499	42.46474
725.685	47.5109
725.87	34.67751
726.056	23.65703
726.242	41.57596
726.428	17.44776
726.613	39.42577
726.799	29.96395
726.985	22.00635
727.17	19.34018
727.356	46.04274
727.541	22.74086
727.727	30.10402
727.913	38.48346
728.098	26.43713
728.284	37.27397
728.469	21.03933
728.655	25.37542
728.84	37.98284
729.026	38.6904
729.211	37.67067
729.397	32.82797
729.582	37.30856
729.767	30.51979
729.953	33.45351
730.138	39.33213
730.323	12.68874
730.509	22.74582
730.694	44.6894
730.879	35.36888
731.065	32.87254
731.25	51.18687
731.435	37.81565
731.621	19.31749
731.806	25.19011
731.991	33.97151
732.176	20.27298
732.361	43.31903
732.547	32.92141
732.732	18.31924
732.917	51.89332
733.102	22.83803
733.287	25.80789
733.472	31.71835
733.657	33.56098
733.842	20.18362
734.027	29.72238
734.212	31.07148
734.397	24.88498
734.582	33.82487
734.767	40.89128
734.952	47.60363
735.137	11.26967
735.322	48.59446
735.507	36.56335
735.692	35.71254
735.877	55.10506
736.062	51.01218
736.247	37.18888
736.431	33.31582
736.616	47.33331
736.801	37.90705
736.986	33.41222
737.171	26.24293
737.355	19.8862
737.54	44.84122
737.725	33.25768
737.909	61.6129
738.094	28.67607
738.279	41.28442
738.463	33.41607
738.648	40.98788
738.833	38.79388
739.017	53.383
739.202	32.28935
739.386	34.84436
739.571	25.55926
739.756	41.86773
739.94	35.03319
740.125	45.48889
740.309	28.76635
740.494	43.39958
740.678	37.82562
740.863	39.95512
741.047	36.72584
741.231	47.64116
741.416	26.96748
741.6	52.21124
741.785	30.02192
741.969	44.20571
742.153	49.0993
742.338	16.36476
742.522	35.00886
742.706	45.76472
742.89	24.59867
743.075	39.19319
743.259	52.89557
743.443	45.65532
743.627	48.98363
743.812	61.03831
743.996	19.96248
744.18	34.23255
744.364	31.46122
744.548	66.63348
744.732	38.03771
744.916	44.97157
745.1	43.72566
745.285	35.15978
745.469	42.0799
745.653	58.40597
745.837	22.04266
746.021	63.07923
746.205	52.03034
746.389	38.92747
746.573	32.86514
746.757	55.94258
746.94	33.21793
747.124	50.19911
747.308	25.35942
747.492	52.81031
747.676	32.26923
747.86	63.93879
748.044	33.05384
748.227	19.55956
748.411	80.71055
748.595	40.53288
748.779	25.56143
748.963	44.24084
749.146	41.01661
749.33	28.521
749.514	27.26087
749.697	53.93254
749.881	31.39584
750.065	29.01903
750.248	39.61082
750.432	67.84978
750.616	39.75076
750.799	23.53424
750.983	65.67169
751.166	72.3887
751.35	22.81663
751.533	46.16017
751.717	54.32868
751.9	57.5656
752.084	35.68349
752.267	27.91412
752.451	28.96923
752.634	41.37972
752.818	44.14515
753.001	52.26932
753.184	51.68708
753.368	44.02424
753.551	3.95914
753.734	31.47968
753.918	66.15391
754.101	31.24513
754.284	47.45389
754.467	36.08137
754.651	32.9369
754.834	30.31786
755.017	52.97765
755.2	51.30978
755.384	27.81492
755.567	48.25444
755.75	54.03567
755.933	34.27077
756.116	43.21549
756.299	31.00768
756.482	29.20582
756.665	47.93976
756.848	41.77792
757.032	44.85075
757.215	23.54521
757.398	27.7222
757.581	30.94217
757.764	73.95315
757.947	41.53948
758.129	55.89888
758.312	9.08711
758.495	38.09134
758.678	37.32053
758.861	38.28214
759.044	64.84526
759.227	30.50641
759.41	28.89196
759.592	48.41209
759.775	39.06137
759.958	55.14062
760.141	25.73332
760.324	69.96885
760.506	60.25626
760.689	53.16314
760.872	71.08501
761.054	47.93596
761.237	36.20258
761.42	44.91363
761.602	51.10218
761.785	45.9028
761.968	51.8053
762.15	64.35295
762.333	37.19745
762.515	44.07875
762.698	31.33433
762.88	47.78199
763.063	41.75677
763.245	47.06437
763.428	28.31969
763.61	31.42801
763.793	22.65651
763.975	40.55483
764.158	32.12898
764.34	31.38173
764.522	25.60541
764.705	36.18125
764.887	53.54104
765.069	21.6822
765.252	49.21001
765.434	50.91342
765.616	40.21628
765.799	33.9528
765.981	51.87691
766.163	28.92634
766.345	52.73137
766.528	33.72823
766.71	11.88794
766.892	42.41591
767.074	57.81585
767.256	38.4196
767.438	66.68557
767.62	49.8089
767.802	73.01301
767.985	51.75693
768.167	70.05178
768.349	33.59799
768.531	51.9504
768.713	49.15578
768.895	55.08595
769.077	51.44437
769.259	82.5109
769.441	118.95085
769.623	59.31964
769.804	71.62641
769.986	68.49482
770.168	86.24923
770.35	100.81247
770.532	71.26463
770.714	77.07947
770.896	82.05044
771.077	26.88307
771.259	81.11967
771.441	67.57171
771.623	90.71801
771.804	116.54251
771.986	32.42851
772.168	50.57568
772.35	87.85353
772.531	121.18245
772.713	67.69261
772.894	89.43181
773.076	61.77954
773.258	52.6733
773.439	93.58472
773.621	99.5406
773.802	42.72153
773.984	52.92429
774.166	73.07696
774.347	99.7371
774.529	87.74968
774.71	20.477
774.891	62.55493
775.073	54.98505
775.254	98.38962
775.436	54.26828
775.617	111.02179
775.799	56.27297
775.98	105.96556
776.161	103.17689
776.343	103.25237
776.524	62.91061
776.705	59.97215
776.886	33.44062
777.068	80.15372
777.249	126.38209
777.43	115.21191
777.611	45.04321
777.793	60.30408
777.974	105.80153
778.155	57.25546
778.336	50.14362
778.517	118.53771
778.698	52.23213
778.879	29.0578
779.061	12.34688
779.242	77.98182
779.423	75.55617
779.604	53.0678
779.785	64.97305
779.966	68.88935
780.147	91.55332
780.328	96.26073
780.509	134.36904
780.69	79.21858
780.871	51.6471
781.051	35.89869
781.232	73.65385
781.413	73.9367
781.594	60.5044
781.775	54.3318
781.956	52.49564
782.137	27.54567
782.317	52.54545
782.498	75.63568
782.679	67.39493
782.86	69.40372
783.04	51.0814
783.221	72.90295
783.402	118.11989
783.583	71.51832
783.763	85.74445
783.944	57.6763
784.124	35.04715
784.305	108.43349
784.486	79.76574
784.666	59.63794
784.847	31.59925
785.027	132.35871
785.208	50.74148
785.388	51.26546
785.569	53.31618
785.749	59.37158
785.93	54.29629
786.11	34.69159
786.291	74.84562
786.471	69.98674
786.652	85.52104
786.832	66.95412
787.012	76.09899
787.193	39.48163
787.373	66.97412
787.553	56.76665
787.734	70.48355
787.914	58.86458
788.094	79.45286
788.275	73.39517
788.455	61.42219
788.635	39.08475
788.815	73.50019
788.995	45.84643
789.176	35.35968
789.356	49.5696
789.536	62.78539
789.716	79.04133
789.896	51.97855
790.076	56.07814
790.256	71.77434
790.436	19.62551
790.616	49.37477
790.796	72.42532
790.976	56.08886
791.156	52.11415
791.336	85.92092
791.516	76.62531
791.696	60.90533
791.876	33.18986
792.056	69.02979
792.236	86.16889
792.416	85.46166
792.596	76.88622
792.776	78.40092
792.956	79.71337
793.135	99.02096
793.315	43.89737
793.495	97.12826
793.675	81.68383
793.854	87.14015
794.034	88.73463
794.214	38.55004
794.394	83.62281
794.573	94.55192
794.753	70.59809
794.933	48.46009
795.112	68.37053
795.292	86.09129
795.472	111.12118
795.651	37.7803
795.831	62.49925
796.01	58.33927
796.19	62.05159
796.369	62.12431
796.549	78.39433
796.728	60.2837
796.908	38.47061
797.087	41.9111
797.267	58.42216
797.446	41.27316
797.626	78.45563
797.805	79.59647
797.984	48.25517
798.164	81.07927
798.343	43.00294
798.522	71.58557
798.702	67.44915
798.881	41.79694
799.06	64.00987
799.239	24.64734
799.419	48.19908
799.598	103.03643
799.777	79.9936
799.956	95.24812
800.136	58.43993
800.315	49.7825
800.494	77.30075
800.673	88.03803
800.852	81.73304
801.031	95.4047
801.21	80.41944
801.389	58.11245
801.568	71.67636
801.747	114.55991
801.926	65.30864
802.105	105.07226
802.284	55.94271
802.463	104.44017
802.642	74.99833
802.821	72.54677
803	101.49371
803.179	87.29186
803.358	94.70672
803.537	54.19995
803.716	70.93473
803.895	50.75742
804.073	63.4344
804.252	50.08188
804.431	77.11671
804.61	63.30734
804.789	97.43658
804.967	54.0048
805.146	55.06019
805.325	117.77771
805.503	78.19608
805.682	34.91765
805.861	134.081
806.039	97.99331
806.218	48.8872
806.397	72.52929
806.575	67.37463
806.754	75.98202
806.932	49.49834
807.111	106.05409
807.289	93.61139
807.468	74.63164
807.646	91.31562
807.825	83.90043
808.003	76.42596
808.182	94.39998
808.36	73.56428
808.539	50.5303
808.717	105.81416
808.895	52.48544
809.074	76.98848
809.252	63.47072
809.43	92.17876
809.609	97.82204
809.787	109.82558
809.965	66.80964
810.144	73.46701
810.322	58.93425
810.5	84.47412
810.678	65.17673
810.856	135.17121
811.035	93.84416
811.213	88.92496
811.391	98.37447
811.569	70.82035
811.747	143.5717
811.925	101.34122
812.103	56.74902
812.281	63.23239
812.459	122.72169
812.637	119.89721
812.816	95.93547
812.994	125.02425
813.171	101.86058
813.349	87.11771
813.527	99.55954
813.705	119.68176
813.883	141.56402
814.061	105.74432
814.239	133.17705
814.417	137.42552
814.595	92.5752
814.773	83.81956
814.95	85.31107
815.128	93.09397
815.306	78.50914
815.484	69.97651
815.662	54.41719
815.839	48.09158
816.017	60.70284
816.195	105.57161
816.372	68.95334
816.55	98.15806
816.728	119.01597
816.905	69.76722
817.083	126.99607
817.261	69.90133
817.438	138.26089
817.616	132.09811
817.793	65.22902
817.971	94.47024
818.148	91.20401
818.326	115.09298
818.503	84.7048
818.681	115.17185
818.858	62.23148
819.036	75.83989
819.213	82.59063
819.391	56.96156
819.568	52.84694
819.745	48.96517
819.923	93.39884
820.1	58.43727
820.277	52.70909
820.455	62.32171
820.632	67.20933
820.809	65.65784
820.986	40.70326
821.164	31.45015
821.341	27.53067
821.518	38.46649
821.695	25.90162
821.872	23.46598
822.05	19.75567
822.227	14.06772
822.404	15.40071
822.581	19.54647
822.758	14.79755
822.935	15.40101
823.112	18.7137
823.289	13.6318
823.466	20.00151
823.643	18.07913
823.82	24.11761
823.997	21.23098
824.174	27.45572
824.351	39.70887
824.528	37.74682
824.705	33.21157
824.882	36.98177
825.059	50.28514
825.236	31.48586
825.412	35.11195
825.589	44.589
825.766	63.3117
825.943	36.90866
826.12	44.6669
826.296	28.04999
826.473	35.70883
826.65	35.79747
826.827	47.30833
827.003	28.51115
827.18	32.77872
827.357	37.9584
827.533	32.69776
827.71	15.42325
827.887	28.40518
828.063	35.10953
828.24	29.30973
828.416	44.27521
828.593	35.98297
828.769	54.97996
828.946	64.57493
829.122	65.94512
829.299	60.64366
829.475	32.2836
829.652	58.65768
829.828	105.43436
830.005	62.57089
830.181	85.38232
830.357	58.77707
830.534	88.37103
830.71	62.98268
830.886	85.09876
831.063	84.31377
831.239	104.40383
831.415	44.3295
831.592	106.2054
831.768	66.07059
831.944	50.57968
832.12	105.51559
832.296	96.89681
832.473	87.10382
832.649	59.78246
832.825	79.84049
833.001	43.31955
833.177	67.78591
833.353	62.05728
833.529	33.42492
833.705	50.95689
833.881	35.26987
834.058	34.85123
834.234	38.77828
834.41	37.92942
834.586	29.97662
834.761	39.09868
834.937	43.91468
835.113	48.11861
835.289	41.42264
835.465	52.66632
835.641	45.62319
835.817	55.13669
835.993	96.66333
836.169	43.32769
836.344	71.19353
836.52	82.26309
836.696	79.01213
836.872	56.26854
837.048	162.12081
837.223	65.13749
837.399	142.58408
837.575	105.82391
837.75	92.13819
837.926	129.17469
838.102	202.85337
838.277	167.07806
838.453	198.48837
838.628	189.7729
838.804	81.61207
838.98	196.04593
839.155	88.47851
839.331	125.38153
839.506	86.26298
839.682	84.79926
839.857	108.5358
840.033	129.95849
840.208	64.6913
840.384	29.24035
840.559	68.43158
840.734	108.42859
840.91	152.4647
841.085	89.02965
841.26	93.09286
841.436	76.32709
841.611	78.19436
841.786	135.08725
841.962	171.38786
842.137	109.07305
842.312	65.49602
842.487	86.87032
842.663	72.52676
842.838	89.17381
843.013	267.64909
843.188	142.68052
843.363	149.31558
843.538	257.91688
843.714	258.72861
843.889	258.43991
844.064	250.11671
844.239	208.88754
844.414	268.53097
844.589	178.54003
844.764	294.71608
844.939	287.81126
845.114	362.55873
845.289	312.13355
845.464	359.83459
845.639	276.21805
845.814	150.87645
845.989	180.65043
846.163	184.15566
846.338	227.52769
846.513	334.67649
846.688	210.12711
846.863	216.68322
847.038	179.86379
847.212	222.10059
847.387	212.34196
847.562	220.3287
847.737	244.20366
847.911	109.30175
848.086	142.60956
848.261	418.59883
848.435	203.11338
848.61	306.63051
848.785	146.07777
848.959	273.24738
849.134	369.65839
849.308	502.08781
849.483	222.91957
849.658	323.20176
849.832	206.8357
850.007	163.79019
850.181	409.57222
850.356	177.81464
850.53	369.42241
850.705	140.3015
850.879	72.58346
851.053	215.92734
851.228	188.08705
851.402	273.99956
851.577	325.90966
851.751	314.2063
851.925	229.29376
852.099	98.66748
852.274	166.77331
852.448	216.00668
852.622	278.38674
852.797	214.50392
852.971	213.14832
853.145	256.02991
853.319	449.81249
853.493	335.67793
853.668	193.85958
853.842	380.67225
854.016	309.69511
854.19	416.96593
854.364	244.36223
854.538	269.72882
854.712	348.82777
854.886	239.67667
855.06	196.80744
855.234	76.76736
855.408	377.22946
855.582	335.26649
855.756	318.5188
855.93	385.32243
856.104	273.67768
856.278	324.42196
856.452	225.2133
856.626	281.81663
856.8	451.94595
856.973	312.97156
857.147	281.61509
857.321	276.50018
857.495	332.81071
857.669	232.2538
857.842	216.6353
858.016	363.24158
858.19	147.51945
858.364	562.88728
858.537	221.13369
858.711	247.42042
858.885	190.60661
859.058	171.08067
859.232	111.49741
859.405	121.0843
859.579	325.77422
859.753	275.3446
859.926	174.72526
860.1	113.43714
860.273	233.09229
860.447	421.05346
860.62	230.74714
860.794	440.0749
860.967	243.41666
861.141	341.11054
861.314	471.70098
861.487	284.05675
861.661	345.14597
861.834	408.69074
862.008	313.32118
862.181	257.29585
862.354	254.64837
862.528	281.64145
862.701	178.51068
862.874	123.87601
863.047	198.7188
863.221	228.3057
863.394	99.61713
863.567	342.78271
863.74	64.79253
863.913	340.23669
864.087	282.31192
864.26	307.90608
864.433	203.95475
864.606	464.57435
864.779	233.45714
864.952	109.5397
865.125	190.31889
865.298	226.75909
865.471	239.86747
865.644	403.36681
865.817	315.12427
865.99	306.08526
866.163	383.02534
866.336	193.17094
866.509	224.8034
866.682	176.21951
866.855	334.10503
867.028	119.91814
867.2	290.68105
867.373	80.30599
867.546	250.83387
867.719	412.91197
867.892	237.54418
868.064	164.45939
868.237	258.07818
868.41	246.39508
868.583	108.50209
868.755	129.07465
868.928	201.40589
869.101	437.81129
869.273	309.71573
869.446	262.91584
869.619	370.74042
869.791	212.61172
869.964	335.63856
870.136	299.55202
870.309	246.09359
870.481	250.2558
870.654	131.41136
870.826	243.59714
870.999	198.90416
871.171	296.53439
871.344	180.1704
871.516	226.58849
871.689	157.55403
871.861	251.49008
872.033	171.72933
872.206	209.91756
872.378	316.5629
872.55	225.31141
872.723	142.309
872.895	204.67608
873.067	334.28312
873.24	296.98471
873.412	183.25092
873.584	212.76433
873.756	209.80358
873.928	252.35473
874.101	248.01219
874.273	260.11702
874.445	97.90492
874.617	143.78167
874.789	222.17473
874.961	190.02102
875.133	266.68964
875.305	222.26886
875.477	147.65748
875.649	110.44626
875.821	150.72399
875.993	351.04077
876.165	144.74774
876.337	231.19765
876.509	226.82002
876.681	233.62499
876.853	246.77486
877.025	242.84537
877.197	159.8374
877.369	143.74103
877.541	264.20722
877.712	76.42615
877.884	130.18486
878.056	240.51028
878.228	127.56699
878.4	252.35762
878.571	135.63688
878.743	91.64604
878.915	195.06839
879.086	127.97697
879.258	156.00955
879.43	131.41205
879.601	115.71674
879.773	123.10675
879.945	28.39093
880.116	48.0144
880.288	28.126
880.459	33.38728
880.631	22.1371
880.802	29.00141
880.974	27.61381
881.145	17.063
881.317	24.63755
881.488	17.24906
881.66	20.1148
881.831	17.82086
882.002	28.47291
882.174	18.2463
882.345	26.65188
882.517	10.85573
882.688	35.39836
882.859	27.10252
883.03	50.17834
883.202	49.18178
883.373	40.28788
883.544	40.79449
883.715	73.66048
883.887	59.62378
884.058	50.82708
884.229	74.02905
884.4	74.68991
884.571	83.40159
884.742	71.18328
884.914	72.21259
885.085	109.36436
885.256	140.31654
885.427	118.92939
885.598	134.38739
885.769	142.73687
885.94	133.56094
886.111	86.93034
886.282	168.21835
886.453	130.09478
886.624	94.02103
886.795	178.81357
886.966	136.29308
887.136	187.34414
887.307	141.00277
887.478	251.63781
887.649	209.09636
887.82	212.64031
887.991	173.87728
888.161	249.67844
888.332	202.84494
888.503	121.60997
888.674	291.70721
888.844	332.60121
889.015	249.88033
889.186	127.67492
889.356	312.90808
889.527	109.4555
889.698	463.13771
889.868	160.59077
890.039	241.52313
890.209	185.14034
890.38	241.83658
890.551	216.9737
890.721	309.00895
890.892	271.7332
891.062	196.36052
891.233	240.06135
891.403	178.92059
891.574	146.69859
891.744	188.56887
891.914	196.19949
892.085	185.21276
892.255	70.18713
892.425	290.88888
892.596	223.47541
892.766	222.10644
892.936	284.55226
893.107	235.89541
893.277	132.61413
893.447	106.71602
893.618	67.45965
893.788	155.95991
893.958	88.85209
894.128	75.66868
894.298	92.25859
894.468	118.20108
894.639	54.32951
894.809	33.38149
894.979	63.96671
895.149	74.34343
895.319	63.58195
895.489	93.269
895.659	119.27344
895.829	80.84113
895.999	87.73026
896.169	68.37439
896.339	88.01595
896.509	189.51896
896.679	192.74325
896.849	196.95863
897.019	261.49112
897.189	184.67946
897.358	167.83613
897.528	264.16895
897.698	91.27353
897.868	235.49929
898.038	393.71657
898.208	360.79345
898.377	96.20014
898.547	334.22711
898.717	468.6112
898.886	238.94318
899.056	395.10926
899.226	471.03572
899.395	306.50759
899.565	465.42472
899.735	311.38033
899.904	466.80764
900.074	394.84092
900.244	160.51204
900.413	616.16256
900.583	141.177
900.752	293.24744
900.922	395.73052
901.091	55.52625
901.261	345.11698
901.43	331.93482
901.599	336.36588
901.769	711.70669
901.938	459.14579
902.108	344.86985
902.277	452.0561
902.446	105.8361
902.616	157.73802
902.785	203.00913
902.954	356.19023
903.124	218.48846
903.293	159.28159
903.462	99.28276
903.631	144.13728
903.801	103.01693
903.97	53.7192
904.139	88.99429
904.308	69.22239
904.477	57.51861
904.646	35.75771
904.816	54.47613
904.985	85.46478
905.154	143.01098
