Data from WindowProjectSample_Transmission__58__00058.txt Node

Date: Sat May 03 16:57:15 EDT 2025
User: jessi
Spectrometer: SR400872
Trigger mode: 0
Integration Time (sec): 5.000010E-1
Scans to average: 6
Electric dark correction enabled: true
Nonlinearity correction enabled: true
Boxcar width: 0
XAxis mode: Wavelengths
Number of Pixels in Spectrum: 3648
>>>>>Begin Spectral Data<<<<<
184.909	172444.41763
185.132	1664.77738
185.355	-2056.86267
185.578	3227.53248
185.801	-566.99053
186.024	6153.06843
186.247	1095.74921
186.47	961.16923
186.693	-414.81993
186.916	281.3431
187.139	9861.95841
187.362	3390.16004
187.585	2644.59529
187.808	-1508.74455
188.031	-73.3408
188.254	7993.08518
188.476	476.18902
188.699	-4389.8278
188.922	-347.33886
189.145	-4150.33968
189.368	-450.08785
189.591	-985.03834
189.813	-2200.26048
190.036	4901.88049
190.259	3812.88264
190.482	2325.45756
190.705	9018.85059
190.927	-1467.226
191.15	-1699.04912
191.373	4829.77446
191.595	-1882.60599
191.818	9383.01531
192.041	-248.03591
192.263	-2464.82008
192.486	-782.0391
192.709	9495.91873
192.931	-2614.42769
193.154	-1944.90097
193.377	4698.61491
193.599	5743.32525
193.822	-1818.4485
194.044	-1831.00611
194.267	598.85628
194.489	157.79533
194.712	2179.14482
194.934	3401.26897
195.157	-7973.9167
195.379	2034.74699
195.602	5754.25466
195.824	5253.09516
196.047	-8823.5578
196.269	-10481.52605
196.492	-1112.6354
196.714	-4705.6389
196.936	4649.0378
197.159	-2650.41991
197.381	-511.53037
197.604	918.74461
197.826	-3447.30336
198.048	-1308.50398
198.271	-12258.52921
198.493	10496.58398
198.715	-2500.63131
198.938	-866.71648
199.16	-3283.94327
199.382	1757.05603
199.604	-1537.63447
199.827	-1343.58866
200.049	-4304.13193
200.271	2717.38562
200.493	-27795.84906
200.715	4795.97997
200.938	12817.18913
201.16	-236180.14466
201.382	-5500.87073
201.604	-1077.37961
201.826	-6882.2476
202.048	-7505.78094
202.27	-5026.03295
202.492	-3703.08629
202.715	-1427.06225
202.937	-3470.07973
203.159	1096.13219
203.381	-91198.38913
203.603	-1007.46754
203.825	-1371.08691
204.047	2343.72653
204.269	-943.8696
204.491	7501.53857
204.713	-9413.31459
204.935	36132.89153
205.156	2123.63569
205.378	-7456.18452
205.6	-1668.05139
205.822	6237.75753
206.044	-230.22571
206.266	-2103.16192
206.488	783.41945
206.71	-510589.10346
206.932	-16161.7408
207.153	11387.82711
207.375	-2127.63372
207.597	15428.16763
207.819	1647.33281
208.041	6431.88851
208.262	690.80499
208.484	-1009.04749
208.706	-864.98671
208.927	11020.69509
209.149	-8358.49213
209.371	-2759.83773
209.593	-2104.47369
209.814	-4266.04164
210.036	2740.07829
210.258	-726.72359
210.479	1996.54615
210.701	793.70734
210.922	4001.97935
211.144	-1515.36627
211.366	5800.96096
211.587	-480.74333
211.809	-3617.13681
212.03	-2200.31073
212.252	-574.84681
212.473	2950.87031
212.695	-822.73701
212.916	-881.08822
213.138	715.79585
213.359	-1182.95356
213.581	-3475.81108
213.802	-1369.52518
214.024	10904.38179
214.245	-1097.71478
214.466	-214.10537
214.688	-3672.7501
214.909	-758.92239
215.131	8434.70151
215.352	-1312.2583
215.573	-243180.63883
215.795	4405.46719
216.016	-3904.62362
216.237	-586.64753
216.459	-12071.30576
216.68	-1644.73895
216.901	-1662.76873
217.122	1512.80794
217.344	-9227.97297
217.565	-1642.23276
217.786	22015.33509
218.007	1029.6621
218.228	-3873.39501
218.45	-5583.03609
218.671	-1484.86352
218.892	912.13679
219.113	1682.30071
219.334	216.70782
219.555	-6323.87103
219.776	35485.22978
219.997	-6743.71778
220.219	-9368.82877
220.44	-5105.49081
220.661	-1438.27865
220.882	14140.67769
221.103	-818.88297
221.324	2157.97568
221.545	-6718.3608
221.766	-1511.44536
221.987	-460.73686
222.208	1884.32887
222.429	6550.50456
222.65	-144.0846
222.87	-726.78986
223.091	39193.84973
223.312	720.72526
223.533	-2047.00601
223.754	3590.24375
223.975	1794.38485
224.196	-758.42996
224.417	-30748.78721
224.637	-2022.69547
224.858	294.26276
225.079	3881.00495
225.3	1669.70203
225.521	3641.31225
225.741	-2499.63497
225.962	1618.5864
226.183	900.85835
226.404	1861.49317
226.624	1913.90908
226.845	1421.35281
227.066	2489.42619
227.286	613.19165
227.507	396.08809
227.728	376.7354
227.948	525.11165
228.169	119.30959
228.389	128.40397
228.61	54.95206
228.831	85.30087
229.051	10.53066
229.272	49.22593
229.492	63.08688
229.713	21.98969
229.933	48.00751
230.154	42.55841
230.374	68.40714
230.595	52.49485
230.815	33.39079
231.036	55.24317
231.256	-10.20266
231.477	108.79162
231.697	67.01175
231.917	68.20499
232.138	78.67442
232.358	180.28536
232.579	177.06518
232.799	36.28732
233.019	161.07428
233.24	243.18225
233.46	59.32159
233.68	102.8861
233.901	100.1173
234.121	49.59
234.341	22.70108
234.561	-12.34049
234.782	36.0476
235.002	119.8945
235.222	-4.39793
235.442	90.44704
235.662	44.32785
235.883	107.18613
236.103	86.16966
236.323	69.92645
236.543	46.81096
236.763	68.68559
236.983	71.91051
237.203	75.45844
237.423	104.65726
237.643	152.68594
237.864	142.96577
238.084	37.55052
238.304	54.17689
238.524	85.33458
238.744	68.36733
238.964	109.24799
239.184	100.85279
239.404	102.12678
239.624	52.02995
239.843	99.4717
240.063	54.91834
240.283	33.02756
240.503	36.60214
240.723	34.78569
240.943	17.92571
241.163	26.90221
241.383	19.17301
241.603	9.81638
241.822	11.84447
242.042	8.7964
242.262	10.36708
242.482	12.20003
242.702	13.62494
242.921	4.41338
243.141	9.91944
243.361	8.19816
243.581	13.33612
243.8	10.13588
244.02	7.65636
244.24	14.60369
244.459	14.00527
244.679	26.96323
244.899	15.66586
245.118	20.50262
245.338	17.05041
245.558	21.11132
245.777	14.0705
245.997	12.75387
246.216	13.21408
246.436	8.33129
246.655	6.05853
246.875	4.27608
247.094	8.15277
247.314	2.45832
247.533	4.26117
247.753	6.08541
247.972	4.17084
248.192	1.60836
248.411	2.78425
248.631	5.27059
248.85	6.75204
249.07	4.67979
249.289	8.98976
249.508	6.6829
249.728	10.93078
249.947	11.14978
250.166	11.96836
250.386	7.58991
250.605	10.17436
250.824	15.69697
251.044	10.29349
251.263	36.76277
251.482	19.51013
251.701	17.10975
251.921	0.65396
252.14	5.75443
252.359	6.17921
252.578	14.37734
252.798	4.49022
253.017	12.60937
253.236	6.63118
253.455	8.3867
253.674	16.49381
253.893	8.663
254.112	10.28832
254.331	16.97426
254.551	14.57112
254.77	5.94286
254.989	22.39997
255.208	19.47266
255.427	22.46947
255.646	21.06971
255.865	32.74524
256.084	11.81738
256.303	14.74969
256.522	22.81946
256.741	4.33328
256.96	5.92288
257.179	12.08176
257.397	16.59434
257.616	7.46431
257.835	8.77765
258.054	21.34979
258.273	13.76408
258.492	15.67484
258.711	8.73563
258.93	3.56691
259.148	5.6462
259.367	5.33141
259.586	7.12703
259.805	3.26558
260.023	6.52467
260.242	5.19155
260.461	3.47336
260.68	2.18618
260.898	5.92927
261.117	1.96964
261.336	1.36624
261.554	4.95682
261.773	5.48999
261.992	1.20195
262.21	5.43944
262.429	6.52126
262.648	10.47049
262.866	11.38951
263.085	7.83642
263.303	6.99939
263.522	12.73764
263.74	13.22984
263.959	21.16271
264.178	10.6784
264.396	10.33979
264.615	6.74666
264.833	16.35995
265.051	15.10716
265.27	13.66438
265.488	15.09077
265.707	10.40819
265.925	15.41306
266.144	7.41728
266.362	8.71337
266.58	8.9013
266.799	6.43001
267.017	8.16579
267.235	7.48497
267.454	5.06505
267.672	3.10486
267.89	5.8316
268.109	6.68816
268.327	6.11058
268.545	2.05963
268.763	5.62047
268.982	2.95566
269.2	7.78459
269.418	3.5099
269.636	3.43226
269.854	6.44862
270.073	4.75135
270.291	2.28679
270.509	2.65912
270.727	6.32428
270.945	10.1957
271.163	9.94334
271.381	2.49937
271.599	3.9331
271.817	7.41467
272.036	2.72935
272.254	4.35393
272.472	3.61809
272.69	3.27973
272.908	3.45882
273.126	5.94999
273.344	7.41956
273.562	2.72549
273.779	3.95835
273.997	5.65602
274.215	6.02396
274.433	4.34755
274.651	6.25013
274.869	6.4015
275.087	4.08038
275.305	6.17165
275.523	2.98232
275.74	4.84757
275.958	7.57303
276.176	10.85981
276.394	3.81977
276.612	4.58819
276.829	4.37304
277.047	3.91752
277.265	4.47549
277.483	5.55958
277.7	6.01841
277.918	5.5073
278.136	8.83797
278.353	4.41138
278.571	2.77138
278.789	6.77284
279.006	1.73539
279.224	4.04274
279.442	7.09082
279.659	5.09899
279.877	3.54835
280.094	8.10502
280.312	1.66489
280.529	5.03769
280.747	0.96432
280.964	3.84285
281.182	8.14485
281.399	3.59142
281.617	5.45098
281.834	3.98331
282.052	3.03317
282.269	4.53899
282.487	3.71392
282.704	2.67329
282.921	3.15395
283.139	4.51133
283.356	5.65179
283.574	5.18222
283.791	2.5319
284.008	7.44241
284.226	3.78612
284.443	4.59076
284.66	5.90745
284.877	4.66897
285.095	3.04086
285.312	2.14225
285.529	1.83017
285.746	1.16954
285.964	2.57827
286.181	1.92181
286.398	2.96072
286.615	3.79949
286.832	3.61576
287.05	1.15561
287.267	2.63677
287.484	3.01817
287.701	3.73358
287.918	3.61825
288.135	3.7096
288.352	2.13707
288.569	2.05164
288.786	3.35338
289.003	2.54396
289.22	3.78524
289.437	2.36489
289.654	4.17039
289.871	4.33137
290.088	4.34928
290.305	3.18368
290.522	2.60168
290.739	2.96616
290.956	4.25529
291.173	5.21355
291.39	4.69729
291.607	3.43052
291.824	2.61802
292.04	1.73357
292.257	4.24518
292.474	4.62023
292.691	2.92857
292.908	1.65461
293.125	2.60719
293.341	1.71324
293.558	7.12816
293.775	3.11527
293.992	2.89002
294.208	1.19654
294.425	1.60266
294.642	2.60796
294.858	3.55494
295.075	1.07966
295.292	2.75124
295.508	3.48551
295.725	5.3937
295.942	2.71926
296.158	2.16409
296.375	3.18378
296.591	2.41541
296.808	2.95567
297.024	3.39391
297.241	3.62766
297.458	3.66771
297.674	0.98841
297.891	3.10062
298.107	3.07267
298.323	2.24667
298.54	4.85325
298.756	2.62019
298.973	1.84244
299.189	5.17889
299.406	3.01975
299.622	4.73571
299.838	5.19036
300.055	4.67812
300.271	2.60954
300.487	2.62173
300.704	3.09871
300.92	2.50646
301.136	7.19284
301.353	5.021
301.569	4.13954
301.785	4.63613
302.001	5.18755
302.218	4.77775
302.434	5.0289
302.65	2.82321
302.866	3.71318
303.083	7.48322
303.299	7.26609
303.515	4.498
303.731	5.34357
303.947	3.03909
304.163	4.02173
304.379	5.0404
304.595	5.07958
304.812	3.90054
305.028	3.68579
305.244	4.08069
305.46	5.43432
305.676	6.25568
305.892	6.61201
306.108	5.47102
306.324	4.4159
306.54	7.272
306.756	5.70218
306.972	5.14808
307.187	4.85489
307.403	6.27014
307.619	4.11665
307.835	5.82875
308.051	6.65565
308.267	3.46714
308.483	6.82244
308.699	5.5996
308.914	5.42945
309.13	5.0972
309.346	3.6814
309.562	4.0584
309.778	3.64605
309.993	5.86834
310.209	5.74959
310.425	3.88808
310.641	5.47089
310.856	4.33084
311.072	4.28717
311.288	5.27264
311.503	6.16585
311.719	3.34277
311.935	3.74375
312.15	6.54958
312.366	6.17485
312.581	6.28947
312.797	5.94293
313.013	6.59478
313.228	4.87715
313.444	5.02135
313.659	4.77348
313.875	5.72761
314.09	5.17577
314.306	6.67864
314.521	6.19913
314.737	6.26381
314.952	5.82955
315.168	5.43627
315.383	6.01926
315.599	4.64504
315.814	5.00175
316.029	6.13439
316.245	4.50288
316.46	3.08764
316.675	6.78519
316.891	7.75347
317.106	8.93594
317.321	5.68843
317.537	6.08823
317.752	6.60357
317.967	6.66724
318.183	4.28417
318.398	4.89825
318.613	6.53343
318.828	7.42806
319.043	6.07476
319.259	5.14869
319.474	5.6573
319.689	6.86313
319.904	3.31743
320.119	6.82047
320.334	5.31745
320.549	5.61703
320.765	6.74565
320.98	5.64853
321.195	5.80556
321.41	5.55158
321.625	6.04413
321.84	7.33682
322.055	7.49042
322.27	4.42248
322.485	3.64583
322.7	5.7391
322.915	6.71762
323.13	4.70518
323.345	7.79626
323.56	6.72927
323.775	6.79656
323.989	6.24387
324.204	5.74482
324.419	6.95817
324.634	4.42586
324.849	5.67169
325.064	8.98162
325.279	7.45071
325.493	6.53845
325.708	6.70592
325.923	4.75359
326.138	5.68075
326.352	7.714
326.567	7.00947
326.782	5.0365
326.997	5.41644
327.211	6.50226
327.426	6.17497
327.641	5.86087
327.855	3.96792
328.07	6.89916
328.285	8.2401
328.499	5.47362
328.714	6.45751
328.928	6.14635
329.143	6.30719
329.358	7.40924
329.572	6.96711
329.787	8.02877
330.001	9.63188
330.216	3.86094
330.43	9.03113
330.645	7.59024
330.859	7.29169
331.074	4.70924
331.288	6.10397
331.503	8.53468
331.717	4.37228
331.931	6.12216
332.146	6.5387
332.36	8.73284
332.575	6.42003
332.789	6.13079
333.003	6.72917
333.218	7.32919
333.432	6.1371
333.646	7.44271
333.86	8.58818
334.075	8.42399
334.289	5.96243
334.503	4.5078
334.717	7.58363
334.932	6.84084
335.146	7.31735
335.36	5.33298
335.574	7.62799
335.788	6.86696
336.003	7.69609
336.217	7.86565
336.431	6.86505
336.645	5.81375
336.859	5.08076
337.073	6.34983
337.287	6.9856
337.501	4.78209
337.715	7.32436
337.929	6.92828
338.143	5.41443
338.357	6.16893
338.571	5.95269
338.785	7.90687
338.999	6.03246
339.213	6.58456
339.427	5.4531
339.641	8.48038
339.855	6.1285
340.069	5.59319
340.283	7.87434
340.497	8.75401
340.711	7.57284
340.924	7.07773
341.138	5.84425
341.352	5.46004
341.566	7.1394
341.78	5.46623
341.993	6.27572
342.207	6.13467
342.421	7.62225
342.635	6.98566
342.848	6.7024
343.062	4.15881
343.276	6.26861
343.49	9.41542
343.703	6.37255
343.917	8.20281
344.131	8.68625
344.344	6.02941
344.558	6.44365
344.771	5.74658
344.985	8.54233
345.199	9.77912
345.412	7.53157
345.626	8.1005
345.839	5.46717
346.053	5.96706
346.266	6.23056
346.48	8.01853
346.693	7.59345
346.907	7.81678
347.12	5.92582
347.334	7.16516
347.547	7.53567
347.76	6.99879
347.974	8.22564
348.187	7.53937
348.401	7.30684
348.614	5.79898
348.827	7.24805
349.041	7.87305
349.254	5.45077
349.467	6.682
349.681	6.25977
349.894	6.16243
350.107	8.94153
350.32	10.05824
350.534	5.70522
350.747	7.08446
350.96	6.64798
351.173	6.70422
351.386	7.04088
351.6	6.53229
351.813	6.94391
352.026	7.42798
352.239	6.34073
352.452	6.56548
352.665	8.87317
352.878	7.18456
353.092	10.19225
353.305	8.37918
353.518	7.98657
353.731	6.26209
353.944	9.31005
354.157	7.30076
354.37	7.20424
354.583	6.14662
354.796	6.83731
355.009	8.92401
355.222	8.07044
355.435	7.88041
355.647	9.15397
355.86	7.23809
356.073	8.05767
356.286	7.50399
356.499	9.09113
356.712	9.06118
356.925	8.71292
357.138	9.39129
357.35	7.43889
357.563	7.80207
357.776	8.66386
357.989	8.65472
358.201	9.21793
358.414	9.0125
358.627	10.10337
358.84	8.52131
359.052	7.34975
359.265	7.72154
359.478	9.68867
359.69	5.90701
359.903	9.64109
360.116	9.9866
360.328	7.47079
360.541	9.72428
360.753	8.52041
360.966	8.76157
361.179	9.04359
361.391	8.73324
361.604	8.55006
361.816	8.8879
362.029	9.07164
362.241	8.81377
362.454	9.39818
362.666	8.49587
362.879	10.06584
363.091	9.00727
363.304	9.07226
363.516	9.05848
363.728	8.32461
363.941	9.5607
364.153	9.86294
364.366	7.55989
364.578	8.26668
364.79	9.46648
365.003	9.79974
365.215	8.82057
365.427	10.06146
365.639	10.45825
365.852	9.87356
366.064	10.98506
366.276	9.12805
366.488	9.94358
366.701	9.19851
366.913	9.01398
367.125	9.03504
367.337	9.09796
367.549	9.0546
367.762	9.25936
367.974	9.36709
368.186	9.53295
368.398	10.41273
368.61	9.78437
368.822	9.95601
369.034	9.28123
369.246	10.67276
369.458	12.51155
369.67	8.95307
369.882	11.38492
370.094	7.65618
370.306	11.12352
370.518	9.56179
370.73	9.25248
370.942	9.66287
371.154	9.90431
371.366	10.22161
371.578	10.91564
371.79	10.04359
372.002	11.19217
372.214	12.64036
372.425	9.80017
372.637	12.38298
372.849	10.52612
373.061	8.38478
373.273	10.95393
373.484	10.8076
373.696	11.36039
373.908	8.28976
374.12	11.37631
374.331	11.43515
374.543	9.72493
374.755	9.65599
374.967	10.65151
375.178	12.13544
375.39	10.29914
375.602	10.99153
375.813	9.26477
376.025	9.7523
376.236	11.07405
376.448	11.46539
376.66	11.29995
376.871	11.25014
377.083	12.24545
377.294	13.21123
377.506	10.95553
377.717	12.55497
377.929	12.00705
378.14	11.26045
378.352	11.99146
378.563	12.36687
378.775	12.97809
378.986	10.45441
379.197	11.76053
379.409	10.8592
379.62	12.36049
379.832	12.0323
380.043	11.89588
380.254	12.27844
380.466	10.90769
380.677	14.77896
380.888	13.93291
381.1	14.5002
381.311	14.54868
381.522	12.57329
381.733	14.71392
381.945	12.13264
382.156	11.9867
382.367	12.069
382.578	15.18459
382.789	15.56206
383.001	11.37502
383.212	14.48099
383.423	14.43067
383.634	13.75571
383.845	13.68246
384.056	12.23331
384.267	12.78902
384.478	13.01482
384.69	11.87365
384.901	13.72691
385.112	13.35702
385.323	14.97233
385.534	13.40909
385.745	13.86347
385.956	13.39377
386.167	12.51257
386.378	13.73182
386.588	12.71001
386.799	12.49399
387.01	12.26293
387.221	14.21227
387.432	13.82941
387.643	15.17948
387.854	13.2139
388.065	13.27238
388.275	13.59257
388.486	13.15085
388.697	13.9399
388.908	13.0826
389.119	14.69129
389.329	15.29784
389.54	13.68444
389.751	14.45713
389.962	15.13516
390.172	13.99159
390.383	14.25875
390.594	13.44869
390.804	13.48218
391.015	13.86607
391.226	14.31201
391.436	15.1389
391.647	14.64396
391.858	14.9892
392.068	12.98065
392.279	13.87223
392.489	14.9816
392.7	15.40018
392.91	14.10253
393.121	14.13629
393.331	15.26718
393.542	15.96972
393.752	15.93176
393.963	15.27098
394.173	15.51109
394.384	15.72712
394.594	15.07327
394.804	14.01921
395.015	15.10399
395.225	15.70522
395.436	14.21051
395.646	15.31354
395.856	15.11835
396.067	13.75834
396.277	15.95191
396.487	15.31116
396.697	15.34787
396.908	15.88472
397.118	15.81668
397.328	15.27816
397.538	16.05958
397.749	14.9698
397.959	16.23833
398.169	15.60708
398.379	14.24409
398.589	15.68969
398.8	15.90716
399.01	15.68479
399.22	15.36667
399.43	17.3595
399.64	15.87534
399.85	16.12539
400.06	15.82731
400.27	14.85414
400.48	15.38959
400.69	16.78708
400.9	15.36097
401.11	14.67095
401.32	16.46794
401.53	15.06898
401.74	16.95426
401.95	16.32206
402.16	15.87558
402.37	16.57072
402.58	15.47399
402.79	16.15775
403	16.85015
403.209	15.51556
403.419	17.06759
403.629	15.49816
403.839	17.05533
404.049	17.11664
404.258	15.94912
404.468	15.9214
404.678	16.99655
404.888	17.52667
405.097	16.62381
405.307	16.37308
405.517	17.10341
405.727	17.08733
405.936	16.08472
406.146	17.05586
406.356	17.92595
406.565	16.48499
406.775	16.09325
406.984	16.31794
407.194	18.48704
407.404	16.56499
407.613	17.21109
407.823	17.48629
408.032	17.83043
408.242	17.47183
408.451	16.30342
408.661	16.55386
408.87	18.18482
409.08	16.23453
409.289	17.036
409.499	16.96773
409.708	16.8628
409.918	15.08226
410.127	17.26958
410.336	18.36422
410.546	17.70566
410.755	16.5459
410.964	16.48433
411.174	15.9193
411.383	17.15191
411.592	17.14208
411.802	16.20346
412.011	17.62897
412.22	16.95927
412.429	17.90279
412.639	18.33683
412.848	17.7997
413.057	18.63628
413.266	17.93322
413.475	17.15087
413.685	17.7629
413.894	18.03021
414.103	18.14138
414.312	18.02579
414.521	17.13851
414.73	17.64033
414.939	18.9647
415.148	17.96473
415.357	17.61892
415.566	17.63967
415.776	17.23609
415.985	17.37318
416.194	18.466
416.403	19.51178
416.611	16.74505
416.82	17.33168
417.029	18.29018
417.238	17.4805
417.447	17.5717
417.656	18.04146
417.865	17.62509
418.074	18.27277
418.283	18.31132
418.492	19.16842
418.7	19.08141
418.909	19.9823
419.118	18.54346
419.327	19.14698
419.536	18.83656
419.744	18.7679
419.953	20.2313
420.162	20.6119
420.371	20.27085
420.579	21.30523
420.788	22.17675
420.997	22.53298
421.205	22.76688
421.414	22.35599
421.623	22.79425
421.831	22.07761
422.04	22.62721
422.249	21.42885
422.457	21.64713
422.666	20.61647
422.874	21.59542
423.083	21.91664
423.291	21.71851
423.5	21.98056
423.708	22.60685
423.917	23.27217
424.125	22.61473
424.334	22.4159
424.542	24.39149
424.751	23.9085
424.959	23.08029
425.167	23.04267
425.376	22.66987
425.584	20.81433
425.793	20.57904
426.001	19.10657
426.209	19.99707
426.418	19.11756
426.626	18.99123
426.834	19.05786
427.042	19.44296
427.251	18.78314
427.459	20.12731
427.667	19.35919
427.875	18.21444
428.084	18.81133
428.292	20.1687
428.5	19.78869
428.708	18.67161
428.916	18.86302
429.124	19.38091
429.333	18.9573
429.541	19.14471
429.749	19.45802
429.957	19.33373
430.165	21.34763
430.373	17.99776
430.581	19.4037
430.789	20.48033
430.997	19.13113
431.205	18.64251
431.413	19.79533
431.621	19.26491
431.829	20.08691
432.037	19.25471
432.245	19.90409
432.453	20.17483
432.661	19.36815
432.869	21.07594
433.076	19.13069
433.284	19.63742
433.492	20.47701
433.7	20.65909
433.908	19.65211
434.116	19.94574
434.323	20.10112
434.531	19.859
434.739	20.43641
434.947	20.56652
435.154	20.70731
435.362	19.84228
435.57	19.77513
435.778	19.38974
435.985	20.12804
436.193	19.50875
436.401	21.19857
436.608	19.86967
436.816	19.65552
437.023	21.16839
437.231	21.63548
437.439	20.27022
437.646	20.71828
437.854	20.5768
438.061	20.65514
438.269	20.07016
438.476	20.88456
438.684	20.61783
438.891	20.08729
439.099	19.96254
439.306	19.51194
439.514	19.63015
439.721	20.91419
439.929	19.99666
440.136	20.8864
440.343	20.85964
440.551	20.86278
440.758	22.51973
440.965	20.98051
441.173	20.7262
441.38	20.40979
441.587	20.88833
441.795	20.33527
442.002	20.65742
442.209	20.89648
442.416	20.86942
442.624	21.02595
442.831	20.8387
443.038	20.27387
443.245	19.92098
443.452	20.45447
443.66	21.21169
443.867	20.28663
444.074	20.05886
444.281	20.0548
444.488	20.14428
444.695	20.64041
444.902	20.33499
445.109	21.31193
445.316	20.78465
445.523	21.38775
445.73	21.77499
445.937	22.87384
446.144	23.44818
446.351	24.38743
446.558	22.98616
446.765	25.54962
446.972	24.20812
447.179	23.70305
447.386	24.02554
447.593	21.70406
447.8	22.91683
448.007	21.06065
448.214	20.86663
448.42	20.63441
448.627	21.89397
448.834	21.01072
449.041	21.02365
449.248	20.76394
449.454	21.6004
449.661	22.09465
449.868	20.70872
450.075	20.36195
450.281	19.61675
450.488	20.04604
450.695	20.17571
450.901	19.91766
451.108	20.37458
451.315	21.71431
451.521	20.60464
451.728	21.57558
451.935	20.32853
452.141	20.63415
452.348	20.7676
452.554	20.83145
452.761	20.78945
452.967	22.38451
453.174	21.20943
453.38	21.07407
453.587	20.05701
453.793	21.25125
454	21.53921
454.206	22.64901
454.413	21.5392
454.619	21.55161
454.825	20.50656
455.032	21.21026
455.238	21.63448
455.445	20.22425
455.651	20.99414
455.857	19.69028
456.064	20.97054
456.27	20.83558
456.476	20.81262
456.682	19.89024
456.889	21.40033
457.095	21.59684
457.301	22.48224
457.507	21.30762
457.714	21.03628
457.92	21.27568
458.126	20.44886
458.332	20.98489
458.538	20.9298
458.744	21.0962
458.951	21.04975
459.157	22.66466
459.363	21.97283
459.569	22.67824
459.775	23.50295
459.981	23.43336
460.187	23.90238
460.393	23.60956
460.599	23.28542
460.805	22.13577
461.011	21.66874
461.217	22.503
461.423	22.53931
461.629	21.66902
461.835	22.17014
462.041	21.61423
462.247	22.88236
462.453	21.25475
462.658	21.30425
462.864	22.03573
463.07	21.34595
463.276	21.44502
463.482	21.25036
463.688	22.67964
463.893	20.77844
464.099	21.16269
464.305	22.63858
464.511	20.99987
464.716	21.49858
464.922	22.16833
465.128	20.69133
465.333	22.70395
465.539	22.10435
465.745	21.78001
465.95	21.53313
466.156	24.10333
466.362	22.60747
466.567	21.56482
466.773	21.50396
466.978	22.72822
467.184	21.01691
467.389	20.31605
467.595	21.78248
467.8	20.92442
468.006	22.84053
468.211	22.77103
468.417	21.12352
468.622	22.00255
468.828	22.42223
469.033	21.96701
469.239	23.94991
469.444	21.22579
469.649	22.64399
469.855	21.87037
470.06	21.81034
470.266	20.77056
470.471	22.47806
470.676	22.14775
470.881	20.247
471.087	23.61591
471.292	23.7006
471.497	20.87756
471.703	21.87344
471.908	21.78724
472.113	22.20437
472.318	22.65961
472.523	21.18002
472.729	22.2299
472.934	22.45334
473.139	21.76222
473.344	22.16519
473.549	22.98039
473.754	21.43508
473.959	24.03231
474.164	21.78826
474.369	21.97636
474.575	22.53245
474.78	22.37505
474.985	21.62208
475.19	20.91563
475.395	21.78138
475.6	22.16349
475.804	23.44401
476.009	22.41967
476.214	21.86851
476.419	22.01948
476.624	21.35281
476.829	21.90121
477.034	22.78485
477.239	21.80991
477.444	22.88231
477.648	23.01392
477.853	23.02987
478.058	22.25021
478.263	22.17879
478.468	21.95738
478.672	21.93796
478.877	23.84161
479.082	23.88109
479.287	22.83578
479.491	22.67998
479.696	22.11108
479.901	23.21662
480.105	23.21539
480.31	22.02685
480.515	22.47241
480.719	24.42568
480.924	22.21683
481.128	21.88278
481.333	22.91648
481.538	22.90696
481.742	22.48956
481.947	23.66723
482.151	25.82994
482.356	28.22358
482.56	32.71502
482.765	37.09889
482.969	43.84514
483.174	48.99241
483.378	56.36928
483.582	58.84564
483.787	62.08578
483.991	63.25339
484.196	62.91047
484.4	61.71797
484.604	60.75951
484.809	55.26883
485.013	51.58514
485.217	46.17345
485.422	41.24163
485.626	37.57226
485.83	35.58488
486.034	34.70541
486.239	35.80903
486.443	37.14449
486.647	38.79645
486.851	41.18309
487.055	44.06794
487.26	45.04575
487.464	46.90471
487.668	46.22251
487.872	47.0642
488.076	47.22995
488.28	44.80679
488.484	41.99143
488.688	40.15423
488.892	37.50836
489.096	34.88283
489.3	32.00724
489.504	29.83734
489.708	28.42226
489.912	27.79877
490.116	27.44627
490.32	27.76387
490.524	30.22554
490.728	32.20283
490.932	34.54286
491.136	37.0106
491.34	38.88493
491.544	39.90352
491.748	39.94361
491.951	39.44206
492.155	38.15605
492.359	36.7667
492.563	33.32097
492.767	31.00692
492.97	27.68739
493.174	24.37531
493.378	23.51741
493.582	23.09844
493.785	23.37009
493.989	23.56887
494.193	23.55033
494.396	23.18255
494.6	23.9152
494.804	23.12107
495.007	22.92861
495.211	23.16806
495.414	22.75401
495.618	23.46239
495.822	24.1832
496.025	23.34464
496.229	23.7499
496.432	23.06204
496.636	23.4193
496.839	23.41931
497.043	24.39405
497.246	23.54739
497.45	23.38446
497.653	23.4482
497.856	23.70528
498.06	23.04009
498.263	23.4048
498.467	23.61366
498.67	24.14196
498.873	23.68776
499.077	23.07255
499.28	23.44089
499.483	23.88139
499.686	24.34815
499.89	23.69526
500.093	23.99502
500.296	22.72637
500.499	24.84267
500.703	23.61647
500.906	23.77007
501.109	24.66909
501.312	23.51703
501.515	23.38498
501.719	23.78781
501.922	24.13938
502.125	23.63601
502.328	23.529
502.531	22.66136
502.734	23.54441
502.937	22.25211
503.14	23.76211
503.343	23.04935
503.546	23.32295
503.749	23.1154
503.952	23.98867
504.155	23.14208
504.358	24.16116
504.561	23.87737
504.764	22.54879
504.967	24.06586
505.17	23.77249
505.373	24.93157
505.576	23.71357
505.778	24.34893
505.981	22.94146
506.184	24.67581
506.387	22.43232
506.59	25.46737
506.793	24.55038
506.995	24.21312
507.198	22.15316
507.401	24.07182
507.604	23.88493
507.806	22.8669
508.009	23.54363
508.212	24.43376
508.414	23.40837
508.617	23.64764
508.82	24.0251
509.022	25.00626
509.225	24.28489
509.427	22.77284
509.63	24.78213
509.833	23.78612
510.035	23.50127
510.238	22.82058
510.44	24.86938
510.643	22.90675
510.845	25.22805
511.048	24.46956
511.25	23.57184
511.453	23.8283
511.655	24.37042
511.858	23.89531
512.06	24.62054
512.262	24.02593
512.465	24.57391
512.667	23.9139
512.869	23.10098
513.072	24.39869
513.274	24.57673
513.476	24.53944
513.679	24.73579
513.881	23.41652
514.083	25.30718
514.286	23.62996
514.488	23.57267
514.69	23.40968
514.892	23.21533
515.094	24.64539
515.297	23.53407
515.499	24.31769
515.701	23.5869
515.903	25.75359
516.105	25.36241
516.307	24.5694
516.509	22.94189
516.711	23.26703
516.913	24.20467
517.116	24.23282
517.318	23.8587
517.52	24.85869
517.722	24.88122
517.924	23.58917
518.126	24.69046
518.328	23.95378
518.529	24.71083
518.731	25.81898
518.933	24.08296
519.135	24.42749
519.337	25.24966
519.539	24.76366
519.741	23.4375
519.943	24.2282
520.145	24.21472
520.346	25.00505
520.548	24.31512
520.75	24.53244
520.952	24.22175
521.153	24.84418
521.355	25.09351
521.557	24.31852
521.759	24.48793
521.96	24.3971
522.162	23.67638
522.364	25.10692
522.565	24.17817
522.767	24.72191
522.969	24.96947
523.17	24.84311
523.372	24.57069
523.573	24.4314
523.775	24.56714
523.977	23.84451
524.178	25.73644
524.38	24.09937
524.581	25.31704
524.783	24.36872
524.984	25.07844
525.186	24.60478
525.387	24.92549
525.589	24.65987
525.79	24.55096
525.991	24.70798
526.193	25.46207
526.394	24.68818
526.596	25.83302
526.797	26.4713
526.998	26.50702
527.2	28.36991
527.401	32.31916
527.602	35.67688
527.803	40.76097
528.005	44.13738
528.206	47.25072
528.407	49.86147
528.608	50.11348
528.81	50.56401
529.011	49.13137
529.212	49.7244
529.413	46.34832
529.614	42.91218
529.815	39.74003
530.017	35.99149
530.218	31.89844
530.419	28.73955
530.62	27.20797
530.821	26.06779
531.022	24.20567
531.223	25.29541
531.424	25.43616
531.625	25.49112
531.826	25.1582
532.027	26.36693
532.228	29.02318
532.429	30.31404
532.63	31.49188
532.831	33.81483
533.032	33.95917
533.233	35.58747
533.433	34.48886
533.634	34.85436
533.835	33.1104
534.036	31.61291
534.237	29.8386
534.438	27.88176
534.638	25.28658
534.839	25.16194
535.04	25.60719
535.241	24.87845
535.441	26.5481
535.642	25.40405
535.843	24.40009
536.043	24.62802
536.244	24.69012
536.445	25.13345
536.645	25.84443
536.846	25.53442
537.047	25.98929
537.247	24.75435
537.448	25.24124
537.648	25.27675
537.849	25.07993
538.049	25.3926
538.25	25.70725
538.451	25.97857
538.651	24.72256
538.851	25.37899
539.052	26.10624
539.252	25.92332
539.453	24.93991
539.653	25.39245
539.854	25.1201
540.054	25.40664
540.254	27.0665
540.455	29.99779
540.655	31.60247
540.855	34.90284
541.056	37.36279
541.256	37.366
541.456	38.41049
541.657	38.44087
541.857	38.36504
542.057	36.04102
542.257	34.2349
542.458	33.55215
542.658	31.3346
542.858	28.39683
543.058	27.6021
543.258	26.20859
543.458	24.84327
543.659	24.68488
543.859	25.84523
544.059	26.04387
544.259	25.27549
544.459	26.03912
544.659	24.75174
544.859	25.60978
545.059	25.17146
545.259	26.03038
545.459	25.60854
545.659	25.96819
545.859	25.40494
546.059	25.55723
546.259	24.89207
546.459	24.45028
546.659	24.64131
546.859	25.97534
547.059	25.64285
547.258	25.82968
547.458	25.85036
547.658	25.04924
547.858	24.48227
548.058	25.64937
548.258	25.2296
548.457	24.51035
548.657	27.32109
548.857	25.26293
549.057	25.78936
549.256	26.06092
549.456	24.94132
549.656	23.52902
549.855	26.91768
550.055	24.55873
550.255	26.93887
550.454	25.30839
550.654	25.47098
550.853	26.38251
551.053	25.82747
551.253	25.43594
551.452	25.8905
551.652	24.54249
551.851	24.02036
552.051	25.00683
552.25	24.65251
552.45	24.55965
552.649	25.02833
552.849	24.85289
553.048	25.04625
553.248	25.818
553.447	24.39551
553.646	25.88181
553.846	27.17526
554.045	26.12207
554.244	24.10704
554.444	26.95652
554.643	24.34374
554.842	26.62443
555.042	27.29409
555.241	24.74662
555.44	24.12823
555.64	25.87064
555.839	27.2211
556.038	25.55889
556.237	24.58238
556.436	25.76395
556.636	25.86345
556.835	24.74586
557.034	26.88628
557.233	25.38269
557.432	23.55124
557.631	26.37258
557.83	25.16914
558.029	24.75609
558.228	24.69267
558.427	24.17438
558.626	25.60514
558.825	24.46943
559.024	25.19941
559.223	27.05236
559.422	25.17846
559.621	25.72195
559.82	22.96625
560.019	25.00354
560.218	25.24728
560.417	22.40017
560.616	24.31741
560.815	28.75843
561.014	23.80682
561.212	26.95686
561.411	25.61813
561.61	24.1201
561.809	24.84776
562.008	26.13697
562.206	25.23935
562.405	25.90301
562.604	25.40029
562.803	25.78509
563.001	24.9618
563.2	24.01375
563.399	26.20763
563.597	23.91111
563.796	25.50854
563.995	23.93722
564.193	26.03479
564.392	25.24103
564.59	27.43951
564.789	23.63179
564.988	24.74934
565.186	25.47986
565.385	25.26415
565.583	25.13859
565.782	25.33601
565.98	25.00861
566.179	25.55905
566.377	24.58035
566.575	25.13039
566.774	26.80038
566.972	26.57999
567.171	27.53756
567.369	26.57905
567.567	25.65265
567.766	26.05576
567.964	23.54809
568.162	25.91771
568.361	26.88683
568.559	25.66179
568.757	25.95609
568.956	25.68762
569.154	25.39321
569.352	26.12882
569.55	25.71819
569.748	25.26331
569.947	24.51239
570.145	24.5764
570.343	24.78613
570.541	26.36584
570.739	24.13028
570.937	25.45766
571.135	26.08514
571.333	27.34437
571.532	26.97468
571.73	26.00761
571.928	26.77895
572.126	26.07654
572.324	25.01727
572.522	27.22239
572.72	28.64955
572.918	25.79786
573.116	26.27922
573.313	26.04604
573.511	25.66091
573.709	25.08336
573.907	27.02407
574.105	25.60842
574.303	23.94271
574.501	23.95067
574.699	26.37326
574.896	26.43657
575.094	26.47688
575.292	24.47469
575.49	26.667
575.688	25.6188
575.885	27.00828
576.083	28.05075
576.281	26.8704
576.478	25.08049
576.676	25.99287
576.874	23.70509
577.071	25.66937
577.269	28.12545
577.467	25.8718
577.664	25.35302
577.862	26.93024
578.059	24.43867
578.257	26.61424
578.455	25.22655
578.652	25.53017
578.85	23.20023
579.047	25.8642
579.245	25.09017
579.442	25.21956
579.64	25.68741
579.837	23.77653
580.034	28.77648
580.232	25.5693
580.429	23.88685
580.627	25.81036
580.824	27.1509
581.021	26.05757
581.219	24.98231
581.416	24.38777
581.613	27.42665
581.811	26.99053
582.008	24.69803
582.205	26.38453
582.402	25.88017
582.6	27.47547
582.797	25.52044
582.994	25.83438
583.191	26.06024
583.388	25.53789
583.586	26.43826
583.783	26.71473
583.98	24.82243
584.177	25.96395
584.374	21.86773
584.571	24.89243
584.768	25.53386
584.965	24.57018
585.162	26.02955
585.359	27.4238
585.556	25.11874
585.753	25.95895
585.95	23.68185
586.147	24.49843
586.344	26.00345
586.541	24.70413
586.738	24.12357
586.935	25.06343
587.132	24.29805
587.329	26.77968
587.526	25.18852
587.722	31.97733
587.919	24.03651
588.116	26.41791
588.313	27.70691
588.51	28.23586
588.706	25.20637
588.903	26.50781
589.1	26.81451
589.297	29.18241
589.493	25.57126
589.69	26.1784
589.887	25.02991
590.083	24.27262
590.28	24.99825
590.477	26.81699
590.673	26.93106
590.87	27.63217
591.067	25.54857
591.263	26.19173
591.46	26.12729
591.656	25.36134
591.853	27.33728
592.049	24.54488
592.246	24.2852
592.442	27.03727
592.639	27.54249
592.835	24.56325
593.032	25.88002
593.228	23.36646
593.425	23.82536
593.621	23.48795
593.817	26.35171
594.014	24.81539
594.21	25.52429
594.406	26.87648
594.603	26.64539
594.799	24.95329
594.995	22.98728
595.192	27.29534
595.388	25.02643
595.584	25.47136
595.78	24.375
595.977	29.0043
596.173	28.02836
596.369	25.55993
596.565	24.59417
596.761	24.50255
596.957	27.63738
597.154	25.25398
597.35	25.40047
597.546	25.34314
597.742	26.79866
597.938	26.23665
598.134	24.94669
598.33	26.43111
598.526	28.16065
598.722	26.41559
598.918	28.04074
599.114	26.62
599.31	24.17227
599.506	25.9784
599.702	24.65813
599.898	25.60703
600.094	26.51059
600.29	26.60704
600.485	26.97231
600.681	25.10154
600.877	28.06263
601.073	25.93885
601.269	28.58666
601.465	27.57626
601.66	24.40712
601.856	22.97972
602.052	28.35937
602.248	25.60639
602.443	23.77622
602.639	24.51609
602.835	25.06674
603.03	24.35341
603.226	26.9371
603.422	24.68182
603.617	25.70068
603.813	25.82844
604.009	25.85907
604.204	27.61741
604.4	24.30424
604.595	27.38989
604.791	24.84658
604.986	26.37848
605.182	25.13029
605.377	26.306
605.573	25.53276
605.768	26.2474
605.964	27.11644
606.159	26.97985
606.355	27.38316
606.55	25.27666
606.746	27.66434
606.941	25.61764
607.136	29.03129
607.332	30.03411
607.527	24.25895
607.722	26.25175
607.918	25.46466
608.113	25.22295
608.308	27.56273
608.503	26.69026
608.699	26.47186
608.894	27.1943
609.089	24.91779
609.284	26.30423
609.479	25.68073
609.675	27.22598
609.87	25.76112
610.065	27.31786
610.26	27.3231
610.455	27.1546
610.65	26.01319
610.845	26.33899
611.04	27.52805
611.235	26.05423
611.43	25.54555
611.625	24.28835
611.82	28.27502
612.015	24.96431
612.21	28.38757
612.405	23.85377
612.6	28.59688
612.795	28.26942
612.99	27.04118
613.185	24.04473
613.38	24.70566
613.575	26.14785
613.77	30.73582
613.965	23.35747
614.159	24.04157
614.354	27.61608
614.549	27.48502
614.744	26.7665
614.938	24.18473
615.133	24.14248
615.328	28.66011
615.523	27.70332
615.717	30.45836
615.912	24.23551
616.107	26.40005
616.301	25.51909
616.496	25.58378
616.691	28.76643
616.885	27.19136
617.08	31.25726
617.274	27.63673
617.469	29.59468
617.664	27.24047
617.858	25.63425
618.053	26.84839
618.247	26.02842
618.442	21.9587
618.636	28.71872
618.831	24.95406
619.025	25.59405
619.219	31.3281
619.414	20.76022
619.608	26.2787
619.803	25.86802
619.997	29.83492
620.191	28.35768
620.386	26.84334
620.58	25.89519
620.774	22.82541
620.969	24.08126
621.163	26.48034
621.357	24.54711
621.551	25.69603
621.746	26.77445
621.94	24.86252
622.134	32.27249
622.328	30.45434
622.522	23.55389
622.716	27.6964
622.911	28.39628
623.105	28.60442
623.299	27.19864
623.493	32.35344
623.687	24.31754
623.881	25.35279
624.075	26.96359
624.269	29.06028
624.463	22.75503
624.657	23.94281
624.851	27.51258
625.045	27.61594
625.239	28.11296
625.433	26.05078
625.627	28.71033
625.821	25.73818
626.015	25.73382
626.209	26.74543
626.403	24.92563
626.596	27.74475
626.79	28.13982
626.984	24.81186
627.178	27.55779
627.372	27.71538
627.565	28.16427
627.759	24.24971
627.953	24.63016
628.147	27.51926
628.34	28.34909
628.534	30.26591
628.728	26.01233
628.921	28.47305
629.115	27.80857
629.309	28.29831
629.502	28.57965
629.696	27.23424
629.89	26.42526
630.083	26.9306
630.277	27.53262
630.47	30.02115
630.664	25.86438
630.857	23.35491
631.051	28.06744
631.244	28.42885
631.438	28.24643
631.631	24.61386
631.825	29.54133
632.018	28.12509
632.212	30.42716
632.405	29.38073
632.598	25.31134
632.792	26.32833
632.985	21.90555
633.178	26.80852
633.372	26.46289
633.565	26.77757
633.758	30.29535
633.952	25.29539
634.145	24.88977
634.338	26.40036
634.531	26.07022
634.724	25.69797
634.918	26.96265
635.111	26.04779
635.304	26.8054
635.497	31.90135
635.69	27.28097
635.883	29.43314
636.077	25.36806
636.27	27.64966
636.463	27.39041
636.656	27.12834
636.849	26.47775
637.042	28.76551
637.235	30.51548
637.428	28.90863
637.621	29.00066
637.814	29.49602
638.007	30.78962
638.2	29.15913
638.393	31.10509
638.586	23.84946
638.778	25.86973
638.971	27.32596
639.164	30.99717
639.357	27.3372
639.55	30.7435
639.743	28.895
639.935	27.93019
640.128	31.80365
640.321	28.57604
640.514	26.9718
640.707	32.22886
640.899	28.40173
641.092	23.29132
641.285	45.76871
641.477	22.88462
641.67	32.95305
641.863	30.3966
642.055	27.6744
642.248	26.46502
642.441	25.47716
642.633	28.35077
642.826	29.35427
643.018	30.64116
643.211	32.38087
643.403	31.67482
643.596	32.97091
643.788	31.55558
643.981	26.96777
644.173	29.55429
644.366	28.16312
644.558	22.25077
644.751	30.07596
644.943	22.96794
645.135	31.35812
645.328	31.81969
645.52	28.44426
645.712	31.06937
645.905	35.11678
646.097	24.67996
646.289	27.11046
646.482	33.54241
646.674	25.84008
646.866	31.01778
647.058	29.14324
647.251	24.75891
647.443	26.29501
647.635	27.1729
647.827	24.54432
648.019	26.18584
648.211	27.34823
648.404	27.90671
648.596	31.84445
648.788	27.57806
648.98	28.13207
649.172	28.6336
649.364	28.90561
649.556	23.37042
649.748	36.06213
649.94	25.11995
650.132	29.51736
650.324	25.84616
650.516	26.99612
650.708	31.03309
650.9	24.03965
651.092	27.17612
651.284	24.92465
651.476	26.01348
651.667	29.71509
651.859	31.63148
652.051	27.3684
652.243	27.81383
652.435	27.12472
652.627	30.07521
652.818	29.08311
653.01	24.57307
653.202	25.65018
653.394	27.01147
653.585	29.8283
653.777	40.43846
653.969	31.1643
654.16	30.80252
654.352	25.21919
654.544	27.67265
654.735	30.72195
654.927	29.40474
655.118	32.21364
655.31	30.04931
655.502	31.52364
655.693	27.67207
655.885	30.73504
656.076	31.60536
656.268	29.31818
656.459	32.81776
656.651	32.23359
656.842	27.47867
657.034	26.67203
657.225	30.35518
657.416	32.2106
657.608	32.37362
657.799	28.68246
657.99	32.75037
658.182	28.02335
658.373	27.68809
658.564	31.17386
658.756	29.84249
658.947	28.49066
659.138	26.38935
659.33	27.98835
659.521	27.1398
659.712	29.2996
659.903	29.04315
660.094	28.258
660.286	25.4987
660.477	34.35982
660.668	30.6563
660.859	28.73651
661.05	24.80277
661.241	31.46236
661.432	30.39667
661.623	27.32706
661.814	27.93709
662.006	24.55995
662.197	29.67661
662.388	33.13273
662.579	29.92781
662.77	33.25742
662.96	37.40252
663.151	31.91196
663.342	23.82514
663.533	30.89047
663.724	28.72763
663.915	33.74621
664.106	27.88943
664.297	34.34536
664.488	31.33716
664.678	26.64897
664.869	31.49846
665.06	32.79545
665.251	29.77932
665.442	30.68635
665.632	25.73026
665.823	35.27847
666.014	19.59993
666.204	31.75088
666.395	33.69429
666.586	38.30456
666.776	32.5725
666.967	34.60911
667.158	29.73919
667.348	34.09835
667.539	26.04068
667.729	32.07112
667.92	26.24392
668.111	32.23858
668.301	31.49694
668.492	29.28476
668.682	29.93794
668.873	30.60252
669.063	26.07057
669.253	30.84859
669.444	32.11844
669.634	28.81227
669.825	36.81008
670.015	33.81977
670.206	26.37794
670.396	37.00749
670.586	28.97682
670.777	31.43672
670.967	21.96287
671.157	28.90991
671.347	26.86566
671.538	34.49134
671.728	30.89479
671.918	36.77881
672.108	32.2252
672.299	29.95925
672.489	31.88716
672.679	27.8884
672.869	31.813
673.059	37.15387
673.249	31.23345
673.44	25.56899
673.63	29.43573
673.82	33.07304
674.01	27.32395
674.2	31.14152
674.39	40.01312
674.58	32.9104
674.77	30.14722
674.96	29.46219
675.15	44.90461
675.34	35.76623
675.53	29.565
675.72	29.78174
675.91	24.19065
676.099	37.90762
676.289	39.27157
676.479	35.31478
676.669	28.40853
676.859	31.8445
677.049	27.84642
677.238	31.04293
677.428	37.51433
677.618	32.88311
677.808	35.67695
677.997	32.22324
678.187	27.46108
678.377	31.1449
678.567	28.61604
678.756	28.43447
678.946	30.30443
679.136	26.43618
679.325	28.34385
679.515	27.66236
679.704	27.62645
679.894	33.37289
680.084	32.43168
680.273	34.91315
680.463	28.91362
680.652	28.65182
680.842	31.6343
681.031	34.7819
681.221	29.08003
681.41	33.81779
681.6	30.6291
681.789	34.63518
681.978	35.97533
682.168	31.91382
682.357	31.98236
682.547	33.89083
682.736	31.61853
682.925	35.79761
683.115	35.62671
683.304	35.51053
683.493	33.18969
683.682	33.91964
683.872	33.88839
684.061	36.95736
684.25	34.37236
684.439	40.02294
684.629	34.67629
684.818	45.92494
685.007	31.84647
685.196	31.08417
685.385	39.33011
685.574	34.2219
685.763	34.31576
685.952	33.49382
686.142	28.40133
686.331	37.29267
686.52	24.71953
686.709	40.10074
686.898	38.96244
687.087	35.19777
687.276	40.18908
687.465	38.36618
687.654	32.0568
687.842	39.13567
688.031	28.88339
688.22	38.25378
688.409	34.07939
688.598	34.21091
688.787	45.86435
688.976	34.07224
689.165	42.78495
689.353	31.68168
689.542	36.01162
689.731	36.53885
689.92	42.01078
690.108	36.41581
690.297	32.47038
690.486	33.03755
690.675	37.7209
690.863	41.23627
691.052	41.5017
691.241	35.19242
691.429	35.33081
691.618	41.85631
691.806	28.43602
691.995	32.62632
692.184	35.18545
692.372	32.24437
692.561	37.2435
692.749	34.43045
692.938	46.88966
693.126	36.19131
693.315	32.94965
693.503	36.8264
693.692	37.52973
693.88	39.89992
694.068	45.02987
694.257	35.71097
694.445	37.23713
694.634	26.52222
694.822	39.97985
695.01	40.74425
695.199	42.46686
695.387	42.86078
695.575	40.1662
695.763	35.71554
695.952	31.84356
696.14	29.90616
696.328	34.60054
696.516	36.21754
696.705	37.69995
696.893	36.66202
697.081	27.77839
697.269	38.39949
697.457	30.73488
697.645	30.44399
697.833	38.30539
698.021	31.84638
698.21	33.39093
698.398	34.44039
698.586	30.76585
698.774	30.47013
698.962	33.80298
699.15	31.35593
699.338	28.67518
699.526	37.46936
699.714	32.26576
699.901	32.97512
700.089	39.78299
700.277	33.02602
700.465	34.68068
700.653	38.34368
700.841	37.28744
701.029	32.26801
701.217	42.32212
701.404	37.29149
701.592	44.09167
701.78	46.58955
701.968	36.00965
702.155	34.63445
702.343	28.48164
702.531	42.34919
702.718	38.12003
702.906	36.61373
703.094	32.62115
703.281	43.83205
703.469	37.46192
703.657	42.51013
703.844	52.57265
704.032	47.67811
704.219	33.55415
704.407	38.6383
704.595	44.88311
704.782	38.10157
704.97	33.83423
705.157	36.13367
705.345	44.90979
705.532	54.03913
705.719	39.89064
705.907	45.37931
706.094	39.73011
706.282	47.66424
706.469	35.44899
706.656	39.5246
706.844	36.46469
707.031	43.72041
707.218	39.55308
707.406	48.57853
707.593	43.078
707.78	43.18776
707.968	37.96695
708.155	34.08715
708.342	42.7752
708.529	42.25156
708.716	40.49888
708.904	48.09099
709.091	44.79416
709.278	32.20173
709.465	53.76262
709.652	49.00071
709.839	46.45734
710.026	40.12145
710.213	30.27866
710.4	41.55684
710.587	44.97847
710.774	47.63667
710.961	45.52665
711.148	39.53683
711.335	45.48525
711.522	38.641
711.709	41.24101
711.896	52.04871
712.083	46.5349
712.27	34.28735
712.457	41.54612
712.644	31.21493
712.831	53.70487
713.017	41.10994
713.204	43.8629
713.391	38.38956
713.578	47.28818
713.765	49.93673
713.951	44.81808
714.138	60.80671
714.325	44.56866
714.512	43.00337
714.698	36.5178
714.885	51.66037
715.072	42.45598
715.258	42.17468
715.445	36.67839
715.631	50.51244
715.818	27.88273
716.005	39.36311
716.191	46.4924
716.378	40.14137
716.564	49.57516
716.751	37.88928
716.937	39.43733
717.124	49.38262
717.31	38.28356
717.497	55.44904
717.683	39.77928
717.869	59.4895
718.056	39.36374
718.242	45.51698
718.429	40.99717
718.615	36.42561
718.801	43.58677
718.988	50.33929
719.174	48.06366
719.36	43.74248
719.547	50.34367
719.733	46.35283
719.919	45.30168
720.105	50.27496
720.291	43.3176
720.478	45.37718
720.664	43.70294
720.85	40.3202
721.036	65.56831
721.222	55.03492
721.408	45.43828
721.595	58.74318
721.781	57.65268
721.967	51.70655
722.153	57.54498
722.339	47.96758
722.525	49.06454
722.711	37.59252
722.897	34.63287
723.083	42.45702
723.269	51.7029
723.455	67.49332
723.641	72.54692
723.827	46.36986
724.012	48.73963
724.198	44.2165
724.384	55.6817
724.57	48.9238
724.756	34.94612
724.942	30.77926
725.127	55.26363
725.313	57.34142
725.499	55.88014
725.685	61.58407
725.87	45.1263
726.056	38.87588
726.242	54.81488
726.428	34.87314
726.613	53.96587
726.799	42.78925
726.985	36.80125
727.17	34.10159
727.356	58.67677
727.541	38.06452
727.727	43.38877
727.913	50.43832
728.098	42.80294
728.284	51.45723
728.469	37.66771
728.655	39.82679
728.84	50.55533
729.026	51.81312
729.211	52.28414
729.397	49.80313
729.582	51.69002
729.767	46.25902
729.953	49.39944
730.138	56.12139
730.323	30.5468
730.509	39.80861
730.694	60.63244
730.879	50.15551
731.065	47.09072
731.25	65.81803
731.435	50.45086
731.621	33.54048
731.806	41.84005
731.991	47.12777
732.176	35.64319
732.361	57.72743
732.547	52.07545
732.732	32.61387
732.917	67.12225
733.102	36.97617
733.287	41.33113
733.472	47.38927
733.657	47.63747
733.842	35.47066
734.027	43.75643
734.212	46.60758
734.397	41.6294
734.582	49.38948
734.767	55.70902
734.952	62.45084
735.137	27.56574
735.322	61.52201
735.507	50.50688
735.692	51.10282
735.877	69.95294
736.062	64.95745
736.247	52.42288
736.431	48.10951
736.616	57.94978
736.801	50.42843
736.986	45.08511
737.171	40.29938
737.355	35.45519
737.54	60.98408
737.725	47.90099
737.909	72.62998
738.094	42.31993
738.279	57.72178
738.463	44.54106
738.648	57.22682
738.833	53.02257
739.017	67.1446
739.202	45.43371
739.386	48.94119
739.571	38.31549
739.756	53.97368
739.94	47.64248
740.125	56.62087
740.309	44.07122
740.494	57.68893
740.678	49.30786
740.863	54.43787
741.047	53.4816
741.231	62.48517
741.416	41.84901
741.6	66.03703
741.785	42.1559
741.969	57.43386
742.153	61.68457
742.338	32.75459
742.522	52.63626
742.706	60.73837
742.89	37.01076
743.075	54.81576
743.259	65.67801
743.443	59.72862
743.627	65.82674
743.812	74.51809
743.996	27.24726
744.18	47.55352
744.364	44.61734
744.548	78.12863
744.732	47.73302
744.916	59.79699
745.1	60.03972
745.285	47.99608
745.469	57.51864
745.653	69.84315
745.837	38.25991
746.021	78.58963
746.205	63.06864
746.389	56.43961
746.573	50.21699
746.757	68.3147
746.94	47.8905
747.124	66.75409
747.308	39.91136
747.492	65.66899
747.676	46.86113
747.86	80.38741
748.044	48.91897
748.227	36.67393
748.411	97.70157
748.595	55.22286
748.779	43.69339
748.963	57.76056
749.146	54.17367
749.33	46.39514
749.514	41.97092
749.697	64.43183
749.881	43.81041
750.065	40.36758
750.248	52.39346
750.432	79.53079
750.616	54.13647
750.799	39.24003
750.983	78.4185
751.166	81.05523
751.35	34.76238
751.533	66.48904
751.717	66.49536
751.9	69.2072
752.084	47.28525
752.267	41.08718
752.451	45.85706
752.634	54.9206
752.818	61.83388
753.001	61.3849
753.184	66.18411
753.368	58.19715
753.551	18.63552
753.734	45.43709
753.918	78.34381
754.101	43.5665
754.284	61.45144
754.467	52.38375
754.651	46.177
754.834	42.50806
755.017	65.31578
755.2	66.12444
755.384	43.5891
755.567	65.21348
755.75	64.7807
755.933	51.28543
756.116	57.90945
756.299	47.4456
756.482	40.32615
756.665	61.46663
756.848	55.87207
757.032	61.77284
757.215	35.45358
757.398	42.44718
757.581	42.70151
757.764	89.22803
757.947	52.96081
758.129	67.26076
758.312	23.59103
758.495	51.38712
758.678	54.81812
758.861	51.1106
759.044	80.05032
759.227	44.61474
759.41	47.74547
759.592	65.34497
759.775	54.0811
759.958	68.89127
760.141	39.83122
760.324	79.14182
760.506	74.23282
760.689	64.82864
760.872	83.84544
761.054	60.85685
761.237	51.87618
761.42	60.97762
761.602	65.73542
761.785	60.22728
761.968	72.94888
762.15	77.74085
762.333	50.03463
762.515	59.4598
762.698	48.09374
762.88	62.17116
763.063	54.091
763.245	61.18636
763.428	40.75078
763.61	42.43284
763.793	38.84798
763.975	52.35551
764.158	46.95035
764.34	45.28011
764.522	41.49447
764.705	50.48235
764.887	66.38983
765.069	37.9804
765.252	64.14008
765.434	62.50784
765.616	54.95449
765.799	49.53696
765.981	62.28575
766.163	47.3794
766.345	70.80221
766.528	47.8887
766.71	28.92173
766.892	53.76416
767.074	70.53704
767.256	53.24363
767.438	79.88558
767.62	60.50297
767.802	89.27016
767.985	64.36167
768.167	82.61089
768.349	48.75822
768.531	73.84649
768.713	63.11774
768.895	72.758
769.077	62.31566
769.259	97.13585
769.441	134.01658
769.623	72.22324
769.804	90.49263
769.986	82.47685
770.168	96.00803
770.35	121.42469
770.532	91.18471
770.714	94.06551
770.896	101.08832
771.077	47.93107
771.259	101.71021
771.441	84.05945
771.623	110.48494
771.804	122.48869
771.986	44.6798
772.168	69.4986
772.35	100.62899
772.531	136.0192
772.713	82.05076
772.894	107.47269
773.076	75.85178
773.258	64.91979
773.439	110.624
773.621	123.16681
773.802	55.30575
773.984	69.32561
774.166	85.07338
774.347	124.08473
774.529	106.43621
774.71	36.29442
774.891	80.5842
775.073	80.20475
775.254	121.15377
775.436	61.8779
775.617	133.20887
775.799	69.70781
775.98	119.56003
776.161	125.41795
776.343	125.57608
776.524	82.36554
776.705	77.53397
776.886	44.75005
777.068	86.41523
777.249	155.14163
777.43	133.05025
777.611	57.77212
777.793	84.05015
777.974	123.86879
778.155	72.72182
778.336	66.36817
778.517	135.3455
778.698	62.22459
778.879	37.00851
779.061	25.24049
779.242	96.51318
779.423	95.58225
779.604	75.03517
779.785	80.82513
779.966	90.30895
780.147	109.13213
780.328	109.0623
780.509	148.91283
780.69	108.76982
780.871	73.82989
781.051	49.28202
781.232	89.7594
781.413	88.95819
781.594	75.85138
781.775	76.2164
781.956	71.13389
782.137	40.6911
782.317	65.57775
782.498	90.93177
782.679	87.48428
782.86	88.66886
783.04	72.07524
783.221	95.56356
783.402	134.38126
783.583	90.57982
783.763	108.46831
783.944	76.1705
784.124	47.6461
784.305	129.59508
784.486	98.54931
784.666	87.23554
784.847	52.15493
785.027	177.45645
785.208	68.62574
785.388	69.55474
785.569	71.9538
785.749	84.2441
785.93	68.32928
786.11	50.22682
786.291	104.40877
786.471	93.34607
786.652	105.90352
786.832	82.57251
787.012	91.42162
787.193	56.54834
787.373	83.53857
787.553	77.93658
787.734	88.07263
787.914	71.49592
788.094	93.35164
788.275	88.71283
788.455	74.218
788.635	52.18755
788.815	87.07913
788.995	59.01709
789.176	49.99971
789.356	64.13014
789.536	74.28735
789.716	92.98753
789.896	66.05153
790.076	69.33384
790.256	85.34009
790.436	32.86005
790.616	64.25679
790.796	93.16745
790.976	66.81048
791.156	66.69824
791.336	103.21917
791.516	89.78442
791.696	78.39011
791.876	46.10251
792.056	87.45376
792.236	109.173
792.416	102.67143
792.596	96.79549
792.776	98.02909
792.956	93.84129
793.135	126.31917
793.315	56.92361
793.495	118.39654
793.675	103.08499
793.854	104.85806
794.034	107.61121
794.214	58.03928
794.394	97.68947
794.573	113.68199
794.753	85.84656
794.933	59.85005
795.112	91.93627
795.292	100.95586
795.472	130.70693
795.651	55.65181
795.831	80.65627
796.01	68.61673
796.19	78.41885
796.369	79.35315
796.549	93.28411
796.728	81.00789
796.908	55.46381
797.087	55.65418
797.267	81.72155
797.446	56.7257
797.626	98.74211
797.805	88.15853
797.984	66.35535
798.164	96.70713
798.343	58.43487
798.522	93.86014
798.702	84.9154
798.881	56.64053
799.06	82.39902
799.239	41.79308
799.419	57.41663
799.598	124.02932
799.777	97.3419
799.956	119.2426
800.136	70.81472
800.315	69.59034
800.494	97.30801
800.673	114.469
800.852	107.56243
801.031	120.79968
801.21	98.2511
801.389	69.82639
801.568	90.04902
801.747	140.94087
801.926	81.03561
802.105	123.69365
802.284	81.10418
802.463	122.01954
802.642	97.16874
802.821	93.7345
803	119.47716
803.179	104.51552
803.358	120.90551
803.537	70.23813
803.716	101.38595
803.895	63.19076
804.073	87.13308
804.252	70.05331
804.431	99.96546
804.61	87.12127
804.789	115.79191
804.967	73.275
805.146	78.0569
805.325	152.0054
805.503	105.42638
805.682	53.63451
805.861	160.84448
806.039	121.71889
806.218	75.55897
806.397	91.30156
806.575	94.04743
806.754	92.04692
806.932	62.42408
807.111	133.74918
807.289	109.32117
807.468	103.83627
807.646	111.20607
807.825	101.70635
808.003	98.45187
808.182	118.03775
808.36	95.30723
808.539	72.88089
808.717	126.97826
808.895	60.89858
809.074	99.45628
809.252	83.85942
809.43	111.67724
809.609	125.58403
809.787	138.64605
809.965	87.16277
810.144	80.8139
810.322	81.80513
810.5	109.89443
810.678	86.86989
810.856	157.49246
811.035	121.3287
811.213	123.34727
811.391	125.38932
811.569	97.63131
811.747	197.17756
811.925	144.4568
812.103	76.30159
812.281	76.12693
812.459	169.84599
812.637	139.38193
812.816	130.09901
812.994	162.53312
813.171	134.07102
813.349	114.39125
813.527	142.43325
813.705	147.0674
813.883	167.42881
814.061	139.54742
814.239	152.54394
814.417	176.04884
814.595	121.56909
814.773	110.36348
814.95	102.41826
815.128	110.49059
815.306	92.43232
815.484	93.21899
815.662	74.34559
815.839	67.93925
816.017	82.61671
816.195	125.82954
816.372	91.71523
816.55	137.44787
816.728	146.97443
816.905	97.73187
817.083	133.24683
817.261	100.21223
817.438	198.17258
817.616	151.28834
817.793	84.80285
817.971	127.26776
818.148	118.17865
818.326	140.91454
818.503	104.58142
818.681	156.94095
818.858	80.75477
819.036	97.68899
819.213	101.62478
819.391	75.22711
819.568	70.33732
819.745	66.21573
819.923	105.91266
820.1	69.94439
820.277	64.31274
820.455	73.47067
820.632	80.66815
820.809	81.42794
820.986	55.51035
821.164	50.17523
821.341	43.76496
821.518	57.18378
821.695	44.49864
821.872	45.1232
822.05	39.41495
822.227	34.50708
822.404	36.68422
822.581	38.60403
822.758	37.21183
822.935	37.18966
823.112	39.87555
823.289	37.16335
823.466	42.15039
823.643	40.82567
823.82	45.51956
823.997	44.22249
824.174	49.16646
824.351	58.27619
824.528	56.82651
824.705	54.599
824.882	59.50801
825.059	69.97803
825.236	56.24305
825.412	56.84859
825.589	64.70312
825.766	84.4671
825.943	55.50027
826.12	66.22904
826.296	51.93038
826.473	55.80862
826.65	58.27234
826.827	66.60318
827.003	48.50683
827.18	51.13318
827.357	57.16899
827.533	50.69052
827.71	36.39247
827.887	47.37785
828.063	53.65123
828.24	48.10759
828.416	58.47438
828.593	53.41647
828.769	71.09614
828.946	74.60302
829.122	77.22698
829.299	82.16586
829.475	50.23603
829.652	77.56427
829.828	123.601
830.005	76.57688
830.181	103.88268
830.357	80.08213
830.534	107.11089
830.71	86.97486
830.886	112.06208
831.063	102.20862
831.239	141.13062
831.415	68.72232
831.592	124.60614
831.768	93.61881
831.944	69.77932
832.12	131.26022
832.296	125.84631
832.473	114.22327
832.649	80.33617
832.825	99.41254
833.001	60.69708
833.177	84.57937
833.353	75.26645
833.529	48.48414
833.705	63.91663
833.881	50.66801
834.058	49.31652
834.234	55.02762
834.41	54.75676
834.586	44.73502
834.761	51.39777
834.937	54.5303
835.113	60.28055
835.289	55.65162
835.465	64.76557
835.641	60.37661
835.817	65.86698
835.993	112.95991
836.169	63.80353
836.344	89.94944
836.52	103.01735
836.696	110.77464
836.872	77.10417
837.048	209.47045
837.223	80.06571
837.399	166.29112
837.575	143.42925
837.75	131.9653
837.926	182.68492
838.102	280.56785
838.277	215.83627
838.453	304.56057
838.628	288.60484
838.804	104.81523
838.98	264.93284
839.155	140.29338
839.331	185.92183
839.506	110.80965
839.682	122.84652
839.857	152.9208
840.033	171.96852
840.208	91.31172
840.384	48.99917
840.559	89.6879
840.734	140.4634
840.91	173.08058
841.085	122.12826
841.26	113.62789
841.436	135.2781
841.611	105.14172
841.786	160.76952
841.962	239.43057
842.137	160.98835
842.312	99.37068
842.487	130.13459
842.663	125.73746
842.838	137.24841
843.013	553.34353
843.188	341.2482
843.363	200.54013
843.538	518.49083
843.714	505.25285
843.889	468.83341
844.064	517.51194
844.239	295.0953
844.414	554.57184
844.589	314.74555
844.764	712.07007
844.939	506.50731
845.114	472.1202
845.289	678.49348
845.464	774.69903
845.639	736.121
845.814	279.39933
845.989	479.84936
846.163	395.91948
846.338	749.33188
846.513	633.77956
846.688	371.23615
846.863	782.98784
847.038	404.0058
847.212	388.31841
847.387	783.15622
847.562	430.97742
847.737	612.83166
847.911	271.5191
848.086	247.4413
848.261	499.15987
848.435	338.50174
848.61	571.25782
848.785	281.04299
848.959	508.97683
849.134	632.74515
849.308	1122.68716
849.483	656.53597
849.658	708.80441
849.832	411.42672
850.007	281.75707
850.181	1077.49209
850.356	761.78089
850.53	973.4693
850.705	453.52583
850.879	250.82958
851.053	493.31082
851.228	458.47008
851.402	887.30923
851.577	682.67091
851.751	870.37676
851.925	437.64187
852.099	291.71693
852.274	319.67094
852.448	448.60979
852.622	1088.10304
852.797	388.8867
852.971	478.11647
853.145	919.47242
853.319	1024.03736
853.493	1191.95588
853.668	503.69911
853.842	1616.37857
854.016	1203.87772
854.19	1683.60952
854.364	651.58124
854.538	649.52337
854.712	737.01094
854.886	401.34789
855.06	401.64322
855.234	207.45052
855.408	826.5245
855.582	606.46685
855.756	919.12044
855.93	629.13767
856.104	708.57632
856.278	829.31351
856.452	414.07538
856.626	655.97925
856.8	1118.82328
856.973	1158.87728
857.147	1184.26872
857.321	1448.45148
857.495	551.33494
857.669	816.15041
857.842	690.55768
858.016	530.07534
858.19	400.0272
858.364	1306.28944
858.537	630.40145
858.711	1276.56501
858.885	932.199
859.058	312.69941
859.232	263.39318
859.405	388.38856
859.579	796.25871
859.753	724.69078
859.926	910.60894
860.1	565.51737
860.273	1017.01209
860.447	829.78163
860.62	646.39004
860.794	846.52286
860.967	660.12353
861.141	563.92211
861.314	772.4598
861.487	677.79216
861.661	550.79125
861.834	842.78437
862.008	1108.63494
862.181	839.31218
862.354	1378.06596
862.528	639.28247
862.701	428.42469
862.874	387.70875
863.047	480.67665
863.221	573.45259
863.394	377.52848
863.567	485.37274
863.74	193.25374
863.913	1086.79702
864.087	604.83942
864.26	660.51612
864.433	678.78546
864.606	998.41774
864.779	1620.39345
864.952	343.39317
865.125	924.22529
865.298	589.13297
865.471	594.33731
865.644	1002.04176
865.817	630.04313
865.99	1012.3061
866.163	885.10137
866.336	473.62614
866.509	414.58855
866.682	652.38302
866.855	1374.61507
867.028	213.98746
867.2	608.05401
867.373	146.23272
867.546	509.01769
867.719	1275.94118
867.892	695.70872
868.064	398.78666
868.237	450.09379
868.41	502.72691
868.583	299.36355
868.755	309.5372
868.928	681.53636
869.101	917.76071
869.273	1790.27482
869.446	486.0182
869.619	969.76618
869.791	490.24069
869.964	756.78994
870.136	1031.44441
870.309	430.57774
870.481	375.72403
870.654	365.07958
870.826	432.35279
870.999	333.88163
871.171	545.12423
871.344	282.69388
871.516	456.81616
871.689	425.03202
871.861	547.59312
872.033	379.06868
872.206	341.6826
872.378	492.50199
872.55	473.15332
872.723	403.10928
872.895	677.48678
873.067	564.67754
873.24	526.27926
873.412	486.96125
873.584	360.25183
873.756	648.28944
873.928	789.01301
874.101	372.39987
874.273	515.32693
874.445	185.5194
874.617	289.53252
874.789	364.11751
874.961	396.19093
875.133	468.72594
875.305	570.88968
875.477	441.049
875.649	248.73582
875.821	307.74325
875.993	736.44923
876.165	358.68687
876.337	541.35268
876.509	534.77664
876.681	448.01149
876.853	493.07428
877.025	729.02408
877.197	253.39944
877.369	305.78626
877.541	448.08153
877.712	116.11768
877.884	220.66634
878.056	520.22879
878.228	251.57738
878.4	507.40964
878.571	250.87602
878.743	158.17067
878.915	322.91525
879.086	173.57698
879.258	199.98045
879.43	190.57146
879.601	170.34656
879.773	156.54922
879.945	50.555
880.116	72.62011
880.288	45.90654
880.459	49.8365
880.631	41.85772
880.802	47.66239
880.974	44.85823
881.145	35.62891
881.317	44.82714
881.488	37.16754
881.66	40.65767
881.831	38.91261
882.002	46.93256
882.174	38.81992
882.345	46.14259
882.517	33.27297
882.688	53.86914
882.859	45.31887
883.03	68.39937
883.202	66.14007
883.373	61.1533
883.544	61.95394
883.715	92.97386
883.887	85.54228
884.058	79.48817
884.229	99.71441
884.4	101.93421
884.571	127.06261
884.742	103.33626
884.914	103.91216
885.085	156.28749
885.256	199.90298
885.427	167.74217
885.598	174.17369
885.769	198.32285
885.94	217.14898
886.111	132.66703
886.282	208.53215
886.453	223.19186
886.624	176.66903
886.795	262.24639
886.966	237.99308
887.136	264.20511
887.307	196.44674
887.478	417.76166
887.649	338.37597
887.82	374.40921
887.991	277.42199
888.161	434.76644
888.332	412.54319
888.503	251.67566
888.674	474.93678
888.844	727.09593
889.015	714.76086
889.186	310.17331
889.356	649.36326
889.527	360.29234
889.698	1031.98128
889.868	317.83624
890.039	560.39565
890.209	372.29398
890.38	596.02947
890.551	495.7323
890.721	825.38881
890.892	555.47749
891.062	1248.86767
891.233	552.81835
891.403	806.51902
891.574	531.13588
891.744	368.00031
891.914	356.5391
892.085	547.33785
892.255	144.75338
892.425	530.67642
892.596	384.08022
892.766	535.7553
892.936	749.15347
893.107	468.62025
893.277	235.60337
893.447	216.47841
893.618	180.32906
893.788	263.73859
893.958	136.01141
894.128	109.06606
894.298	140.63091
894.468	162.49779
894.639	83.33481
894.809	60.8979
894.979	83.79587
895.149	110.25401
895.319	90.2631
895.489	101.00874
895.659	155.31707
895.829	92.47263
895.999	108.96574
896.169	92.85888
896.339	129.40175
896.509	268.35249
896.679	252.58244
896.849	286.34619
897.019	364.21838
897.189	353.09142
897.358	303.5339
897.528	510.14899
897.698	228.83986
897.868	369.70975
898.038	899.23436
898.208	1019.53827
898.377	268.04318
898.547	1925.01833
898.717	3346.54019
898.886	851.83036
899.056	781.77233
899.226	2145.50755
899.395	2129.82054
899.565	2498.5354
899.735	4360.55393
899.904	1596.44866
900.074	5982.39065
900.244	652.8708
900.413	3539.0257
900.583	894.91656
900.752	-1831.10712
900.922	1107.79409
901.091	204.799
901.261	2257.17577
901.43	1200.87886
901.599	3107.74318
901.769	2853.11406
901.938	2690.69025
902.108	984.17552
902.277	1530.0461
902.446	555.46625
902.616	716.95296
902.785	593.35937
902.954	828.88256
903.124	493.87878
903.293	370.25717
903.462	145.75348
903.631	222.30676
903.801	154.68164
903.97	87.84857
904.139	118.5585
904.308	100.44169
904.477	84.10934
904.646	52.84221
904.816	79.96872
904.985	119.82828
905.154	175.64089
