Data from WindowProjectSample_Transmission__65__00065.txt Node

Date: Sat May 03 17:22:38 EDT 2025
User: jessi
Spectrometer: SR400872
Trigger mode: 0
Integration Time (sec): 5.000010E-1
Scans to average: 6
Electric dark correction enabled: true
Nonlinearity correction enabled: true
Boxcar width: 0
XAxis mode: Wavelengths
Number of Pixels in Spectrum: 3648
>>>>>Begin Spectral Data<<<<<
184.909	9581.56698
185.132	3068.89225
185.355	-3278.33272
185.578	4203.65401
185.801	-822.11309
186.024	9650.26753
186.247	744.61724
186.47	744.82222
186.693	644.79929
186.916	228.06706
187.139	6665.46777
187.362	-2324.93549
187.585	-31776.18532
187.808	961.7996
188.031	16.76876
188.254	1338.27501
188.476	-1615.98117
188.699	1723.23508
188.922	2757.04023
189.145	7301.78595
189.368	-493.99378
189.591	-746.86518
189.813	1774.95238
190.036	3117.65299
190.259	4171.69727
190.482	1398.60308
190.705	-4615.84853
190.927	-1713.08011
191.15	4614.44012
191.373	1507.95016
191.595	-870.63553
191.818	2699.19367
192.041	-382.7981
192.263	-4013.49793
192.486	-4203.15406
192.709	14688.02894
192.931	3201.27962
193.154	5678.7462
193.377	-49078.43613
193.599	-24590.04466
193.822	-3236.75656
194.044	-2611.52609
194.267	800.46489
194.489	-190.37462
194.712	2426.03657
194.934	16690.45783
195.157	2076.45724
195.379	3486.60387
195.602	1216.91306
195.824	1647.06741
196.047	-3487.24717
196.269	62154.92491
196.492	-2984.83895
196.714	8546.00875
196.936	1859.49758
197.159	2873.89907
197.381	-570.19382
197.604	-2180.22129
197.826	62874.45854
198.048	1622.86004
198.271	8065.33353
198.493	6515.24724
198.715	-11285.48526
198.938	-2831.78625
199.16	-6341.92896
199.382	2133.69352
199.604	1077.00036
199.827	-1972.30278
200.049	992.26505
200.271	-10683.62119
200.493	5346.31447
200.715	30673.97971
200.938	11426.26268
201.16	-31595.75395
201.382	-4855.21597
201.604	-1198.8009
201.826	2215.09968
202.048	-10383.88139
202.27	4439.6516
202.492	13334.0843
202.715	-985.33706
202.937	27149.97828
203.159	3455.24547
203.381	1440.37522
203.603	-1027.2827
203.825	-977.60275
204.047	2571.72904
204.269	-1784.38146
204.491	-1111.28697
204.713	7282.19181
204.935	-2876.52996
205.156	1267.07584
205.378	7819.3035
205.6	-1260.81607
205.822	-52131.73642
206.044	-2295.84647
206.266	5313.03679
206.488	983.3678
206.71	-27202.93819
206.932	3735.78136
207.153	-8178.98412
207.375	-2656.01081
207.597	4743.38116
207.819	1868.18166
208.041	-49261.04854
208.262	1571.90895
208.484	-1021.55778
208.706	-1120.58993
208.927	1712.6496
209.149	-2149.64511
209.371	-1393.94738
209.593	-1490.82207
209.814	-2327.31667
210.036	-747.11926
210.258	-2704.75976
210.479	3096.05386
210.701	2226.95288
210.922	5242.13558
211.144	38748.18218
211.366	-31873.82667
211.587	-1195.57745
211.809	-2115.98578
212.03	-1079.06264
212.252	-550.57891
212.473	896.97888
212.695	-786.0881
212.916	-1820.59851
213.138	2936.34572
213.359	-1467.57349
213.581	1204.60971
213.802	-1076.14465
214.024	4184.25646
214.245	-5117.09781
214.466	-326.68977
214.688	1542.53949
214.909	-700.21117
215.131	-5031.61768
215.352	-5161.61726
215.573	6213.47305
215.795	2053.0262
216.016	7578.81985
216.237	-361.14157
216.459	2374.37278
216.68	-2323.39947
216.901	1584.41446
217.122	3687.59437
217.344	3231.94894
217.565	-3156.78608
217.786	2434.19743
218.007	67011.10701
218.228	2159.59584
218.45	3023.7758
218.671	-1401.63417
218.892	1724.53321
219.113	3397.10024
219.334	1547.86001
219.555	-4371.82475
219.776	1608.58959
219.997	6083.11187
220.219	727.03907
220.44	3916.31962
220.661	4883.24248
220.882	2943.90314
221.103	-800.41574
221.324	-2391.06473
221.545	-3773.15947
221.766	-2113.69344
221.987	2868.50883
222.208	-5553.28389
222.429	4563.26718
222.65	-397.81931
222.87	-871.58049
223.091	2019.13926
223.312	2642.55906
223.533	10961.4225
223.754	1457.7472
223.975	1211.60088
224.196	-1947.16448
224.417	1996.78424
224.637	-6169.29106
224.858	-972.1468
225.079	866.71867
225.3	1479.31025
225.521	2265.19318
225.741	653.92233
225.962	1193.94592
226.183	-5134.76033
226.404	645.8767
226.624	734.04627
226.845	567.67298
227.066	406.1535
227.286	252.90363
227.507	126.67426
227.728	93.74988
227.948	145.9463
228.169	47.74152
228.389	56.24848
228.61	26.81207
228.831	41.2492
229.051	4.16605
229.272	23.72075
229.492	33.34815
229.713	10.11752
229.933	25.54605
230.154	21.24152
230.374	36.0247
230.595	27.36623
230.815	16.59182
231.036	27.23724
231.256	-3.95301
231.477	46.85644
231.697	28.11702
231.917	29.25413
232.138	38.67044
232.358	86.78063
232.579	69.17364
232.799	11.13887
233.019	73.86647
233.24	83.93264
233.46	28.44549
233.68	46.50943
233.901	35.23279
234.121	20.1134
234.341	9.56843
234.561	-0.90312
234.782	16.34113
235.002	50.74789
235.222	1.88305
235.442	42.0338
235.662	21.32026
235.883	45.68974
236.103	38.48991
236.323	28.05939
236.543	21.35198
236.763	30.05722
236.983	31.05505
237.203	32.69468
237.423	46.90298
237.643	64.91583
237.864	55.03241
238.084	15.36043
238.304	24.09495
238.524	34.71493
238.744	31.78552
238.964	48.19252
239.184	46.75984
239.404	48.66625
239.624	25.36264
239.843	42.89628
240.063	24.57779
240.283	17.59779
240.503	19.04048
240.723	18.59899
240.943	10.18813
241.163	13.66932
241.383	6.57175
241.603	5.62297
241.822	6.00088
242.042	4.85007
242.262	6.2124
242.482	6.98323
242.702	8.56749
242.921	2.49046
243.141	6.15028
243.361	4.7166
243.581	7.45435
243.8	6.22044
244.02	4.13934
244.24	7.66025
244.459	7.25857
244.679	14.98001
244.899	9.66341
245.118	10.36049
245.338	8.24401
245.558	11.45188
245.777	7.11872
245.997	7.71678
246.216	7.81328
246.436	4.34993
246.655	3.62831
246.875	2.46153
247.094	4.906
247.314	1.5831
247.533	2.62008
247.753	3.49638
247.972	2.73047
248.192	0.93255
248.411	1.70709
248.631	3.16029
248.85	3.99323
249.07	3.25929
249.289	5.37662
249.508	3.8619
249.728	5.79919
249.947	6.60737
250.166	6.95823
250.386	3.7878
250.605	5.21242
250.824	8.71777
251.044	6.16736
251.263	20.30785
251.482	10.4089
251.701	10.16373
251.921	0.6121
252.14	3.18217
252.359	3.52549
252.578	8.0994
252.798	2.65838
253.017	7.08872
253.236	4.02198
253.455	4.4405
253.674	9.14919
253.893	4.67597
254.112	5.70075
254.331	9.39998
254.551	7.48922
254.77	3.68368
254.989	11.3507
255.208	10.23958
255.427	11.92664
255.646	10.72845
255.865	17.02453
256.084	7.11344
256.303	8.0342
256.522	10.82434
256.741	2.20274
256.96	2.75286
257.179	7.33067
257.397	8.71232
257.616	3.96878
257.835	4.78775
258.054	12.05475
258.273	7.68556
258.492	8.99835
258.711	5.31513
258.93	2.42814
259.148	3.3324
259.367	3.58765
259.586	4.39473
259.805	2.0414
260.023	3.99937
260.242	3.06172
260.461	2.29382
260.68	1.21609
260.898	3.68234
261.117	1.25009
261.336	0.94365
261.554	3.12146
261.773	2.99433
261.992	0.43751
262.21	3.0616
262.429	3.72103
262.648	6.04866
262.866	7.0817
263.085	4.88358
263.303	4.1102
263.522	6.87189
263.74	7.44746
263.959	11.94773
264.178	6.68969
264.396	5.65653
264.615	3.82318
264.833	8.81138
265.051	8.32285
265.27	8.23851
265.488	9.00848
265.707	5.17174
265.925	8.64109
266.144	4.35318
266.362	5.14921
266.58	5.31772
266.799	3.83269
267.017	4.80321
267.235	4.4784
267.454	2.73076
267.672	1.87661
267.89	3.66968
268.109	3.97746
268.327	3.80152
268.545	0.90422
268.763	3.62143
268.982	1.5533
269.2	4.32857
269.418	2.60579
269.636	2.27321
269.854	3.70009
270.073	3.04788
270.291	1.60103
270.509	1.71072
270.727	3.86904
270.945	5.7815
271.163	5.86864
271.381	1.67164
271.599	2.6239
271.817	4.20144
272.036	1.49109
272.254	2.52482
272.472	2.14103
272.69	2.00207
272.908	2.09926
273.126	3.6254
273.344	4.42012
273.562	1.69151
273.779	2.28525
273.997	3.22508
274.215	3.52362
274.433	2.61202
274.651	4.13433
274.869	3.87578
275.087	2.58535
275.305	3.65274
275.523	1.90257
275.74	2.76209
275.958	4.47636
276.176	6.47312
276.394	2.26527
276.612	2.6856
276.829	2.71761
277.047	2.30468
277.265	2.55567
277.483	3.1248
277.7	3.68455
277.918	3.03359
278.136	5.31136
278.353	2.56298
278.571	1.20725
278.789	4.31411
279.006	0.72466
279.224	2.62686
279.442	4.15321
279.659	2.73062
279.877	2.09782
280.094	4.61783
280.312	1.08906
280.529	2.99473
280.747	1.01752
280.964	2.06696
281.182	4.8992
281.399	2.51949
281.617	3.21554
281.834	2.59024
282.052	1.89275
282.269	2.42839
282.487	2.03276
282.704	1.75635
282.921	2.02229
283.139	2.73661
283.356	3.49485
283.574	3.04479
283.791	1.47771
284.008	4.37728
284.226	2.41402
284.443	2.62788
284.66	3.47525
284.877	2.82979
285.095	1.91197
285.312	1.33106
285.529	0.97628
285.746	0.73242
285.964	1.69168
286.181	1.0663
286.398	1.90266
286.615	2.33038
286.832	2.17608
287.05	0.78611
287.267	1.5346
287.484	1.70194
287.701	2.40015
287.918	2.13263
288.135	2.35961
288.352	1.0958
288.569	1.40744
288.786	2.05474
289.003	1.56846
289.22	2.31691
289.437	1.48672
289.654	2.49926
289.871	2.63215
290.088	2.48397
290.305	1.91422
290.522	1.39514
290.739	1.79719
290.956	2.47846
291.173	3.14697
291.39	2.90637
291.607	2.11328
291.824	1.49201
292.04	1.11088
292.257	2.46388
292.474	2.78994
292.691	1.84399
292.908	0.91896
293.125	1.59085
293.341	1.04991
293.558	4.42145
293.775	1.66698
293.992	1.68629
294.208	0.86588
294.425	1.12324
294.642	1.64652
294.858	2.04904
295.075	0.69847
295.292	1.62404
295.508	2.07075
295.725	3.02899
295.942	1.6387
296.158	1.1659
296.375	1.74011
296.591	1.44073
296.808	1.44867
297.024	1.58934
297.241	1.77462
297.458	2.02052
297.674	0.28029
297.891	1.6421
298.107	1.20393
298.323	0.98153
298.54	2.37717
298.756	1.22257
298.973	0.46893
299.189	2.46538
299.406	1.10746
299.622	2.43092
299.838	2.49627
300.055	2.26171
300.271	0.72251
300.487	0.85909
300.704	1.08377
300.92	0.67673
301.136	3.27816
301.353	2.22006
301.569	1.73137
301.785	1.92247
302.001	2.32019
302.218	1.95594
302.434	1.88584
302.65	0.686
302.866	1.37157
303.083	3.40629
303.299	3.14969
303.515	1.55595
303.731	1.7716
303.947	0.67713
304.163	1.02122
304.379	1.94687
304.595	2.1112
304.812	1.19398
305.028	1.04652
305.244	1.35502
305.46	2.1949
305.676	2.50592
305.892	2.87009
306.108	1.83096
306.324	1.39489
306.54	3.23262
306.756	2.35386
306.972	2.22063
307.187	1.57971
307.403	2.97003
307.619	1.31791
307.835	2.45569
308.051	2.93365
308.267	0.65539
308.483	2.56523
308.699	2.11492
308.914	1.7179
309.13	1.71463
309.346	0.53047
309.562	0.84558
309.778	0.54643
309.993	1.92372
310.209	1.50248
310.425	0.68095
310.641	1.40217
310.856	0.79004
311.072	0.78169
311.288	1.52966
311.503	1.67592
311.719	0.47525
311.935	0.27338
312.15	1.84916
312.366	1.59851
312.581	2.05039
312.797	1.59783
313.013	2.03559
313.228	1.28005
313.444	1.64358
313.659	1.17257
313.875	1.94354
314.09	1.58839
314.306	2.53019
314.521	2.27458
314.737	2.10629
314.952	1.85316
315.168	1.58251
315.383	2.1975
315.599	1.48067
315.814	1.44265
316.029	2.36632
316.245	0.75115
316.46	0.6467
316.675	2.73892
316.891	3.07146
317.106	3.85033
317.321	2.19794
317.537	2.12507
317.752	2.24311
317.967	2.44679
318.183	1.19561
318.398	1.45154
318.613	2.51403
318.828	2.86083
319.043	2.35268
319.259	1.42623
319.474	2.09585
319.689	2.60133
319.904	0.40209
320.119	2.13927
320.334	2.15533
320.549	1.55089
320.765	2.59927
320.98	1.84407
321.195	2.41602
321.41	1.51525
321.625	2.34161
321.84	3.22999
322.055	3.21103
322.27	1.15747
322.485	0.87796
322.7	1.7319
322.915	2.61886
323.13	1.1093
323.345	2.94164
323.56	2.3069
323.775	2.35287
323.989	1.9663
324.204	1.77743
324.419	2.36395
324.634	0.8017
324.849	1.51532
325.064	3.45497
325.279	2.51418
325.493	2.2292
325.708	2.56544
325.923	1.1478
326.138	1.15368
326.352	2.88869
326.567	2.4882
326.782	1.47232
326.997	1.21933
327.211	1.96901
327.426	2.01493
327.641	1.54353
327.855	0.6405
328.07	2.17328
328.285	3.05649
328.499	1.5466
328.714	2.28949
328.928	2.47036
329.143	1.87907
329.358	2.38318
329.572	2.58596
329.787	2.6845
330.001	3.6507
330.216	0.69474
330.43	3.02333
330.645	3.02118
330.859	2.43863
331.074	1.47139
331.288	2.01627
331.503	2.80327
331.717	0.95386
331.931	1.74115
332.146	1.67356
332.36	3.0969
332.575	2.13416
332.789	1.97182
333.003	1.63239
333.218	2.08942
333.432	1.49636
333.646	2.29327
333.86	2.8402
334.075	3.01912
334.289	1.35943
334.503	1.25968
334.717	2.18867
334.932	2.28845
335.146	2.7709
335.36	1.50079
335.574	2.3059
335.788	2.10059
336.003	2.67479
336.217	2.26676
336.431	2.34325
336.645	1.43647
336.859	1.02232
337.073	1.68404
337.287	1.98881
337.501	1.19218
337.715	1.8378
337.929	2.189
338.143	1.00307
338.357	1.76195
338.571	1.09371
338.785	2.05154
338.999	1.36004
339.213	1.46702
339.427	0.68461
339.641	2.63906
339.855	1.70886
340.069	1.28769
340.283	2.4333
340.497	3.03095
340.711	2.01538
340.924	1.45865
341.138	0.87285
341.352	0.74687
341.566	1.85841
341.78	0.52452
341.993	1.39761
342.207	1.04247
342.421	2.05267
342.635	1.89069
342.848	1.31806
343.062	0.23099
343.276	1.27287
343.49	3.30674
343.703	1.05248
343.917	2.18026
344.131	2.21629
344.344	1.13299
344.558	1.18545
344.771	1.13341
344.985	2.6454
345.199	2.9157
345.412	1.85555
345.626	1.92332
345.839	0.59884
346.053	0.8854
346.266	0.88898
346.48	2.2412
346.693	1.75997
346.907	2.01816
347.12	1.10156
347.334	1.94469
347.547	2.02336
347.76	1.52514
347.974	2.43443
348.187	1.80552
348.401	1.43558
348.614	1.34601
348.827	1.41306
349.041	2.09442
349.254	0.57888
349.467	1.50043
349.681	0.71119
349.894	1.29428
350.107	2.5813
350.32	2.75513
350.534	0.47607
350.747	1.33178
350.96	1.13893
351.173	1.20901
351.386	1.39194
351.6	1.38109
351.813	1.04659
352.026	1.68054
352.239	0.77815
352.452	1.31091
352.665	2.00324
352.878	1.20031
353.092	3.14892
353.305	1.92636
353.518	1.75603
353.731	1.03967
353.944	2.64601
354.157	1.09035
354.37	0.92099
354.583	0.75591
354.796	0.56032
355.009	2.28145
355.222	1.47833
355.435	1.62484
355.647	2.27563
355.86	0.77455
356.073	1.50008
356.286	1.22668
356.499	1.98595
356.712	1.73147
356.925	1.74486
357.138	2.16736
357.35	0.7926
357.563	1.25304
357.776	1.53728
357.989	1.22908
358.201	1.91006
358.414	1.38085
358.627	2.30317
358.84	1.26657
359.052	0.82668
359.265	0.7624
359.478	2.15723
359.69	-0.25058
359.903	1.79728
360.116	1.92259
360.328	0.41782
360.541	1.96105
360.753	0.74264
360.966	1.02097
361.179	1.08362
361.391	1.05621
361.604	0.73715
361.816	1.07312
362.029	0.89821
362.241	0.83943
362.454	1.01556
362.666	0.81034
362.879	1.31519
363.091	1.14101
363.304	0.7688
363.516	1.2566
363.728	0.53239
363.941	1.61979
364.153	0.8326
364.366	0.00996
364.578	0.67902
364.79	1.66438
365.003	1.2107
365.215	1.06047
365.427	1.56528
365.639	1.99705
365.852	1.47032
366.064	2.58204
366.276	1.00875
366.488	1.53622
366.701	0.97634
366.913	1.22447
367.125	1.19447
367.337	0.91334
367.549	1.09922
367.762	1.34002
367.974	1.27309
368.186	0.83226
368.398	2.00765
368.61	1.68634
368.822	1.77848
369.034	1.34557
369.246	1.63778
369.458	2.69774
369.67	0.77957
369.882	2.46816
370.094	0.12752
370.306	2.31975
370.518	1.11057
370.73	0.75223
370.942	0.69797
371.154	1.05552
371.366	0.95432
371.578	1.46548
371.79	0.76111
372.002	2.11206
372.214	2.33118
372.425	1.419
372.637	2.12738
372.849	1.36226
373.061	0.04766
373.273	1.43574
373.484	1.71047
373.696	1.9359
373.908	-0.03309
374.12	1.99212
374.331	1.69672
374.543	0.87791
374.755	0.74342
374.967	1.35787
375.178	1.81867
375.39	1.20872
375.602	1.44154
375.813	0.58224
376.025	0.44249
376.236	1.31426
376.448	1.31945
376.66	1.09524
376.871	1.00638
377.083	1.88815
377.294	2.04034
377.506	1.04611
377.717	2.00799
377.929	1.40369
378.14	0.87392
378.352	1.55298
378.563	1.53547
378.775	2.12947
378.986	0.74996
379.197	1.21969
379.409	1.00578
379.62	1.83099
379.832	1.4583
380.043	1.14348
380.254	1.36286
380.466	0.65746
380.677	3.09948
380.888	2.66817
381.1	2.84011
381.311	2.74795
381.522	1.47942
381.733	3.19141
381.945	1.19037
382.156	1.37243
382.367	1.15392
382.578	3.13414
382.789	3.07845
383.001	1.10176
383.212	2.15632
383.423	2.42077
383.634	2.08631
383.845	1.81581
384.056	1.17231
384.267	1.37479
384.478	1.33791
384.69	0.73485
384.901	1.78352
385.112	1.63536
385.323	2.45975
385.534	1.7706
385.745	1.87726
385.956	1.61408
386.167	0.79465
386.378	1.74463
386.588	0.91787
386.799	1.00714
387.01	0.50878
387.221	2.07519
387.432	1.46091
387.643	2.56459
387.854	1.43946
388.065	1.37979
388.275	1.39161
388.486	1.3578
388.697	1.58464
388.908	1.44239
389.119	2.35427
389.329	2.66292
389.54	1.67279
389.751	1.9261
389.962	2.48129
390.172	1.72798
390.383	1.54234
390.594	1.27814
390.804	1.21815
391.015	1.41159
391.226	1.7978
391.436	2.08399
391.647	1.97487
391.858	2.09596
392.068	0.80784
392.279	1.1313
392.489	1.91669
392.7	2.36581
392.91	1.38381
393.121	1.45653
393.331	2.07787
393.542	2.49698
393.752	2.07379
393.963	2.04246
394.173	2.15078
394.384	2.33411
394.594	1.83415
394.804	1.32051
395.015	1.82013
395.225	2.35547
395.436	1.48773
395.646	2.35136
395.856	1.80583
396.067	1.216
396.277	2.58212
396.487	2.2057
396.697	2.19667
396.908	2.57094
397.118	2.37929
397.328	2.34105
397.538	2.44646
397.749	1.85815
397.959	2.73187
398.169	2.52689
398.379	1.31832
398.589	2.34922
398.8	2.42613
399.01	2.35016
399.22	2.18495
399.43	3.60126
399.64	2.21031
399.85	2.70386
400.06	2.4677
400.27	2.02796
400.48	2.28674
400.69	3.0872
400.9	2.09949
401.11	1.81896
401.32	2.89378
401.53	2.21235
401.74	3.14008
401.95	2.82944
402.16	2.33332
402.37	2.79108
402.58	2.24614
402.79	2.8636
403	2.88639
403.209	2.19514
403.419	3.12841
403.629	2.26172
403.839	3.11012
404.049	3.0768
404.258	2.38141
404.468	2.38797
404.678	3.19768
404.888	3.35341
405.097	2.60683
405.307	2.68578
405.517	3.22377
405.727	3.11739
405.936	2.57702
406.146	3.07872
406.356	3.53247
406.565	2.8478
406.775	2.56271
406.984	2.60209
407.194	4.04735
407.404	2.9782
407.613	3.16632
407.823	3.46769
408.032	3.73967
408.242	3.53535
408.451	2.70784
408.661	2.86372
408.87	3.96301
409.08	2.60351
409.289	3.10455
409.499	3.1393
409.708	3.07754
409.918	2.02168
410.127	3.28555
410.336	4.00885
410.546	3.51087
410.755	2.97699
410.964	2.90312
411.174	2.53056
411.383	3.62117
411.592	3.3792
411.802	2.69832
412.011	3.70875
412.22	3.15129
412.429	3.84124
412.639	4.09074
412.848	3.83924
413.057	4.2511
413.266	3.80439
413.475	3.42858
413.685	3.75584
413.894	3.76124
414.103	3.98677
414.312	3.74654
414.521	3.12897
414.73	3.52385
414.939	4.61549
415.148	3.66736
415.357	3.61455
415.566	3.47299
415.776	3.45618
415.985	3.43948
416.194	3.9787
416.403	4.85795
416.611	3.21172
416.82	3.69958
417.029	4.20577
417.238	3.81715
417.447	3.99427
417.656	4.47329
417.865	4.40904
418.074	4.74411
418.283	5.22092
418.492	6.27785
418.7	6.0438
418.909	7.40584
419.118	6.2103
419.327	6.61007
419.536	6.49375
419.744	6.36746
419.953	7.87639
420.162	7.86149
420.371	6.79483
420.579	7.14132
420.788	8.19258
420.997	8.45116
421.205	8.46233
421.414	8.14841
421.623	8.53138
421.831	7.86815
422.04	8.46484
422.249	7.70966
422.457	7.9608
422.666	7.39591
422.874	8.41237
423.083	8.45699
423.291	8.42286
423.5	8.29023
423.708	8.51989
423.917	9.13046
424.125	8.35078
424.334	8.2058
424.542	10.1567
424.751	9.35392
424.959	8.98133
425.167	9.30372
425.376	9.1559
425.584	8.05873
425.793	8.14042
426.001	6.97879
426.209	7.6215
426.418	6.37838
426.626	5.94795
426.834	5.61647
427.042	5.88645
427.251	5.26734
427.459	6.05544
427.667	5.1587
427.875	4.21631
428.084	4.63991
428.292	5.29755
428.5	5.11086
428.708	3.92895
428.916	4.05678
429.124	4.61368
429.333	4.41695
429.541	4.47489
429.749	4.88005
429.957	4.71811
430.165	6.08218
430.373	3.88334
430.581	4.64924
430.789	5.36261
430.997	4.53612
431.205	4.30982
431.413	5.07079
431.621	4.79328
431.829	5.41683
432.037	5.25499
432.245	5.30491
432.453	5.87042
432.661	5.64267
432.869	7.03208
433.076	5.677
433.284	6.25624
433.492	6.84705
433.7	7.16437
433.908	6.1355
434.116	6.55481
434.323	6.51434
434.531	6.25246
434.739	6.44903
434.947	6.17713
435.154	6.4304
435.362	5.54454
435.57	5.23945
435.778	5.02803
435.985	5.45178
436.193	5.03195
436.401	6.16867
436.608	5.3126
436.816	4.82304
437.023	6.26118
437.231	6.39385
437.439	5.92099
437.646	6.18911
437.854	5.90645
438.061	6.20197
438.269	6.07044
438.476	6.44471
438.684	6.32792
438.891	6.5042
439.099	6.41648
439.306	6.20103
439.514	6.39435
439.721	7.72786
439.929	7.01395
440.136	8.02832
440.343	8.13517
440.551	7.91402
440.758	9.63068
440.965	8.39761
441.173	8.02722
441.38	7.69098
441.587	7.65611
441.795	7.44201
442.002	7.34351
442.209	7.19943
442.416	7.06386
442.624	6.94659
442.831	6.56137
443.038	5.9919
443.245	5.65203
443.452	5.65834
443.66	6.5062
443.867	5.95568
444.074	5.85202
444.281	6.12781
444.488	6.5904
444.695	6.95886
444.902	7.03351
445.109	8.12228
445.316	7.93433
445.523	8.19552
445.73	8.01547
445.937	8.86065
446.144	9.48896
446.351	9.96065
446.558	8.55461
446.765	10.47846
446.972	10.02275
447.179	9.42235
447.386	10.22714
447.593	8.53178
447.8	9.55852
448.007	8.25217
448.214	7.74201
448.42	7.19292
448.627	7.80851
448.834	6.93586
449.041	6.6387
449.248	6.36847
449.454	6.53238
449.661	7.00388
449.868	5.50311
450.075	5.38907
450.281	4.59142
450.488	4.83505
450.695	4.84112
450.901	4.85782
451.108	4.94668
451.315	5.8862
451.521	5.21109
451.728	6.11383
451.935	5.08187
452.141	5.51504
452.348	5.79425
452.554	5.51667
452.761	5.59122
452.967	6.6812
453.174	5.98527
453.38	5.83274
453.587	4.8906
453.793	5.73091
454	5.73809
454.206	6.57312
454.413	5.73446
454.619	5.52067
454.825	5.12801
455.032	5.44408
455.238	5.61953
455.445	4.54442
455.651	5.27525
455.857	4.27362
456.064	5.07862
456.27	5.01765
456.476	4.75824
456.682	4.49847
456.889	5.21502
457.095	5.34271
457.301	6.16253
457.507	5.36255
457.714	5.44173
457.92	5.63555
458.126	5.44815
458.332	6.11253
458.538	6.33027
458.744	6.89264
458.951	7.15961
459.157	9.254
459.363	8.44709
459.569	8.73758
459.775	9.39736
459.981	8.99809
460.187	9.49969
460.393	9.66637
460.599	9.96953
460.805	9.00917
461.011	8.16314
461.217	8.37838
461.423	7.59051
461.629	6.6451
461.835	6.57428
462.041	5.87007
462.247	6.39668
462.453	5.28457
462.658	5.17521
462.864	5.60536
463.07	5.47815
463.276	5.3715
463.482	5.20339
463.688	6.12949
463.893	4.81149
464.099	5.11049
464.305	5.89665
464.511	5.02917
464.716	5.2167
464.922	5.7023
465.128	4.83541
465.333	5.96597
465.539	5.76231
465.745	5.4046
465.95	5.24193
466.156	6.77667
466.362	5.86111
466.567	5.37749
466.773	5.11696
466.978	6.09796
467.184	5.0085
467.389	4.61523
467.595	5.57144
467.8	5.03026
468.006	5.90466
468.211	6.09156
468.417	4.85579
468.622	5.59854
468.828	5.68498
469.033	5.53252
469.239	6.87104
469.444	5.05279
469.649	5.7092
469.855	5.37214
470.06	5.40638
470.266	4.88389
470.471	5.75694
470.676	5.52249
470.881	4.45271
471.087	6.18217
471.292	6.39035
471.497	4.64048
471.703	5.37399
471.908	5.16589
472.113	5.44069
472.318	5.86443
472.523	5.00928
472.729	5.64096
472.934	5.62112
473.139	5.2524
473.344	5.66372
473.549	6.0825
473.754	5.03256
473.959	6.6454
474.164	5.15433
474.369	5.23683
474.575	5.68681
474.78	5.56645
474.985	5.14609
475.19	4.565
475.395	5.13417
475.6	5.38371
475.804	6.28819
476.009	5.61163
476.214	5.4156
476.419	5.29869
476.624	4.88507
476.829	5.35077
477.034	6.19101
477.239	5.65397
477.444	6.25494
477.648	6.38384
477.853	6.46071
478.058	5.95485
478.263	5.84579
478.468	5.65414
478.672	5.71154
478.877	7.12177
479.082	7.06623
479.287	6.33588
479.491	6.12389
479.696	5.60182
479.901	6.63937
480.105	6.64135
480.31	6.04604
480.515	6.57544
480.719	8.2324
480.924	6.78554
481.128	6.75613
481.333	7.90001
481.538	8.08131
481.742	8.36005
481.947	9.39532
482.151	10.32652
482.356	10.96697
482.56	13.17357
482.765	14.35104
482.969	17.37043
483.174	19.40288
483.378	22.75201
483.582	23.35422
483.787	25.33319
483.991	25.74361
484.196	25.92994
484.4	25.36265
484.604	25.76006
484.809	23.37708
485.013	22.24707
485.217	19.98837
485.422	17.6781
485.626	16.04054
485.83	14.95496
486.034	14.59052
486.239	14.91538
486.443	15.1205
486.647	15.44566
486.851	16.83665
487.055	18.13924
487.26	17.77102
487.464	19.0214
487.668	18.3248
487.872	18.5704
488.076	19.23602
488.28	18.16465
488.484	17.14544
488.688	16.65265
488.892	15.88345
489.096	14.74616
489.3	13.43417
489.504	12.51732
489.708	12.1283
489.912	11.87478
490.116	11.4097
490.32	11.10237
490.524	12.09057
490.728	13.01755
490.932	13.45405
491.136	14.48567
491.34	15.90896
491.544	16.33993
491.748	16.07419
491.951	16.02028
492.155	15.61475
492.359	15.20067
492.563	13.57819
492.767	12.94363
492.97	11.3623
493.174	10.18988
493.378	9.42961
493.582	8.15933
493.785	7.83992
493.989	7.78017
494.193	7.2736
494.396	6.71829
494.6	7.14507
494.804	6.52004
495.007	6.31889
495.211	6.5027
495.414	6.48291
495.618	7.11252
495.822	7.83013
496.025	7.40619
496.229	8.14276
496.432	7.59226
496.636	7.91801
496.839	8.10528
497.043	8.91433
497.246	8.2739
497.45	7.80698
497.653	8.19948
497.856	8.01131
498.06	7.46011
498.263	7.37485
498.467	7.23467
498.67	7.86857
498.873	7.35568
499.077	6.83157
499.28	6.87715
499.483	6.78118
499.686	7.05442
499.89	6.64148
500.093	6.71772
500.296	5.77044
500.499	6.90522
500.703	5.85107
500.906	5.99555
501.109	6.68008
501.312	5.83393
501.515	5.74356
501.719	6.03483
501.922	6.32577
502.125	5.89329
502.328	5.75658
502.531	5.4267
502.734	5.82055
502.937	5.03234
503.14	5.81852
503.343	5.50307
503.546	5.74207
503.749	5.74458
503.952	6.28934
504.155	5.61409
504.358	6.31041
504.561	6.30476
504.764	5.58614
504.967	6.12753
505.17	5.90509
505.373	6.58389
505.576	5.79473
505.778	6.13956
505.981	5.43978
506.184	6.57042
506.387	5.01228
506.59	6.78922
506.793	6.37988
506.995	6.18162
507.198	5.12062
507.401	6.39145
507.604	6.4603
507.806	5.93884
508.009	6.12156
508.212	6.9823
508.414	6.36564
508.617	6.4115
508.82	6.87929
509.022	7.74308
509.225	7.05322
509.427	6.2615
509.63	7.55276
509.833	6.9352
510.035	6.60631
510.238	5.92282
510.44	7.35503
510.643	5.84678
510.845	7.65338
511.048	6.90376
511.25	6.2868
511.453	6.55396
511.655	6.95694
511.858	6.63428
512.06	7.13359
512.262	6.62135
512.465	7.26623
512.667	6.34065
512.869	5.83991
513.072	6.59762
513.274	6.75073
513.476	6.54019
513.679	6.49679
513.881	5.56629
514.083	6.75657
514.286	5.7739
514.488	5.66685
514.69	5.51623
514.892	5.42827
515.094	6.38116
515.297	5.8197
515.499	6.01211
515.701	5.51105
515.903	6.77842
516.105	6.71997
516.307	6.29011
516.509	5.10606
516.711	5.69604
516.913	6.13814
517.116	6.5397
517.318	6.6637
517.52	7.83266
517.722	8.00511
517.924	7.4846
518.126	8.57949
518.328	8.12211
518.529	9.02466
518.731	9.82988
518.933	8.15753
519.135	8.6017
519.337	9.2879
519.539	8.58918
519.741	6.89739
519.943	7.31831
520.145	6.7841
520.346	7.34942
520.548	6.40713
520.75	6.57554
520.952	6.11581
521.153	6.37363
521.355	6.33004
521.557	5.56086
521.759	6.02472
521.96	5.98437
522.162	5.44355
522.364	6.45774
522.565	5.70357
522.767	6.31433
522.969	6.46825
523.17	6.19763
523.372	6.11682
523.573	5.88343
523.775	6.0677
523.977	5.61503
524.178	7.29734
524.38	6.54051
524.581	7.66152
524.783	7.45347
524.984	8.60661
525.186	8.38098
525.387	9.08764
525.589	9.14908
525.79	9.11626
525.991	9.05871
526.193	9.95953
526.394	9.05252
526.596	10.03937
526.797	10.4584
526.998	10.15871
527.2	10.38618
527.401	12.54905
527.602	13.49984
527.803	16.1793
528.005	17.15874
528.206	18.51271
528.407	19.32919
528.608	19.34593
528.81	19.75024
529.011	19.03652
529.212	20.04197
529.413	18.40154
529.614	17.29261
529.815	16.49278
530.017	14.97922
530.218	13.19258
530.419	11.70582
530.62	11.18895
530.821	10.49897
531.022	9.12855
531.223	10.09016
531.424	9.83402
531.625	10.07255
531.826	9.79358
532.027	10.27242
532.228	11.7522
532.429	11.6106
532.63	12.21556
532.831	13.18359
533.032	13.00279
533.233	13.89331
533.433	13.64379
533.634	13.91674
533.835	13.01021
534.036	12.2828
534.237	11.78191
534.438	11.01554
534.638	9.55021
534.839	9.34813
535.04	9.14284
535.241	8.45815
535.441	9.63079
535.642	8.94623
535.843	8.23058
536.043	8.7223
536.244	9.0595
536.445	9.36671
536.645	10.11913
536.846	9.84626
537.047	10.23444
537.247	8.78402
537.448	8.73048
537.648	8.53966
537.849	7.91838
538.049	7.45206
538.25	7.32339
538.451	7.21028
538.651	6.1257
538.851	6.92255
539.052	7.36927
539.252	7.28867
539.453	6.86514
539.653	7.64306
539.854	7.98472
540.054	8.9454
540.254	10.61727
540.455	11.66231
540.655	11.44271
540.855	13.00709
541.056	14.43305
541.256	13.95464
541.456	15.27181
541.657	14.45366
541.857	15.5508
542.057	13.6723
542.257	13.05696
542.458	13.42534
542.658	12.82272
542.858	11.0175
543.058	11.33274
543.258	10.55378
543.458	8.87533
543.659	8.52262
543.859	9.39427
544.059	9.05745
544.259	8.11602
544.459	8.34504
544.659	7.2619
544.859	7.74621
545.059	7.06638
545.259	7.75516
545.459	7.29004
545.659	8.03062
545.859	7.45587
546.059	7.64104
546.259	7.2246
546.459	7.09739
546.659	7.03571
546.859	8.0319
547.059	7.68136
547.258	7.58533
547.458	7.39442
547.658	6.42693
547.858	5.94842
548.058	6.39114
548.258	6.03287
548.457	5.64992
548.657	7.52597
548.857	5.94262
549.057	6.40341
549.256	6.41379
549.456	5.7547
549.656	4.9241
549.855	7.02335
550.055	5.73061
550.255	6.95387
550.454	6.18995
550.654	6.36397
550.853	6.76042
551.053	6.36624
551.253	6.14344
551.452	6.17882
551.652	5.26011
551.851	5.14521
552.051	5.86652
552.25	5.65728
552.45	5.65606
552.649	5.89087
552.849	5.5871
553.048	5.92946
553.248	6.28534
553.447	5.41986
553.646	6.5257
553.846	7.08792
554.045	6.69772
554.244	5.17124
554.444	7.08472
554.643	5.59288
554.842	7.03321
555.042	7.1836
555.241	5.54431
555.44	5.32737
555.64	6.38059
555.839	7.25057
556.038	6.34454
556.237	5.45693
556.436	6.09645
556.636	6.30477
556.835	5.58291
557.034	7.00572
557.233	5.81898
557.432	5.07577
557.631	6.57414
557.83	5.77664
558.029	5.50209
558.228	5.50549
558.427	5.35427
558.626	6.14351
558.825	5.26459
559.024	5.8238
559.223	7.00466
559.422	5.79704
559.621	6.19992
559.82	4.41075
560.019	5.79047
560.218	5.92425
560.417	4.07622
560.616	5.53126
560.815	8.14939
561.014	4.89542
561.212	7.02367
561.411	5.9781
561.61	4.97179
561.809	5.69082
562.008	6.63733
562.206	5.72432
562.405	6.44605
562.604	5.6645
562.803	6.10865
563.001	5.74671
563.2	5.24569
563.399	6.20484
563.597	5.05954
563.796	5.81165
563.995	5.13021
564.193	6.26012
564.392	5.77362
564.59	7.34362
564.789	4.5865
564.988	5.53749
565.186	6.08095
565.385	5.61295
565.583	5.48766
565.782	5.82647
565.98	5.7291
566.179	5.96412
566.377	5.25752
566.575	5.42356
566.774	6.688
566.972	6.42101
567.171	7.09239
567.369	6.74082
567.567	6.25664
567.766	6.19915
567.964	4.6619
568.162	6.14557
568.361	6.56986
568.559	5.75759
568.757	6.09326
568.956	6.0554
569.154	5.94428
569.352	6.29741
569.55	5.74749
569.748	5.84583
569.947	5.51261
570.145	5.2788
570.343	5.31824
570.541	6.60446
570.739	5.18908
570.937	5.7958
571.135	6.09532
571.333	7.09312
571.532	6.91894
571.73	6.13188
571.928	6.42969
572.126	6.17667
572.324	5.54416
572.522	6.93537
572.72	7.70135
572.918	5.98946
573.116	6.39577
573.313	6.10944
573.511	6.06713
573.709	5.37741
573.907	6.45595
574.105	5.77788
574.303	4.92124
574.501	4.90587
574.699	6.25836
574.896	6.04888
575.094	6.48427
575.292	5.04882
575.49	6.53894
575.688	5.58742
575.885	6.71785
576.083	7.50494
576.281	6.14084
576.478	5.47063
576.676	6.31288
576.874	4.75967
577.071	5.61555
577.269	7.74634
577.467	5.8557
577.664	5.84006
577.862	6.68614
578.059	5.15894
578.257	6.43209
578.455	5.54639
578.652	5.90731
578.85	4.46602
579.047	5.66033
579.245	5.69242
579.442	5.69823
579.64	5.84242
579.837	4.3592
580.034	7.83309
580.232	5.80607
580.429	4.71058
580.627	6.07716
580.824	6.79392
581.021	6.25332
581.219	5.46233
581.416	5.14487
581.613	6.82323
581.811	6.81354
582.008	5.14213
582.205	6.38449
582.402	5.91304
582.6	6.94014
582.797	5.87369
582.994	6.02935
583.191	6.25496
583.388	5.75563
583.586	6.41679
583.783	6.53561
583.98	5.3486
584.177	6.09976
584.374	3.52291
584.571	5.67848
584.768	5.79796
584.965	5.28275
585.162	6.49764
585.359	7.39025
585.556	5.91349
585.753	5.9478
585.95	4.88344
586.147	5.19223
586.344	6.24942
586.541	5.36057
586.738	4.83304
586.935	5.68528
587.132	5.15201
587.329	6.52446
587.526	5.91455
587.722	9.78676
587.919	4.62264
588.116	6.19606
588.313	6.90116
588.51	7.55875
588.706	5.46873
588.903	6.19742
589.1	6.48477
589.297	7.73338
589.493	5.99866
589.69	6.27732
589.887	5.49777
590.083	4.95849
590.28	5.35534
590.477	6.43507
590.673	6.52508
590.87	6.80298
591.067	5.73886
591.263	6.24358
591.46	6.22262
591.656	5.59388
591.853	6.74717
592.049	5.00898
592.246	5.1151
592.442	6.74127
592.639	6.75745
592.835	5.03064
593.032	6.15854
593.228	4.68598
593.425	4.64955
593.621	4.49183
593.817	6.02026
594.014	5.26681
594.21	5.88846
594.406	6.55069
594.603	6.386
594.799	5.33261
594.995	3.89904
595.192	6.73678
595.388	5.62598
595.584	5.5948
595.78	4.61915
595.977	7.61013
596.173	7.11338
596.369	5.64542
596.565	5.06716
596.761	4.68549
596.957	6.905
597.154	5.26362
597.35	5.44321
597.546	5.38378
597.742	6.5397
597.938	6.01559
598.134	5.39306
598.33	6.14857
598.526	7.04654
598.722	6.13713
598.918	7.38972
599.114	6.18565
599.31	5.04619
599.506	5.80301
599.702	5.28381
599.898	5.93
600.094	6.43754
600.29	6.41616
600.485	6.72503
600.681	5.13661
600.877	7.25085
601.073	5.94463
601.269	7.55593
601.465	7.04082
601.66	4.96386
601.856	4.03304
602.052	7.63584
602.248	5.51274
602.443	4.44299
602.639	4.89246
602.835	5.26037
603.03	5.03462
603.226	6.67525
603.422	4.99773
603.617	5.61118
603.813	5.59934
604.009	5.41175
604.204	6.97655
604.4	4.77095
604.595	6.80986
604.791	5.14025
604.986	6.16564
605.182	5.43404
605.377	5.68243
605.573	5.48552
605.768	6.07031
605.964	6.50415
606.159	6.63077
606.355	6.98175
606.55	5.55389
606.746	7.20396
606.941	5.89673
607.136	7.69015
607.332	8.70227
607.527	4.53352
607.722	6.01389
607.918	5.4461
608.113	5.40697
608.308	6.41447
608.503	6.39764
608.699	6.1803
608.894	6.59992
609.089	5.1972
609.284	6.02353
609.479	5.55417
609.675	6.57047
609.87	5.57859
610.065	6.60796
610.26	6.87639
610.455	6.64528
610.65	6.13593
610.845	6.12789
611.04	6.85873
611.235	5.94273
611.43	5.45779
611.625	4.81794
611.82	7.40926
612.015	5.34873
612.21	7.30813
612.405	4.39747
612.6	7.73986
612.795	7.17326
612.99	6.81357
613.185	4.99543
613.38	5.16636
613.575	6.06678
613.77	8.81712
613.965	4.23813
614.159	5.05463
614.354	7.39632
614.549	7.12372
614.744	6.82001
614.938	5.18905
615.133	4.69089
615.328	7.37743
615.523	7.13207
615.717	9.12306
615.912	4.9561
616.107	6.46464
616.301	5.94734
616.496	5.53819
616.691	7.65133
616.885	6.9298
617.08	9.18278
617.274	7.09731
617.469	8.40718
617.664	6.9902
617.858	5.53059
618.053	6.58221
618.247	5.89769
618.442	3.47435
618.636	7.91809
618.831	5.45786
619.025	5.57041
619.219	9.27179
619.414	2.82399
619.608	5.91932
619.803	5.58725
619.997	8.49137
620.191	7.5782
620.386	6.784
620.58	5.931
620.774	4.26936
620.969	4.45479
621.163	6.22565
621.357	4.73506
621.551	5.97085
621.746	6.30841
621.94	5.93319
622.134	9.85493
622.328	8.39806
622.522	4.6123
622.716	7.44183
622.911	7.21117
623.105	7.44859
623.299	6.70264
623.493	10.2504
623.687	5.02058
623.881	5.72429
624.075	6.78771
624.269	7.669
624.463	4.07168
624.657	4.54133
624.851	6.92215
625.045	6.98044
625.239	7.50995
625.433	5.96309
625.627	7.91095
625.821	5.69633
626.015	5.20499
626.209	6.44842
626.403	4.68485
626.596	6.68831
626.79	7.13025
626.984	4.97466
627.178	6.82209
627.372	6.75005
627.565	7.13721
627.759	4.71106
627.953	4.89669
628.147	6.75671
628.34	6.87819
628.534	8.53821
628.728	6.10211
628.921	7.08883
629.115	7.04608
629.309	7.42428
629.502	7.40185
629.696	6.22408
629.89	6.02828
630.083	6.59879
630.277	7.04301
630.47	8.86351
630.664	5.9573
630.857	4.74847
631.051	7.37242
631.244	7.70772
631.438	7.63343
631.631	5.36588
631.825	8.38831
632.018	7.08048
632.212	8.51957
632.405	7.83823
632.598	5.48039
632.792	6.38032
632.985	3.58124
633.178	5.82965
633.372	6.14278
633.565	6.00843
633.758	8.01963
633.952	5.44923
634.145	4.95058
634.338	6.66393
634.531	5.57241
634.724	5.72618
634.918	6.47125
635.111	6.05891
635.304	5.60404
635.497	9.64097
635.69	6.78103
635.883	8.18217
636.077	5.26894
636.27	7.35046
636.463	6.58108
636.656	6.83713
636.849	5.65247
637.042	7.25558
637.235	8.48433
637.428	7.73133
637.621	7.73649
637.814	8.64034
638.007	8.80641
638.2	8.59678
638.393	9.2608
638.586	5.25538
638.778	6.39629
638.971	6.72122
639.164	9.24753
639.357	7.02376
639.55	8.71932
639.743	7.94864
639.935	7.43693
640.128	9.90187
640.321	7.73008
640.514	7.08861
640.707	10.22446
640.899	7.90762
641.092	4.11182
641.285	18.24687
641.477	3.75365
641.67	10.74601
641.863	8.9274
642.055	6.91452
642.248	6.83237
642.441	6.15107
642.633	8.31914
642.826	9.42346
643.018	9.17321
643.211	10.25575
643.403	9.80554
643.596	10.48362
643.788	10.53707
643.981	6.84469
644.173	8.53239
644.366	7.0927
644.558	3.97372
644.751	8.55974
644.943	5.15056
645.135	9.92616
645.328	9.80739
645.52	7.83508
645.712	9.03474
645.905	12.31236
646.097	5.35019
646.289	7.66729
646.482	10.67862
646.674	6.17787
646.866	9.2798
647.058	8.32641
647.251	5.41592
647.443	6.45606
647.635	6.88877
647.827	5.44121
648.019	6.30613
648.211	7.31856
648.404	7.25956
648.596	10.04216
648.788	8.22655
648.98	7.40401
649.172	8.03727
649.364	8.26295
649.556	4.61669
649.748	12.03497
649.94	5.7649
650.132	8.08489
650.324	5.95276
650.516	6.46842
650.708	9.74252
650.9	5.51244
651.092	5.02904
651.284	5.16535
651.476	5.6293
651.667	8.45358
651.859	9.56707
652.051	6.92737
652.243	7.25934
652.435	6.22192
652.627	8.79287
652.818	8.2294
653.01	4.95857
653.202	5.90542
653.394	6.72547
653.585	7.87471
653.777	15.26945
653.969	9.97952
654.16	9.3594
654.352	5.7432
654.544	6.74595
654.735	9.57036
654.927	7.62853
655.118	10.3091
655.31	8.26342
655.502	9.62715
655.693	6.60242
655.885	8.64737
656.076	9.7065
656.268	7.68011
656.459	10.49342
656.651	9.95251
656.842	6.58985
657.034	6.05736
657.225	9.42528
657.416	9.98368
657.608	10.09143
657.799	7.44454
657.99	9.48393
658.182	6.57626
658.373	6.6172
658.564	8.90325
658.756	7.42632
658.947	7.43111
659.138	5.84323
659.33	6.92049
659.521	6.13211
659.712	7.3572
659.903	7.31453
660.094	6.64193
660.286	4.88942
660.477	11.06058
660.668	8.62776
660.859	7.67371
661.05	5.06009
661.241	8.66177
661.432	8.55213
661.623	7.25844
661.814	7.02391
662.006	4.86197
662.197	8.33346
662.388	9.73441
662.579	7.95613
662.77	10.00292
662.96	13.26664
663.151	9.4534
663.342	5.31362
663.533	8.71044
663.724	8.18387
663.915	11.34796
664.106	7.83406
664.297	11.51446
664.488	9.31499
664.678	6.97314
664.869	10.05095
665.06	10.66688
665.251	8.79413
665.442	8.86009
665.632	5.73177
665.823	11.87867
666.014	2.52616
666.204	10.00529
666.395	10.83431
666.586	13.75637
666.776	10.23055
666.967	11.86315
667.158	8.83002
667.348	11.18568
667.539	6.06346
667.729	10.2067
667.92	6.80373
668.111	9.98113
668.301	9.77881
668.492	8.04664
668.682	8.78185
668.873	8.19485
669.063	5.90717
669.253	8.88517
669.444	10.49497
669.634	7.64454
669.825	12.90958
670.015	10.39368
670.206	6.37303
670.396	12.29007
670.586	8.09017
670.777	9.25302
670.967	4.12277
671.157	7.92247
671.347	6.85208
671.538	11.84966
671.728	9.70893
671.918	12.75497
672.108	10.6521
672.299	7.85975
672.489	9.4402
672.679	7.33196
672.869	9.77454
673.059	12.01478
673.249	10.3082
673.44	6.1222
673.63	8.05204
673.82	10.91258
674.01	7.13569
674.2	9.91168
674.39	14.97974
674.58	10.5586
674.77	9.34768
674.96	8.98232
675.15	17.82652
675.34	11.7987
675.53	9.21358
675.72	8.28766
675.91	5.70187
676.099	13.08155
676.289	14.48306
676.479	11.25108
676.669	8.24305
676.859	9.88507
677.049	6.39644
677.238	9.08188
677.428	13.45658
677.618	10.08904
677.808	11.77767
677.997	10.24552
678.187	5.96541
678.377	8.89003
678.567	7.47459
678.756	7.88866
678.946	7.94879
679.136	6.12057
679.325	7.29399
679.515	6.94915
679.704	6.10084
679.894	10.13764
680.084	9.44718
680.273	10.7842
680.463	7.1659
680.652	6.59969
680.842	8.72509
681.031	10.75425
681.221	7.16256
681.41	9.45813
681.6	8.10364
681.789	10.85398
681.978	11.89853
682.168	9.82203
682.357	9.2941
682.547	10.44764
682.736	9.73081
682.925	12.17369
683.115	11.34954
683.304	10.89691
683.493	10.42349
683.682	10.60512
683.872	10.6828
684.061	12.21975
684.25	10.30842
684.439	14.20329
684.629	11.16337
684.818	18.07687
685.007	8.9615
685.196	8.3458
685.385	13.63158
685.574	10.20794
685.763	10.76439
685.952	10.81223
686.142	7.09988
686.331	12.66247
686.52	5.19847
686.709	13.72847
686.898	14.22798
687.087	11.60016
687.276	14.38015
687.465	12.60182
687.654	9.44694
687.842	14.10937
688.031	6.72347
688.22	13.76922
688.409	10.57131
688.598	10.39987
688.787	16.784
688.976	10.85238
689.165	15.8125
689.353	9.56005
689.542	11.2643
689.731	11.96028
689.92	15.24335
690.108	12.3135
690.297	9.70874
690.486	10.55452
690.675	12.76533
690.863	15.45323
691.052	14.26768
691.241	11.15677
691.429	11.17508
691.618	14.79674
691.806	7.35425
691.995	9.5907
692.184	10.37063
692.372	9.50109
692.561	11.63836
692.749	10.98118
692.938	17.93299
693.126	12.59488
693.315	11.05847
693.503	12.04555
693.692	12.95406
693.88	13.94025
694.068	17.61062
694.257	10.62436
694.445	11.76629
694.634	4.68146
694.822	14.27314
695.01	15.12274
695.199	15.73345
695.387	15.51891
695.575	14.71548
695.763	11.10422
695.952	9.07516
696.14	6.80694
696.328	9.54696
696.516	11.45097
696.705	11.81139
696.893	11.75439
697.081	5.82955
697.269	12.86527
697.457	8.27886
697.645	7.92049
697.833	13.35927
698.021	8.85855
698.21	9.37092
698.398	10.30902
698.586	7.51663
698.774	7.52411
698.962	10.05397
699.15	8.194
699.338	6.41516
699.526	11.3337
699.714	8.85525
699.901	8.81707
700.089	13.3591
700.277	8.56309
700.465	10.18682
700.653	13.08053
700.841	12.29528
701.029	8.72758
701.217	14.36274
701.404	11.11188
701.592	15.27408
701.78	17.22978
701.968	9.14737
702.155	10.84475
702.343	6.60787
702.531	15.4311
702.718	12.40143
702.906	10.28906
703.094	9.59169
703.281	15.42822
703.469	10.95507
703.657	15.46481
703.844	21.99118
704.032	17.5633
704.219	9.99834
704.407	12.62965
704.595	15.70525
704.782	11.61051
704.97	10.24451
705.157	10.25825
705.345	16.80894
705.532	21.49007
705.719	13.61688
705.907	17.07407
706.094	12.73225
706.282	17.90453
706.469	11.00886
706.656	12.98926
706.844	10.37847
707.031	15.25094
707.218	13.06914
707.406	17.22349
707.593	14.44124
707.78	15.22828
707.968	12.26081
708.155	9.6005
708.342	14.13804
708.529	14.70232
708.716	13.34941
708.904	18.18704
709.091	14.8793
709.278	8.9759
709.465	19.55551
709.652	18.82454
709.839	17.18386
710.026	13.9875
710.213	7.25052
710.4	14.25333
710.587	15.94112
710.774	17.06821
710.961	16.37945
711.148	12.86746
711.335	17.69533
711.522	12.12266
711.709	15.18814
711.896	20.11612
712.083	16.06563
712.27	10.59543
712.457	13.91328
712.644	8.87212
712.831	21.13055
713.017	13.65868
713.204	16.32913
713.391	10.55684
713.578	18.22445
713.765	18.48762
713.951	16.28405
714.138	25.96663
714.325	16.12535
714.512	13.93606
714.698	11.19612
714.885	19.94142
715.072	15.77827
715.258	14.77039
715.445	12.04554
715.631	18.99923
715.818	5.21281
716.005	12.02369
716.191	16.09216
716.378	12.39403
716.564	17.65374
716.751	11.89655
716.937	13.05653
717.124	19.03914
717.31	11.45764
717.497	21.57179
717.683	12.08246
717.869	23.96234
718.056	13.41108
718.242	16.82941
718.429	13.6315
718.615	9.93667
718.801	14.68888
718.988	18.52496
719.174	16.05766
719.36	14.83394
719.547	19.95609
719.733	16.31408
719.919	16.63589
720.105	17.58555
720.291	14.46986
720.478	15.67567
720.664	15.04539
720.85	13.23754
721.036	28.66663
721.222	22.13866
721.408	14.807
721.595	24.10762
721.781	22.38481
721.967	20.76428
722.153	22.30495
722.339	18.05362
722.525	17.27492
722.711	11.21816
722.897	9.86595
723.083	14.3515
723.269	20.78556
723.455	27.60109
723.641	30.11377
723.827	17.67847
724.012	18.26027
724.198	14.62603
724.384	22.18868
724.57	18.16241
724.756	8.78353
724.942	7.49583
725.127	20.9041
725.313	22.49279
725.499	22.35627
725.685	24.30515
725.87	18.88756
726.056	12.76298
726.242	23.23592
726.428	10.33823
726.613	21.57553
726.799	15.18299
726.985	11.54597
727.17	9.85216
727.356	24.71918
727.541	11.5022
727.727	15.64582
727.913	20.29804
728.098	14.0487
728.284	19.85803
728.469	11.32906
728.655	12.76477
728.84	21.02882
729.026	19.62886
729.211	21.14712
729.397	20.12011
729.582	20.15869
729.767	16.39498
729.953	18.85774
730.138	21.22184
730.323	6.59451
730.509	11.5352
730.694	24.53398
730.879	19.68923
731.065	17.92512
731.25	27.19597
731.435	19.29833
731.621	11.22293
731.806	14.21633
731.991	17.98275
732.176	9.76536
732.361	23.93627
732.547	19.49327
732.732	8.60392
732.917	28.18746
733.102	11.12396
733.287	12.97629
733.472	18.12424
733.657	16.94805
733.842	9.55268
734.027	15.16175
734.212	15.62217
734.397	12.91676
734.582	17.32885
734.767	20.9722
734.952	23.71355
735.137	5.76851
735.322	24.37652
735.507	17.99944
735.692	18.73865
735.877	27.52339
736.062	27.52495
736.247	18.39744
736.431	16.39959
736.616	23.34501
736.801	19.82524
736.986	17.03492
737.171	12.49952
737.355	11.64992
737.54	24.52426
737.725	17.7349
737.909	31.78464
738.094	15.17411
738.279	22.35111
738.463	16.27282
738.648	21.52809
738.833	19.28565
739.017	28.56345
739.202	17.83472
739.386	16.75799
739.571	12.49394
739.756	21.79001
739.94	17.80517
740.125	22.38201
740.309	14.62218
740.494	24.25924
740.678	20.43548
740.863	20.69238
741.047	19.84221
741.231	25.45831
741.416	14.50613
741.6	25.88447
741.785	13.04373
741.969	24.09488
742.153	23.82565
742.338	7.77531
742.522	18.61366
742.706	23.06957
742.89	11.54724
743.075	19.09142
743.259	27.01262
743.443	24.38296
743.627	26.59157
743.812	32.63723
743.996	5.30914
744.18	18.04148
744.364	15.31114
744.548	34.00461
744.732	18.42276
744.916	22.33405
745.1	22.86593
745.285	18.66841
745.469	21.20875
745.653	29.69328
745.837	12.032
746.021	32.67164
746.205	25.8154
746.389	19.28332
746.573	17.17754
746.757	28.31118
746.94	17.83745
747.124	26.61935
747.308	12.7186
747.492	24.86622
747.676	16.15993
747.86	32.84162
748.044	17.53569
748.227	9.86108
748.411	41.28259
748.595	22.62167
748.779	14.55566
748.963	22.42216
749.146	20.3516
749.33	14.30779
749.514	13.85708
749.697	27.13759
749.881	16.79127
750.065	12.79346
750.248	19.7644
750.432	35.31773
750.616	20.90138
750.799	12.44981
750.983	34.05923
751.166	37.65482
751.35	9.44786
751.533	22.01559
751.717	27.84959
751.9	28.24553
752.084	16.56966
752.267	11.33649
752.451	15.39444
752.634	21.21744
752.818	22.95337
753.001	24.90432
753.184	26.68877
753.368	22.21399
753.551	0.98068
753.734	15.96271
753.918	33.1966
754.101	16.01257
754.284	23.80538
754.467	17.11626
754.651	16.54306
754.834	16.50058
755.017	28.88646
755.2	25.64801
755.384	14.52979
755.567	25.18977
755.75	28.68064
755.933	19.23636
756.116	20.27082
756.299	16.61218
756.482	14.3497
756.665	23.08893
756.848	21.69097
757.032	23.26282
757.215	11.51799
757.398	15.18625
757.581	14.22408
757.764	39.07654
757.947	21.24195
758.129	28.27626
758.312	0.98159
758.495	18.17878
758.678	20.08844
758.861	19.48637
759.044	33.80384
759.227	14.03292
759.41	14.36732
759.592	24.15498
759.775	20.13432
759.958	27.9048
760.141	11.17349
760.324	35.12701
760.506	30.74937
760.689	25.55298
760.872	37.09312
761.054	23.07623
761.237	16.52355
761.42	23.13453
761.602	27.23521
761.785	23.04451
761.968	28.06238
762.15	32.9598
762.333	19.24481
762.515	22.87342
762.698	16.69884
762.88	25.46911
763.063	21.29718
763.245	25.45734
763.428	14.47539
763.61	15.37987
763.793	13.53672
763.975	22.22436
764.158	18.32179
764.34	16.23844
764.522	14.18912
764.705	18.66624
764.887	29.24121
765.069	11.28179
765.252	25.14176
765.434	25.11917
765.616	20.2225
765.799	15.25082
765.981	26.0004
766.163	14.73555
766.345	26.44201
766.528	15.49305
766.71	5.46062
766.892	21.37162
767.074	29.60303
767.256	18.9097
767.438	33.23356
767.62	24.49683
767.802	38.66273
767.985	25.73775
768.167	35.6272
768.349	17.04378
768.531	25.77621
768.713	19.6419
768.895	28.35574
769.077	23.03613
769.259	41.01553
769.441	62.51254
769.623	29.5428
769.804	36.95379
769.986	32.87943
770.168	45.08939
770.35	52.30846
770.532	39.67659
770.714	43.10256
770.896	43.64046
771.077	13.95415
771.259	43.80597
771.441	35.69466
771.623	46.87416
771.804	58.01927
771.986	12.02618
772.168	30.47437
772.35	41.3553
772.531	60.65062
772.713	36.50236
772.894	46.95583
773.076	32.73871
773.258	25.51244
773.439	49.47767
773.621	52.56045
773.802	20.06418
773.984	33.67988
774.166	37.51106
774.347	50.95689
774.529	43.33458
774.71	10.8675
774.891	32.00892
775.073	29.61536
775.254	53.93703
775.436	28.05686
775.617	57.2735
775.799	27.6753
775.98	55.03837
776.161	53.58633
776.343	52.82104
776.524	36.80403
776.705	33.59679
776.886	15.57854
777.068	36.90461
777.249	71.94879
777.43	57.61448
777.611	22.32242
777.793	30.26623
777.974	56.10612
778.155	30.20875
778.336	27.86413
778.517	61.01961
778.698	26.70196
778.879	11.70872
779.061	2.98612
779.242	41.47916
779.423	38.9819
779.604	25.4882
779.785	31.79422
779.966	37.17025
780.147	45.73857
780.328	49.08118
780.509	66.3337
780.69	43.0402
780.871	28.03587
781.051	16.97735
781.232	38.40086
781.413	37.7133
781.594	28.76129
781.775	29.46999
781.956	28.02607
782.137	14.10392
782.317	26.08704
782.498	40.2622
782.679	37.71889
782.86	38.17424
783.04	26.04296
783.221	38.62602
783.402	61.79221
783.583	37.45559
783.763	44.34129
783.944	31.93398
784.124	16.47392
784.305	55.78798
784.486	44.28286
784.666	35.08908
784.847	14.49344
785.027	72.50244
785.208	26.33894
785.388	21.92758
785.569	24.97229
785.749	33.40066
785.93	27.2518
786.11	20.36257
786.291	37.29011
786.471	39.77238
786.652	43.41957
786.832	32.75256
787.012	42.98276
787.193	20.58259
787.373	35.44511
787.553	30.71371
787.734	36.40215
787.914	27.41209
788.094	42.58668
788.275	41.09603
788.455	29.48276
788.635	18.99316
788.815	37.61752
788.995	21.36223
789.176	16.68767
789.356	25.94394
789.536	31.24075
789.716	42.11108
789.896	24.51648
790.076	29.44727
790.256	39.17767
790.436	9.38272
790.616	24.03374
790.796	39.07685
790.976	30.23343
791.156	26.20754
791.336	43.5358
791.516	36.05571
791.696	32.41796
791.876	16.64328
792.056	34.21433
792.236	45.79828
792.416	44.4403
792.596	41.63832
792.776	40.0023
792.956	41.33278
793.135	56.64516
793.315	20.53851
793.495	48.70226
793.675	43.41369
793.854	46.74155
794.034	49.63923
794.214	20.70127
794.394	44.9982
794.573	47.05159
794.753	37.10174
794.933	24.95652
795.112	38.07638
795.292	46.1825
795.472	60.62082
795.651	19.39978
795.831	36.30954
796.01	29.77207
796.19	29.6197
796.369	30.21172
796.549	39.39946
796.728	30.83112
796.908	21.48024
797.087	17.63113
797.267	34.21559
797.446	20.98282
797.626	36.95909
797.805	39.19033
797.984	26.11432
798.164	41.34972
798.343	23.28559
798.522	37.21723
798.702	34.64708
798.881	19.33578
799.06	28.50981
799.239	11.95867
799.419	22.0748
799.598	55.13644
799.777	41.45549
799.956	47.69715
800.136	32.96012
800.315	23.45705
800.494	37.20099
800.673	47.64506
800.852	43.0621
801.031	50.80882
801.21	43.23863
801.389	27.87602
801.568	38.7943
801.747	60.31516
801.926	31.34465
802.105	52.67152
802.284	31.89107
802.463	54.27149
802.642	39.07081
802.821	39.61457
803	53.00008
803.179	48.46156
803.358	49.47922
803.537	28.85383
803.716	42.98009
803.895	25.51216
804.073	32.77898
804.252	28.45616
804.431	41.46497
804.61	33.36796
804.789	53.02862
804.967	28.63757
805.146	26.76142
805.325	60.16711
805.503	39.68198
805.682	19.09995
805.861	71.78738
806.039	51.0916
806.218	26.85962
806.397	34.39931
806.575	33.79265
806.754	39.36937
806.932	24.49971
807.111	55.50461
807.289	45.36311
807.468	37.04825
807.646	49.45153
807.825	40.99369
808.003	39.99889
808.182	48.07207
808.36	37.71133
808.539	24.97658
808.717	57.14119
808.895	26.94619
809.074	40.7838
809.252	30.96009
809.43	48.22634
809.609	57.29837
809.787	57.74693
809.965	31.56513
810.144	37.85923
810.322	30.39532
810.5	43.96467
810.678	33.40804
810.856	67.00182
811.035	53.54967
811.213	47.93001
811.391	51.39952
811.569	40.18789
811.747	79.79328
811.925	53.27433
812.103	30.12232
812.281	32.13453
812.459	65.87794
812.637	65.02506
812.816	52.92278
812.994	71.91526
813.171	56.66161
813.349	50.00772
813.527	61.20445
813.705	60.77203
813.883	71.98661
814.061	56.33713
814.239	68.45549
814.417	77.45135
814.595	47.63455
814.773	45.9675
814.95	43.11322
815.128	44.81255
815.306	36.29454
815.484	38.9763
815.662	30.91562
815.839	27.29007
816.017	34.50077
816.195	56.59682
816.372	36.88987
816.55	53.13509
816.728	67.52504
816.905	41.20823
817.083	63.20373
817.261	42.25629
817.438	80.77388
817.616	65.62334
817.793	32.57911
817.971	51.79209
818.148	48.12137
818.326	62.65422
818.503	45.86065
818.681	64.79147
818.858	33.71637
819.036	41.36659
819.213	43.61228
819.391	32.44829
819.568	28.61605
819.745	24.12668
819.923	49.62599
820.1	29.66651
820.277	28.87659
820.455	33.04405
820.632	35.38844
820.809	36.11099
820.986	20.94189
821.164	18.19239
821.341	15.29478
821.518	22.702
821.695	16.6217
821.872	15.5535
822.05	12.69058
822.227	9.23841
822.404	10.74804
822.581	13.06786
822.758	10.41741
822.935	10.31039
823.112	12.95503
823.289	10.11329
823.466	13.17001
823.643	11.56823
823.82	14.86544
823.997	12.70304
824.174	15.56034
824.351	21.6033
824.528	20.64582
824.705	19.06867
824.882	19.72305
825.059	25.91964
825.236	16.88087
825.412	18.58872
825.589	23.32513
825.766	34.61345
825.943	19.41118
826.12	23.76207
826.296	15.12375
826.473	20.90017
826.65	21.09789
826.827	27.28305
827.003	16.33924
827.18	19.93363
827.357	22.79487
827.533	19.32407
827.71	9.3728
827.887	16.16785
828.063	20.7635
828.24	17.64066
828.416	23.48805
828.593	18.66833
828.769	29.56879
828.946	30.26671
829.122	32.92679
829.299	33.17973
829.475	12.80816
829.652	28.05477
829.828	48.16366
830.005	31.77609
830.181	43.31355
830.357	29.09765
830.534	45.99333
830.71	36.42719
830.886	42.88414
831.063	42.17309
831.239	54.93341
831.415	23.8372
831.592	58.71635
831.768	34.28515
831.944	26.68986
832.12	58.11385
832.296	53.77992
832.473	44.94485
832.649	29.65292
832.825	43.34552
833.001	24.786
833.177	39.03907
833.353	34.92078
833.529	16.77518
833.705	27.96818
833.881	19.15651
834.058	18.81875
834.234	19.7368
834.41	21.6328
834.586	15.94671
834.761	19.1763
834.937	22.40305
835.113	23.98892
835.289	20.33328
835.465	25.62775
835.641	21.8982
835.817	25.20275
835.993	47.06548
836.169	20.73144
836.344	32.0197
836.52	39.38817
836.696	42.89469
836.872	24.34611
837.048	89.32332
837.223	30.75712
837.399	71.72572
837.575	54.53867
837.75	53.00094
837.926	76.08138
838.102	120.52308
838.277	87.8649
838.453	126.36217
838.628	118.2451
838.804	39.51095
838.98	106.4037
839.155	56.02655
839.331	67.6434
839.506	51.94299
839.682	52.98345
839.857	64.54651
840.033	77.62095
840.208	29.37774
840.384	17.15664
840.559	34.17876
840.734	55.65982
840.91	80.21667
841.085	52.70804
841.26	53.12925
841.436	47.34073
841.611	38.24395
841.786	67.63839
841.962	92.94389
842.137	61.84806
842.312	28.03237
842.487	47.483
842.663	41.52443
842.838	48.03814
843.013	186.19333
843.188	89.06315
843.363	87.61753
843.538	165.76543
843.714	168.72918
843.889	158.84205
844.064	152.59407
844.239	128.8283
844.414	184.90504
844.589	113.2322
844.764	202.16315
844.939	190.41468
845.114	208.08896
845.289	224.85956
845.464	246.23387
845.639	190.20731
845.814	89.23356
845.989	141.59142
846.163	138.15658
846.338	168.52059
846.513	225.27396
846.688	157.03602
846.863	177.30849
847.038	142.97912
847.212	139.0453
847.387	153.88365
847.562	154.61982
847.737	213.10007
847.911	86.22364
848.086	116.22359
848.261	254.51821
848.435	129.58306
848.61	195.94222
848.785	97.4681
848.959	221.55629
849.134	241.90382
849.308	353.30192
849.483	163.79129
849.658	248.12662
849.832	141.75322
850.007	105.63408
850.181	335.60577
850.356	125.09151
850.53	301.39692
850.705	104.31651
850.879	77.45342
851.053	141.83832
851.228	139.5338
851.402	254.20016
851.577	203.6294
851.751	270.07125
851.925	148.26605
852.099	72.9177
852.274	132.18663
852.448	156.98924
852.622	247.29582
852.797	163.88569
852.971	165.57373
853.145	218.72006
853.319	309.59717
853.493	272.23332
853.668	164.41534
853.842	299.6523
854.016	217.15689
854.19	324.57821
854.364	176.25252
854.538	206.47468
854.712	278.58523
854.886	173.9402
855.06	150.65523
855.234	67.56154
855.408	286.03263
855.582	202.80204
855.756	301.51866
855.93	257.87306
856.104	182.4931
856.278	283.85072
856.452	147.99161
856.626	201.6092
856.8	365.19216
856.973	197.13934
857.147	240.70408
857.321	221.49998
857.495	258.04473
857.669	183.72275
857.842	161.68184
858.016	271.32885
858.19	120.86216
858.364	378.25826
858.537	172.44668
858.711	209.00337
858.885	160.9246
859.058	123.96093
859.232	92.42533
859.405	82.04536
859.579	248.63338
859.753	247.35139
859.926	136.84542
860.1	112.08325
860.273	192.23755
860.447	275.76237
860.62	160.8882
860.794	301.6612
860.967	211.11678
861.141	239.09552
861.314	379.65483
861.487	191.82013
861.661	255.47468
861.834	332.80733
862.008	257.07611
862.181	190.68804
862.354	214.11188
862.528	204.8828
862.701	152.32469
862.874	95.76548
863.047	177.15719
863.221	155.82917
863.394	78.71339
863.567	229.40822
863.74	62.71137
863.913	244.24841
864.087	221.24495
864.26	219.30316
864.433	175.16021
864.606	331.18953
864.779	190.48686
864.952	80.66625
865.125	187.74915
865.298	195.04903
865.471	186.88537
865.644	312.87955
865.817	243.72646
865.99	291.44194
866.163	281.77444
866.336	134.94173
866.509	155.28464
866.682	183.37415
866.855	297.67507
867.028	102.7971
867.2	196.61508
867.373	44.93295
867.546	159.73133
867.719	364.28711
867.892	212.52994
868.064	103.4841
868.237	174.69443
868.41	194.91368
868.583	82.23373
868.755	123.46081
868.928	169.19672
869.101	346.28269
869.273	285.6446
869.446	190.96933
869.619	282.06079
869.791	161.71558
869.964	240.7541
870.136	279.09112
870.309	156.18854
870.481	164.07499
870.654	103.12666
870.826	185.2137
870.999	144.79231
871.171	213.46905
871.344	113.88751
871.516	161.67019
871.689	117.68626
871.861	173.79742
872.033	115.62397
872.206	148.52997
872.378	215.41764
872.55	158.10406
872.723	96.27877
872.895	160.15029
873.067	242.26474
873.24	224.42702
873.412	140.58699
873.584	148.21817
873.756	167.15949
873.928	221.37844
874.101	177.57868
874.273	207.43188
874.445	81.79089
874.617	114.8297
874.789	162.64332
874.961	121.2296
875.133	188.28133
875.305	167.06233
875.477	106.02378
875.649	73.50101
875.821	98.38274
875.993	280.67571
876.165	134.34203
876.337	163.97412
876.509	182.14199
876.681	171.82923
876.853	166.33539
877.025	178.44656
877.197	121.53697
877.369	100.01418
877.541	192.1649
877.712	36.81129
877.884	79.58167
878.056	164.02953
878.228	93.06674
878.4	177.78732
878.571	94.85665
878.743	63.57026
878.915	137.71521
879.086	73.94155
879.258	98.17894
879.43	85.19422
879.601	76.20023
879.773	73.54283
879.945	14.63882
880.116	30.2692
880.288	16.5089
880.459	19.66779
880.631	14.72088
880.802	17.54201
880.974	16.82294
881.145	10.92273
881.317	16.55603
881.488	11.26435
881.66	13.0597
881.831	11.45537
882.002	16.9356
882.174	12.08694
882.345	15.98381
882.517	7.42778
882.688	20.53087
882.859	14.52493
883.03	27.9934
883.202	26.68707
883.373	19.50802
883.544	19.04278
883.715	38.46205
883.887	29.96107
884.058	22.76491
884.229	38.21691
884.4	38.2355
884.571	44.0708
884.742	36.1472
884.914	37.89128
885.085	66.06415
885.256	86.32865
885.427	68.1471
885.598	86.37388
885.769	80.16693
885.94	77.51099
886.111	44.67749
886.282	102.20914
886.453	86.29226
886.624	59.12502
886.795	104.51166
886.966	85.2
887.136	115.13708
887.307	88.36305
887.478	176.2503
887.649	135.87486
887.82	150.44485
887.991	122.67457
888.161	167.31374
888.332	153.22201
888.503	88.36055
888.674	213.86342
888.844	256.33507
889.015	194.25957
889.186	108.35858
889.356	247.59636
889.527	94.17119
889.698	324.15489
889.868	112.72379
890.039	185.35196
890.209	149.36136
890.38	230.32787
890.551	189.81633
890.721	251.66022
890.892	203.37757
891.062	166.36725
891.233	211.95951
891.403	167.23406
891.574	108.73195
891.744	136.53264
891.914	156.23021
892.085	175.78882
892.255	44.69418
892.425	233.08366
892.596	146.71996
892.766	180.5426
892.936	235.42929
893.107	198.60807
893.277	91.79545
893.447	77.11255
893.618	47.7914
893.788	104.55633
893.958	62.07035
894.128	52.56003
894.298	62.39771
894.468	80.68968
894.639	28.23994
894.809	19.27529
894.979	38.10858
895.149	48.58205
895.319	38.43265
895.489	56.82629
895.659	70.03308
895.829	47.03973
895.999	49.61636
896.169	38.00639
896.339	47.13467
896.509	98.56884
896.679	110.16998
896.849	117.59063
897.019	164.49536
897.189	141.17768
897.358	136.93315
897.528	189.597
897.698	70.93845
897.868	191.24033
898.038	367.53418
898.208	282.1223
898.377	103.47272
898.547	380.6285
898.717	579.57466
898.886	225.22784
899.056	350.151
899.226	425.99294
899.395	399.61261
899.565	599.35555
899.735	363.89565
899.904	486.92782
900.074	499.91797
900.244	246.23913
900.413	676.99622
900.583	156.07541
900.752	381.70322
900.922	467.26109
901.091	73.9375
901.261	674.78063
901.43	355.71856
901.599	388.0014
901.769	787.56339
901.938	452.72792
902.108	405.52988
902.277	448.20821
902.446	127.42351
902.616	158.20222
902.785	187.96746
902.954	348.5725
903.124	188.99822
903.293	139.87195
903.462	72.01432
903.631	103.46968
903.801	77.63459
903.97	32.07883
904.139	62.85529
904.308	43.50991
904.477	37.41961
904.646	20.89665
904.816	35.0749
904.985	49.66679
905.154	78.26126
