Data from WindowProjectSample3_Transmission__65__00065.txt Node

Date: Sun May 04 11:47:33 EDT 2025
User: jessi
Spectrometer: SR400872
Trigger mode: 0
Integration Time (sec): 5.000050E-1
Scans to average: 20
Electric dark correction enabled: true
Nonlinearity correction enabled: true
Boxcar width: 0
XAxis mode: Wavelengths
Number of Pixels in Spectrum: 3648
>>>>>Begin Spectral Data<<<<<
184.909	-1405.13613
185.132	-1274.14617
185.355	-1564.49808
185.578	-1545.91387
185.801	1197.71787
186.024	-1308.29137
186.247	-24125.73009
186.47	-2476.71801
186.693	-4148.49442
186.916	-771.76979
187.139	-977.24056
187.362	-1292.43911
187.585	-1104.56916
187.808	-1184.18052
188.031	571.04027
188.254	-1139.93812
188.476	-882.23398
188.699	-1079.4956
188.922	297.41806
189.145	-1017.77249
189.368	6891.04954
189.591	3534.03208
189.813	-4277.98061
190.036	-1380.39928
190.259	-7865.28161
190.482	-3501.93181
190.705	-2855.45928
190.927	-1968.43481
191.15	-1350.20118
191.373	-3902.42361
191.595	31008.75541
191.818	-3251.95755
192.041	-1059.68793
192.263	-1634.27207
192.486	-790.76675
192.709	-1912.31622
192.931	-4862.82765
193.154	-1386.06357
193.377	-1667.84166
193.599	1244.60435
193.822	8868.55903
194.044	-10361.37029
194.267	-3570.29786
194.489	-43.09344
194.712	-1911.33633
194.934	-2637.33215
195.157	-625.63106
195.379	-4607.75903
195.602	-1574.59786
195.824	-2415.40928
196.047	2620.19583
196.269	-1300.6423
196.492	-1351.01648
196.714	-999.16702
196.936	-2178.87817
197.159	-3930.99748
197.381	-1162.49401
197.604	-8605.56389
197.826	-2337.87582
198.048	-2337.69104
198.271	-1428.73089
198.493	-2357.51763
198.715	-3354.78597
198.938	-8384.45277
199.16	-4828.66905
199.382	-1487.7303
199.604	-1503.12256
199.827	-3746.602
200.049	-19020.20701
200.271	-1204.95194
200.493	-4598.89
200.715	-1051.55026
200.938	-933.67235
201.16	-933.2857
201.382	-3019.44619
201.604	-3659.09953
201.826	-1190.8031
202.048	-1729.89705
202.27	-1163.49967
202.492	-1504.53067
202.715	-1646.32657
202.937	-4409.46794
203.159	-4914.5011
203.381	6340.20051
203.603	-1425.00787
203.825	6053.19642
204.047	-2631.88783
204.269	3594.2148
204.491	-2500.67303
204.713	-1527.14097
204.935	-1074.14521
205.156	-4279.89275
205.378	-2728.77265
205.6	-1584.83552
205.822	-1626.21026
206.044	1243.85728
206.266	-19270.84025
206.488	-1313.8914
206.71	-3026.68113
206.932	24740.00123
207.153	-1377.7449
207.375	-2689.24491
207.597	-1309.34773
207.819	-1540.94837
208.041	-1283.22764
208.262	-1450.8511
208.484	-1965.9914
208.706	-9689.19961
208.927	-2025.00849
209.149	-10320.28035
209.371	-1329.14059
209.593	1198.11098
209.814	-2309.547
210.036	519.1943
210.258	-1399.3243
210.479	-3021.14436
210.701	-6293.60299
210.922	-2668.50904
211.144	3917.11656
211.366	-2158.98946
211.587	1669.88231
211.809	-2336.34764
212.03	180107.63188
212.252	487.41077
212.473	-39687.67271
212.695	3280.62286
212.916	-3034.79686
213.138	833.74001
213.359	-1202.78768
213.581	-9004.85183
213.802	-1241.95014
214.024	-5785.866
214.245	3356.65035
214.466	554.21492
214.688	-2227.63437
214.909	-1812.61811
215.131	-3306.78549
215.352	17682.85096
215.573	-1636.81795
215.795	-4423.12359
216.016	-1886.25276
216.237	1249.46
216.459	10349.99514
216.68	-1623.15321
216.901	-3712.84789
217.122	18644.81009
217.344	-1741.12961
217.565	-1890.94245
217.786	-2354.93622
218.007	5350.68151
218.228	6432.16978
218.45	-2922.65346
218.671	20795.49892
218.892	-3522.65971
219.113	-7754.61363
219.334	-50.76859
219.555	-15414.95843
219.776	-2307.80675
219.997	-2438.3082
220.219	-2727.38713
220.44	7932.32688
220.661	9129.22072
220.882	-5216.63761
221.103	2385.58659
221.324	7342.87959
221.545	-9649.68302
221.766	-2441.15342
221.987	1125.55331
222.208	1802.80463
222.429	-1596.46617
222.65	191.62628
222.87	758.0962
223.091	3394.18913
223.312	528.63282
223.533	6462.71118
223.754	-4959.84849
223.975	1741.34408
224.196	1136.68713
224.417	6458.11813
224.637	723.76828
224.858	97.21952
225.079	757.99239
225.3	481.57484
225.521	-2130.42548
225.741	604.37929
225.962	605.59888
226.183	130.50274
226.404	1286.27072
226.624	468.05333
226.845	709.85751
227.066	481.99088
227.286	279.6896
227.507	124.65061
227.728	100.66924
227.948	205.16093
228.169	64.38527
228.389	68.32266
228.61	41.26747
228.831	54.16039
229.051	5.65656
229.272	33.88871
229.492	47.8133
229.713	14.39931
229.933	35.25181
230.154	28.66324
230.374	47.96539
230.595	36.43494
230.815	22.04041
231.036	35.70615
231.256	-3.63327
231.477	61.85369
231.697	36.5801
231.917	40.2927
232.138	56.72396
232.358	110.95854
232.579	91.3684
232.799	15.68958
233.019	85.60496
233.24	98.10775
233.46	38.08826
233.68	52.63911
233.901	36.60912
234.121	25.51514
234.341	9.92134
234.561	-3.1401
234.782	19.12273
235.002	59.77422
235.222	1.02314
235.442	52.91421
235.662	27.19872
235.883	53.63311
236.103	43.46145
236.323	32.73949
236.543	26.90039
236.763	34.61473
236.983	37.18984
237.203	34.27748
237.423	50.08449
237.643	75.29313
237.864	62.75735
238.084	17.6692
238.304	21.6129
238.524	38.96063
238.744	32.925
238.964	55.84853
239.184	48.72831
239.404	52.84434
239.624	29.053
239.843	47.0453
240.063	28.01528
240.283	18.17897
240.503	21.36238
240.723	20.64994
240.943	12.99141
241.163	16.56166
241.383	12.13394
241.603	6.25529
241.822	7.34432
242.042	5.34437
242.262	7.47432
242.482	8.13121
242.702	9.13086
242.921	3.21475
243.141	6.29486
243.361	5.80785
243.581	8.33477
243.8	7.4411
244.02	4.94142
244.24	8.5011
244.459	7.67511
244.679	15.87913
244.899	10.03448
245.118	12.1414
245.338	10.8876
245.558	11.72981
245.777	7.73299
245.997	8.74703
246.216	8.71572
246.436	5.15006
246.655	3.93133
246.875	3.02375
247.094	5.45353
247.314	1.9966
247.533	3.50551
247.753	3.82886
247.972	3.18941
248.192	1.12886
248.411	1.91737
248.631	3.20103
248.85	4.05875
249.07	4.11237
249.289	5.6535
249.508	4.25304
249.728	6.71974
249.947	6.52233
250.166	8.2245
250.386	4.45818
250.605	6.54106
250.824	10.0567
251.044	6.66466
251.263	19.7616
251.482	11.54362
251.701	9.78696
251.921	0.09481
252.14	3.2374
252.359	3.88212
252.578	8.84985
252.798	3.21927
253.017	7.4775
253.236	4.09851
253.455	5.37024
253.674	10.37778
253.893	4.41827
254.112	7.41622
254.331	10.36793
254.551	8.32524
254.77	4.38128
254.989	12.0527
255.208	8.7559
255.427	13.3071
255.646	11.36844
255.865	16.58973
256.084	7.54303
256.303	9.43252
256.522	11.18913
256.741	3.03238
256.96	3.34416
257.179	7.90285
257.397	9.14383
257.616	4.94696
257.835	5.2543
258.054	13.31208
258.273	8.83295
258.492	9.03091
258.711	6.0228
258.93	2.79945
259.148	4.14009
259.367	3.74063
259.586	4.79395
259.805	2.27273
260.023	4.02202
260.242	3.14818
260.461	2.4415
260.68	1.30993
260.898	3.71195
261.117	1.4003
261.336	0.98956
261.554	3.22611
261.773	3.29186
261.992	0.95239
262.21	3.08153
262.429	3.55252
262.648	6.04569
262.866	7.11241
263.085	5.22156
263.303	4.37343
263.522	7.62449
263.74	7.55365
263.959	12.81331
264.178	6.73328
264.396	5.65537
264.615	3.9611
264.833	9.43574
265.051	8.0991
265.27	9.36141
265.488	9.36994
265.707	5.64578
265.925	8.91398
266.144	4.48197
266.362	5.11184
266.58	4.85994
266.799	4.24161
267.017	5.08086
267.235	4.75567
267.454	3.2221
267.672	1.86522
267.89	3.94907
268.109	4.19234
268.327	4.20422
268.545	0.89477
268.763	3.66327
268.982	1.68728
269.2	4.23197
269.418	2.83127
269.636	2.29601
269.854	4.08144
270.073	3.08269
270.291	1.83465
270.509	1.70862
270.727	3.83023
270.945	6.19384
271.163	6.04612
271.381	1.58128
271.599	2.63141
271.817	4.20224
272.036	1.56921
272.254	3.01474
272.472	2.19615
272.69	2.10567
272.908	2.40199
273.126	3.52629
273.344	4.53583
273.562	1.60755
273.779	2.4264
273.997	3.6819
274.215	3.639
274.433	2.57087
274.651	4.08868
274.869	3.98685
275.087	3.06215
275.305	3.77267
275.523	2.33672
275.74	2.62325
275.958	4.90688
276.176	6.73934
276.394	2.32333
276.612	2.95522
276.829	2.87467
277.047	2.68924
277.265	2.68861
277.483	3.12449
277.7	3.56614
277.918	2.92845
278.136	5.52804
278.353	2.64835
278.571	1.81478
278.789	4.16804
279.006	1.02822
279.224	2.57804
279.442	4.4456
279.659	3.21733
279.877	2.10063
280.094	4.53822
280.312	1.06579
280.529	3.02759
280.747	1.13679
280.964	2.60915
281.182	4.8167
281.399	2.622
281.617	3.25514
281.834	2.22151
282.052	1.68595
282.269	2.92704
282.487	2.34595
282.704	2.09918
282.921	1.97214
283.139	2.92952
283.356	3.60525
283.574	3.53308
283.791	1.65329
284.008	4.42682
284.226	2.73735
284.443	3.02647
284.66	3.76696
284.877	3.01573
285.095	2.0579
285.312	1.4345
285.529	0.85697
285.746	0.7963
285.964	1.80743
286.181	1.30512
286.398	1.78452
286.615	2.48515
286.832	2.3266
287.05	0.75028
287.267	1.67612
287.484	1.75497
287.701	2.4555
287.918	2.31363
288.135	2.37777
288.352	1.07451
288.569	1.43255
288.786	2.26772
289.003	1.68496
289.22	2.74902
289.437	1.5879
289.654	2.42309
289.871	2.54921
290.088	2.56621
290.305	2.05566
290.522	1.76974
290.739	1.88824
290.956	2.74482
291.173	3.18974
291.39	3.08347
291.607	2.11135
291.824	1.97164
292.04	1.4991
292.257	2.87542
292.474	3.08927
292.691	2.18353
292.908	1.28875
293.125	1.93078
293.341	1.57599
293.558	4.81309
293.775	2.76032
293.992	2.90712
294.208	1.65332
294.425	2.46833
294.642	2.86745
294.858	3.8281
295.075	2.09725
295.292	3.34237
295.508	4.01323
295.725	5.00854
295.942	3.97162
296.158	3.76037
296.375	4.74782
296.591	4.41612
296.808	4.79028
297.024	5.46221
297.241	5.76771
297.458	6.03181
297.674	4.59684
297.891	5.9702
298.107	6.13937
298.323	5.48892
298.54	7.2954
298.756	6.13965
298.973	5.67894
299.189	7.71508
299.406	6.58523
299.622	7.68146
299.838	8.05168
300.055	7.64694
300.271	6.37352
300.487	6.76508
300.704	7.12669
300.92	6.51922
301.136	9.62536
301.353	8.58248
301.569	7.97173
301.785	8.28279
302.001	8.59822
302.218	8.47205
302.434	8.87173
302.65	7.50502
302.866	8.08911
303.083	10.39635
303.299	10.56869
303.515	8.69607
303.731	9.38055
303.947	8.00578
304.163	8.82578
304.379	9.28163
304.595	9.44518
304.812	8.67069
305.028	8.75945
305.244	9.08631
305.46	9.77812
305.676	10.14338
305.892	10.63542
306.108	10.10211
306.324	9.37261
306.54	10.95466
306.756	9.92607
306.972	9.71339
307.187	9.82373
307.403	10.69954
307.619	9.32395
307.835	10.54695
308.051	10.73158
308.267	9.22203
308.483	11.1153
308.699	10.44064
308.914	10.28051
309.13	10.25194
309.346	9.38152
309.562	9.70563
309.778	9.47547
309.993	10.88848
310.209	10.88958
310.425	9.91011
310.641	10.77536
310.856	10.3056
311.072	10.11968
311.288	10.84169
311.503	11.21026
311.719	9.78114
311.935	9.97492
312.15	11.40635
312.366	11.38675
312.581	11.4571
312.797	11.20099
313.013	11.79605
313.228	10.60311
313.444	10.7997
313.659	10.37579
313.875	11.05951
314.09	10.7802
314.306	11.87434
314.521	11.41656
314.737	11.49463
314.952	11.09055
315.168	11.25395
315.383	11.25232
315.599	10.60848
315.814	10.96433
316.029	11.58091
316.245	10.4847
316.46	9.59235
316.675	11.87558
316.891	12.50455
317.106	13.46215
317.321	11.26088
317.537	11.56874
317.752	11.78669
317.967	11.85455
318.183	10.431
318.398	10.93652
318.613	11.88061
318.828	12.24505
319.043	11.49244
319.259	10.88435
319.474	11.1829
319.689	12.14779
319.904	9.75808
320.119	12.19448
320.334	11.24071
320.549	11.14879
320.765	12.18881
320.98	11.67688
321.195	11.62981
321.41	11.40069
321.625	11.77901
321.84	12.6151
322.055	12.34067
322.27	10.973
322.485	10.36791
322.7	11.94485
322.915	12.04633
323.13	11.09445
323.345	12.77266
323.56	12.05186
323.775	12.2797
323.989	12.17313
324.204	11.78546
324.419	12.51572
324.634	10.94923
324.849	11.80918
325.064	13.39908
325.279	12.6795
325.493	12.2461
325.708	12.64033
325.923	11.21542
326.138	11.91628
326.352	13.24514
326.567	12.65132
326.782	11.67522
326.997	11.70644
327.211	12.46991
327.426	12.34164
327.641	11.97115
327.855	11.10227
328.07	12.65425
328.285	13.63073
328.499	11.71045
328.714	12.157
328.928	12.20535
329.143	12.07653
329.358	12.97978
329.572	12.76651
329.787	13.05117
330.001	13.97205
330.216	11.00144
330.43	13.73821
330.645	13.01299
330.859	12.92684
331.074	11.1097
331.288	12.09619
331.503	13.5606
331.717	11.375
331.931	12.06291
332.146	12.63584
332.36	13.84755
332.575	12.55436
332.789	12.13732
333.003	12.44077
333.218	12.64373
333.432	11.92048
333.646	13.05885
333.86	13.76686
334.075	13.71687
334.289	11.81281
334.503	11.03144
334.717	12.98565
334.932	12.49835
335.146	12.94489
335.36	11.83835
335.574	13.20825
335.788	13.09616
336.003	13.49724
336.217	13.45312
336.431	12.54058
336.645	12.03942
336.859	11.39147
337.073	12.28635
337.287	12.50912
337.501	11.34708
337.715	12.95192
337.929	12.95797
338.143	12.06115
338.357	12.67863
338.571	12.6589
338.785	13.72608
338.999	12.57655
339.213	12.55426
339.427	12.14617
339.641	13.89296
339.855	12.53218
340.069	12.13899
340.283	13.68495
340.497	14.03887
340.711	13.45019
340.924	12.87284
341.138	12.43407
341.352	12.01512
341.566	13.0465
341.78	11.83506
341.993	12.6298
342.207	12.47063
342.421	13.4137
342.635	12.94078
342.848	12.7379
343.062	11.295
343.276	12.68705
343.49	14.54197
343.703	12.67856
343.917	13.92619
344.131	14.15773
344.344	12.47856
344.558	12.87184
344.771	12.43073
344.985	14.03744
345.199	14.64254
345.412	13.52252
345.626	13.82674
345.839	12.24697
346.053	12.46821
346.266	12.9081
346.48	13.84836
346.693	13.71707
346.907	13.638
347.12	12.73031
347.334	13.26055
347.547	13.6388
347.76	13.19697
347.974	14.10221
348.187	13.42751
348.401	13.3491
348.614	12.50097
348.827	13.18658
349.041	13.55165
349.254	12.03436
349.467	13.04724
349.681	12.73512
349.894	12.79626
350.107	14.37147
350.32	15.03348
350.534	12.59895
350.747	13.50458
350.96	12.99259
351.173	13.02946
351.386	13.31391
351.6	13.09898
351.813	13.42138
352.026	13.43685
352.239	13.06691
352.452	13.16388
352.665	14.43104
352.878	13.38087
353.092	15.28932
353.305	14.25694
353.518	13.80417
353.731	13.08927
353.944	14.44692
354.157	13.60183
354.37	13.53509
354.583	13.07529
354.796	13.07301
355.009	14.67443
355.222	14.12046
355.435	13.97692
355.647	14.86144
355.86	13.51684
356.073	14.09413
356.286	13.8272
356.499	14.70629
356.712	14.64115
356.925	14.47669
357.138	14.78289
357.35	13.70466
357.563	14.05716
357.776	14.38741
357.989	14.45199
358.201	14.84542
358.414	14.69676
358.627	15.22699
358.84	14.34602
359.052	13.73701
359.265	13.93156
359.478	14.9301
359.69	12.8491
359.903	15.17622
360.116	15.2396
360.328	13.65746
360.541	15.05865
360.753	14.26703
360.966	14.35891
361.179	14.57788
361.391	14.76019
361.604	15.22163
361.816	15.71861
362.029	15.67137
362.241	15.20232
362.454	15.22328
362.666	14.55676
362.879	15.25366
363.091	14.73487
363.304	14.58871
363.516	14.70076
363.728	14.20329
363.941	15.14648
364.153	15.01802
364.366	13.68554
364.578	14.2536
364.79	15.09314
365.003	15.08731
365.215	14.61424
365.427	15.45476
365.639	15.64954
365.852	14.99421
366.064	15.81738
366.276	14.83483
366.488	15.08032
366.701	14.86746
366.913	14.75176
367.125	15.05681
367.337	14.59592
367.549	14.81828
367.762	14.90618
367.974	15.01994
368.186	14.9211
368.398	15.80266
368.61	15.35508
368.822	15.57118
369.034	14.9034
369.246	15.76516
369.458	16.79982
369.67	14.55571
369.882	16.14933
370.094	13.94477
370.306	15.95332
370.518	15.11077
370.73	14.95395
370.942	14.90193
371.154	15.26517
371.366	15.19971
371.578	15.78219
371.79	15.27159
372.002	16.0529
372.214	16.83094
372.425	15.46671
372.637	16.49921
372.849	15.77603
373.061	14.18216
373.273	15.8211
373.484	15.8154
373.696	15.92601
373.908	14.18508
374.12	15.9949
374.331	15.93196
374.543	15.0128
374.755	14.94798
374.967	15.37647
375.178	16.14008
375.39	15.30067
375.602	15.61243
375.813	14.70799
376.025	15.04411
376.236	15.80322
376.448	15.88472
376.66	15.67362
376.871	15.64772
377.083	16.14334
377.294	16.73313
377.506	15.57864
377.717	16.81759
377.929	15.99112
378.14	15.61624
378.352	16.20213
378.563	16.44385
378.775	16.81456
378.986	15.42602
379.197	16.14761
379.409	15.37832
379.62	16.30274
379.832	16.03423
380.043	15.82492
380.254	16.24887
380.466	15.23109
380.677	17.66378
380.888	17.31918
381.1	17.7057
381.311	17.66352
381.522	16.26162
381.733	17.83862
381.945	16.20229
382.156	15.91861
382.367	15.82062
382.578	17.76982
382.789	18.05259
383.001	15.63669
383.212	17.29941
383.423	17.28621
383.634	16.87689
383.845	16.62014
384.056	16.05504
384.267	16.28578
384.478	16.44512
384.69	15.70275
384.901	16.76804
385.112	16.43966
385.323	17.52075
385.534	16.70839
385.745	16.67941
385.956	16.56369
386.167	15.98669
386.378	16.84185
386.588	16.03519
386.799	15.9407
387.01	15.59
387.221	17.01276
387.432	16.48909
387.643	17.54191
387.854	16.34754
388.065	16.35749
388.275	16.40542
388.486	16.21908
388.697	16.65421
388.908	16.38034
389.119	17.23344
389.329	17.50246
389.54	16.69199
389.751	16.94243
389.962	17.47008
390.172	16.68136
390.383	16.56181
390.594	16.29482
390.804	16.30953
391.015	16.39308
391.226	16.88165
391.436	17.17115
391.647	17.10364
391.858	17.14228
392.068	15.84265
392.279	16.35048
392.489	17.06923
392.7	17.3051
392.91	16.35246
393.121	16.43376
393.331	17.10044
393.542	17.58738
393.752	17.41747
393.963	16.94653
394.173	17.05945
394.384	17.29032
394.594	16.96024
394.804	16.30191
395.015	16.91707
395.225	17.42017
395.436	16.38912
395.646	17.25264
395.856	16.78665
396.067	16.19925
396.277	17.464
396.487	17.16264
396.697	17.20649
396.908	17.41
397.118	17.31393
397.328	16.94087
397.538	17.43328
397.749	16.59522
397.959	17.53349
398.169	17.11912
398.379	16.24576
398.589	17.29871
398.8	17.10712
399.01	17.21585
399.22	16.84105
399.43	18.17902
399.64	17.01927
399.85	17.16712
400.06	17.20376
400.27	16.69561
400.48	16.99248
400.69	17.62423
400.9	16.86403
401.11	16.52282
401.32	17.53595
401.53	16.73659
401.74	17.87442
401.95	17.2587
402.16	16.73959
402.37	17.51433
402.58	16.84461
402.79	17.38676
403	17.52588
403.209	16.74593
403.419	17.64501
403.629	16.86311
403.839	17.77351
404.049	17.78756
404.258	17.02595
404.468	16.82893
404.678	17.71863
404.888	17.86546
405.097	17.11367
405.307	17.29339
405.517	17.73272
405.727	17.59918
405.936	17.11246
406.146	17.53598
406.356	18.09294
406.565	17.43112
406.775	17.11846
406.984	17.1881
407.194	18.55488
407.404	17.40836
407.613	17.72393
407.823	17.7572
408.032	18.15279
408.242	17.9416
408.451	17.11527
408.661	17.25496
408.87	18.24392
409.08	16.96198
409.289	17.61943
409.499	17.46209
409.708	17.40648
409.918	16.40535
410.127	17.6091
410.336	18.34548
410.546	17.94016
410.755	17.33299
410.964	17.23293
411.174	17.11809
411.383	17.89792
411.592	17.89932
411.802	17.10991
412.011	18.03611
412.22	17.5024
412.429	18.42952
412.639	18.31454
412.848	18.18432
413.057	18.53793
413.266	18.31584
413.475	17.75003
413.685	18.03401
413.894	18.1452
414.103	18.18133
414.312	18.00804
414.521	17.54971
414.73	17.95569
414.939	18.62838
415.148	18.19813
415.357	18.00241
415.566	17.68565
415.776	17.63546
415.985	17.71483
416.194	18.48999
416.403	19.04099
416.611	17.45676
416.82	18.31625
417.029	19.22539
417.238	19.43645
417.447	19.77574
417.656	21.09821
417.865	21.56552
418.074	21.99373
418.283	23.81682
418.492	25.1612
418.7	24.92441
418.909	27.52913
419.118	26.40083
419.327	27.02427
419.536	27.24439
419.744	27.79179
419.953	29.67183
420.162	30.52672
420.371	30.23455
420.579	31.93649
420.788	32.98281
420.997	33.01003
421.205	34.33516
421.414	33.55049
421.623	33.73944
421.831	33.12029
422.04	33.52616
422.249	31.99454
422.457	32.03306
422.666	30.55819
422.874	31.64491
423.083	31.89685
423.291	32.05893
423.5	32.58525
423.708	33.54846
423.917	34.30652
424.125	33.66202
424.334	33.6987
424.542	35.75461
424.751	35.04532
424.959	34.29041
425.167	33.48131
425.376	33.30899
425.584	30.6115
425.793	29.95951
426.001	28.2937
426.209	27.45884
426.418	25.69487
426.626	24.20116
426.834	23.30861
427.042	22.6902
427.251	21.92217
427.459	22.27113
427.667	20.50496
427.875	19.16239
428.084	19.37229
428.292	19.49868
428.5	19.25816
428.708	18.28528
428.916	18.37721
429.124	18.91211
429.333	18.67238
429.541	18.72723
429.749	18.99442
429.957	18.97606
430.165	20.20956
430.373	18.34466
430.581	19.00856
430.789	19.69685
430.997	18.86615
431.205	18.85202
431.413	19.71048
431.621	19.53728
431.829	20.46474
432.037	21.29604
432.245	21.47575
432.453	22.29071
432.661	22.69856
432.869	24.56744
433.076	23.89254
433.284	24.74684
433.492	25.70987
433.7	25.8576
433.908	24.87687
434.116	25.31216
434.323	24.26334
434.531	24.22104
434.739	23.42311
434.947	22.83495
435.154	22.47695
435.362	21.23332
435.57	20.78037
435.778	20.63947
435.985	20.60934
436.193	20.39999
436.401	21.61535
436.608	20.47
436.816	19.92347
437.023	21.83393
437.231	21.85466
437.439	22.11789
437.646	22.51917
437.854	22.10198
438.061	22.36742
438.269	23.39195
438.476	23.67654
438.684	23.98736
438.891	25.24257
439.099	25.24117
439.306	25.50408
439.514	25.89106
439.721	28.09008
439.929	28.20652
440.136	29.5462
440.343	30.09266
440.551	30.05004
440.758	31.6771
440.965	29.87746
441.173	29.49399
441.38	29.33582
441.587	27.96102
441.795	27.70639
442.002	26.63194
442.209	26.01679
442.416	25.20552
442.624	24.42107
442.831	23.76005
443.038	22.93917
443.245	22.40161
443.452	22.07893
443.66	23.44607
443.867	23.02173
444.074	23.4856
444.281	24.53113
444.488	25.22865
444.695	26.12025
444.902	27.06723
445.109	29.31943
445.316	29.88907
445.523	31.20917
445.73	32.09909
445.937	33.48467
446.144	34.47113
446.351	35.23231
446.558	33.64396
446.765	36.68399
446.972	34.81966
447.179	34.25098
447.386	34.50876
447.593	31.51143
447.8	32.70126
448.007	29.83957
448.214	28.10753
448.42	27.11016
448.627	26.60197
448.834	25.47524
449.041	24.89668
449.248	23.83851
449.454	23.11167
449.661	23.20516
449.868	21.10249
450.075	21.09101
450.281	19.55274
450.488	19.46591
450.695	19.54049
450.901	19.85748
451.108	19.98894
451.315	20.58036
451.521	20.15891
451.728	21.70055
451.935	20.5028
452.141	21.37438
452.348	21.75959
452.554	21.28296
452.761	21.66293
452.967	22.64117
453.174	22.08669
453.38	21.8124
453.587	20.6254
453.793	21.40137
454	20.92455
454.206	21.51105
454.413	20.64489
454.619	20.30534
454.825	20.0042
455.032	20.38456
455.238	20.59164
455.445	19.61619
455.651	20.15668
455.857	19.29829
456.064	20.0079
456.27	19.91914
456.476	19.95092
456.682	19.50074
456.889	20.17769
457.095	20.38529
457.301	20.91641
457.507	20.10951
457.714	20.58568
457.92	21.04776
458.126	21.63692
458.332	23.41154
458.538	24.49194
458.744	26.16218
458.951	27.9874
459.157	31.35529
459.363	32.12471
459.569	32.90105
459.775	33.47669
459.981	33.66125
460.187	34.25163
460.393	33.60198
460.599	33.02549
460.805	31.27677
461.011	29.05138
461.217	27.66403
461.423	25.10888
461.629	23.82842
461.835	22.75914
462.041	21.17977
462.247	21.12846
462.453	20.07782
462.658	20.26103
462.864	20.7518
463.07	20.34201
463.276	20.46338
463.482	20.54496
463.688	21.03776
463.893	20.00573
464.099	20.28861
464.305	21.19794
464.511	20.19449
464.716	20.34869
464.922	20.851
465.128	20.07068
465.333	21.27601
465.539	20.78829
465.745	20.47785
465.95	20.58614
466.156	21.86656
466.362	21.10928
466.567	20.39682
466.773	20.24102
466.978	21.32049
467.184	20.2568
467.389	19.77763
467.595	20.92152
467.8	20.41588
468.006	21.34004
468.211	21.26844
468.417	20.1463
468.622	21.01096
468.828	21.0569
469.033	20.96817
469.239	22.06407
469.444	20.43404
469.649	21.12861
469.855	20.72977
470.06	20.78424
470.266	20.3409
470.471	21.10408
470.676	20.89455
470.881	20.0518
471.087	21.63677
471.292	21.47052
471.497	20.26559
471.703	20.70752
471.908	20.60784
472.113	20.90783
472.318	21.29381
472.523	20.39584
472.729	21.08023
472.934	21.02516
473.139	20.71799
473.344	21.15841
473.549	21.42536
473.754	20.54614
473.959	21.88586
474.164	20.57363
474.369	20.8929
474.575	21.38646
474.78	20.87546
474.985	20.52279
475.19	20.02847
475.395	20.61191
475.6	20.83839
475.804	21.50801
476.009	21.01189
476.214	20.89123
476.419	20.73477
476.624	20.23629
476.829	20.74759
477.034	21.56545
477.239	21.16477
477.444	21.77364
477.648	22.36226
477.853	22.44992
478.058	22.11683
478.263	22.17761
478.468	21.57622
478.672	21.59274
478.877	23.22665
479.082	22.72742
479.287	22.34126
479.491	21.96329
479.696	21.53193
479.901	22.52593
480.105	23.10739
480.31	22.6619
480.515	23.41023
480.719	25.6501
480.924	25.23526
481.128	25.91747
481.333	27.60521
481.538	28.54611
481.742	30.38924
481.947	32.87943
482.151	35.63297
482.356	39.03398
482.56	45.41912
482.765	51.52074
482.969	60.5988
483.174	68.59286
483.378	78.42741
483.582	82.07053
483.787	85.97071
483.991	87.65082
484.196	87.22554
484.4	85.1267
484.604	83.15441
484.809	76.53877
485.013	70.16045
485.217	63.08274
485.422	56.02583
485.626	50.86971
485.83	48.33168
486.034	47.6631
486.239	49.19387
486.443	51.2753
486.647	53.71923
486.851	56.96155
487.055	60.86328
487.26	62.30195
487.464	64.71908
487.668	64.58489
487.872	65.62343
488.076	64.73851
488.28	62.00218
488.484	57.81558
488.688	55.23677
488.892	51.62921
489.096	47.37353
489.3	43.80839
489.504	40.75016
489.708	38.60173
489.912	37.76453
490.116	37.17657
490.32	38.04344
490.524	41.51571
490.728	44.49655
490.932	48.04056
491.136	51.19961
491.34	53.86825
491.544	54.64289
491.748	54.8054
491.951	54.17957
492.155	52.68981
492.359	50.26731
492.563	45.97941
492.767	42.56058
492.97	37.99961
493.174	33.72029
493.378	30.62026
493.582	27.74632
493.785	26.32023
493.989	25.40801
494.193	24.39238
494.396	23.36828
494.6	23.82505
494.804	23.17934
495.007	22.93089
495.211	23.20434
495.414	23.55977
495.618	24.73374
495.822	25.87971
496.025	26.30798
496.229	27.27817
496.432	27.26199
496.636	27.96633
496.839	28.46406
497.043	29.51174
497.246	28.90273
497.45	28.37613
497.653	28.47497
497.856	27.90841
498.06	26.92889
498.263	26.36376
498.467	25.65994
498.67	26.26121
498.873	25.54433
499.077	24.30937
499.28	24.02783
499.483	24.01669
499.686	23.74921
499.89	23.1786
500.093	22.57969
500.296	21.62851
500.499	22.18879
500.703	21.51729
500.906	21.60392
501.109	22.26377
501.312	21.5866
501.515	21.42507
501.719	21.74927
501.922	22.26062
502.125	21.62922
502.328	21.41032
502.531	21.07856
502.734	21.5254
502.937	20.72094
503.14	21.53582
503.343	21.15996
503.546	21.53763
503.749	21.34066
503.952	21.93029
504.155	21.34498
504.358	21.92607
504.561	21.92733
504.764	21.12079
504.967	21.75762
505.17	21.67426
505.373	22.41727
505.576	21.67054
505.778	21.99328
505.981	21.51344
506.184	22.37318
506.387	21.00585
506.59	22.52728
506.793	22.3096
506.995	22.15447
507.198	21.00284
507.401	22.16759
507.604	22.74886
507.806	22.52083
508.009	23.01342
508.212	24.13618
508.414	24.0248
508.617	24.28712
508.82	24.80953
509.022	25.56812
509.225	24.80966
509.427	24.16408
509.63	25.11839
509.833	24.36725
510.035	24.15016
510.238	23.22729
510.44	24.47504
510.643	22.77929
510.845	24.48551
511.048	23.89444
511.25	23.38065
511.453	23.64223
511.655	24.10671
511.858	23.70857
512.06	24.17415
512.262	23.7256
512.465	24.35059
512.667	23.13814
512.869	22.53373
513.072	23.04256
513.274	22.70957
513.476	22.25196
513.679	22.2055
513.881	21.4344
514.083	22.61325
514.286	21.57356
514.488	21.49161
514.69	21.33337
514.892	21.29382
515.094	22.22788
515.297	21.57073
515.499	21.88562
515.701	21.55146
515.903	22.62682
516.105	22.60556
516.307	22.06433
516.509	21.03303
516.711	21.51111
516.913	22.4023
517.116	23.67028
517.318	24.56125
517.52	26.71849
517.722	27.82993
517.924	28.03073
518.126	29.78503
518.328	30.00897
518.529	31.05704
518.731	31.60738
518.933	29.92625
519.135	29.98883
519.337	29.94028
519.539	28.48668
519.741	26.40501
519.943	25.63948
520.145	24.56769
520.346	24.2285
520.548	22.70387
520.75	22.75743
520.952	21.89444
521.153	22.13469
521.355	22.27309
521.557	21.50009
521.759	22.04685
521.96	22.04934
522.162	21.4983
522.364	22.36761
522.565	21.61338
522.767	22.28524
522.969	22.45921
523.17	22.14177
523.372	22.06197
523.573	21.69328
523.775	21.86474
523.977	22.01395
524.178	24.03571
524.38	24.4015
524.581	26.32233
524.783	27.46208
524.984	29.55657
525.186	30.66381
525.387	32.18899
525.589	32.52093
525.79	32.94442
525.991	33.27081
526.193	34.15982
526.394	33.32664
526.596	34.5815
526.797	35.45857
526.998	35.73717
527.2	38.30932
527.401	43.18372
527.602	47.78552
527.803	54.8953
528.005	59.45579
528.206	63.84836
528.407	66.83922
528.608	67.69573
528.81	67.57007
529.011	66.06953
529.212	65.95832
529.413	61.7637
529.614	57.19986
529.815	52.26802
530.017	47.17982
530.218	41.97224
530.419	38.11566
530.62	36.00532
530.821	34.22665
531.022	32.19308
531.223	33.13295
531.424	32.61094
531.625	33.19057
531.826	33.24583
532.027	35.34023
532.228	38.44591
532.429	40.35054
532.63	42.74083
532.831	45.16865
533.032	46.13852
533.233	47.25881
533.433	46.29337
533.634	46.22984
533.835	44.13504
534.036	42.1975
534.237	39.68729
534.438	36.77854
534.638	33.33855
534.839	31.21405
535.04	29.9781
535.241	28.97478
535.441	30.35538
535.642	30.43582
535.843	30.98921
536.043	31.86167
536.244	32.59803
536.445	33.15533
536.645	34.14436
536.846	33.57207
537.047	33.38638
537.247	31.66123
537.448	30.4133
537.648	29.19106
537.849	27.2487
538.049	25.80215
538.25	24.4805
538.451	23.80105
538.651	22.62357
538.851	23.24974
539.052	23.8233
539.252	24.06863
539.453	24.74853
539.653	26.28963
539.854	28.59706
540.054	31.44493
540.254	35.94173
540.455	39.93018
540.655	42.65951
540.855	47.10519
541.056	49.43193
541.256	49.77743
541.456	51.32104
541.657	50.71828
541.857	50.57046
542.057	47.91054
542.257	45.79686
542.458	44.2162
542.658	41.39957
542.858	37.70691
543.058	36.19013
543.258	34.48155
543.458	31.85767
543.659	30.50645
543.859	30.72525
544.059	29.56617
544.259	28.00943
544.459	27.37772
544.659	26.07411
544.859	26.0498
545.059	25.24343
545.259	25.84709
545.459	25.49428
545.659	26.55224
545.859	26.29695
546.059	27.26385
546.259	26.93856
546.459	27.16855
546.659	26.76233
546.859	27.11876
547.059	26.82479
547.258	25.99928
547.458	25.0193
547.658	23.40862
547.858	22.07274
548.058	22.45319
548.258	22.26515
548.457	21.83692
548.657	23.57496
548.857	22.20912
549.057	22.82085
549.256	22.6545
549.456	22.17278
549.656	21.31496
549.855	23.21972
550.055	22.21503
550.255	23.30009
550.454	22.52671
550.654	22.77555
550.853	23.14388
551.053	22.67061
551.253	22.42644
551.452	22.34221
551.652	21.66584
551.851	21.4802
552.051	22.14709
552.25	22.14127
552.45	22.03022
552.649	22.17564
552.849	21.92628
553.048	22.42612
553.248	22.84091
553.447	21.93861
553.646	22.90745
553.846	23.26961
554.045	22.99893
554.244	21.82365
554.444	23.55505
554.643	22.1285
554.842	23.24898
555.042	23.79672
555.241	22.21503
555.44	21.92209
555.64	22.85171
555.839	23.86453
556.038	22.81086
556.237	22.19869
556.436	22.38674
556.636	22.66501
556.835	21.83738
557.034	23.54282
557.233	22.43428
557.432	21.66944
557.631	23.21566
557.83	22.39128
558.029	22.15062
558.228	22.16812
558.427	22.0654
558.626	22.80092
558.825	21.85494
559.024	22.65149
559.223	23.40677
559.422	22.49899
559.621	22.68552
559.82	21.01565
560.019	22.44414
560.218	22.40859
560.417	20.81437
560.616	22.10645
560.815	24.4569
561.014	21.59458
561.212	23.45
561.411	22.57046
561.61	21.55639
561.809	22.20481
562.008	23.36113
562.206	22.2922
562.405	22.79584
562.604	22.36042
562.803	22.47714
563.001	22.15644
563.2	21.65309
563.399	22.72168
563.597	21.72819
563.796	22.34478
563.995	21.74972
564.193	22.74844
564.392	22.16615
564.59	23.60965
564.789	21.30243
564.988	22.04751
565.186	22.47458
565.385	22.22675
565.583	22.15306
565.782	22.25989
565.98	22.22586
566.179	22.35564
566.377	21.88964
566.575	22.0317
566.774	23.31855
566.972	22.95212
567.171	23.75919
567.369	23.32038
567.567	22.66175
567.766	22.94371
567.964	21.32085
568.162	22.94227
568.361	23.0321
568.559	22.36023
568.757	22.74469
568.956	22.53897
569.154	22.38166
569.352	22.87686
569.55	22.39063
569.748	22.55434
569.947	21.98136
570.145	21.95276
570.343	21.78041
570.541	23.01461
570.739	21.60089
570.937	22.39945
571.135	22.72709
571.333	23.38284
571.532	23.35714
571.73	22.69824
571.928	23.20746
572.126	22.817
572.324	22.3681
572.522	23.36485
572.72	24.23311
572.918	22.5376
573.116	22.81066
573.313	22.64023
573.511	22.56566
573.709	22.36043
573.907	23.00105
574.105	22.23943
574.303	21.63933
574.501	21.5768
574.699	22.8789
574.896	22.96414
575.094	22.99473
575.292	21.81916
575.49	23.2197
575.688	22.58603
575.885	23.55644
576.083	23.9798
576.281	23.09514
576.478	22.33344
576.676	23.03859
576.874	21.85383
577.071	22.68184
577.269	24.34738
577.467	22.72975
577.664	22.6435
577.862	23.30098
578.059	22.0083
578.257	23.21572
578.455	22.56693
578.652	22.72709
578.85	21.30199
579.047	22.78328
579.245	22.68892
579.442	22.59787
579.64	22.5455
579.837	21.28741
580.034	24.44452
580.232	22.51584
580.429	21.57121
580.627	22.85482
580.824	23.64241
581.021	23.22733
581.219	22.38324
581.416	22.12686
581.613	23.95421
581.811	23.68996
582.008	21.95265
582.205	23.49769
582.402	22.98221
582.6	23.85886
582.797	22.80911
582.994	23.11287
583.191	23.14336
583.388	22.55634
583.586	23.38652
583.783	23.43147
583.98	22.18206
584.177	22.92113
584.374	20.66263
584.571	22.69038
584.768	22.53302
584.965	22.41659
585.162	23.09781
585.359	23.92056
585.556	22.66481
585.753	22.78925
585.95	21.71337
586.147	22.01249
586.344	23.04678
586.541	22.44463
586.738	21.8171
586.935	22.68882
587.132	22.227
587.329	23.63415
587.526	22.58915
587.722	26.45068
587.919	21.79213
588.116	23.26541
588.313	23.95777
588.51	24.59612
588.706	22.55637
588.903	23.1159
589.1	23.49431
589.297	24.98683
589.493	22.83073
589.69	23.19476
589.887	22.44472
590.083	22.0705
590.28	22.34637
590.477	23.49271
590.673	23.57385
590.87	24.00892
591.067	22.57491
591.263	23.16883
591.46	23.22704
591.656	22.73113
591.853	23.95284
592.049	22.13461
592.246	22.30553
592.442	23.80293
592.639	23.85663
592.835	22.07183
593.032	23.18404
593.228	21.74622
593.425	21.70819
593.621	21.63981
593.817	23.12645
594.014	22.19167
594.21	22.89005
594.406	23.49473
594.603	23.3271
594.799	22.45403
594.995	21.26649
595.192	23.84924
595.388	22.53731
595.584	22.55394
595.78	21.70222
595.977	24.20542
596.173	24.1395
596.369	22.73856
596.565	22.29517
596.761	21.79317
596.957	23.92702
597.154	22.54236
597.35	22.68323
597.546	22.4806
597.742	23.54364
597.938	23.24826
598.134	22.34
598.33	23.20135
598.526	24.1732
598.722	23.36818
598.918	24.54967
599.114	23.36538
599.31	22.18747
599.506	23.04163
599.702	22.31603
599.898	23.09061
600.094	23.91073
600.29	23.44318
600.485	23.73501
600.681	22.63216
600.877	24.69679
601.073	23.05646
601.269	24.45815
601.465	24.03687
601.66	22.19747
601.856	21.47768
602.052	24.06466
602.248	22.59815
602.443	21.51149
602.639	22.07324
602.835	22.16
603.03	22.26634
603.226	23.7354
603.422	22.20839
603.617	22.56602
603.813	22.61187
604.009	22.61861
604.204	23.81071
604.4	21.94427
604.595	23.7524
604.791	22.3473
604.986	23.32665
605.182	22.58096
605.377	22.9874
605.573	22.87569
605.768	23.19011
605.964	23.79587
606.159	23.61226
606.355	24.3184
606.55	23.00939
606.746	24.11844
606.941	22.99775
607.136	24.99678
607.332	25.58549
607.527	22.17182
607.722	23.4324
607.918	23.04832
608.113	22.55078
608.308	23.76395
608.503	23.52827
608.699	23.34138
608.894	23.65751
609.089	22.57432
609.284	23.32977
609.479	22.84083
609.675	23.8337
609.87	23.02523
610.065	23.96796
610.26	24.33864
610.455	23.94198
610.65	23.1406
610.845	23.55031
611.04	24.27105
611.235	23.28027
611.43	22.97018
611.625	22.17307
611.82	24.80511
612.015	22.56663
612.21	24.71932
612.405	22.02025
612.6	25.07006
612.795	24.47735
612.99	23.70266
613.185	22.21918
613.38	22.62252
613.575	23.49009
613.77	25.93257
613.965	21.76868
614.159	22.43146
614.354	24.58028
614.549	24.14957
614.744	24.21223
614.938	22.3293
615.133	21.91299
615.328	24.71416
615.523	24.48634
615.717	26.3837
615.912	22.59432
616.107	23.77141
616.301	23.13194
616.496	22.96996
616.691	24.97317
616.885	24.02361
617.08	26.42904
617.274	24.57657
617.469	25.41467
617.664	24.09491
617.858	22.94589
618.053	23.88544
618.247	23.31047
618.442	21.13566
618.636	25.03892
618.831	22.7693
619.025	22.99646
619.219	26.24951
619.414	20.11123
619.608	23.53988
619.803	22.77799
619.997	25.64067
620.191	24.7321
620.386	24.07551
620.58	23.65656
620.774	21.71722
620.969	21.87718
621.163	24.00706
621.357	22.35214
621.551	23.00985
621.746	23.76707
621.94	23.30925
622.134	27.35495
622.328	25.59434
622.522	21.76799
622.716	24.48301
622.911	24.73657
623.105	24.96722
623.299	24.13608
623.493	26.8946
623.687	22.8442
623.881	22.95522
624.075	24.03995
624.269	24.89728
624.463	21.52978
624.657	21.78051
624.851	24.12457
625.045	24.62393
625.239	24.83978
625.433	23.34862
625.627	25.1224
625.821	22.99571
626.015	22.77351
626.209	23.95193
626.403	22.39118
626.596	24.0886
626.79	24.53953
626.984	22.38957
627.178	24.21869
627.372	24.30032
627.565	24.65373
627.759	22.20098
627.953	22.60161
628.147	24.19292
628.34	24.63657
628.534	26.23074
628.728	23.81698
628.921	24.85009
629.115	24.47521
629.309	25.00451
629.502	24.87922
629.696	24.08864
629.89	23.7948
630.083	24.13298
630.277	24.41167
630.47	25.92033
630.664	23.52643
630.857	22.10725
631.051	24.57767
631.244	25.15676
631.438	24.89108
631.631	22.95432
631.825	25.61822
632.018	24.89388
632.212	26.449
632.405	25.35428
632.598	22.97006
632.792	24.02459
632.985	21.06062
633.178	23.69732
633.372	23.67483
633.565	23.91447
633.758	25.50387
633.952	23.06306
634.145	22.73031
634.338	23.95154
634.531	23.45581
634.724	23.61156
634.918	24.11196
635.111	23.90644
635.304	23.56466
635.497	26.91162
635.69	24.38517
635.883	25.78377
636.077	22.95801
636.27	24.79246
636.463	23.95673
636.656	24.29417
636.849	23.81429
637.042	24.87747
637.235	25.77791
637.428	25.04786
637.621	24.56963
637.814	25.96194
638.007	26.36652
638.2	26.17896
638.393	26.96917
638.586	22.39471
638.778	23.56546
638.971	24.29061
639.164	26.54013
639.357	24.84448
639.55	26.24492
639.743	25.28377
639.935	25.30169
640.128	26.74183
640.321	25.19194
640.514	24.65461
640.707	27.36127
640.899	25.20284
641.092	22.16852
641.285	33.79167
641.477	21.65972
641.67	27.47782
641.863	26.36258
642.055	24.77856
642.248	24.20341
642.441	23.76928
642.633	24.94156
642.826	25.74928
643.018	26.28759
643.211	27.34314
643.403	26.37019
643.596	27.75191
643.788	27.21264
643.981	24.28844
644.173	26.0831
644.366	24.49488
644.558	22.01247
644.751	25.92512
644.943	22.23669
645.135	26.38516
645.328	27.25528
645.52	25.37456
645.712	26.38712
645.905	28.9808
646.097	22.81446
646.289	24.92667
646.482	28.05918
646.674	23.91896
646.866	26.6757
647.058	25.64418
647.251	23.12561
647.443	24.09965
647.635	24.76683
647.827	22.85366
648.019	23.78231
648.211	24.91813
648.404	24.53906
648.596	27.85068
648.788	25.20902
648.98	24.97236
649.172	25.52929
649.364	25.41289
649.556	21.85194
649.748	29.48229
649.94	23.75064
650.132	25.82062
650.324	23.26901
650.516	23.92872
650.708	27.03992
650.9	22.95401
651.092	22.53849
651.284	22.79993
651.476	23.50049
651.667	26.32666
651.859	26.6931
652.051	24.89588
652.243	25.20628
652.435	24.16668
652.627	25.92071
652.818	26.11372
653.01	22.87193
653.202	23.41527
653.394	24.1333
653.585	26.16996
653.777	32.06122
653.969	27.05664
654.16	26.98033
654.352	23.25983
654.544	24.8251
654.735	26.5828
654.927	25.69505
655.118	27.5857
655.31	26.34477
655.502	26.77975
655.693	24.46203
655.885	26.2668
656.076	27.31993
656.268	25.33087
656.459	27.35945
656.651	27.31885
656.842	24.4662
657.034	23.91285
657.225	26.65301
657.416	27.57651
657.608	27.41132
657.799	25.06766
657.99	26.9284
658.182	24.50192
658.373	24.43783
658.564	26.37861
658.756	25.57943
658.947	25.10071
659.138	24.1529
659.33	24.83418
659.521	24.37219
659.712	25.38834
659.903	25.12778
660.094	24.65761
660.286	23.23595
660.477	28.7238
660.668	26.79346
660.859	25.43518
661.05	23.35779
661.241	26.73772
661.432	26.26544
661.623	25.05651
661.814	24.63716
662.006	22.84744
662.197	26.45851
662.388	27.54425
662.579	25.85408
662.77	27.96077
662.96	30.14569
663.151	26.56435
663.342	22.5927
663.533	27.04255
663.724	25.66711
663.915	28.60401
664.106	25.53189
664.297	29.08193
664.488	26.86761
664.678	24.48576
664.869	27.30574
665.06	27.70523
665.251	26.67749
665.442	26.79819
665.632	23.92794
665.823	29.05421
666.014	20.18679
666.204	26.98623
666.395	28.46968
666.586	30.23514
666.776	27.29675
666.967	29.19169
667.158	26.33966
667.348	28.50627
667.539	23.84778
667.729	27.26116
667.92	24.79727
668.111	27.99149
668.301	27.03007
668.492	25.72492
668.682	26.31431
668.873	26.00178
669.063	24.13021
669.253	26.85703
669.444	27.37209
669.634	25.86474
669.825	30.00714
670.015	28.4427
670.206	24.51455
670.396	29.76294
670.586	25.85987
670.777	27.0805
670.967	22.28695
671.157	25.76239
671.347	25.10045
671.538	28.66195
671.728	26.65473
671.918	30.08285
672.108	28.8155
672.299	26.15859
672.489	26.92306
672.679	24.73409
672.869	27.87573
673.059	30.18982
673.249	27.20692
673.44	24.44933
673.63	26.03643
673.82	27.9417
674.01	24.85128
674.2	27.06507
674.39	32.7954
674.58	27.6648
674.77	26.73309
674.96	26.29737
675.15	34.90471
675.34	29.06441
675.53	26.34675
675.72	26.25087
675.91	23.52717
676.099	30.51177
676.289	30.52248
676.479	28.94019
676.669	25.66814
676.859	27.52402
677.049	24.73809
677.238	26.43855
677.428	30.82731
677.618	27.241
677.808	28.41537
677.997	27.87861
678.187	24.38233
678.377	26.90197
678.567	26.11811
678.756	26.06107
678.946	26.60476
679.136	24.3934
679.325	25.75559
679.515	25.23274
679.704	24.5427
679.894	27.97255
680.084	27.87624
680.273	29.53434
680.463	25.78834
680.652	25.70134
680.842	26.88108
681.031	29.0671
681.221	25.72958
681.41	28.68603
681.6	26.6216
681.789	28.7957
681.978	30.35107
682.168	27.67279
682.357	27.96031
682.547	28.93803
682.736	27.77398
682.925	30.16271
683.115	29.71986
683.304	29.28943
683.493	28.70788
683.682	28.65661
683.872	28.48467
684.061	30.60918
684.25	28.59131
684.439	31.57821
684.629	29.63778
684.818	35.27931
685.007	27.76588
685.196	27.20242
685.385	31.10728
685.574	28.70426
685.763	29.80985
685.952	28.36581
686.142	25.21493
686.331	31.09856
686.52	24.31686
686.709	31.60292
686.898	31.2508
687.087	30.07886
687.276	32.27362
687.465	30.48013
687.654	28.73431
687.842	32.24437
688.031	26.16578
688.22	31.37309
688.409	29.10566
688.598	29.14377
688.787	34.68818
688.976	28.86685
689.165	32.50473
689.353	27.41674
689.542	29.15661
689.731	29.95486
689.92	33.5432
690.108	31.04483
690.297	27.91947
690.486	28.64929
690.675	30.93343
690.863	32.98975
691.052	33.01888
691.241	30.08084
691.429	29.74282
691.618	33.37048
691.806	26.34534
691.995	28.28926
692.184	29.19105
692.372	28.11402
692.561	29.72559
692.749	28.86413
692.938	34.86576
693.126	30.47777
693.315	27.76126
693.503	31.17389
693.692	30.80416
693.88	31.93853
694.068	35.02025
694.257	29.86826
694.445	30.51948
694.634	24.1954
694.822	32.01249
695.01	32.37255
695.199	32.19911
695.387	33.5399
695.575	32.66388
695.763	29.30923
695.952	28.24946
696.14	26.22684
696.328	28.23764
696.516	29.51378
696.705	30.46452
696.893	29.96249
697.081	25.01659
697.269	30.66806
697.457	26.84765
697.645	26.3789
697.833	31.1129
698.021	27.91466
698.21	27.98949
698.398	29.11471
698.586	26.87782
698.774	26.81018
698.962	28.61539
699.15	27.54249
699.338	26.13992
699.526	30.72764
699.714	28.41403
699.901	28.36177
700.089	32.47373
700.277	27.71704
700.465	29.43591
700.653	31.81285
700.841	31.58025
701.029	28.03111
701.217	33.03092
701.404	30.21633
701.592	35.13174
701.78	34.51502
701.968	29.17775
702.155	29.21724
702.343	26.28446
702.531	33.91584
702.718	30.6308
702.906	29.64922
703.094	28.14602
703.281	33.11252
703.469	30.75939
703.657	32.99836
703.844	39.48531
704.032	35.12746
704.219	28.23794
704.407	31.09822
704.595	34.04787
704.782	31.29488
704.97	29.16861
705.157	29.54295
705.345	35.22473
705.532	37.82483
705.719	31.75539
705.907	34.96182
706.094	30.63922
706.282	35.86937
706.469	29.53181
706.656	30.87326
706.844	29.52412
707.031	33.68715
707.218	31.58136
707.406	36.3987
707.593	32.94827
707.78	32.94559
707.968	30.94406
708.155	29.35018
708.342	32.62212
708.529	32.19325
708.716	32.14951
708.904	36.57733
709.091	34.2956
709.278	28.0774
709.465	38.91128
709.652	37.60163
709.839	36.21259
710.026	32.29102
710.213	26.92857
710.4	33.78422
710.587	34.31217
710.774	36.20692
710.961	34.67799
711.148	32.12468
711.335	35.29286
711.522	30.89317
711.709	32.83097
711.896	39.64089
712.083	35.18348
712.27	29.36806
712.457	33.18329
712.644	27.79324
712.831	38.97025
713.017	33.02714
713.204	34.86597
713.391	31.12123
713.578	37.13609
713.765	36.66622
713.951	34.25159
714.138	43.54382
714.325	34.98159
714.512	33.18547
714.698	30.09996
714.885	38.54109
715.072	34.23438
715.258	33.96866
715.445	31.00953
715.631	38.20126
715.818	25.56918
716.005	31.50188
716.191	35.89237
716.378	32.50174
716.564	37.76529
716.751	30.95635
716.937	31.63557
717.124	37.23132
717.31	30.60324
717.497	38.02266
717.683	31.30424
717.869	42.68006
718.056	31.46894
718.242	35.24875
718.429	33.41955
718.615	30.03883
718.801	33.79332
718.988	36.91462
719.174	35.43796
719.36	34.03565
719.547	38.4766
719.733	34.37095
719.919	35.6762
720.105	36.54374
720.291	33.52952
720.478	34.66633
720.664	33.3073
720.85	32.79136
721.036	45.30329
721.222	39.03388
721.408	34.34083
721.595	42.56033
721.781	40.26154
721.967	37.58079
722.153	41.30092
722.339	37.16525
722.525	35.64602
722.711	30.94176
722.897	29.66952
723.083	33.04666
723.269	38.42141
723.455	44.4024
723.641	45.63237
723.827	35.51796
724.012	36.82863
724.198	32.38609
724.384	40.38522
724.57	37.3157
724.756	29.01569
724.942	27.77879
725.127	38.39136
725.313	40.77949
725.499	40.84781
725.685	41.70356
725.87	36.52538
726.056	31.88096
726.242	41.52768
726.428	28.5376
726.613	39.24248
726.799	34.13089
726.985	31.17582
727.17	28.57969
727.356	41.09742
727.541	31.24193
727.727	34.80388
727.913	37.95249
728.098	32.80005
728.284	38.58292
728.469	30.69523
728.655	32.4812
728.84	38.59412
729.026	39.79458
729.211	38.71318
729.397	37.29307
729.582	38.04931
729.767	36.3882
729.953	37.17581
730.138	39.6941
730.323	28.23352
730.509	31.50336
730.694	43.95847
730.879	37.83968
731.065	36.06387
731.25	45.21554
731.435	39.21294
731.621	29.28577
731.806	33.45854
731.991	36.78423
732.176	31.10586
732.361	41.45678
732.547	37.09308
732.732	29.81578
732.917	46.02753
733.102	31.37924
733.287	33.2891
733.472	36.19667
733.657	35.87864
733.842	29.82168
734.027	34.51996
734.212	36.12531
734.397	33.10306
734.582	36.70893
734.767	40.55891
734.952	42.45274
735.137	25.49401
735.322	42.32817
735.507	37.91696
735.692	36.94858
735.877	46.49247
736.062	42.3787
736.247	38.59835
736.431	34.9925
736.616	41.21589
736.801	36.57521
736.986	36.18359
737.171	32.27933
737.355	30.87051
737.54	41.24919
737.725	36.13144
737.909	48.56085
738.094	33.06865
738.279	42.30691
738.463	34.61547
738.648	39.07486
738.833	39.03786
739.017	44.21275
739.202	33.68038
739.386	36.4739
739.571	29.23978
739.756	39.15205
739.94	36.29214
740.125	40.89271
740.309	32.21011
740.494	41.80606
740.678	36.63963
740.863	39.7069
741.047	37.43931
741.231	42.89778
741.416	33.08422
741.6	45.70441
741.785	33.43748
741.969	41.43126
742.153	42.43588
742.338	27.42229
742.522	38.06052
742.706	40.2864
742.89	31.65266
743.075	37.75506
743.259	43.69555
743.443	40.61937
743.627	44.03136
743.812	48.33544
743.996	29.25993
744.18	35.77183
744.364	34.31831
744.548	48.88624
744.732	35.49461
744.916	41.01879
745.1	39.50548
745.285	35.05375
745.469	38.90894
745.653	45.37996
745.837	29.76302
746.021	50.32714
746.205	43.96339
746.389	37.86208
746.573	36.08301
746.757	45.38458
746.94	35.47575
747.124	44.30054
747.308	31.50413
747.492	43.43919
747.676	34.31038
747.86	51.93478
748.044	34.24854
748.227	28.29102
748.411	57.02407
748.595	38.24059
748.779	33.09445
748.963	39.72674
749.146	37.75303
749.33	33.34882
749.514	32.49451
749.697	43.59126
749.881	34.22309
750.065	32.33004
750.248	37.72981
750.432	51.42389
750.616	37.55061
750.799	31.5714
750.983	48.3459
751.166	52.68782
751.35	30.22659
751.533	41.91361
751.717	43.76334
751.9	46.96739
752.084	35.85374
752.267	33.01147
752.451	34.9644
752.634	39.10046
752.818	41.54954
753.001	41.83017
753.184	42.84341
753.368	40.58336
753.551	21.47734
753.734	33.24082
753.918	48.02865
754.101	34.58067
754.284	42.16607
754.467	35.92124
754.651	33.91465
754.834	33.42411
755.017	45.08163
755.2	43.53689
755.384	32.10381
755.567	43.5999
755.75	44.47412
755.933	36.94744
756.116	39.13809
756.299	35.59324
756.482	33.63489
756.665	40.81044
756.848	38.10716
757.032	41.19516
757.215	30.89799
757.398	33.433
757.581	34.20773
757.764	55.19947
757.947	37.58519
758.129	45.58727
758.312	23.30135
758.495	38.11633
758.678	38.17992
758.861	34.90856
759.044	48.67024
759.227	33.62781
759.41	35.0278
759.592	42.16581
759.775	37.19797
759.958	44.99269
760.141	32.55971
760.324	53.58969
760.506	47.30992
760.689	45.27266
760.872	53.46311
761.054	42.09149
761.237	37.75124
761.42	40.83894
761.602	44.3695
761.785	39.93987
761.968	45.41397
762.15	49.54755
762.333	37.47478
762.515	40.64831
762.698	36.06868
762.88	43.8808
763.063	40.86499
763.245	42.63941
763.428	33.14818
763.61	35.51142
763.793	31.47878
763.975	39.84109
764.158	36.58421
764.34	35.90057
764.522	34.42604
764.705	38.15674
764.887	45.53803
765.069	30.9378
765.252	42.83172
765.434	43.56485
765.616	38.94658
765.799	35.41924
765.981	44.0297
766.163	34.63792
766.345	44.77401
766.528	35.01596
766.71	26.92001
766.892	39.28259
767.074	46.70401
767.256	37.03124
767.438	50.16644
767.62	41.41074
767.802	52.51469
767.985	43.29352
768.167	53.55767
768.349	37.57954
768.531	43.15298
768.713	42.20119
768.895	44.75336
769.077	42.52177
769.259	55.88594
769.441	74.07868
769.623	45.0754
769.804	51.96527
769.986	48.67378
770.168	56.95251
770.35	65.18207
770.532	51.28041
770.714	55.19039
770.896	56.04351
771.077	33.23705
771.259	59.63354
771.441	48.53189
771.623	62.46655
771.804	69.62549
771.986	32.82691
772.168	41.5968
772.35	58.71495
772.531	74.34004
772.713	47.57594
772.894	60.78096
773.076	47.15489
773.258	43.76297
773.439	59.69504
773.621	65.90167
773.802	41.20002
773.984	43.78371
774.166	50.74337
774.347	62.60535
774.529	60.55908
774.71	32.48377
774.891	48.37578
775.073	45.47831
775.254	63.01678
775.436	42.89326
775.617	68.56371
775.799	43.23167
775.98	64.04458
776.161	67.18109
776.343	67.35451
776.524	48.56332
776.705	45.87336
776.886	32.89115
777.068	53.03875
777.249	76.15635
777.43	70.15149
777.611	39.36698
777.793	45.57262
777.974	64.67111
778.155	43.3949
778.336	41.68397
778.517	73.49965
778.698	41.75224
778.879	33.11595
779.061	25.12404
779.242	53.41655
779.423	56.35444
779.604	43.76583
779.785	48.79565
779.966	50.77844
780.147	60.46873
780.328	62.27643
780.509	82.05033
780.69	59.84678
780.871	41.94905
781.051	36.72268
781.232	54.38904
781.413	51.57308
781.594	46.704
781.775	46.90304
781.956	42.4859
782.137	32.82188
782.317	43.05033
782.498	53.35003
782.679	51.37292
782.86	51.06673
783.04	44.08643
783.221	54.85841
783.402	70.77832
783.583	51.47632
783.763	57.88165
783.944	45.14489
784.124	35.29723
784.305	67.07118
784.486	53.48934
784.666	49.37605
784.847	35.69944
785.027	75.2019
785.208	42.97726
785.388	43.4621
785.569	44.79589
785.749	47.04468
785.93	45.20032
786.11	35.43437
786.291	56.28923
786.471	49.61637
786.652	59.54451
786.832	49.00693
787.012	54.29519
787.193	39.41834
787.373	51.55862
787.553	46.67823
787.734	53.07188
787.914	46.93044
788.094	55.31731
788.275	54.62596
788.455	47.65093
788.635	38.14434
788.815	51.68997
788.995	38.53147
789.176	36.12738
789.356	42.40401
789.536	46.94658
789.716	56.4163
789.896	42.7384
790.076	43.94584
790.256	52.15358
790.436	28.90612
790.616	42.03341
790.796	51.29608
790.976	45.61985
791.156	41.08701
791.336	58.83635
791.516	54.01462
791.696	47.15935
791.876	35.35789
792.056	50.22947
792.236	58.85717
792.416	57.01621
792.596	53.11059
792.776	53.94784
792.956	54.47628
793.135	65.09638
793.315	39.01357
793.495	62.5434
793.675	57.53018
793.854	57.07895
794.034	59.0781
794.214	39.61169
794.394	56.38759
794.573	62.89086
794.753	52.40018
794.933	39.65921
795.112	52.54147
795.292	58.26364
795.472	71.60013
795.651	37.0739
795.831	48.20066
796.01	46.46164
796.19	46.88583
796.369	50.94216
796.549	55.50662
796.728	46.50175
796.908	36.01841
797.087	39.06499
797.267	45.81843
797.446	39.19005
797.626	58.59387
797.805	54.62205
797.984	41.89973
798.164	57.79717
798.343	40.79024
798.522	54.2055
798.702	50.73113
798.881	37.12691
799.06	47.37856
799.239	31.89623
799.419	41.21155
799.598	66.81439
799.777	54.24693
799.956	63.40376
800.136	46.14206
800.315	45.92346
800.494	54.89754
800.673	63.42236
800.852	56.57999
801.031	59.77842
801.21	56.98847
801.389	45.5882
801.568	50.37401
801.747	69.48799
801.926	52.9608
802.105	67.28274
802.284	45.36684
802.463	67.59054
802.642	53.71432
802.821	53.58747
803	63.93629
803.179	59.96904
803.358	65.39336
803.537	44.44505
803.716	48.67694
803.895	42.96518
804.073	49.43767
804.252	42.33993
804.431	54.46561
804.61	47.32788
804.789	60.50245
804.967	44.24148
805.146	43.39035
805.325	70.1515
805.503	57.0633
805.682	35.98481
805.861	79.84244
806.039	63.12318
806.218	46.56783
806.397	53.13854
806.575	50.5503
806.754	54.18279
806.932	40.72605
807.111	68.35537
807.289	57.34639
807.468	51.18451
807.646	63.64016
807.825	60.70055
808.003	54.19888
808.182	59.5578
808.36	53.58447
808.539	42.95271
808.717	66.32442
808.895	42.8501
809.074	56.89726
809.252	52.10088
809.43	57.76709
809.609	63.90148
809.787	75.18694
809.965	49.7858
810.144	52.6256
810.322	51.57833
810.5	57.43626
810.678	49.40263
810.856	76.66437
811.035	63.63478
811.213	61.93826
811.391	70.88997
811.569	54.48167
811.747	86.38268
811.925	67.83119
812.103	43.26022
812.281	52.78846
812.459	72.85381
812.637	76.73817
812.816	62.4198
812.994	76.63597
813.171	66.67754
813.349	58.9736
813.527	67.56761
813.705	70.53111
813.883	86.959
814.061	67.31729
814.239	77.1085
814.417	79.73627
814.595	58.40521
814.773	58.11897
814.95	53.5195
815.128	57.92943
815.306	48.48709
815.484	50.80623
815.662	45.93503
815.839	41.71955
816.017	44.99181
816.195	71.22626
816.372	50.47516
816.55	59.91642
816.728	70.77702
816.905	50.78232
817.083	73.91608
817.261	54.09216
817.438	77.68054
817.616	75.5388
817.793	48.56298
817.971	64.82471
818.148	62.80897
818.326	70.2518
818.503	58.2541
818.681	70.72766
818.858	48.41945
819.036	53.40111
819.213	56.76274
819.391	45.27017
819.568	44.51376
819.745	44.02764
819.923	62.36784
820.1	49.58477
820.277	43.19151
820.455	49.24036
820.632	49.62837
820.809	50.11953
820.986	39.79402
821.164	36.45634
821.341	34.0239
821.518	40.20533
821.695	34.99497
821.872	34.74273
822.05	33.31669
822.227	30.7178
822.404	31.90632
822.581	34.20881
822.758	32.04782
822.935	32.17052
823.112	34.59466
823.289	31.54817
823.466	34.84463
823.643	34.10636
823.82	37.13231
823.997	35.94493
824.174	39.06846
824.351	43.54367
824.528	43.06365
824.705	40.54107
824.882	43.00415
825.059	48.49129
825.236	39.62137
825.412	40.7858
825.589	45.6654
825.766	53.8467
825.943	42.79044
826.12	46.05872
826.296	36.94101
826.473	40.77075
826.65	41.67262
826.827	46.63399
827.003	37.82556
827.18	40.46229
827.357	43.39736
827.533	40.82744
827.71	31.56682
827.887	38.18837
828.063	40.33998
828.24	38.76964
828.416	44.90551
828.593	40.37535
828.769	48.97473
828.946	51.2098
829.122	53.65605
829.299	48.5275
829.475	37.251
829.652	49.50566
829.828	70.20512
830.005	49.4583
830.181	61.60334
830.357	47.81016
830.534	63.49043
830.71	51.34756
830.886	59.71261
831.063	62.37018
831.239	70.44099
831.415	41.85484
831.592	69.97946
831.768	52.07062
831.944	46.79086
832.12	68.0493
832.296	64.1644
832.473	60.0336
832.649	47.15888
832.825	56.73875
833.001	40.81013
833.177	54.65335
833.353	50.89212
833.529	36.4748
833.705	45.42836
833.881	38.70463
834.058	39.25292
834.234	41.20515
834.41	40.59986
834.586	36.121
834.761	41.46976
834.937	42.49828
835.113	43.79826
835.289	41.12063
835.465	46.05716
835.641	41.15583
835.817	43.58827
835.993	67.07489
836.169	41.17705
836.344	52.73802
836.52	57.52516
836.696	56.28274
836.872	46.59758
837.048	90.95895
837.223	51.52425
837.399	81.46288
837.575	66.83651
837.75	64.65935
837.926	79.9281
838.102	116.46955
838.277	93.84857
838.453	112.0113
838.628	113.55704
838.804	59.01062
838.98	104.58327
839.155	59.5766
839.331	78.29003
839.506	60.39964
839.682	60.56183
839.857	71.92004
840.033	80.4867
840.208	53.52458
840.384	34.69726
840.559	51.70181
840.734	68.085
840.91	89.62097
841.085	61.6017
841.26	60.17743
841.436	57.90822
841.611	56.9936
841.786	78.68096
841.962	93.54059
842.137	67.07921
842.312	50.83646
842.487	60.69092
842.663	51.79893
842.838	61.99154
843.013	160.81703
843.188	86.69862
843.363	74.63849
843.538	135.99583
843.714	132.98207
843.889	139.71971
844.064	135.33752
844.239	120.77415
844.414	147.46535
844.589	98.65328
844.764	155.92408
844.939	155.75894
845.114	181.11017
845.289	179.79979
845.464	194.30554
845.639	154.69619
845.814	93.99342
845.989	102.96184
846.163	111.78706
846.338	134.24385
846.513	172.18102
846.688	118.66516
846.863	121.90329
847.038	108.66679
847.212	128.41838
847.387	120.57456
847.562	132.73166
847.737	155.30675
847.911	73.2021
848.086	88.48286
848.261	259.73064
848.435	105.3074
848.61	161.28593
848.785	86.02904
848.959	157.88351
849.134	204.08587
849.308	241.78332
849.483	129.35869
849.658	180.85339
849.832	111.74565
850.007	101.02558
850.181	242.08607
850.356	97.52689
850.53	217.17411
850.705	79.47841
850.879	59.75176
851.053	116.85388
851.228	111.66085
851.402	151.16415
851.577	185.42452
851.751	179.32264
851.925	129.42672
852.099	72.64184
852.274	97.18887
852.448	115.50672
852.622	159.32502
852.797	123.88719
852.971	121.57114
853.145	133.57085
853.319	260.6278
853.493	195.69657
853.668	104.42937
853.842	218.18625
854.016	181.51393
854.19	211.84146
854.364	139.71005
854.538	143.31768
854.712	176.85977
854.886	126.77276
855.06	113.40684
855.234	55.82439
855.408	204.44597
855.582	173.82989
855.756	183.24666
855.93	216.01871
856.104	139.70987
856.278	172.15869
856.452	123.66428
856.626	152.42652
856.8	245.77952
856.973	151.09525
857.147	140.52168
857.321	155.40704
857.495	169.28829
857.669	128.41831
857.842	112.5002
858.016	182.87526
858.19	92.99701
858.364	318.35254
858.537	120.49465
858.711	142.75708
858.885	117.35915
859.058	108.25893
859.232	67.79503
859.405	79.80488
859.579	170.39609
859.753	148.06733
859.926	99.53895
860.1	72.39653
860.273	120.4598
860.447	198.661
860.62	123.2395
860.794	231.28022
860.967	148.66935
861.141	188.24016
861.314	262.64051
861.487	149.71947
861.661	187.02656
861.834	216.6186
862.008	173.68844
862.181	126.70292
862.354	137.72024
862.528	161.10058
862.701	115.1584
862.874	80.03918
863.047	116.7137
863.221	113.35914
863.394	70.87589
863.567	193.6801
863.74	57.76312
863.913	173.74694
864.087	152.21838
864.26	165.87066
864.433	121.93338
864.606	230.19703
864.779	128.91
864.952	73.52818
865.125	109.7548
865.298	130.77591
865.471	132.49091
865.644	205.12496
865.817	176.79257
865.99	173.49717
866.163	212.92247
866.336	112.36671
866.509	125.99953
866.682	111.14404
866.855	194.39807
867.028	90.0455
867.2	151.70193
867.373	69.64709
867.546	136.95354
867.719	224.67273
867.892	147.07374
868.064	98.22047
868.237	155.57467
868.41	129.01118
868.583	86.86259
868.755	92.22559
868.928	122.09445
869.101	251.59559
869.273	176.43765
869.446	151.47695
869.619	186.6947
869.791	121.90719
869.964	175.23307
870.136	168.62553
870.309	144.00672
870.481	133.61873
870.654	77.46915
870.826	157.59855
870.999	109.03741
871.171	151.65807
871.344	104.60977
871.516	132.59981
871.689	93.32515
871.861	133.5764
872.033	95.25323
872.206	114.52259
872.378	176.37166
872.55	111.98573
872.723	79.97679
872.895	114.58887
873.067	171.55942
873.24	178.11188
873.412	99.10254
873.584	120.9433
873.756	112.28442
873.928	141.71637
874.101	142.32831
874.273	148.7425
874.445	65.37029
874.617	82.71561
874.789	131.85846
874.961	112.62135
875.133	151.39532
875.305	124.70413
875.477	92.18728
875.649	80.35228
875.821	97.15584
875.993	187.54701
876.165	87.8332
876.337	136.61278
876.509	122.7455
876.681	132.16221
876.853	136.00149
877.025	131.60468
877.197	95.51543
877.369	86.9522
877.541	157.09632
877.712	59.10873
877.884	81.62874
878.056	133.03139
878.228	78.08813
878.4	138.74603
878.571	81.97476
878.743	61.74372
878.915	113.77569
879.086	81.05508
879.258	94.65648
879.43	81.1727
879.601	73.01274
879.773	79.49557
879.945	35.08624
880.116	42.85618
880.288	34.19841
880.459	36.42959
880.631	32.43663
880.802	36.66643
880.974	35.80749
881.145	31.07179
881.317	36.05543
881.488	31.70363
881.66	34.22942
881.831	32.37726
882.002	38.01469
882.174	33.86937
882.345	37.3159
882.517	30.00985
882.688	41.67369
882.859	37.3129
883.03	47.97674
883.202	47.17746
883.373	43.98472
883.544	42.14375
883.715	56.58042
883.887	51.36917
884.058	46.07422
884.229	57.83157
884.4	59.23502
884.571	64.56225
884.742	56.28203
884.914	59.00645
885.085	77.10466
885.256	95.62854
885.427	80.16474
885.598	90.1186
885.769	89.64971
885.94	94.33524
886.111	68.31688
886.282	107.88144
886.453	83.78383
886.624	73.58436
886.795	106.38862
886.966	91.36076
887.136	116.72031
887.307	83.15852
887.478	148.75478
887.649	117.79731
887.82	133.38286
887.991	109.12094
888.161	146.10668
888.332	127.69059
888.503	76.62981
888.674	181.38499
888.844	198.52129
889.015	153.1913
889.186	80.59515
889.356	184.9952
889.527	81.50108
889.698	247.93651
889.868	104.47543
890.039	142.44749
890.209	118.45455
890.38	147.85733
890.551	134.04182
890.721	185.47988
890.892	154.0868
891.062	114.12545
891.233	142.8243
891.403	108.4242
891.574	93.18548
891.744	117.76158
891.914	137.1047
892.085	125.92947
892.255	56.92963
892.425	169.44044
892.596	131.77704
892.766	136.73907
892.936	171.51097
893.107	147.24852
893.277	88.29506
893.447	73.57929
893.618	56.40172
893.788	93.98199
893.958	60.66599
894.128	59.9862
894.298	66.22644
894.468	81.34767
894.639	48.61975
894.809	40.84974
894.979	52.21161
895.149	59.6754
895.319	52.99919
895.489	66.65426
895.659	80.06332
895.829	58.09198
895.999	61.95179
896.169	52.63106
896.339	60.19456
896.509	103.7021
896.679	115.81522
896.849	115.26373
897.019	146.45235
897.189	118.07661
897.358	113.71452
897.528	151.50196
897.698	62.86846
897.868	139.90447
898.038	222.88588
898.208	232.06406
898.377	82.34794
898.547	218.59778
898.717	267.53668
898.886	147.00588
899.056	222.78202
899.226	291.44379
899.395	181.21331
899.565	255.44906
899.735	178.496
899.904	260.08146
900.074	235.53678
900.244	107.42215
900.413	368.53862
900.583	102.5445
900.752	157.86035
900.922	290.0731
901.091	44.76872
901.261	216.79195
901.43	219.97765
901.599	196.59222
901.769	457.02875
901.938	262.60237
902.108	227.29084
902.277	307.8931
902.446	96.11863
902.616	99.38576
902.785	121.02709
902.954	208.04764
903.124	139.24277
903.293	105.77482
903.462	67.15538
903.631	92.315
903.801	76.16627
903.97	47.79729
904.139	65.13206
904.308	55.79472
904.477	49.99647
904.646	37.26556
904.816	43.89697
904.985	66.98546
905.154	91.08904
