Data from WindowProjectSample_Transmission__18__00018.txt Node

Date: Sat May 03 15:12:51 EDT 2025
User: jessi
Spectrometer: SR400872
Trigger mode: 0
Integration Time (sec): 5.000010E-1
Scans to average: 6
Electric dark correction enabled: true
Nonlinearity correction enabled: true
Boxcar width: 0
XAxis mode: Wavelengths
Number of Pixels in Spectrum: 3648
>>>>>Begin Spectral Data<<<<<
184.909	17846.08096
185.132	2617.64691
185.355	23317.71106
185.578	-7826.38558
185.801	275.65622
186.024	-1517.45876
186.247	863.01702
186.47	1775.81058
186.693	-362.34683
186.916	-3020.30351
187.139	-2659.92308
187.362	1683.83705
187.585	2637.96463
187.808	-3414.54709
188.031	618.62879
188.254	-1300.1052
188.476	-640.235
188.699	2681.97247
188.922	-689.50529
189.145	-9940.12727
189.368	-401.54659
189.591	-1248.11978
189.813	-1875.23332
190.036	1203.74804
190.259	1613.76565
190.482	521.94023
190.705	10365.2486
190.927	-1003.43689
191.15	3377.9971
191.373	2208.92736
191.595	-2292.14484
191.818	2546.1247
192.041	-149.38202
192.263	2799.42113
192.486	1842.78579
192.709	-5633.49754
192.931	2885.10621
193.154	-6259.01142
193.377	197952.92362
193.599	1405.06228
193.822	1827.53758
194.044	-2050.47354
194.267	518.90935
194.489	-671.80257
194.712	1452.04776
194.934	3386.2331
195.157	-17870.55073
195.379	849.09367
195.602	2358.77479
195.824	2076.97204
196.047	2759.78666
196.269	3062.16397
196.492	3549.7739
196.714	2738.80129
196.936	1162.1173
197.159	1509.81045
197.381	-2275.80453
197.604	-1059.82416
197.826	6137.67515
198.048	3052.42574
198.271	4055.05907
198.493	2086.69755
198.715	-6026.21969
198.938	-695.58444
199.16	1878.32865
199.382	1410.74697
199.604	-698.35203
199.827	8993.18368
200.049	950.10607
200.271	-3280.27764
200.493	-55273.27417
200.715	2240.9932
200.938	6816.66534
201.16	-7244.43605
201.382	-3016.90201
201.604	-1956.0992
201.826	6923.12418
202.048	975.81495
202.27	-17754.88476
202.492	5043.794
202.715	-1120.98605
202.937	4726.28237
203.159	-2331.27167
203.381	950.57287
203.603	-3806.73807
203.825	-2960.82815
204.047	3365.24348
204.269	-2178.2693
204.491	2245.6127
204.713	2006.31933
204.935	15209.09053
205.156	1837.7615
205.378	-7919.59242
205.6	-4356.37966
205.822	9164.16665
206.044	-722.48674
206.266	3964.32062
206.488	1219.84093
206.71	30061.00254
206.932	2495.51441
207.153	-4749.32295
207.375	-1787.06494
207.597	8759.1432
207.819	4288.29656
208.041	2248.69393
208.262	-2637.45903
208.484	-1281.45673
208.706	-2941.34319
208.927	27578.15984
209.149	1010.10816
209.371	-6580.46381
209.593	1062.11572
209.814	5100.29937
210.036	-2791.07537
210.258	-5779.64027
210.479	-1528.53721
210.701	1071.73667
210.922	7138.61254
211.144	-1340.56321
211.366	-5410.3619
211.587	-524.85237
211.809	9549.48552
212.03	-1354.25765
212.252	-2306.86012
212.473	876.48543
212.695	-2475.12343
212.916	2974.06648
213.138	3107.82024
213.359	-1945.70299
213.581	7211.88752
213.802	-1854.47723
214.024	16400.64572
214.245	-3637.23956
214.466	-705.7957
214.688	1667.5845
214.909	945.76024
215.131	-93606.65218
215.352	1720.0188
215.573	2584.56188
215.795	2890.59664
216.016	3980.2319
216.237	-624.38051
216.459	6817.49504
216.68	109191.01304
216.901	-79705.42543
217.122	1754.33349
217.344	6028.98555
217.565	-59247.88637
217.786	1526.71224
218.007	1755.36665
218.228	-1353.1624
218.45	-1182.7867
218.671	-1061.7326
218.892	1154.609
219.113	-18513.92158
219.334	-442.47214
219.555	-4764.5013
219.776	1732.71447
219.997	3322.12997
220.219	1093.71934
220.44	2172.34086
220.661	-2937.40562
220.882	3564.69148
221.103	-1319.40856
221.324	986.14623
221.545	2221.17023
221.766	-6133.20536
221.987	3734.92313
222.208	-1716.66309
222.429	3482.10798
222.65	-155.15446
222.87	-601.24601
223.091	8556.61587
223.312	2775.28488
223.533	6199.6915
223.754	1949.99644
223.975	1371.88522
224.196	-11360.94995
224.417	1054.45512
224.637	1053.28252
224.858	-736.70662
225.079	7397.51106
225.3	576.69078
225.521	2071.78604
225.741	1628.16924
225.962	711.84456
226.183	274.6944
226.404	653.87732
226.624	582.14547
226.845	383.03492
227.066	438.37069
227.286	209.8225
227.507	86.82884
227.728	81.05233
227.948	130.95091
228.169	43.01924
228.389	46.68965
228.61	24.10475
228.831	36.55679
229.051	4.0488
229.272	23.585
229.492	30.78978
229.713	9.29475
229.933	23.78025
230.154	19.54911
230.374	32.8706
230.595	24.52507
230.815	17.81283
231.036	25.46969
231.256	-3.46023
231.477	44.84498
231.697	27.03938
231.917	25.13273
232.138	40.01551
232.358	74.56927
232.579	66.55506
232.799	10.67533
233.019	69.20806
233.24	75.07535
233.46	25.98513
233.68	40.71315
233.901	30.01768
234.121	18.68988
234.341	10.6037
234.561	-1.03498
234.782	17.17123
235.002	48.63325
235.222	0.01648
235.442	41.82818
235.662	22.50367
235.883	42.95237
236.103	37.2597
236.323	29.55481
236.543	18.98858
236.763	30.32218
236.983	26.56999
237.203	32.25583
237.423	41.14753
237.643	65.30455
237.864	51.69081
238.084	16.58741
238.304	23.08295
238.524	34.98713
238.744	30.42361
238.964	47.38226
239.184	43.59958
239.404	48.11434
239.624	25.16838
239.843	39.8585
240.063	24.33604
240.283	17.89538
240.503	18.9984
240.723	17.29747
240.943	10.57355
241.163	14.80166
241.383	11.84633
241.603	6.90498
241.822	7.33347
242.042	5.60093
242.262	8.4488
242.482	8.78182
242.702	10.16449
242.921	3.90432
243.141	7.50737
243.361	5.78722
243.581	8.3463
243.8	7.58437
244.02	4.87707
244.24	8.19818
244.459	8.31292
244.679	15.43139
244.899	10.03422
245.118	10.16908
245.338	10.4868
245.558	10.89053
245.777	8.10118
245.997	9.80056
246.216	9.70717
246.436	6.67382
246.655	5.94346
246.875	6.05722
247.094	8.35038
247.314	4.8943
247.533	6.5223
247.753	5.75569
247.972	5.97
248.192	3.00065
248.411	4.41013
248.631	5.13042
248.85	5.97472
249.07	5.45453
249.289	7.06814
249.508	5.25186
249.728	7.71343
249.947	6.90449
250.166	8.96407
250.386	5.24924
250.605	6.44949
250.824	10.51481
251.044	6.58567
251.263	21.68024
251.482	12.84978
251.701	11.23476
251.921	1.76352
252.14	4.34476
252.359	5.53561
252.578	9.37899
252.798	4.56112
253.017	8.47285
253.236	4.85602
253.455	5.3718
253.674	10.01383
253.893	5.75722
254.112	7.42527
254.331	10.08733
254.551	7.33122
254.77	5.64953
254.989	11.62345
255.208	10.79863
255.427	13.58619
255.646	11.76976
255.865	17.85206
256.084	7.62469
256.303	10.00989
256.522	12.24454
256.741	2.3015
256.96	4.14839
257.179	8.36946
257.397	9.10281
257.616	5.96951
257.835	7.11113
258.054	13.0449
258.273	9.86187
258.492	10.24546
258.711	7.66816
258.93	5.19151
259.148	6.71836
259.367	5.94959
259.586	7.85816
259.805	5.55463
260.023	6.7796
260.242	6.11296
260.461	5.33928
260.68	3.80894
260.898	6.14683
261.117	3.55812
261.336	2.50753
261.554	4.75148
261.773	4.32219
261.992	2.33092
262.21	4.22236
262.429	4.73849
262.648	7.14251
262.866	8.78399
263.085	6.52229
263.303	5.45228
263.522	9.3786
263.74	7.93843
263.959	14.07375
264.178	7.98731
264.396	6.52503
264.615	5.30855
264.833	10.0793
265.051	9.30658
265.27	10.65246
265.488	10.23407
265.707	6.59756
265.925	10.25412
266.144	5.49985
266.362	6.48184
266.58	6.25447
266.799	6.81095
267.017	6.65331
267.235	6.47536
267.454	4.14611
267.672	3.3483
267.89	5.18606
268.109	5.82178
268.327	6.15701
268.545	2.269
268.763	5.24485
268.982	2.90249
269.2	5.17905
269.418	4.02963
269.636	3.70067
269.854	4.9989
270.073	4.49452
270.291	3.20919
270.509	3.2793
270.727	5.66099
270.945	7.54498
271.163	8.00315
271.381	3.39806
271.599	5.215
271.817	6.11199
272.036	4.25151
272.254	5.36007
272.472	4.32236
272.69	3.98513
272.908	4.16839
273.126	5.51553
273.344	7.0122
273.562	3.15606
273.779	4.86534
273.997	6.06927
274.215	5.13175
274.433	3.57994
274.651	5.76352
274.869	5.17487
275.087	3.91149
275.305	4.85994
275.523	3.93077
275.74	4.3526
275.958	6.89586
276.176	7.93452
276.394	3.74018
276.612	4.57578
276.829	4.77413
277.047	3.91758
277.265	3.89725
277.483	4.45435
277.7	5.27078
277.918	4.39336
278.136	6.60096
278.353	3.87943
278.571	2.70758
278.789	5.47919
279.006	2.24557
279.224	3.83772
279.442	6.45865
279.659	5.21469
279.877	4.17298
280.094	6.04803
280.312	3.66606
280.529	5.03272
280.747	3.07546
280.964	4.64642
281.182	7.3869
281.399	4.21654
281.617	5.69914
281.834	4.13986
282.052	4.15456
282.269	5.18254
282.487	4.64355
282.704	3.9218
282.921	3.91387
283.139	4.90347
283.356	5.75387
283.574	6.06382
283.791	4.00234
284.008	6.59348
284.226	5.60144
284.443	5.20132
284.66	6.2665
284.877	6.20589
285.095	5.15344
285.312	3.88063
285.529	3.88617
285.746	3.61263
285.964	4.70361
286.181	3.91023
286.398	4.63506
286.615	4.69387
286.832	5.0384
287.05	2.98973
287.267	3.7335
287.484	3.89466
287.701	4.41651
287.918	4.25738
288.135	5.1136
288.352	3.2307
288.569	3.76403
288.786	4.23664
289.003	4.12303
289.22	5.46968
289.437	4.04508
289.654	4.98742
289.871	5.11894
290.088	5.17319
290.305	4.83387
290.522	4.38717
290.739	4.83354
290.956	5.4875
291.173	5.70389
291.39	5.32593
291.607	4.63365
291.824	4.09575
292.04	3.56777
292.257	5.07544
292.474	5.49693
292.691	4.05953
292.908	3.34097
293.125	3.68877
293.341	3.38226
293.558	6.57544
293.775	4.57895
293.992	4.39138
294.208	3.10253
294.425	3.86377
294.642	4.21642
294.858	5.0009
295.075	3.19035
295.292	3.93433
295.508	4.6868
295.725	6.00427
295.942	4.69298
296.158	4.30117
296.375	5.26305
296.591	4.39081
296.808	5.00025
297.024	5.17387
297.241	5.272
297.458	5.24205
297.674	3.31828
297.891	4.5685
298.107	4.5267
298.323	3.62451
298.54	5.50665
298.756	3.76276
298.973	3.10242
299.189	5.29942
299.406	3.87829
299.622	4.91901
299.838	5.16293
300.055	4.60939
300.271	3.22128
300.487	3.12372
300.704	3.58133
300.92	3.27194
301.136	6.4011
301.353	4.72846
301.569	3.84594
301.785	4.03441
302.001	4.64685
302.218	4.405
302.434	4.65166
302.65	2.84687
302.866	3.61637
303.083	6.02069
303.299	5.91181
303.515	4.16744
303.731	4.65816
303.947	3.04611
304.163	3.69122
304.379	4.38163
304.595	4.09426
304.812	3.30335
305.028	3.30743
305.244	3.46517
305.46	4.33218
305.676	4.50528
305.892	4.82144
306.108	4.30964
306.324	3.62232
306.54	5.43411
306.756	4.07099
306.972	4.02489
307.187	4.03084
307.403	4.88101
307.619	3.34154
307.835	4.64716
308.051	5.16171
308.267	2.97548
308.483	5.33841
308.699	4.58349
308.914	4.21098
309.13	3.99563
309.346	3.00382
309.562	3.33188
309.778	2.93467
309.993	4.35775
310.209	4.61486
310.425	3.01365
310.641	4.28562
310.856	3.48471
311.072	3.34711
311.288	4.05605
311.503	4.49539
311.719	2.599
311.935	2.81248
312.15	4.58545
312.366	4.48369
312.581	4.39313
312.797	4.08794
313.013	4.52195
313.228	3.25902
313.444	3.3812
313.659	3.17471
313.875	4.30776
314.09	3.63927
314.306	4.96746
314.521	4.40541
314.737	4.33854
314.952	3.95391
315.168	3.79294
315.383	4.36683
315.599	3.2676
315.814	3.32804
316.029	4.44959
316.245	3.00647
316.46	2.12971
316.675	4.49955
316.891	5.24171
317.106	6.28005
317.321	4.04115
317.537	4.3623
317.752	4.3996
317.967	4.5998
318.183	3.05679
318.398	3.22288
318.613	4.4823
318.828	4.81094
319.043	4.14154
319.259	3.21981
319.474	3.80017
319.689	4.68203
319.904	1.96461
320.119	4.65701
320.334	3.44703
320.549	3.50729
320.765	4.6313
320.98	3.96811
321.195	3.98231
321.41	3.76606
321.625	4.38713
321.84	5.12964
322.055	4.96032
322.27	2.81723
322.485	2.44772
322.7	4.03723
322.915	4.39683
323.13	3.48842
323.345	5.48292
323.56	4.71772
323.775	4.46425
323.989	4.37992
324.204	3.79478
324.419	4.81338
324.634	2.91063
324.849	3.79293
325.064	6.26266
325.279	4.87846
325.493	4.38667
325.708	4.42799
325.923	2.98802
326.138	3.77818
326.352	4.96474
326.567	4.47675
326.782	3.37996
326.997	3.39305
327.211	4.15246
327.426	3.93261
327.641	3.47985
327.855	2.15037
328.07	4.48052
328.285	5.48524
328.499	3.31513
328.714	4.25824
328.928	3.89631
329.143	3.77487
329.358	4.64908
329.572	4.60185
329.787	5.19846
330.001	6.05655
330.216	2.30261
330.43	5.93049
330.645	4.80502
330.859	4.63969
331.074	2.74365
331.288	3.9062
331.503	5.37731
331.717	2.6737
331.931	3.92101
332.146	4.17158
332.36	5.68954
332.575	4.21111
332.789	3.9135
333.003	4.18953
333.218	4.44111
333.432	3.5848
333.646	4.68742
333.86	5.47241
334.075	5.22016
334.289	3.39226
334.503	2.52944
334.717	4.40791
334.932	3.45138
335.146	4.32017
335.36	2.54897
335.574	3.64899
335.788	3.6158
336.003	4.59564
336.217	5.08703
336.431	4.89567
336.645	4.00237
336.859	3.43026
337.073	4.1841
337.287	4.61316
337.501	3.23538
337.715	4.53045
337.929	4.40239
338.143	3.01329
338.357	3.6398
338.571	3.4525
338.785	4.55936
338.999	3.35118
339.213	3.45931
339.427	2.64289
339.641	4.72093
339.855	3.27584
340.069	2.90986
340.283	4.6257
340.497	5.24514
340.711	4.60637
340.924	3.90891
341.138	3.25841
341.352	2.68935
341.566	4.08308
341.78	2.72949
341.993	3.38184
342.207	3.1881
342.421	4.23435
342.635	3.84962
342.848	3.57115
343.062	1.70507
343.276	3.35042
343.49	5.60509
343.703	3.17674
343.917	4.5958
344.131	5.11245
344.344	3.21425
344.558	3.43449
344.771	2.75191
344.985	4.84743
345.199	5.43387
345.412	4.20957
345.626	4.27319
345.839	2.33972
346.053	2.86886
346.266	3.09136
346.48	4.29908
346.693	4.09225
346.907	4.11054
347.12	2.75772
347.334	3.69647
347.547	4.01493
347.76	3.74496
347.974	4.57099
348.187	4.02573
348.401	3.75455
348.614	2.86789
348.827	3.72736
349.041	4.33777
349.254	2.5557
349.467	3.51127
349.681	2.96278
349.894	2.94828
350.107	4.81862
350.32	5.34718
350.534	2.41926
350.747	3.47763
350.96	2.93067
351.173	3.13202
351.386	3.37858
351.6	3.10267
351.813	3.33734
352.026	3.53363
352.239	2.95584
352.452	3.24689
352.665	4.56407
352.878	3.19754
353.092	5.56114
353.305	4.22273
353.518	3.85111
353.731	2.53911
353.944	4.50421
354.157	3.05475
354.37	3.34368
354.583	2.41347
354.796	2.67779
355.009	4.32103
355.222	3.78603
355.435	3.63621
355.647	4.74109
355.86	3.06854
356.073	3.5777
356.286	3.08887
356.499	4.54697
356.712	4.60834
356.925	4.13619
357.138	4.50809
357.35	3.13202
357.563	3.151
357.776	3.68555
357.989	3.77812
358.201	4.06762
358.414	3.79751
358.627	4.74083
358.84	3.46464
359.052	2.7234
359.265	2.95002
359.478	4.43892
359.69	1.71138
359.903	4.56015
360.116	4.53479
360.328	2.75882
360.541	4.46902
360.753	3.53358
360.966	3.76224
361.179	3.96202
361.391	3.59984
361.604	3.23486
361.816	3.51333
362.029	3.43067
362.241	2.98673
362.454	3.42136
362.666	2.89598
362.879	3.99459
363.091	3.26394
363.304	3.19196
363.516	3.24218
363.728	2.76349
363.941	3.91106
364.153	3.46489
364.366	2.03839
364.578	2.66455
364.79	3.74502
365.003	3.60834
365.215	3.11104
365.427	3.9784
365.639	4.15485
365.852	3.77496
366.064	4.81649
366.276	3.2892
366.488	3.65915
366.701	3.21822
366.913	3.07764
367.125	3.31378
367.337	2.81123
367.549	2.96499
367.762	3.22124
367.974	3.29737
368.186	3.0498
368.398	3.99135
368.61	3.58355
368.822	3.81146
369.034	2.93246
369.246	4.13982
369.458	5.32472
369.67	2.51134
369.882	4.3607
370.094	1.48151
370.306	4.37926
370.518	2.82263
370.73	2.75534
370.942	2.92201
371.154	3.31981
371.366	3.0744
371.578	3.75157
371.79	2.90896
372.002	3.94425
372.214	4.69126
372.425	3.03119
372.637	4.24894
372.849	3.32541
373.061	1.59127
373.273	3.35218
373.484	3.57503
373.696	3.92433
373.908	1.55709
374.12	3.77034
374.331	3.74445
374.543	2.50797
374.755	2.37434
374.967	3.15278
375.178	4.12493
375.39	2.96183
375.602	3.44551
375.813	2.2054
376.025	2.42257
376.236	3.39821
376.448	3.49352
376.66	3.18821
376.871	3.07161
377.083	3.91846
377.294	4.43722
377.506	2.7103
377.717	4.20456
377.929	3.42522
378.14	2.90032
378.352	3.51747
378.563	3.65395
378.775	4.09071
378.986	2.38679
379.197	3.3275
379.409	2.56129
379.62	3.69377
379.832	3.31837
380.043	2.99165
380.254	3.20742
380.466	2.06263
380.677	5.21274
380.888	4.63223
381.1	5.09052
381.311	4.91067
381.522	3.50112
381.733	5.12351
381.945	3.00735
382.156	2.72935
382.367	2.84117
382.578	5.39147
382.789	5.39518
383.001	2.57155
383.212	4.50055
383.423	4.45409
383.634	3.82526
383.845	3.68219
384.056	2.92363
384.267	3.10273
384.478	3.27719
384.69	2.19816
384.901	3.54814
385.112	3.23856
385.323	4.43566
385.534	3.44633
385.745	3.53615
385.956	3.38134
386.167	2.42415
386.378	3.53732
386.588	2.58149
386.799	2.44896
387.01	2.03289
387.221	3.78042
387.432	3.16556
387.643	4.38714
387.854	2.92392
388.065	2.73127
388.275	2.85969
388.486	2.70869
388.697	3.12544
388.908	2.65185
389.119	3.94912
389.329	4.33931
389.54	3.14959
389.751	3.52504
389.962	4.00987
390.172	3.1552
390.383	3.1051
390.594	2.60743
390.804	2.71199
391.015	2.74447
391.226	3.44814
391.436	3.63634
391.647	3.40947
391.858	3.45269
392.068	2.16217
392.279	2.51118
392.489	3.45859
392.7	3.84084
392.91	2.7417
393.121	2.75816
393.331	3.62329
393.542	4.11847
393.752	3.79383
393.963	3.74577
394.173	3.59641
394.384	3.76918
394.594	3.31335
394.804	2.57234
395.015	3.32415
395.225	3.79693
395.436	2.73335
395.646	3.73145
395.856	3.18107
396.067	2.47173
396.277	4.04744
396.487	3.727
396.697	3.78747
396.908	4.06167
397.118	3.88774
397.328	3.67722
397.538	4.2443
397.749	3.05687
397.959	4.18516
398.169	3.97884
398.379	2.62596
398.589	3.90405
398.8	3.72894
399.01	3.65158
399.22	3.55195
399.43	5.12283
399.64	3.61729
399.85	3.91702
400.06	3.73254
400.27	3.17254
400.48	3.47046
400.69	4.54686
400.9	3.53444
401.11	3.02651
401.32	4.28412
401.53	3.57668
401.74	4.76136
401.95	4.20974
402.16	3.71664
402.37	4.26162
402.58	3.58665
402.79	4.26106
403	4.56418
403.209	3.56272
403.419	4.773
403.629	3.58576
403.839	4.87446
404.049	4.79215
404.258	3.99964
404.468	3.91746
404.678	4.70797
404.888	5.07156
405.097	4.43574
405.307	4.26548
405.517	4.77585
405.727	4.71569
405.936	4.10468
406.146	4.56682
406.356	5.30455
406.565	4.48742
406.775	4.21007
406.984	4.12698
407.194	6.01547
407.404	4.61455
407.613	4.98719
407.823	5.30496
408.032	5.67582
408.242	5.38455
408.451	4.49687
408.661	4.58156
408.87	6.0844
409.08	4.28823
409.289	5.18128
409.499	5.31315
409.708	5.05701
409.918	3.60604
410.127	5.34808
410.336	6.0407
410.546	5.73443
410.755	4.81837
410.964	4.84848
411.174	4.31724
411.383	5.47408
411.592	5.25981
411.802	4.51738
412.011	5.82155
412.22	5.27054
412.429	6.49925
412.639	6.36626
412.848	6.02168
413.057	6.697
413.266	6.0392
413.475	5.4798
413.685	5.97664
413.894	6.26077
414.103	6.1474
414.312	6.15215
414.521	5.57724
414.73	6.11994
414.939	7.22228
415.148	6.32314
415.357	6.11137
415.566	6.01915
415.776	5.60994
415.985	5.89041
416.194	6.64633
416.403	7.41909
416.611	5.52471
416.82	6.10354
417.029	6.58297
417.238	6.06992
417.447	6.08651
417.656	6.50602
417.865	6.43771
418.074	6.87817
418.283	7.29282
418.492	8.4525
418.7	8.07341
418.909	9.69324
419.118	8.36327
419.327	9.08426
419.536	8.85823
419.744	8.8575
419.953	10.39103
420.162	10.50659
420.371	9.62963
420.579	10.25368
420.788	11.21342
420.997	11.47523
421.205	11.38012
421.414	11.16481
421.623	11.56346
421.831	10.94637
422.04	11.57465
422.249	10.77331
422.457	11.06854
422.666	10.28876
422.874	11.45043
423.083	11.58824
423.291	11.58705
423.5	11.4765
423.708	11.85594
423.917	12.41906
424.125	11.71925
424.334	11.54643
424.542	13.49729
424.751	12.6665
424.959	12.18392
425.167	12.59941
425.376	12.40711
425.584	11.22863
425.793	11.08094
426.001	9.90478
426.209	10.25858
426.418	9.04663
426.626	8.362
426.834	8.01638
427.042	8.33755
427.251	7.82651
427.459	8.59763
427.667	8.02596
427.875	7.20547
428.084	7.9044
428.292	8.84416
428.5	8.52184
428.708	7.43488
428.916	7.65704
429.124	8.01137
429.333	7.96697
429.541	8.05255
429.749	8.27327
429.957	8.11879
430.165	9.71832
430.373	7.19953
430.581	8.21433
430.789	9.14137
430.997	8.18622
431.205	7.71029
431.413	8.41639
431.621	8.00158
431.829	8.70429
432.037	8.31086
432.245	8.49058
432.453	8.65614
432.661	8.46297
432.869	9.74856
433.076	8.39222
433.284	8.98959
433.492	9.80676
433.7	9.95669
433.908	9.0627
434.116	9.33494
434.323	9.24328
434.531	9.06237
434.739	9.16615
434.947	9.12199
435.154	9.25556
435.362	8.78185
435.57	8.56979
435.778	8.37434
435.985	8.88756
436.193	8.33052
436.401	9.54828
436.608	8.55345
436.816	8.58701
437.023	9.60591
437.231	9.7351
437.439	8.97066
437.646	9.3462
437.854	9.0506
438.061	9.34442
438.269	8.86997
438.476	9.45994
438.684	9.18235
438.891	9.52344
439.099	9.36244
439.306	9.17549
439.514	9.29666
439.721	10.81498
439.929	10.38303
440.136	11.55913
440.343	11.58159
440.551	11.37882
440.758	13.11939
440.965	11.70984
441.173	11.49068
441.38	11.03576
441.587	10.90807
441.795	10.53985
442.002	10.12133
442.209	10.04068
442.416	9.86484
442.624	9.87046
442.831	9.50062
443.038	8.82601
443.245	8.55194
443.452	8.94029
443.66	9.46502
443.867	8.88544
444.074	8.70713
444.281	9.09928
444.488	9.40404
444.695	10.04085
444.902	9.97018
445.109	11.56441
445.316	11.05917
445.523	11.76429
445.73	11.84446
445.937	12.59234
446.144	13.12885
446.351	13.87521
446.558	12.53197
446.765	14.53834
446.972	13.69468
447.179	13.1473
447.386	13.70898
447.593	11.98828
447.8	13.07549
448.007	11.48521
448.214	10.77905
448.42	10.20284
448.627	10.70186
448.834	9.95467
449.041	9.45693
449.248	9.27124
449.454	9.65413
449.661	10.16243
449.868	8.96877
450.075	8.76487
450.281	8.23876
450.488	8.61619
450.695	8.52992
450.901	8.65002
451.108	8.81637
451.315	9.78661
451.521	8.76927
451.728	9.89607
451.935	8.71032
452.141	8.96891
452.348	9.1115
452.554	9.11969
452.761	8.81213
452.967	10.03732
453.174	9.22306
453.38	9.17466
453.587	8.43323
453.793	9.24564
454	9.50073
454.206	10.55995
454.413	9.68421
454.619	9.47314
454.825	8.78187
455.032	9.56154
455.238	9.80968
455.445	8.2889
455.651	9.0308
455.857	8.12017
456.064	8.89618
456.27	8.98038
456.476	8.85746
456.682	8.24106
456.889	9.26333
457.095	9.59138
457.301	10.39608
457.507	9.20925
457.714	9.02957
457.92	9.20141
458.126	8.65513
458.332	9.1766
458.538	9.02542
458.744	9.58124
458.951	10.2601
459.157	12.66252
459.363	11.7468
459.569	12.08107
459.775	12.85168
459.981	12.65143
460.187	12.94903
460.393	13.14212
460.599	13.22234
460.805	12.19247
461.011	11.16056
461.217	11.152
461.423	10.41369
461.629	9.58244
461.835	9.96431
462.041	9.47126
462.247	10.4201
462.453	9.43735
462.658	9.28361
462.864	9.74698
463.07	9.3308
463.276	9.21989
463.482	9.33462
463.688	10.25294
463.893	8.81674
464.099	9.18798
464.305	10.25856
464.511	9.06526
464.716	9.19647
464.922	9.77745
465.128	8.61121
465.333	10.17932
465.539	9.80256
465.745	9.67664
465.95	9.26774
466.156	11.32442
466.362	9.9763
466.567	9.34789
466.773	8.89741
466.978	10.40878
467.184	8.79665
467.389	8.40239
467.595	9.44281
467.8	8.90425
468.006	10.37006
468.211	10.17101
468.417	8.84118
468.622	9.64075
468.828	9.91029
469.033	9.80279
469.239	11.12365
469.444	9.13046
469.649	9.93264
469.855	9.34924
470.06	9.46195
470.266	8.76037
470.471	9.90019
470.676	9.60486
470.881	8.2438
471.087	10.4749
471.292	10.81926
471.497	8.47239
471.703	9.23233
471.908	8.98829
472.113	9.63858
472.318	10.05735
472.523	8.90213
472.729	9.67674
472.934	9.66529
473.139	9.43531
473.344	9.65917
473.549	10.40714
473.754	9.26016
473.959	11.13384
474.164	9.29884
474.369	9.36914
474.575	9.91302
474.78	9.55934
474.985	8.93008
475.19	8.3957
475.395	8.92004
475.6	9.32876
475.804	10.6176
476.009	9.52929
476.214	9.45941
476.419	9.12742
476.624	8.64494
476.829	9.13961
477.034	9.88078
477.239	9.23416
477.444	9.90695
477.648	9.96153
477.853	10.01311
478.058	9.39121
478.263	9.28444
478.468	9.06356
478.672	9.23704
478.877	10.57734
479.082	10.64956
479.287	9.85666
479.491	9.62929
479.696	9.02026
479.901	10.17501
480.105	10.16471
480.31	9.15215
480.515	9.65602
480.719	10.96716
480.924	9.31131
481.128	9.31549
481.333	10.3872
481.538	10.68563
481.742	11.05927
481.947	12.58201
482.151	13.66138
482.356	14.56568
482.56	17.26522
482.765	19.30592
482.969	23.13691
483.174	25.86111
483.378	29.90933
483.582	30.8021
483.787	32.96151
483.991	33.18624
484.196	33.63944
484.4	32.97215
484.604	33.15108
484.809	30.08936
485.013	28.54674
485.217	25.91902
485.422	23.21309
485.626	21.18734
485.83	19.98236
486.034	19.31947
486.239	19.73682
486.443	19.97403
486.647	20.50279
486.851	21.85606
487.055	23.48484
487.26	23.56177
487.464	24.82564
487.668	24.07656
487.872	24.60589
488.076	25.05077
488.28	23.8008
488.484	21.96563
488.688	21.57588
488.892	20.50168
489.096	18.91576
489.3	17.52307
489.504	16.40176
489.708	15.51443
489.912	15.16822
490.116	14.85727
490.32	14.37309
490.524	15.85468
490.728	16.99849
490.932	17.73354
491.136	18.95594
491.34	20.33706
491.544	20.91583
491.748	20.63408
491.951	20.74134
492.155	20.02696
492.359	19.37023
492.563	17.46383
492.767	16.63747
492.97	14.84987
493.174	13.36012
493.378	12.20694
493.582	10.78286
493.785	10.3124
493.989	10.0564
494.193	9.60602
494.396	9.07782
494.6	9.55778
494.804	9.00332
495.007	9.45283
495.211	9.41817
495.414	9.36846
495.618	9.83584
495.822	10.37253
496.025	9.60553
496.229	10.13441
496.432	9.90842
496.636	10.23812
496.839	10.35915
497.043	11.17143
497.246	10.58093
497.45	10.25346
497.653	10.40148
497.856	10.28432
498.06	9.98435
498.263	9.90781
498.467	9.82755
498.67	10.42866
498.873	9.94559
499.077	9.94014
499.28	9.7871
499.483	9.96263
499.686	10.40182
499.89	9.87815
500.093	10.41475
500.296	9.43467
500.499	10.67352
500.703	9.68725
500.906	9.66571
501.109	10.63365
501.312	9.76484
501.515	9.71747
501.719	9.89751
501.922	10.25896
502.125	9.7127
502.328	9.49946
502.531	8.97287
502.734	9.70503
502.937	8.63337
503.14	9.87053
503.343	9.18021
503.546	9.5481
503.749	9.32297
503.952	9.85793
504.155	9.15814
504.358	10.05288
504.561	9.87123
504.764	8.92614
504.967	9.80797
505.17	9.60292
505.373	10.738
505.576	9.40537
505.778	10.12922
505.981	8.99909
506.184	10.19304
506.387	8.54893
506.59	10.8571
506.793	10.2222
506.995	9.8107
507.198	8.34848
507.401	9.89081
507.604	9.7746
507.806	8.92095
508.009	9.10987
508.212	10.00518
508.414	9.14217
508.617	9.23647
508.82	9.58281
509.022	10.60598
509.225	9.90338
509.427	8.91451
509.63	10.49374
509.833	9.73482
510.035	9.24158
510.238	8.83219
510.44	10.48782
510.643	8.57888
510.845	10.7528
511.048	9.81887
511.25	9.24667
511.453	9.41837
511.655	9.69465
511.858	9.42365
512.06	9.94044
512.262	9.73295
512.465	10.04776
512.667	9.45007
512.869	8.95595
513.072	9.77418
513.274	9.95399
513.476	9.8696
513.679	10.06602
513.881	8.98661
514.083	10.33686
514.286	9.06413
514.488	9.09996
514.69	8.86859
514.892	8.70819
515.094	9.89303
515.297	9.10064
515.499	9.40804
515.701	8.86592
515.903	10.51323
516.105	10.53598
516.307	9.8417
516.509	8.30903
516.711	8.5783
516.913	9.25439
517.116	9.28118
517.318	9.0973
517.52	9.84383
517.722	9.73927
517.924	9.18722
518.126	10.31494
518.328	9.8355
518.529	10.77708
518.731	11.52033
518.933	10.09612
519.135	10.25827
519.337	11.00239
519.539	10.12015
519.741	8.69114
519.943	9.57256
520.145	9.39164
520.346	10.01654
520.548	9.40855
520.75	9.86626
520.952	9.45993
521.153	9.91132
521.355	9.77824
521.557	8.99595
521.759	9.51755
521.96	9.22644
522.162	8.67128
522.364	10.00818
522.565	8.92701
522.767	9.93317
522.969	9.97261
523.17	9.44076
523.372	9.35376
523.573	9.02675
523.775	9.18106
523.977	8.4644
524.178	10.30971
524.38	8.85311
524.581	9.57641
524.783	8.88899
524.984	9.96958
525.186	10.0313
525.387	10.83498
525.589	10.69459
525.79	10.64594
525.991	10.82676
526.193	11.48219
526.394	10.74447
526.596	11.8062
526.797	12.19802
526.998	11.93902
527.2	12.42869
527.401	14.73302
527.602	16.1422
527.803	18.80506
528.005	20.09412
528.206	21.63875
528.407	22.77007
528.608	22.67975
528.81	22.99865
529.011	22.44781
529.212	23.29756
529.413	21.67541
529.614	20.2728
529.815	19.22416
530.017	17.64084
530.218	15.50139
530.419	13.9
530.62	13.10983
530.821	12.34132
531.022	10.64959
531.223	11.6137
531.424	11.40982
531.625	11.57995
531.826	11.21166
532.027	11.93474
532.228	13.57904
532.429	13.67387
532.63	13.96073
532.831	15.0597
533.032	15.08389
533.233	16.20433
533.433	15.52807
533.634	15.80133
533.835	14.92176
534.036	14.32378
534.237	13.52248
534.438	12.70019
534.638	11.14753
534.839	10.8192
535.04	10.59291
535.241	10.03608
535.441	11.23282
535.642	10.31404
535.843	9.71638
536.043	10.25237
536.244	10.3788
536.445	10.75628
536.645	11.64673
536.846	11.28519
537.047	11.5737
537.247	10.14835
537.448	10.058
537.648	9.9985
537.849	9.2455
538.049	9.52016
538.25	9.79201
538.451	9.97877
538.651	8.91691
538.851	9.58883
539.052	10.08924
539.252	9.7458
539.453	9.00893
539.653	9.30877
539.854	9.131
540.054	10.2944
540.254	12.00656
540.455	13.31889
540.655	13.36418
540.855	15.15416
541.056	16.40571
541.256	16.39372
541.456	17.39055
541.657	16.70723
541.857	17.44405
542.057	15.77059
542.257	15.15284
542.458	15.47033
542.658	14.79003
542.858	12.74697
543.058	13.05491
543.258	11.94293
543.458	10.2842
543.659	9.81691
543.859	10.52675
544.059	10.2536
544.259	9.40437
544.459	9.93435
544.659	9.15011
544.859	9.56374
545.059	9.06223
545.259	9.92783
545.459	9.52074
545.659	9.86936
545.859	9.26374
546.059	9.26608
546.259	8.6805
546.459	8.49406
546.659	8.48535
546.859	9.60938
547.059	9.36973
547.258	9.57219
547.458	9.66634
547.658	8.61965
547.858	8.58673
548.058	9.42763
548.258	9.10448
548.457	8.47205
548.657	10.80926
548.857	9.02028
549.057	9.75661
549.256	9.62302
549.456	8.61657
549.656	7.47668
549.855	10.2974
550.055	8.6582
550.255	10.54862
550.454	9.57179
550.654	9.56631
550.853	10.0129
551.053	9.41016
551.253	9.26861
551.452	9.30927
551.652	8.16221
551.851	7.80706
552.051	8.73626
552.25	8.48664
552.45	8.60466
552.649	8.71609
552.849	8.43432
553.048	9.02811
553.248	9.52088
553.447	8.21234
553.646	9.5261
553.846	10.43257
554.045	9.87446
554.244	8.10437
554.444	10.36538
554.643	8.50553
554.842	10.15086
555.042	10.73285
555.241	8.50107
555.44	8.08063
555.64	9.63788
555.839	10.45737
556.038	9.27901
556.237	8.44632
556.436	9.17136
556.636	9.44083
556.835	8.52974
557.034	10.51601
557.233	9.07019
557.432	7.63355
557.631	10.11736
557.83	8.95141
558.029	8.59726
558.228	8.19828
558.427	8.17228
558.626	9.30306
558.825	8.16833
559.024	9.01206
559.223	10.57369
559.422	8.65952
559.621	9.47861
559.82	6.79866
560.019	8.82026
560.218	8.83422
560.417	6.58754
560.616	8.38993
560.815	11.63876
561.014	7.77103
561.212	10.47167
561.411	9.17002
561.61	7.74504
561.809	8.6876
562.008	10.23662
562.206	8.79121
562.405	9.6718
562.604	8.86328
562.803	9.35762
563.001	8.8977
563.2	7.80386
563.399	9.38042
563.597	8.14483
563.796	8.80143
563.995	8.1643
564.193	9.34897
564.392	8.85542
564.59	10.91227
564.789	7.59199
564.988	8.53015
565.186	9.29798
565.385	8.95608
565.583	9.02962
565.782	9.02635
565.98	9.10394
566.179	9.0626
566.377	8.57594
566.575	8.77707
566.774	10.57699
566.972	10.07194
567.171	10.91853
567.369	10.39292
567.567	9.58918
567.766	9.64421
567.964	7.82367
568.162	9.70304
568.361	10.2461
568.559	8.99693
568.757	9.73112
568.956	9.49408
569.154	9.42437
569.352	9.76921
569.55	9.11739
569.748	9.10722
569.947	8.59026
570.145	8.37982
570.343	8.51184
570.541	10.36374
570.739	8.29437
570.937	9.18743
571.135	9.77307
571.333	11.01166
571.532	10.81103
571.73	9.69607
571.928	10.60393
572.126	9.85925
572.324	9.20154
572.522	10.97689
572.72	11.97719
572.918	9.77574
573.116	9.96932
573.313	9.56951
573.511	9.83753
573.709	9.00172
573.907	10.31595
574.105	9.35439
574.303	8.20291
574.501	8.22531
574.699	9.88778
574.896	10.15058
575.094	10.07921
575.292	8.47085
575.49	10.45725
575.688	9.3673
575.885	10.67265
576.083	11.47593
576.281	10.32249
576.478	8.63727
576.676	9.9132
576.874	8.20128
577.071	9.42357
577.269	11.93152
577.467	9.60521
577.664	9.58279
577.862	10.65238
578.059	8.85121
578.257	10.6106
578.455	8.99539
578.652	9.84182
578.85	7.52089
579.047	9.44996
579.245	9.5234
579.442	9.49409
579.64	9.57425
579.837	7.7732
580.034	12.6531
580.232	9.38979
580.429	8.14191
580.627	9.88503
580.824	10.95078
581.021	9.92667
581.219	9.1426
581.416	8.7822
581.613	10.86555
581.811	11.29193
582.008	8.64891
582.205	10.4191
582.402	10.31129
582.6	12.14593
582.797	9.99787
582.994	9.93075
583.191	10.62013
583.388	9.91243
583.586	10.59903
583.783	10.96907
583.98	9.37104
584.177	10.02337
584.374	6.61891
584.571	9.72517
584.768	9.57802
584.965	8.70815
585.162	10.27617
585.359	11.7445
585.556	9.68272
585.753	10.19153
585.95	8.41505
586.147	8.9921
586.344	10.61537
586.541	9.5947
586.738	8.68808
586.935	9.58371
587.132	8.97136
587.329	11.13271
587.526	9.65279
587.722	15.31752
587.919	8.58414
588.116	10.23065
588.313	11.14904
588.51	12.2128
588.706	9.63888
588.903	10.46653
589.1	10.88881
589.297	12.37321
589.493	10.36451
589.69	10.75808
589.887	9.65367
590.083	9.21965
590.28	9.38812
590.477	10.98323
590.673	11.10684
590.87	11.6074
591.067	10.06262
591.263	10.40093
591.46	10.67899
591.656	9.59842
591.853	11.90338
592.049	9.45532
592.246	9.41067
592.442	11.47585
592.639	11.78775
592.835	9.18389
593.032	10.5584
593.228	8.70981
593.425	8.64663
593.621	8.10805
593.817	10.63315
594.014	9.2515
594.21	10.40362
594.406	11.3969
594.603	10.97386
594.799	9.41048
594.995	7.64714
595.192	11.39836
595.388	9.81638
595.584	10.11881
595.78	8.83279
595.977	12.77423
596.173	12.30372
596.369	10.26479
596.565	9.62362
596.761	8.8997
596.957	11.86999
597.154	9.83794
597.35	9.92714
597.546	10.17065
597.742	11.92207
597.938	11.12435
598.134	10.22779
598.33	10.91245
598.526	12.38234
598.722	10.93947
598.918	12.92838
599.114	11.20578
599.31	9.48271
599.506	10.612
599.702	9.45919
599.898	10.39343
600.094	11.23537
600.29	11.46607
600.485	11.53657
600.681	9.60211
600.877	12.32508
601.073	10.05719
601.269	12.64271
601.465	12.22304
601.66	9.23815
601.856	8.11646
602.052	12.55495
602.248	9.77178
602.443	8.47954
602.639	8.99082
602.835	9.44421
603.03	9.52245
603.226	11.4265
603.422	9.34471
603.617	10.13842
603.813	10.24545
604.009	10.32837
604.204	11.86731
604.4	9.48726
604.595	11.87759
604.791	9.87352
604.986	11.27998
605.182	10.33016
605.377	10.73441
605.573	10.77297
605.768	11.21551
605.964	11.80221
606.159	11.92919
606.355	12.3899
606.55	10.41579
606.746	12.4004
606.941	10.76592
607.136	13.3899
607.332	14.46609
607.527	8.79849
607.722	11.168
607.918	10.11999
608.113	9.85041
608.308	11.68003
608.503	11.12511
608.699	11.32061
608.894	11.64234
609.089	10.23719
609.284	11.21794
609.479	10.4456
609.675	12.09447
609.87	11.23302
610.065	12.11156
610.26	12.21097
610.455	11.86782
610.65	11.35474
610.845	11.47047
611.04	12.73684
611.235	10.76544
611.43	10.75838
611.625	9.75326
611.82	13.18562
612.015	10.35293
612.21	13.20769
612.405	9.00911
612.6	13.07488
612.795	12.6638
612.99	11.66514
613.185	9.65787
613.38	9.84913
613.575	10.87321
613.77	14.9952
613.965	8.52315
614.159	10.03745
614.354	12.91616
614.549	12.53121
614.744	12.08653
614.938	9.44886
615.133	9.12129
615.328	13.41476
615.523	12.01668
615.717	15.12293
615.912	9.92239
616.107	11.39797
616.301	10.54947
616.496	10.35434
616.691	13.47193
616.885	12.33582
617.08	15.37264
617.274	12.26547
617.469	14.23772
617.664	12.11793
617.858	10.26643
618.053	12.18711
618.247	10.65581
618.442	7.5101
618.636	13.56981
618.831	10.61479
619.025	10.4287
619.219	15.64604
619.414	6.93807
619.608	10.69486
619.803	10.36929
619.997	14.31289
620.191	13.124
620.386	11.78188
620.58	11.24167
620.774	9.05895
620.969	9.09138
621.163	11.39846
621.357	9.54798
621.551	10.63014
621.746	11.32562
621.94	10.67984
622.134	16.39754
622.328	14.695
622.522	8.75052
622.716	12.76657
622.911	12.42151
623.105	12.66012
623.299	12.10638
623.493	16.41672
623.687	9.92555
623.881	10.85575
624.075	11.86324
624.269	13.34891
624.463	8.45326
624.657	8.85365
624.851	11.93407
625.045	12.63921
625.239	13.09007
625.433	11.48645
625.627	13.95871
625.821	10.36641
626.015	9.97999
626.209	11.78984
626.403	9.42256
626.596	12.41811
626.79	12.91932
626.984	10.20239
627.178	12.39766
627.372	12.83165
627.565	13.13399
627.759	9.51436
627.953	10.56223
628.147	12.5196
628.34	12.48732
628.534	15.25286
628.728	11.80608
628.921	13.56144
629.115	12.39156
629.309	13.30863
629.502	13.17276
629.696	11.65195
629.89	11.8399
630.083	12.18848
630.277	12.23043
630.47	14.58369
630.664	11.26243
630.857	9.59534
631.051	13.00035
631.244	13.6951
631.438	13.32026
631.631	10.26422
631.825	14.44763
632.018	12.93779
632.212	15.05629
632.405	13.61142
632.598	10.35514
632.792	11.76678
632.985	8.17766
633.178	11.63241
633.372	11.50356
633.565	11.56748
633.758	14.42795
633.952	10.61687
634.145	10.17498
634.338	11.99796
634.531	10.77339
634.724	11.09317
634.918	12.01592
635.111	11.56862
635.304	11.27094
635.497	16.39509
635.69	12.87465
635.883	14.63773
636.077	9.69108
636.27	12.97464
636.463	12.07988
636.656	12.4036
636.849	10.90205
637.042	13.30266
637.235	15.02072
637.428	13.36224
637.621	13.73091
637.814	14.77957
638.007	14.92002
638.2	14.46074
638.393	15.87969
638.586	9.9431
638.778	11.88289
638.971	12.3006
639.164	15.44508
639.357	12.49179
639.55	15.07118
639.743	13.92899
639.935	13.12951
640.128	16.12854
640.321	13.4768
640.514	12.85082
640.707	16.77865
640.899	13.87381
641.092	9.15651
641.285	28.60412
641.477	7.96135
641.67	17.38529
641.863	15.33154
642.055	12.48878
642.248	12.17814
642.441	11.514
642.633	13.84037
642.826	15.41954
643.018	15.29071
643.211	16.54897
643.403	16.61179
643.596	17.40289
643.788	17.52408
643.981	12.05828
644.173	13.92571
644.366	12.64891
644.558	9.1266
644.751	15.35616
644.943	9.80942
645.135	16.0332
645.328	16.91315
645.52	14.394
645.712	15.16459
645.905	19.66184
646.097	10.31133
646.289	13.11667
646.482	17.74558
646.674	11.12919
646.866	15.9772
647.058	14.55413
647.251	10.30321
647.443	11.8952
647.635	13.21258
647.827	10.20796
648.019	11.80678
648.211	13.17529
648.404	12.6985
648.596	16.62927
648.788	13.39056
648.98	14.0216
649.172	13.8198
649.364	14.22806
649.556	9.6121
649.748	19.31812
649.94	10.96581
650.132	14.40253
650.324	10.70517
650.516	11.98391
650.708	15.7252
650.9	10.07301
651.092	12.03088
651.284	10.0551
651.476	10.98028
651.667	14.76407
651.859	16.06928
652.051	13.09117
652.243	13.30656
652.435	12.35972
652.627	14.7851
652.818	14.03883
653.01	9.80881
653.202	10.73053
653.394	12.36443
653.585	14.27557
653.777	23.68998
653.969	16.8455
654.16	15.9922
654.352	10.5519
654.544	12.62048
654.735	16.31639
654.927	13.60854
655.118	16.82503
655.31	14.2668
655.502	17.02631
655.693	12.6099
655.885	15.28337
656.076	16.78972
656.268	14.06638
656.459	17.44459
656.651	16.95019
656.842	12.8242
657.034	12.15708
657.225	15.60141
657.416	16.87311
657.608	17.20526
657.799	14.04267
657.99	15.97946
658.182	11.80057
658.373	11.80182
658.564	15.63457
658.756	13.8793
658.947	13.52858
659.138	11.46528
659.33	13.07311
659.521	12.22458
659.712	13.60175
659.903	13.26537
660.094	12.94966
660.286	11.03361
660.477	17.85751
660.668	16.18987
660.859	13.6652
661.05	10.66565
661.241	15.95352
661.432	16.01622
661.623	13.01341
661.814	13.53373
662.006	10.02822
662.197	15.04492
662.388	17.1881
662.579	14.30783
662.77	21.22865
662.96	21.93663
663.151	16.29067
663.342	9.64069
663.533	15.43316
663.724	14.57619
663.915	18.77308
664.106	14.15558
664.297	19.16855
664.488	15.91696
664.678	13.01991
664.869	17.08119
665.06	17.31315
665.251	14.75105
665.442	15.88354
665.632	11.07429
665.823	19.69877
666.014	6.97267
666.204	16.89784
666.395	18.7992
666.586	22.64938
666.776	17.04249
666.967	19.06907
667.158	15.3798
667.348	18.08537
667.539	12.12595
667.729	17.30756
667.92	12.34767
668.111	17.07198
668.301	16.29383
668.492	13.74584
668.682	14.75481
668.873	14.32953
669.063	11.79413
669.253	15.14337
669.444	17.37462
669.634	14.59993
669.825	20.77608
670.015	18.35515
670.206	12.47587
670.396	19.94598
670.586	14.93221
670.777	16.80784
670.967	8.66797
671.157	13.82172
671.347	13.25229
671.538	19.79876
671.728	16.875
671.918	20.28084
672.108	17.61929
672.299	14.22738
672.489	16.17376
672.679	13.58037
672.869	16.92919
673.059	21.66757
673.249	17.57799
673.44	11.08205
673.63	15.23495
673.82	18.04251
674.01	12.59254
674.2	17.03032
674.39	24.1494
674.58	17.75999
674.77	15.18557
674.96	15.3379
675.15	27.64065
675.34	19.4611
675.53	16.06784
675.72	14.64474
675.91	10.88823
676.099	21.78418
676.289	22.9584
676.479	19.09528
676.669	14.26493
676.859	16.66998
677.049	13.05612
677.238	14.86539
677.428	21.65406
677.618	18.59962
677.808	20.1922
677.997	17.7658
678.187	12.56082
678.377	15.05432
678.567	14.21679
678.756	14.14501
678.946	15.49695
679.136	11.62422
679.325	14.0253
679.515	12.75403
679.704	12.28331
679.894	17.66605
680.084	16.37993
680.273	18.72907
680.463	13.94481
680.652	13.37025
680.842	15.58779
681.031	18.85681
681.221	13.52411
681.41	17.41155
681.6	15.29391
681.789	18.7613
681.978	19.3935
682.168	17.01834
682.357	16.06601
682.547	18.07255
682.736	17.12088
682.925	20.77836
683.115	19.61901
683.304	19.45026
683.493	17.84205
683.682	17.64438
683.872	17.65782
684.061	20.64842
684.25	18.24691
684.439	22.92486
684.629	18.49466
684.818	29.12924
685.007	16.22329
685.196	15.80829
685.385	22.63132
685.574	17.96008
685.763	18.96321
685.952	17.92233
686.142	13.36998
686.331	22.15839
686.52	11.13167
686.709	23.13231
686.898	21.99953
687.087	19.33709
687.276	23.1783
687.465	22.14526
687.654	16.87592
687.842	23.3009
688.031	13.62958
688.22	23.03482
688.409	17.78407
688.598	18.43628
688.787	27.46102
688.976	17.78094
689.165	24.8516
689.353	16.66533
689.542	18.33178
689.731	21.00047
689.92	25.55392
690.108	21.16122
690.297	16.46192
690.486	18.43545
690.675	21.2761
690.863	25.62091
691.052	24.09089
691.241	19.70869
691.429	19.67791
691.618	25.01041
691.806	13.85827
691.995	16.60133
692.184	18.41523
692.372	16.32718
692.561	19.43767
692.749	18.03599
692.938	29.62835
693.126	21.5052
693.315	18.99777
693.503	21.69346
693.692	21.94604
693.88	23.89071
694.068	28.04519
694.257	18.41233
694.445	21.61361
694.634	10.74579
694.822	23.07986
695.01	24.11029
695.199	25.28443
695.387	24.84547
695.575	23.60635
695.763	19.31387
695.952	17.07509
696.14	14.11012
696.328	17.53804
696.516	19.96729
696.705	19.34382
696.893	20.50991
697.081	12.1911
697.269	21.83999
697.457	15.44256
697.645	13.95997
697.833	21.75224
698.021	16.21272
698.21	17.26805
698.398	18.30705
698.586	14.51307
698.774	14.72927
698.962	18.35246
699.15	15.53677
699.338	13.88365
699.526	20.39449
699.714	16.91327
699.901	16.95135
700.089	23.06733
700.277	16.60086
700.465	19.08824
700.653	22.66385
700.841	20.88543
701.029	16.57513
701.217	24.25158
701.404	20.87054
701.592	26.19929
701.78	29.17606
701.968	19.32449
702.155	19.49713
702.343	13.16084
702.531	26.01058
702.718	21.65002
702.906	19.19442
703.094	17.012
703.281	25.08981
703.469	20.1665
703.657	25.61188
703.844	34.49895
704.032	28.53402
704.219	18.14084
704.407	22.4755
704.595	26.86152
704.782	20.7109
704.97	19.0136
705.157	17.76354
705.345	27.30867
705.532	34.95944
705.719	22.19198
705.907	27.78009
706.094	20.39684
706.282	29.65721
706.469	19.63419
706.656	23.40589
706.844	19.84031
707.031	26.78824
707.218	21.96083
707.406	29.53511
707.593	24.35648
707.78	25.6877
707.968	21.41503
708.155	18.17281
708.342	24.65722
708.529	24.31432
708.716	23.06153
708.904	30.16088
709.091	24.72394
709.278	16.08452
709.465	32.63017
709.652	30.72429
709.839	29.70879
710.026	24.47226
710.213	15.04203
710.4	25.27252
710.587	27.15142
710.774	29.5176
710.961	29.14057
711.148	23.63847
711.335	27.81151
711.522	22.49882
711.709	24.99981
711.896	34.47812
712.083	27.68987
712.27	19.75141
712.457	23.73826
712.644	17.91386
712.831	34.4341
713.017	24.48733
713.204	27.482
713.391	20.79104
713.578	29.44144
713.765	31.98771
713.951	26.09557
714.138	41.24994
714.325	27.09893
714.512	24.05521
714.698	20.53929
714.885	32.29169
715.072	26.35648
715.258	24.57762
715.445	20.9485
715.631	31.45814
715.818	11.77636
716.005	22.04123
716.191	28.50525
716.378	22.51619
716.564	30.49592
716.751	20.90486
716.937	22.7246
717.124	31.63345
717.31	21.46753
717.497	36.57599
717.683	21.30458
717.869	37.82159
718.056	22.51886
718.242	28.72552
718.429	25.20723
718.615	20.11904
718.801	26.47361
718.988	30.53317
719.174	28.07649
719.36	24.83672
719.547	32.11876
719.733	27.10132
719.919	28.6782
720.105	32.35632
720.291	26.12213
720.478	26.07989
720.664	26.3275
720.85	23.60618
721.036	43.52818
721.222	37.16539
721.408	25.21795
721.595	39.24664
721.781	36.82045
721.967	33.42632
722.153	38.7047
722.339	31.16561
722.525	28.88422
722.711	22.44046
722.897	19.5851
723.083	24.61504
723.269	33.42625
723.455	45.86676
723.641	48.85213
723.827	27.43869
724.012	32.34955
724.198	25.58088
724.384	36.92239
724.57	30.88859
724.756	17.91757
724.942	15.22613
725.127	33.80582
725.313	37.27234
725.499	35.18039
725.685	41.06086
725.87	30.2925
726.056	22.38675
726.242	37.31362
726.428	18.38545
726.613	34.92095
726.799	24.89573
726.985	20.87062
727.17	17.94131
727.356	41.59563
727.541	21.53625
727.727	25.30453
727.913	33.47611
728.098	25.33174
728.284	33.21218
728.469	19.04089
728.655	22.66962
728.84	33.95983
729.026	31.82677
729.211	34.13472
729.397	33.07697
729.582	33.07125
729.767	29.1093
729.953	31.33162
730.138	36.20963
730.323	15.34183
730.509	22.42298
730.694	40.70144
730.879	33.88333
731.065	29.21723
731.25	44.29604
731.435	33.64713
731.621	18.89749
731.806	26.49068
731.991	31.34559
732.176	19.40062
732.361	39.26516
732.547	32.06236
732.732	18.04156
732.917	45.59004
733.102	20.75992
733.287	24.7385
733.472	29.40728
733.657	29.79889
733.842	18.22603
734.027	25.6556
734.212	26.92806
734.397	23.16428
734.582	30.0463
734.767	36.00666
734.952	41.24272
735.137	11.97812
735.322	38.85061
735.507	31.6993
735.692	30.199
735.877	46.59449
736.062	44.17413
736.247	33.68324
736.431	29.53898
736.616	38.7862
736.801	32.5591
736.986	28.63223
737.171	25.09234
737.355	19.50548
737.54	39.75643
737.725	30.2443
737.909	53.38861
738.094	27.58613
738.279	38.65085
738.463	26.58325
738.648	35.20851
738.833	33.68794
739.017	47.7555
739.202	28.23182
739.386	30.12367
739.571	24.71007
739.756	37.13984
739.94	30.45
740.125	35.99792
740.309	24.31242
740.494	37.32127
740.678	31.15106
740.863	36.84036
741.047	32.36074
741.231	42.427
741.416	27.00496
741.6	48.55431
741.785	23.97733
741.969	39.27458
742.153	44.32373
742.338	17.36411
742.522	31.34409
742.706	36.3797
742.89	20.4441
743.075	33.57968
743.259	43.40736
743.443	41.29752
743.627	40.9257
743.812	54.59345
743.996	17.37252
744.18	29.95738
744.364	28.5569
744.548	53.74636
744.732	30.951
744.916	39.95937
745.1	39.02019
745.285	28.79793
745.469	39.43322
745.653	46.64821
745.837	21.43041
746.021	53.52552
746.205	42.68625
746.389	34.05802
746.573	31.25889
746.757	48.50971
746.94	29.68531
747.124	43.81103
747.308	22.64055
747.492	42.67122
747.676	28.40177
747.86	57.348
748.044	28.66363
748.227	17.40415
748.411	69.99433
748.595	40.69568
748.779	25.49711
748.963	37.68585
749.146	34.98006
749.33	25.79722
749.514	23.74148
749.697	42.64103
749.881	27.76336
750.065	23.82068
750.248	32.47105
750.432	56.45379
750.616	35.51885
750.799	17.96943
750.983	55.4329
751.166	62.57242
751.35	20.21652
751.533	40.99162
751.717	49.68615
751.9	45.72978
752.084	26.466
752.267	21.86396
752.451	26.90262
752.634	36.71367
752.818	38.87311
753.001	42.16132
753.184	46.09645
753.368	37.78401
753.551	5.66928
753.734	27.41903
753.918	56.52096
754.101	27.8365
754.284	40.6321
754.467	29.47317
754.651	28.88069
754.834	28.05301
755.017	45.88326
755.2	44.78278
755.384	25.03868
755.567	43.60873
755.75	44.71841
755.933	31.53645
756.116	38.07893
756.299	27.89587
756.482	23.90577
756.665	40.09596
756.848	36.50038
757.032	41.83423
757.215	17.95513
757.398	25.72638
757.581	23.15423
757.764	62.56949
757.947	35.51249
758.129	49.37714
758.312	7.26154
758.495	35.30283
758.678	32.8468
758.861	32.67757
759.044	56.79277
759.227	25.7616
759.41	28.00583
759.592	44.46185
759.775	33.85887
759.958	44.43182
760.141	22.45197
760.324	56.70349
760.506	53.2301
760.689	46.16006
760.872	60.98789
761.054	40.33515
761.237	29.85558
761.42	37.66988
761.602	45.03574
761.785	38.56305
761.968	48.25456
762.15	51.68866
762.333	32.26012
762.515	39.95
762.698	30.97761
762.88	41.64214
763.063	36.36435
763.245	42.6742
763.428	26.59214
763.61	28.41374
763.793	22.64471
763.975	36.71977
764.158	29.69481
764.34	29.18598
764.522	27.48087
764.705	32.66236
764.887	47.96279
765.069	21.04216
765.252	41.58695
765.434	44.17026
765.616	34.07962
765.799	28.34962
765.981	43.21866
766.163	28.62392
766.345	44.6748
766.528	27.29704
766.71	12.30453
766.892	35.21417
767.074	51.62621
767.256	33.44824
767.438	55.43469
767.62	39.53923
767.802	61.82052
767.985	45.77028
768.167	60.24312
768.349	34.36311
768.531	44.63621
768.713	40.28598
768.895	45.93189
769.077	39.95187
769.259	69.39517
769.441	99.81124
769.623	46.73424
769.804	59.40521
769.986	58.36351
770.168	72.43318
770.35	81.73265
770.532	65.39748
770.714	66.68882
770.896	74.21266
771.077	24.00526
771.259	73.54324
771.441	59.43135
771.623	80.85112
771.804	97.30314
771.986	28.09416
772.168	46.77199
772.35	77.0298
772.531	93.54482
772.713	64.44676
772.894	76.35114
773.076	53.73441
773.258	48.14427
773.439	83.28596
773.621	87.0877
773.802	36.68055
773.984	57.79337
774.166	59.88699
774.347	90.51702
774.529	77.54704
774.71	16.41856
774.891	55.1619
775.073	52.11664
775.254	90.96752
775.436	47.61992
775.617	98.32974
775.799	44.16459
775.98	93.94814
776.161	94.59677
776.343	92.14606
776.524	58.63294
776.705	54.82822
776.886	26.81868
777.068	59.22584
777.249	118.90186
777.43	98.20242
777.611	38.31617
777.793	58.12784
777.974	86.4063
778.155	50.89702
778.336	43.7982
778.517	101.03648
778.698	48.47474
778.879	21.77392
779.061	11.00065
779.242	66.74601
779.423	69.42233
779.604	44.30003
779.785	52.95591
779.966	62.30316
780.147	78.73316
780.328	80.89109
780.509	111.17693
780.69	77.37837
780.871	47.70178
781.051	26.70243
781.232	62.90459
781.413	63.02756
781.594	49.71759
781.775	48.03642
781.956	46.88167
782.137	24.29573
782.317	48.07999
782.498	69.16467
782.679	61.48514
782.86	66.1589
783.04	41.43913
783.221	72.25003
783.402	97.80146
783.583	66.76406
783.763	75.26342
783.944	52.06065
784.124	28.33751
784.305	94.91182
784.486	70.70687
784.666	55.82178
784.847	26.6229
785.027	118.03653
785.208	41.02232
785.388	46.44312
785.569	45.68799
785.749	50.30262
785.93	47.37878
786.11	32.23502
786.291	63.95472
786.471	66.98311
786.652	74.79301
786.832	55.80877
787.012	66.80514
787.193	35.96933
787.373	59.87919
787.553	50.5035
787.734	64.0067
787.914	49.89111
788.094	71.57892
788.275	63.26535
788.455	54.83193
788.635	31.77727
788.815	63.8888
788.995	39.91564
789.176	29.87348
789.356	42.53081
789.536	50.11377
789.716	69.47648
789.896	42.40426
790.076	47.68345
790.256	62.5454
790.436	14.12792
790.616	40.5504
790.796	62.18135
790.976	50.15314
791.156	42.71287
791.336	73.22253
791.516	62.44002
791.696	52.24826
791.876	26.65314
792.056	62.45473
792.236	83.24938
792.416	71.07953
792.596	69.91614
792.776	63.78235
792.956	72.75096
793.135	96.40499
793.315	35.89681
793.495	86.76445
793.675	77.47132
793.854	81.20556
794.034	78.28769
794.214	36.30619
794.394	75.18854
794.573	82.1449
794.753	60.99829
794.933	42.00115
795.112	64.35868
795.292	77.735
795.472	94.78651
795.651	42.60709
795.831	57.97257
796.01	49.35077
796.19	48.90051
796.369	55.01902
796.549	66.73727
796.728	54.77299
796.908	36.33056
797.087	37.34238
797.267	54.20697
797.446	34.94287
797.626	65.54717
797.805	65.83115
797.984	49.24817
798.164	71.33042
798.343	40.05232
798.522	61.9205
798.702	59.13228
798.881	33.2752
799.06	51.72226
799.239	26.40653
799.419	39.40588
799.598	89.30398
799.777	71.80394
799.956	84.75908
800.136	52.02473
800.315	44.63545
800.494	64.68675
800.673	76.45277
800.852	77.3651
801.031	81.48021
801.21	66.43259
801.389	48.19889
801.568	64.09374
801.747	92.90299
801.926	54.61996
802.105	96.83074
802.284	49.62252
802.463	89.21525
802.642	69.21319
802.821	66.91923
803	85.98359
803.179	78.90278
803.358	84.89651
803.537	45.11951
803.716	68.38235
803.895	47.23014
804.073	59.14474
804.252	47.02139
804.431	70.31887
804.61	59.73245
804.789	88.98667
804.967	47.09996
805.146	52.80324
805.325	109.00587
805.503	70.30342
805.682	33.74245
805.861	128.30363
806.039	92.48561
806.218	49.15146
806.397	72.11307
806.575	64.22144
806.754	65.00312
806.932	44.6831
807.111	94.72726
807.289	86.90775
807.468	63.54485
807.646	85.7404
807.825	67.77521
808.003	67.45123
808.182	81.98101
808.36	63.04944
808.539	44.67319
808.717	96.6549
808.895	42.63522
809.074	68.61612
809.252	52.13004
809.43	90.44011
809.609	96.03135
809.787	115.16783
809.965	55.16411
810.144	63.52803
810.322	61.30416
810.5	75.42445
810.678	64.16767
810.856	110.83696
811.035	93.14781
811.213	93.42094
811.391	82.02391
811.569	73.65385
811.747	144.10182
811.925	94.22897
812.103	46.36368
812.281	62.84572
812.459	117.96326
812.637	110.55924
812.816	96.31738
812.994	119.56364
813.171	97.41331
813.349	90.10344
813.527	97.60073
813.705	87.6976
813.883	118.95283
814.061	99.92016
814.239	117.86118
814.417	121.46264
814.595	84.61333
814.773	71.44046
814.95	69.37744
815.128	75.28549
815.306	69.33928
815.484	66.66033
815.662	50.773
815.839	43.81854
816.017	60.90235
816.195	95.79466
816.372	65.58893
816.55	96.23215
816.728	110.10111
816.905	68.4507
817.083	110.25139
817.261	62.99203
817.438	143.94603
817.616	120.14621
817.793	51.36563
817.971	91.59337
818.148	87.52265
818.326	112.50007
818.503	78.10701
818.681	103.92201
818.858	57.86579
819.036	73.53776
819.213	74.63428
819.391	56.449
819.568	45.88542
819.745	45.88004
819.923	82.8263
820.1	56.74461
820.277	48.81752
820.455	57.81816
820.632	58.50732
820.809	65.04184
820.986	39.02918
821.164	31.91533
821.341	28.76277
821.518	40.17504
821.695	30.71535
821.872	29.29864
822.05	25.31023
822.227	20.58671
822.404	22.80577
822.581	26.01914
822.758	22.77789
822.935	23.46273
823.112	26.29694
823.289	22.52859
823.466	27.58936
823.643	26.3446
823.82	31.18087
823.997	28.71492
824.174	34.29679
824.351	41.68059
824.528	41.105
824.705	38.34194
824.882	41.57907
825.059	51.69015
825.236	36.15113
825.412	38.34677
825.589	45.30742
825.766	64.76297
825.943	40.97468
826.12	47.0462
826.296	33.06469
826.473	43.71574
826.65	41.17916
826.827	51.24849
827.003	34.23344
827.18	37.57804
827.357	42.88286
827.533	35.34704
827.71	21.20634
827.887	33.6282
828.063	38.56327
828.24	34.52421
828.416	42.94972
828.593	36.94049
828.769	54.44769
828.946	55.27626
829.122	56.09821
829.299	58.47587
829.475	29.24166
829.652	52.63439
829.828	88.35442
830.005	56.67268
830.181	75.7481
830.357	55.61021
830.534	77.17963
830.71	66.84022
830.886	77.07809
831.063	73.19459
831.239	96.02978
831.415	44.96936
831.592	104.11519
831.768	59.5489
831.944	55.99602
832.12	108.09908
832.296	99.10222
832.473	81.88282
832.649	51.96055
832.825	78.17956
833.001	43.81649
833.177	67.11932
833.353	59.0436
833.529	33.22491
833.705	50.33362
833.881	37.5316
834.058	33.63012
834.234	38.00419
834.41	39.02107
834.586	31.13947
834.761	35.79294
834.937	41.84445
835.113	42.97797
835.289	38.07289
835.465	47.88118
835.641	42.43138
835.817	46.74235
835.993	83.69013
836.169	42.8727
836.344	62.66657
836.52	73.33544
836.696	75.28395
836.872	53.59557
837.048	147.1443
837.223	59.9192
837.399	130.21751
837.575	100.8212
837.75	95.40999
837.926	131.37186
838.102	206.24312
838.277	175.66767
838.453	222.69801
838.628	216.52651
838.804	74.67069
838.98	204.73232
839.155	92.6913
839.331	136.86184
839.506	91.04445
839.682	84.83438
839.857	116.06338
840.033	132.95591
840.208	62.4407
840.384	34.2611
840.559	65.85781
840.734	105.39751
840.91	140.84642
841.085	87.2237
841.26	94.98749
841.436	91.79579
841.611	72.62159
841.786	114.38489
841.962	162.27495
842.137	123.61674
842.312	62.39587
842.487	100.91092
842.663	91.90558
842.838	93.26753
843.013	315.2474
843.188	189.21612
843.363	139.68497
843.538	299.58463
843.714	365.22461
843.889	312.1198
844.064	303.08394
844.239	222.65823
844.414	474.22231
844.589	260.00221
844.764	396.24975
844.939	391.44711
845.114	426.10128
845.289	446.83137
845.464	495.80262
845.639	383.6123
845.814	193.98911
845.989	318.21028
846.163	232.88599
846.338	316.47309
846.513	415.89251
846.688	261.87435
846.863	299.3423
847.038	243.22554
847.212	281.4435
847.387	356.80777
847.562	298.66866
847.737	428.71682
847.911	187.50496
848.086	185.97014
848.261	462.65472
848.435	268.32151
848.61	376.64353
848.785	215.54348
848.959	422.99301
849.134	477.29039
849.308	653.79597
849.483	311.68695
849.658	553.9981
849.832	242.84799
850.007	213.6067
850.181	657.77273
850.356	304.9344
850.53	787.3291
850.705	356.76175
850.879	141.02665
851.053	311.26829
851.228	298.83129
851.402	458.73334
851.577	457.61235
851.751	584.24361
851.925	354.56495
852.099	132.84073
852.274	249.95978
852.448	284.66752
852.622	471.1838
852.797	319.23243
852.971	350.43814
853.145	412.31489
853.319	751.50438
853.493	655.12087
853.668	482.49202
853.842	785.25763
854.016	480.24219
854.19	645.15319
854.364	369.8117
854.538	351.42485
854.712	758.14589
854.886	415.89164
855.06	311.60829
855.234	123.91776
855.408	641.43134
855.582	408.66776
855.756	638.64714
855.93	575.50513
856.104	632.52406
856.278	542.72911
856.452	356.85011
856.626	376.47134
856.8	951.17214
856.973	395.88996
857.147	451.7023
857.321	451.99716
857.495	531.62911
857.669	320.74122
857.842	452.55764
858.016	577.90658
858.19	241.13659
858.364	767.42945
858.537	396.2346
858.711	470.5144
858.885	385.35763
859.058	227.40128
859.232	160.91384
859.405	130.19394
859.579	512.7002
859.753	540.452
859.926	227.88343
860.1	233.5497
860.273	407.0683
860.447	481.83505
860.62	356.64339
860.794	615.60724
860.967	359.02659
861.141	501.3925
861.314	802.49134
861.487	458.935
861.661	451.88779
861.834	525.87165
862.008	689.25293
862.181	439.73112
862.354	500.93096
862.528	479.92344
862.701	302.3185
862.874	198.70222
863.047	314.65769
863.221	308.34618
863.394	196.92624
863.567	423.72867
863.74	122.74869
863.913	517.03255
864.087	513.93859
864.26	452.71889
864.433	388.35328
864.606	567.37394
864.779	359.24507
864.952	177.30675
865.125	439.05018
865.298	291.78246
865.471	340.63331
865.644	776.2435
865.817	516.37634
865.99	471.36484
866.163	440.9402
866.336	259.90811
866.509	315.41194
866.682	578.48917
866.855	723.72723
867.028	215.91936
867.2	409.7394
867.373	96.36139
867.546	357.26547
867.719	692.65334
867.892	475.15568
868.064	264.13317
868.237	315.59316
868.41	342.28297
868.583	176.00519
868.755	221.08436
868.928	435.09535
869.101	815.62123
869.273	553.72411
869.446	517.47143
869.619	569.46286
869.791	375.63699
869.964	495.90975
870.136	835.5152
870.309	341.17423
870.481	363.39501
870.654	208.52137
870.826	315.32844
870.999	217.70554
871.171	426.71352
871.344	248.12771
871.516	267.8459
871.689	218.80382
871.861	325.01836
872.033	269.16504
872.206	256.21356
872.378	321.07403
872.55	339.84848
872.723	189.16236
872.895	360.77664
873.067	428.60057
873.24	376.91979
873.412	326.25865
873.584	377.61255
873.756	339.38308
873.928	484.73675
874.101	342.5186
874.273	392.07404
874.445	138.04787
874.617	249.01236
874.789	301.24601
874.961	321.37543
875.133	352.18176
875.305	383.29356
875.477	288.61414
875.649	177.82495
875.821	168.39758
875.993	614.09982
876.165	308.39547
876.337	366.4671
876.509	305.74378
876.681	378.39893
876.853	353.81483
877.025	362.15316
877.197	244.2436
877.369	157.26761
877.541	338.76871
877.712	79.45328
877.884	180.13408
878.056	340.71696
878.228	181.43778
878.4	376.34163
878.571	182.39897
878.743	101.69819
878.915	277.0353
879.086	133.19747
879.258	180.31145
879.43	169.46193
879.601	137.78016
879.773	138.59473
879.945	29.67952
880.116	56.78105
880.288	32.473
880.459	35.57957
880.631	29.96306
880.802	36.01678
880.974	32.21093
881.145	23.11669
881.317	32.41866
881.488	24.2322
881.66	27.97533
881.831	27.55476
882.002	34.03491
882.174	26.8627
882.345	33.34053
882.517	20.95286
882.688	40.76346
882.859	35.10303
883.03	53.91181
883.202	51.45892
883.373	43.79151
883.544	44.72459
883.715	73.17347
883.887	64.81739
884.058	53.42546
884.229	80.02624
884.4	82.12263
884.571	94.39745
884.742	83.22716
884.914	87.96495
885.085	119.21271
885.256	165.2016
885.427	142.57484
885.598	178.21663
885.769	174.1739
885.94	172.53589
886.111	116.52804
886.282	207.92119
886.453	176.94438
886.624	117.57587
886.795	230.74421
886.966	176.71668
887.136	226.00457
887.307	156.24617
887.478	327.08072
887.649	278.84592
887.82	254.85897
887.991	242.04556
888.161	352.95256
888.332	336.51713
888.503	156.24611
888.674	385.95933
888.844	540.98568
889.015	353.36104
889.186	215.87278
889.356	508.87755
889.527	202.19106
889.698	665.14304
889.868	220.33365
890.039	390.09844
890.209	308.56871
890.38	390.46756
890.551	354.05746
890.721	418.22641
890.892	478.48685
891.062	407.10139
891.233	501.17166
891.403	493.34801
891.574	306.29176
891.744	252.23191
891.914	330.88475
892.085	411.92531
892.255	133.06634
892.425	454.31367
892.596	314.48389
892.766	397.36855
892.936	461.98649
893.107	415.11672
893.277	163.54054
893.447	165.55615
893.618	111.29949
893.788	197.61765
893.958	123.36424
894.128	104.8574
894.298	118.96812
894.468	155.80912
894.639	69.07845
894.809	44.02564
894.979	72.27792
895.149	90.6921
895.319	71.15383
895.489	105.92472
895.659	143.63354
895.829	87.82025
895.999	89.24082
896.169	80.38126
896.339	93.28253
896.509	202.50564
896.679	203.04555
896.849	231.71956
897.019	281.81259
897.189	242.537
897.358	232.40627
897.528	357.65887
897.698	209.314
897.868	325.60129
898.038	647.08188
898.208	644.91542
898.377	220.08092
898.547	953.83983
898.717	1443.61699
898.886	423.44352
899.056	664.67335
899.226	1467.28563
899.395	790.7804
899.565	1309.0483
899.735	787.42218
899.904	957.34789
900.074	1030.49029
900.244	288.49202
900.413	1326.09768
900.583	446.05548
900.752	1371.91527
900.922	991.52204
901.091	205.53192
901.261	1748.90418
901.43	540.68541
901.599	2331.32748
901.769	1451.73654
901.938	1064.39129
902.108	1677.96448
902.277	787.27842
902.446	354.30131
902.616	356.29581
902.785	544.8083
902.954	703.32196
903.124	504.51405
903.293	302.60171
903.462	136.44697
903.631	198.76771
903.801	143.04777
903.97	65.6044
904.139	113.12534
904.308	87.74283
904.477	76.73594
904.646	41.03311
904.816	64.8723
904.985	102.85483
905.154	149.6543
