Data from WindowProjectSample3_Transmission__66__00066.txt Node

Date: Sun May 04 11:49:44 EDT 2025
User: jessi
Spectrometer: SR400872
Trigger mode: 0
Integration Time (sec): 5.000050E-1
Scans to average: 20
Electric dark correction enabled: true
Nonlinearity correction enabled: true
Boxcar width: 0
XAxis mode: Wavelengths
Number of Pixels in Spectrum: 3648
>>>>>Begin Spectral Data<<<<<
184.909	-1430.79709
185.132	-1301.71093
185.355	-1516.20751
185.578	-1567.77861
185.801	1231.93335
186.024	-1307.37033
186.247	-24084.80968
186.47	-2177.13132
186.693	-3581.12134
186.916	-632.05831
187.139	-1010.81712
187.362	-1261.69022
187.585	-1095.42643
187.808	-1189.35285
188.031	568.94034
188.254	-1137.73058
188.476	-925.15272
188.699	-1061.0067
188.922	323.69094
189.145	-1032.62353
189.368	7140.68096
189.591	3248.47599
189.813	-4504.3036
190.036	-1446.40119
190.259	-7688.18129
190.482	-3562.69901
190.705	-2845.90142
190.927	-1993.79476
191.15	-1334.58777
191.373	-3765.54613
191.595	30126.59781
191.818	-3089.21429
192.041	-1152.33214
192.263	-1637.06842
192.486	-934.08617
192.709	-1927.19717
192.931	-4857.13536
193.154	-1372.24501
193.377	-1649.64377
193.599	1338.13556
193.822	8788.6647
194.044	-9795.34795
194.267	-3576.25654
194.489	-91.07736
194.712	-1790.33253
194.934	-2662.17658
195.157	-592.82256
195.379	-4875.69958
195.602	-1571.22129
195.824	-2490.78493
196.047	2651.69519
196.269	-1300.01846
196.492	-1335.67088
196.714	-953.91011
196.936	-2138.34547
197.159	-3920.50943
197.381	-1035.53845
197.604	-8062.02997
197.826	-2326.03727
198.048	-2208.03334
198.271	-1516.58766
198.493	-2374.21665
198.715	-3372.47739
198.938	-8435.8612
199.16	-4555.18053
199.382	-1488.91332
199.604	-1568.23438
199.827	-3881.02634
200.049	-18498.82633
200.271	-1152.13368
200.493	-4408.9374
200.715	-1059.80643
200.938	-931.65261
201.16	-945.9973
201.382	-3072.97919
201.604	-3789.37078
201.826	-1194.64566
202.048	-1680.40939
202.27	-1092.19483
202.492	-1468.61096
202.715	-1780.71376
202.937	-4438.28005
203.159	-4778.68853
203.381	6212.91592
203.603	-1418.91698
203.825	5927.61787
204.047	-2566.66612
204.269	3639.54427
204.491	-2370.05434
204.713	-1452.11426
204.935	-1039.32329
205.156	-3967.48018
205.378	-2805.87624
205.6	-1524.22753
205.822	-1614.83027
206.044	1250.29888
206.266	-19657.98465
206.488	-1319.90623
206.71	-2935.49285
206.932	24746.43208
207.153	-1313.3019
207.375	-2703.90203
207.597	-1296.12555
207.819	-1500.04463
208.041	-1316.49369
208.262	-1480.26169
208.484	-1892.58313
208.706	-9720.30727
208.927	-1934.40454
209.149	-10833.65656
209.371	-1335.94728
209.593	1237.03197
209.814	-2262.85526
210.036	417.44747
210.258	-1367.66491
210.479	-2830.01146
210.701	-6588.06622
210.922	-2623.63955
211.144	3926.82443
211.366	-2123.03913
211.587	1594.91591
211.809	-2246.1964
212.03	168222.35867
212.252	471.77481
212.473	-37897.59207
212.695	2964.40626
212.916	-2886.59409
213.138	732.68653
213.359	-1245.92343
213.581	-8850.75087
213.802	-1282.14568
214.024	-5994.90639
214.245	3216.98495
214.466	569.9784
214.688	-2142.72059
214.909	-1776.31447
215.131	-3357.53079
215.352	19104.19489
215.573	-1673.64459
215.795	-4349.70703
216.016	-1869.84193
216.237	1257.46426
216.459	10607.56382
216.68	-1604.27071
216.901	-3588.52104
217.122	20233.06254
217.344	-1778.40734
217.565	-1869.6324
217.786	-2355.15569
218.007	4824.07822
218.228	5959.64789
218.45	-2833.11776
218.671	19810.36292
218.892	-3401.92465
219.113	-7379.2072
219.334	-97.40936
219.555	-13011.31402
219.776	-2238.90443
219.997	-2404.47911
220.219	-2619.42431
220.44	7813.59863
220.661	9007.36358
220.882	-5088.88947
221.103	2248.30065
221.324	7427.08801
221.545	-9462.78074
221.766	-2421.78752
221.987	1101.83534
222.208	1874.36624
222.429	-1590.12057
222.65	236.9926
222.87	682.44193
223.091	3535.98902
223.312	536.697
223.533	5914.07603
223.754	-4939.50792
223.975	1745.57801
224.196	1164.07225
224.417	6274.64595
224.637	700.85047
224.858	102.01853
225.079	769.6973
225.3	486.54777
225.521	-2103.28652
225.741	567.74026
225.962	599.41518
226.183	119.45994
226.404	1307.67916
226.624	473.24719
226.845	687.86266
227.066	499.01951
227.286	265.35385
227.507	119.38852
227.728	102.54361
227.948	205.04066
228.169	64.65932
228.389	69.49694
228.61	41.49941
228.831	56.06189
229.051	4.75619
229.272	33.66288
229.492	47.64119
229.713	13.30351
229.933	34.81079
230.154	28.41145
230.374	48.4275
230.595	36.23236
230.815	21.04312
231.036	37.09542
231.256	-3.87383
231.477	62.30424
231.697	38.73995
231.917	39.53943
232.138	56.01282
232.358	110.9736
232.579	91.69991
232.799	14.99642
233.019	84.30714
233.24	97.3758
233.46	36.24434
233.68	51.02312
233.901	37.82827
234.121	23.12213
234.341	10.29949
234.561	-2.59442
234.782	18.9855
235.002	58.9126
235.222	0.59353
235.442	52.22061
235.662	27.0554
235.883	52.05467
236.103	42.82544
236.323	31.40493
236.543	25.04626
236.763	35.505
236.983	35.06587
237.203	33.21024
237.423	49.90836
237.643	73.9049
237.864	62.38401
238.084	19.03175
238.304	21.27137
238.524	39.44819
238.744	34.80998
238.964	55.47372
239.184	46.50239
239.404	54.52036
239.624	27.75972
239.843	47.06672
240.063	28.56928
240.283	18.00255
240.503	20.44474
240.723	20.84979
240.943	13.87555
241.163	16.59548
241.383	11.41964
241.603	6.63094
241.822	7.34581
242.042	5.77653
242.262	7.49556
242.482	8.05287
242.702	9.33118
242.921	3.04497
243.141	6.17029
243.361	5.88672
243.581	8.47171
243.8	6.99836
244.02	4.72253
244.24	8.53388
244.459	8.03695
244.679	16.14928
244.899	10.19
245.118	11.7245
245.338	10.81788
245.558	11.85644
245.777	7.00002
245.997	8.2842
246.216	8.54457
246.436	5.15655
246.655	3.81713
246.875	3.14843
247.094	5.57064
247.314	2.09047
247.533	3.5246
247.753	3.82601
247.972	3.14059
248.192	1.17319
248.411	1.92725
248.631	3.24892
248.85	4.07486
249.07	3.91599
249.289	5.72106
249.508	4.11808
249.728	6.74422
249.947	6.51372
250.166	8.30647
250.386	3.91209
250.605	6.3635
250.824	10.33079
251.044	6.8777
251.263	19.22285
251.482	11.55094
251.701	9.86567
251.921	0.26689
252.14	3.34006
252.359	4.23765
252.578	8.74682
252.798	3.50035
253.017	7.85497
253.236	4.03788
253.455	5.33191
253.674	10.02186
253.893	4.6073
254.112	7.56905
254.331	10.49222
254.551	7.98948
254.77	4.40924
254.989	11.26946
255.208	8.82463
255.427	13.36925
255.646	11.3683
255.865	16.83978
256.084	7.51827
256.303	9.28726
256.522	11.17388
256.741	2.79051
256.96	3.0632
257.179	7.27981
257.397	9.38676
257.616	5.41209
257.835	5.27075
258.054	12.97114
258.273	8.55712
258.492	9.10663
258.711	5.76827
258.93	2.8747
259.148	4.08584
259.367	3.66674
259.586	4.70098
259.805	2.2302
260.023	4.07323
260.242	3.12727
260.461	2.46933
260.68	1.22311
260.898	3.62789
261.117	1.34043
261.336	0.88296
261.554	3.19822
261.773	3.3219
261.992	0.90395
262.21	3.18269
262.429	3.56351
262.648	5.82521
262.866	6.96531
263.085	5.06841
263.303	4.35038
263.522	7.71675
263.74	7.52324
263.959	12.63051
264.178	6.56532
264.396	5.43195
264.615	4.43015
264.833	9.33821
265.051	7.93427
265.27	9.4393
265.488	9.0576
265.707	5.49677
265.925	9.0093
266.144	4.37576
266.362	4.92645
266.58	5.02764
266.799	4.05207
267.017	5.06817
267.235	4.56603
267.454	3.07252
267.672	1.6148
267.89	3.73799
268.109	4.00267
268.327	4.11655
268.545	0.9183
268.763	3.53696
268.982	1.67517
269.2	4.15658
269.418	2.85763
269.636	2.27089
269.854	3.94012
270.073	2.81506
270.291	1.95034
270.509	1.71922
270.727	3.74991
270.945	6.13348
271.163	6.08367
271.381	1.46562
271.599	2.723
271.817	4.36119
272.036	1.4783
272.254	2.96875
272.472	2.05991
272.69	2.12361
272.908	2.25351
273.126	3.50517
273.344	4.6545
273.562	1.64372
273.779	2.46589
273.997	3.78455
274.215	3.61349
274.433	2.5989
274.651	3.98619
274.869	4.02654
275.087	2.95202
275.305	3.60578
275.523	2.33639
275.74	2.54735
275.958	4.89678
276.176	6.85467
276.394	2.27363
276.612	2.80429
276.829	2.89775
277.047	2.45786
277.265	2.66106
277.483	3.11579
277.7	3.5093
277.918	3.00271
278.136	5.34703
278.353	2.59572
278.571	1.65995
278.789	4.06213
279.006	1.08144
279.224	2.487
279.442	4.12024
279.659	3.08347
279.877	2.00977
280.094	4.48918
280.312	1.0411
280.529	3.00345
280.747	1.12416
280.964	2.43389
281.182	4.84524
281.399	2.57655
281.617	3.09758
281.834	2.12064
282.052	1.59641
282.269	2.76631
282.487	2.20297
282.704	2.08434
282.921	1.88247
283.139	2.91842
283.356	3.61976
283.574	3.48043
283.791	1.65959
284.008	4.33511
284.226	2.68136
284.443	2.93568
284.66	3.65601
284.877	3.03142
285.095	1.97606
285.312	1.50306
285.529	0.89572
285.746	0.82358
285.964	1.80281
286.181	1.28811
286.398	1.7035
286.615	2.38642
286.832	2.3053
287.05	0.63132
287.267	1.65078
287.484	1.69246
287.701	2.39604
287.918	2.32053
288.135	2.3011
288.352	1.03395
288.569	1.30061
288.786	2.26733
289.003	1.6742
289.22	2.61151
289.437	1.59485
289.654	2.4509
289.871	2.54069
290.088	2.50184
290.305	2.06403
290.522	1.77446
290.739	1.85792
290.956	2.68171
291.173	3.16702
291.39	2.92177
291.607	2.07065
291.824	1.70809
292.04	1.32906
292.257	2.63893
292.474	2.85924
292.691	1.91715
292.908	0.94977
293.125	1.49753
293.341	1.05081
293.558	4.18827
293.775	1.95508
293.992	2.11217
294.208	0.79542
294.425	1.29427
294.642	1.71633
294.858	2.36316
295.075	0.78127
295.292	1.84898
295.508	2.25069
295.725	3.06443
295.942	1.74312
296.158	1.33159
296.375	1.98958
296.591	1.5378
296.808	1.64239
297.024	1.99294
297.241	2.11486
297.458	2.25814
297.674	0.49245
297.891	1.80197
298.107	1.58369
298.323	1.25377
298.54	2.60337
298.756	1.56396
298.973	0.93262
299.189	2.81938
299.406	1.47821
299.622	2.83262
299.838	2.92459
300.055	2.55914
300.271	0.98474
300.487	1.30903
300.704	1.4793
300.92	1.0004
301.136	3.67497
301.353	2.87183
301.569	2.14447
301.785	2.30099
302.001	2.67557
302.218	2.38206
302.434	2.54806
302.65	1.24392
302.866	1.721
303.083	3.8704
303.299	3.78213
303.515	2.32191
303.731	2.41585
303.947	1.21868
304.163	1.69679
304.379	2.22519
304.595	2.49969
304.812	1.70544
305.028	1.59438
305.244	1.8547
305.46	2.61902
305.676	2.84722
305.892	3.29057
306.108	2.68644
306.324	1.98507
306.54	3.77219
306.756	2.65947
306.972	2.54865
307.187	2.08868
307.403	3.48602
307.619	1.73632
307.835	3.14011
308.051	3.12548
308.267	1.49685
308.483	3.07797
308.699	2.54315
308.914	2.18119
309.13	2.19592
309.346	1.01075
309.562	1.42441
309.778	1.05708
309.993	2.55868
310.209	2.18631
310.425	1.31641
310.641	2.02814
310.856	1.43453
311.072	1.32058
311.288	2.07968
311.503	2.26189
311.719	0.92571
311.935	0.85826
312.15	2.43608
312.366	2.23569
312.581	2.60117
312.797	2.22378
313.013	2.75777
313.228	1.68418
313.444	2.20037
313.659	1.46854
313.875	2.52248
314.09	2.13004
314.306	3.26956
314.521	2.77398
314.737	2.69535
314.952	2.4066
315.168	2.27759
315.383	2.52697
315.599	2.06957
315.814	2.03294
316.029	2.87338
316.245	1.42829
316.46	0.98055
316.675	3.17629
316.891	3.76348
317.106	4.46032
317.321	2.65175
317.537	2.67729
317.752	2.96836
317.967	2.93182
318.183	1.71534
318.398	2.08778
318.613	2.99836
318.828	3.3619
319.043	2.91265
319.259	1.99876
319.474	2.32817
319.689	3.17077
319.904	0.91093
320.119	2.94589
320.334	2.5326
320.549	2.11691
320.765	3.14001
320.98	2.53277
321.195	3.00006
321.41	2.19759
321.625	2.9656
321.84	3.72657
322.055	3.61498
322.27	1.91828
322.485	1.41178
322.7	2.49359
322.915	3.09045
323.13	1.67487
323.345	3.37525
323.56	2.86361
323.775	2.82311
323.989	2.64896
324.204	2.35152
324.419	2.8983
324.634	1.35448
324.849	2.21673
325.064	3.69786
325.279	2.98728
325.493	2.72273
325.708	3.02583
325.923	1.73478
326.138	1.88253
326.352	3.44935
326.567	2.8875
326.782	2.06902
326.997	1.79341
327.211	2.78988
327.426	2.49517
327.641	2.07866
327.855	1.17405
328.07	2.84646
328.285	3.72106
328.499	2.18695
328.714	2.57286
328.928	2.94001
329.143	2.40177
329.358	3.25528
329.572	3.11922
329.787	3.4662
330.001	4.46415
330.216	1.32579
330.43	3.81909
330.645	3.62504
330.859	3.10802
331.074	1.77727
331.288	2.40631
331.503	3.6227
331.717	1.54331
331.931	2.34843
332.146	2.63225
332.36	3.97886
332.575	2.71424
332.789	2.49308
333.003	2.35547
333.218	2.81412
333.432	1.87457
333.646	2.9983
333.86	3.5642
334.075	3.76529
334.289	2.01096
334.503	1.51777
334.717	2.82609
334.932	2.73665
335.146	3.13972
335.36	2.06204
335.574	2.98003
335.788	2.81948
336.003	3.36784
336.217	3.14594
336.431	2.70053
336.645	2.01255
336.859	1.55463
337.073	2.29967
337.287	2.42375
337.501	1.644
337.715	2.56244
337.929	2.77053
338.143	1.49994
338.357	2.22605
338.571	1.82127
338.785	2.91542
338.999	1.99867
339.213	2.01352
339.427	1.5204
339.641	3.40543
339.855	2.11874
340.069	1.85767
340.283	3.10427
340.497	3.50639
340.711	2.80809
340.924	2.32496
341.138	1.62147
341.352	1.41634
341.566	2.43113
341.78	1.07032
341.993	1.92854
342.207	1.75411
342.421	2.57152
342.635	2.25127
342.848	1.92572
343.062	0.67101
343.276	1.92802
343.49	3.92545
343.703	1.92937
343.917	3.05035
344.131	3.02882
344.344	1.86397
344.558	2.03936
344.771	1.59331
344.985	3.09071
345.199	3.55819
345.412	2.60695
345.626	2.62016
345.839	1.12787
346.053	1.56048
346.266	1.60218
346.48	2.77513
346.693	2.52928
346.907	2.60535
347.12	1.70889
347.334	2.36578
347.547	2.61666
347.76	2.13665
347.974	3.12405
348.187	2.63742
348.401	2.13048
348.614	1.83753
348.827	2.13651
349.041	2.67264
349.254	1.1264
349.467	2.25057
349.681	1.572
349.894	1.85032
350.107	3.15489
350.32	3.64905
350.534	1.2854
350.747	2.15262
350.96	1.69651
351.173	1.7117
351.386	1.90648
351.6	1.97592
351.813	1.9126
352.026	2.33142
352.239	1.49509
352.452	2.12477
352.665	3.07382
352.878	2.07998
353.092	3.75125
353.305	2.79716
353.518	2.41261
353.731	1.7408
353.944	2.98154
354.157	1.92625
354.37	1.84468
354.583	1.65785
354.796	1.29919
355.009	3.03924
355.222	2.35449
355.435	2.30779
355.647	3.0315
355.86	1.70919
356.073	2.23842
356.286	1.98118
356.499	2.80037
356.712	2.65356
356.925	2.4903
357.138	2.91651
357.35	1.60065
357.563	2.00675
357.776	2.30964
357.989	2.19738
358.201	2.60591
358.414	2.44675
358.627	2.98343
358.84	2.19089
359.052	1.52337
359.265	1.65014
359.478	2.85572
359.69	0.65694
359.903	2.82554
360.116	2.85693
360.328	1.29983
360.541	2.76673
360.753	1.75095
360.966	1.9453
361.179	2.03576
361.391	1.98957
361.604	1.80842
361.816	2.12863
362.029	1.99823
362.241	1.8302
362.454	2.01852
362.666	1.74484
362.879	2.44652
363.091	2.09481
363.304	1.8567
363.516	2.14601
363.728	1.56331
363.941	2.55107
364.153	2.16056
364.366	0.98704
364.578	1.63549
364.79	2.56271
365.003	2.37806
365.215	2.05293
365.427	2.66348
365.639	3.13166
365.852	2.42108
366.064	3.34779
366.276	2.06385
366.488	2.65052
366.701	2.16902
366.913	2.19979
367.125	2.30714
367.337	1.96307
367.549	2.06482
367.762	2.33358
367.974	2.3627
368.186	2.16576
368.398	2.98352
368.61	2.73492
368.822	2.86402
369.034	2.40187
369.246	2.92322
369.458	3.96803
369.67	1.85283
369.882	3.68033
370.094	1.22118
370.306	3.33984
370.518	2.26195
370.73	2.18034
370.942	2.12278
371.154	2.45411
371.366	2.25325
371.578	2.89809
371.79	2.2235
372.002	3.25857
372.214	3.72014
372.425	2.62156
372.637	3.49816
372.849	2.84246
373.061	1.29872
373.273	2.92136
373.484	2.95852
373.696	3.15376
373.908	1.28576
374.12	3.33803
374.331	3.0558
374.543	2.24102
374.755	2.0745
374.967	2.75197
375.178	3.32293
375.39	2.56125
375.602	2.78473
375.813	1.817
376.025	2.014
376.236	2.81323
376.448	2.87789
376.66	2.61016
376.871	2.54105
377.083	3.24677
377.294	3.64265
377.506	2.60134
377.717	3.72187
377.929	2.94849
378.14	2.56998
378.352	3.21104
378.563	3.26107
378.775	3.74647
378.986	2.49428
379.197	3.17817
379.409	2.56382
379.62	3.42581
379.832	3.09072
380.043	2.86413
380.254	3.31161
380.466	2.29127
380.677	4.73171
380.888	4.4064
381.1	4.6843
381.311	4.68465
381.522	3.21111
381.733	4.96515
381.945	3.13305
382.156	3.10667
382.367	2.83697
382.578	4.89524
382.789	4.96389
383.001	2.86247
383.212	4.24208
383.423	4.33576
383.634	3.91904
383.845	3.78726
384.056	3.12958
384.267	3.34084
384.478	3.40765
384.69	2.74813
384.901	3.76221
385.112	3.61435
385.323	4.55837
385.534	3.63474
385.745	3.72847
385.956	3.7604
386.167	3.02853
386.378	3.87364
386.588	3.07568
386.799	3.16694
387.01	2.76112
387.221	4.18329
387.432	3.68784
387.643	4.72855
387.854	3.46665
388.065	3.50914
388.275	3.60117
388.486	3.47573
388.697	3.72413
388.908	3.53802
389.119	4.4752
389.329	4.71711
389.54	3.89436
389.751	4.07843
389.962	4.64095
390.172	3.968
390.383	3.68945
390.594	3.56435
390.804	3.6219
391.015	3.69344
391.226	4.08509
391.436	4.43062
391.647	4.33557
391.858	4.44626
392.068	3.16091
392.279	3.55987
392.489	4.25189
392.7	4.69077
392.91	3.71714
393.121	3.78952
393.331	4.44758
393.542	4.92597
393.752	4.7645
393.963	4.39623
394.173	4.42553
394.384	4.76236
394.594	4.36825
394.804	3.74224
395.015	4.50093
395.225	4.80623
395.436	3.82863
395.646	4.71499
395.856	4.21556
396.067	3.72647
396.277	5.01128
396.487	4.81895
396.697	4.77511
396.908	5.00566
397.118	4.97939
397.328	4.61353
397.538	5.10892
397.749	4.29406
397.959	5.19003
398.169	4.94065
398.379	3.98602
398.589	5.07876
398.8	4.88548
399.01	4.87152
399.22	4.56068
399.43	6.01955
399.64	4.73047
399.85	5.10521
400.06	4.81506
400.27	4.4629
400.48	4.84041
400.69	5.59151
400.9	4.55466
401.11	4.46042
401.32	5.36695
401.53	4.62911
401.74	5.86901
401.95	5.23535
402.16	4.72784
402.37	5.37851
402.58	4.74017
402.79	5.40167
403	5.52607
403.209	4.74379
403.419	5.62346
403.629	4.91091
403.839	5.66407
404.049	5.70895
404.258	4.96361
404.468	4.84989
404.678	5.73015
404.888	5.83869
405.097	5.13943
405.307	5.30973
405.517	5.77411
405.727	5.59232
405.936	5.22848
406.146	5.53668
406.356	6.18014
406.565	5.39442
406.775	5.27881
406.984	5.30356
407.194	6.52989
407.404	5.49898
407.613	5.69278
407.823	5.87404
408.032	6.27715
408.242	6.06348
408.451	5.26556
408.661	5.47682
408.87	6.56135
409.08	5.20661
409.289	5.8807
409.499	5.7843
409.708	5.65293
409.918	4.65764
410.127	5.75403
410.336	6.59393
410.546	6.08307
410.755	5.54077
410.964	5.6066
411.174	5.33734
411.383	6.10228
411.592	6.0246
411.802	5.30372
412.011	6.22169
412.22	5.85785
412.429	6.58708
412.639	6.56331
412.848	6.54236
413.057	6.87564
413.266	6.48954
413.475	5.98519
413.685	6.3397
413.894	6.46102
414.103	6.45631
414.312	6.36898
414.521	5.8811
414.73	6.21704
414.939	6.96682
415.148	6.39534
415.357	6.27216
415.566	6.01331
415.776	5.94131
415.985	6.03381
416.194	6.61868
416.403	7.20827
416.611	5.66949
416.82	6.28953
417.029	6.70811
417.238	6.65041
417.447	6.55531
417.656	7.32663
417.865	7.39161
418.074	7.66392
418.283	8.3611
418.492	9.25965
418.7	9.04866
418.909	10.49989
419.118	9.42868
419.327	9.81343
419.536	9.83014
419.744	9.76839
419.953	11.07213
420.162	11.35269
420.371	10.6299
420.579	11.17891
420.788	12.13689
420.997	12.16985
421.205	12.58559
421.414	12.16438
421.623	12.25868
421.831	11.87315
422.04	12.51692
422.249	11.43535
422.457	11.76917
422.666	10.94608
422.874	11.97223
423.083	12.04304
423.291	11.93205
423.5	12.02213
423.708	12.41976
423.917	12.91309
424.125	12.33295
424.334	12.25814
424.542	13.99125
424.751	13.29366
424.959	12.96181
425.167	12.95122
425.376	12.74467
425.584	11.42398
425.793	11.38234
426.001	10.33728
426.209	10.6175
426.418	9.39424
426.626	8.88069
426.834	8.44213
427.042	8.48054
427.251	7.90764
427.459	8.56141
427.667	7.67756
427.875	6.71491
428.084	7.02332
428.292	7.52185
428.5	7.25606
428.708	6.39805
428.916	6.47901
429.124	6.97423
429.333	6.81114
429.541	6.85498
429.749	7.0127
429.957	6.95358
430.165	8.16445
430.373	6.40286
430.581	7.08664
430.789	7.69699
430.997	6.82088
431.205	6.77345
431.413	7.39263
431.621	7.07351
431.829	7.78778
432.037	7.83708
432.245	8.08495
432.453	8.44801
432.661	8.3367
432.869	9.86121
433.076	8.56668
433.284	9.14745
433.492	9.81039
433.7	10.1121
433.908	9.2006
434.116	9.52463
434.323	9.16391
434.531	9.06613
434.739	8.99928
434.947	8.87966
435.154	8.72722
435.362	8.07964
435.57	7.75611
435.778	7.57437
435.985	7.8826
436.193	7.50434
436.401	8.5594
436.608	7.69575
436.816	7.32054
437.023	8.74642
437.231	8.76836
437.439	8.42123
437.646	8.65583
437.854	8.50532
438.061	8.66792
438.269	8.74712
438.476	9.08989
438.684	9.08349
438.891	9.37338
439.099	9.31326
439.306	9.20204
439.514	9.43108
439.721	10.84703
439.929	10.39248
440.136	11.46796
440.343	11.44305
440.551	11.27161
440.758	12.67609
440.965	11.59395
441.173	11.29047
441.38	10.94834
441.587	10.83373
441.795	10.5121
442.002	10.2445
442.209	10.07368
442.416	9.80237
442.624	9.50566
442.831	9.17827
443.038	8.51435
443.245	8.20742
443.452	8.24733
443.66	9.14516
443.867	8.51874
444.074	8.71298
444.281	9.0996
444.488	9.48964
444.695	9.93436
444.902	10.05834
445.109	11.32256
445.316	11.14552
445.523	11.58075
445.73	11.68733
445.937	12.7849
446.144	13.21178
446.351	13.53399
446.558	12.45392
446.765	14.27697
446.972	13.6024
447.179	13.04888
447.386	13.66954
447.593	11.93513
447.8	12.95513
448.007	11.34251
448.214	10.75951
448.42	10.16643
448.627	10.63608
448.834	9.76218
449.041	9.42544
449.248	9.12022
449.454	9.14054
449.661	9.51487
449.868	7.99205
450.075	7.88734
450.281	6.84758
450.488	7.17242
450.695	7.15454
450.901	7.29427
451.108	7.47812
451.315	8.04611
451.521	7.59675
451.728	8.48262
451.935	7.56733
452.141	8.0333
452.348	8.19928
452.554	8.04873
452.761	8.09944
452.967	9.14489
453.174	8.47478
453.38	8.35806
453.587	7.47222
453.793	8.19627
454	8.19994
454.206	8.74695
454.413	8.17697
454.619	7.91901
454.825	7.41532
455.032	7.91191
455.238	8.06798
455.445	7.08876
455.651	7.70744
455.857	6.88703
456.064	7.58453
456.27	7.46334
456.476	7.41952
456.682	7.01941
456.889	7.76971
457.095	7.81834
457.301	8.62953
457.507	7.71057
457.714	7.85862
457.92	7.95662
458.126	7.92658
458.332	8.79248
458.538	9.08937
458.744	9.7315
458.951	10.37895
459.157	12.37468
459.363	12.09372
459.569	12.33013
459.775	13.05887
459.981	12.62904
460.187	13.11728
460.393	13.19474
460.599	13.2026
460.805	12.18708
461.011	11.27896
461.217	11.18203
461.423	10.07784
461.629	9.21715
461.835	9.04475
462.041	8.23263
462.247	8.63423
462.453	7.78659
462.658	7.80088
462.864	8.19736
463.07	7.87868
463.276	7.89089
463.482	7.93391
463.688	8.41988
463.893	7.48185
464.099	7.69353
464.305	8.51665
464.511	7.65183
464.716	7.81307
464.922	8.23589
465.128	7.47564
465.333	8.71378
465.539	8.13759
465.745	7.8477
465.95	7.97032
466.156	9.20231
466.362	8.48401
466.567	7.87239
466.773	7.6751
466.978	8.58909
467.184	7.51825
467.389	7.03796
467.595	8.16639
467.8	7.59964
468.006	8.57264
468.211	8.5323
468.417	7.49042
468.622	8.28682
468.828	8.26342
469.033	8.14879
469.239	9.30856
469.444	7.77143
469.649	8.36797
469.855	7.92055
470.06	8.01059
470.266	7.5245
470.471	8.32257
470.676	8.10899
470.881	7.2495
471.087	8.81782
471.292	8.74964
471.497	7.44424
471.703	8.01236
471.908	7.75728
472.113	8.03431
472.318	8.44435
472.523	7.59955
472.729	8.28064
472.934	8.18681
473.139	7.88342
473.344	8.19346
473.549	8.61235
473.754	7.6832
473.959	9.00741
474.164	7.73575
474.369	7.99882
474.575	8.4403
474.78	8.11947
474.985	7.74243
475.19	7.35802
475.395	7.7494
475.6	8.01098
475.804	8.66425
476.009	8.11393
476.214	8.00633
476.419	7.87598
476.624	7.29295
476.829	7.75641
477.034	8.44275
477.239	7.96795
477.444	8.46487
477.648	8.8439
477.853	8.84101
478.058	8.45722
478.263	8.41102
478.468	8.12195
478.672	8.06861
478.877	9.31271
479.082	9.35063
479.287	8.83017
479.491	8.52434
479.696	8.06649
479.901	8.95118
480.105	9.13406
480.31	8.56484
480.515	9.06472
480.719	10.72634
480.924	9.51115
481.128	9.59789
481.333	10.76317
481.538	11.10138
481.742	11.53661
481.947	12.69004
482.151	13.92677
482.356	14.87633
482.56	17.49287
482.765	19.36897
482.969	23.05842
483.174	26.31801
483.378	30.28844
483.582	31.43534
483.787	33.37139
483.991	34.08983
484.196	34.17138
484.4	33.34134
484.604	32.94994
484.809	30.08755
485.013	28.19499
485.217	25.30404
485.422	22.52322
485.626	20.55363
485.83	19.36139
486.034	18.89064
486.239	19.41457
486.443	20.00474
486.647	20.63671
486.851	22.16392
487.055	23.70623
487.26	23.92386
487.464	25.08696
487.668	24.61
487.872	24.98555
488.076	25.25352
488.28	24.14399
488.484	22.50164
488.688	21.68349
488.892	20.62625
489.096	19.0286
489.3	17.33944
489.504	16.26108
489.708	15.69849
489.912	15.2883
490.116	14.94063
490.32	14.63589
490.524	16.27733
490.728	17.2181
490.932	18.38616
491.136	19.49976
491.34	20.95931
491.544	21.3799
491.748	21.23548
491.951	21.13826
492.155	20.57906
492.359	19.82543
492.563	17.93
492.767	16.79806
492.97	15.0448
493.174	13.29311
493.378	12.29532
493.582	10.73942
493.785	10.48887
493.989	10.2129
494.193	9.69182
494.396	9.16885
494.6	9.50516
494.804	9.08924
495.007	8.80124
495.211	8.888
495.414	9.1659
495.618	9.7005
495.822	10.44874
496.025	10.28768
496.229	10.94127
496.432	10.47783
496.636	10.98754
496.839	11.05265
497.043	12.03596
497.246	11.34611
497.45	10.98864
497.653	11.16476
497.856	11.06326
498.06	10.23263
498.263	10.25621
498.467	9.96535
498.67	10.53501
498.873	10.20824
499.077	9.45501
499.28	9.28584
499.483	9.49947
499.686	9.5242
499.89	9.16542
500.093	9.03561
500.296	8.28511
500.499	9.0371
500.703	8.35802
500.906	8.51874
501.109	9.18588
501.312	8.45792
501.515	8.3683
501.719	8.6444
501.922	9.06517
502.125	8.50766
502.328	8.33645
502.531	7.87893
502.734	8.4299
502.937	7.65166
503.14	8.41447
503.343	7.99269
503.546	8.28981
503.749	8.22676
503.952	8.69324
504.155	8.14368
504.358	8.78975
504.561	8.57973
504.764	8.00139
504.967	8.48873
505.17	8.49481
505.373	9.23109
505.576	8.44023
505.778	8.79989
505.981	8.18653
506.184	9.07411
506.387	7.72636
506.59	9.27192
506.793	9.06961
506.995	8.76115
507.198	7.634
507.401	8.66642
507.604	9.01319
507.806	8.60479
508.009	8.81631
508.212	9.60959
508.414	9.17664
508.617	9.38132
508.82	9.61061
509.022	10.37324
509.225	9.79857
509.427	8.98378
509.63	10.25101
509.833	9.47486
510.035	9.39481
510.238	8.6946
510.44	9.87188
510.643	8.31843
510.845	10.25369
511.048	9.49022
511.25	9.0539
511.453	9.24768
511.655	9.55333
511.858	9.20002
512.06	9.71003
512.262	9.30258
512.465	9.65889
512.667	8.95401
512.869	8.50987
513.072	9.11656
513.274	9.22486
513.476	8.8967
513.679	8.91442
513.881	8.1251
514.083	9.39536
514.286	8.21113
514.488	8.32842
514.69	8.07522
514.892	8.01565
515.094	8.89703
515.297	8.20956
515.499	8.63352
515.701	8.17616
515.903	9.32331
516.105	9.3109
516.307	8.87173
516.509	7.73849
516.711	8.12359
516.913	8.80229
517.116	9.17689
517.318	9.4136
517.52	10.70404
517.722	11.01981
517.924	10.60568
518.126	11.82886
518.328	11.50773
518.529	12.30825
518.731	12.96674
518.933	11.54781
519.135	11.76644
519.337	12.12201
519.539	11.44159
519.741	9.981
519.943	10.08515
520.145	9.5323
520.346	9.76859
520.548	8.79876
520.75	9.07162
520.952	8.51439
521.153	8.77144
521.355	8.87923
521.557	8.07798
521.759	8.60706
521.96	8.71861
522.162	8.11445
522.364	9.11535
522.565	8.22123
522.767	8.93353
522.969	9.20901
523.17	8.85018
523.372	8.86216
523.573	8.34625
523.775	8.56497
523.977	8.42777
524.178	9.79229
524.38	9.34511
524.581	10.48618
524.783	10.65318
524.984	11.68543
525.186	11.90927
525.387	12.74558
525.589	12.7928
525.79	12.7634
525.991	12.73691
526.193	13.47953
526.394	12.64174
526.596	13.77408
526.797	13.97556
526.998	13.80977
527.2	14.53228
527.401	16.90781
527.602	18.37077
527.803	21.68745
528.005	23.0775
528.206	24.9368
528.407	26.26277
528.608	26.29091
528.81	26.53531
529.011	25.72414
529.212	26.28981
529.413	24.61258
529.614	22.73887
529.815	21.23861
530.017	19.39618
530.218	17.08188
530.419	15.25187
530.62	14.6115
530.821	13.9436
531.022	12.5973
531.223	13.48669
531.424	13.0548
531.625	13.31335
531.826	13.20826
532.027	14.01765
532.228	15.60196
532.429	15.80395
532.63	16.54203
532.831	17.67581
533.032	17.95253
533.233	18.73724
533.433	18.37766
533.634	18.49208
533.835	17.39636
534.036	16.60361
534.237	15.78541
534.438	14.63957
534.638	13.11047
534.839	12.40422
535.04	12.21392
535.241	11.39629
535.441	12.64204
535.642	12.20174
535.843	11.83378
536.043	12.15504
536.244	12.63828
536.445	12.80246
536.645	13.88139
536.846	13.23925
537.047	13.64851
537.247	12.29173
537.448	12.08053
537.648	11.64915
537.849	10.92894
538.049	10.26573
538.25	9.97749
538.451	9.61183
538.651	8.72365
538.851	9.36253
539.052	9.76673
539.252	9.83166
539.453	9.70977
539.653	10.45881
539.854	11.12477
540.054	12.24096
540.254	14.41443
540.455	15.82179
540.655	16.42002
540.855	18.33284
541.056	19.51155
541.256	19.47672
541.456	20.57429
541.657	19.86038
541.857	20.43302
542.057	18.6773
542.257	17.85003
542.458	17.95786
542.658	16.91585
542.858	14.89248
543.058	14.98485
543.258	14.07225
543.458	12.41869
543.659	11.84452
543.859	12.60519
544.059	12.07353
544.259	11.12657
544.459	11.1628
544.659	10.31243
544.859	10.59054
545.059	9.95062
545.259	10.46014
545.459	10.21998
545.659	10.84579
545.859	10.39248
546.059	10.79219
546.259	10.39131
546.459	10.28113
546.659	10.28781
546.859	10.973
547.059	10.71281
547.258	10.56643
547.458	10.05278
547.658	8.98032
547.858	8.58266
548.058	9.08997
548.258	8.83371
548.457	8.48546
548.657	10.19174
548.857	8.80239
549.057	9.23874
549.256	9.24365
549.456	8.69002
549.656	7.83225
549.855	9.59917
550.055	8.63485
550.255	9.8383
550.454	9.10736
550.654	9.30124
550.853	9.60174
551.053	9.21513
551.253	9.07778
551.452	9.00482
551.652	8.33499
551.851	7.9642
552.051	8.81399
552.25	8.51878
552.45	8.41505
552.649	8.78165
552.849	8.46109
553.048	8.82069
553.248	9.32088
553.447	8.4047
553.646	9.39782
553.846	9.60467
554.045	9.5157
554.244	8.26555
554.444	10.02342
554.643	8.47652
554.842	9.7187
555.042	10.16679
555.241	8.49681
555.44	8.28378
555.64	9.15027
555.839	9.94958
556.038	9.22346
556.237	8.52767
556.436	8.89575
556.636	9.05421
556.835	8.46774
557.034	9.9255
557.233	8.89311
557.432	8.21364
557.631	9.57882
557.83	8.72467
558.029	8.63113
558.228	8.5291
558.427	8.3213
558.626	9.21136
558.825	8.31455
559.024	8.85262
559.223	9.94419
559.422	8.75589
559.621	9.02478
559.82	7.23083
560.019	8.91125
560.218	8.69053
560.417	7.3104
560.616	8.63906
560.815	10.82558
561.014	7.96695
561.212	9.74691
561.411	9.02539
561.61	7.88983
561.809	8.66939
562.008	9.70089
562.206	8.80578
562.405	9.28458
562.604	8.83138
562.803	8.9636
563.001	8.66895
563.2	8.05575
563.399	9.14018
563.597	8.0821
563.796	8.85353
563.995	8.11536
564.193	9.26237
564.392	8.5063
564.59	10.16519
564.789	7.57405
564.988	8.52027
565.186	8.89914
565.385	8.55113
565.583	8.51638
565.782	8.67759
565.98	8.61695
566.179	8.72377
566.377	8.26529
566.575	8.42424
566.774	9.56287
566.972	9.34296
567.171	10.24183
567.369	9.5744
567.567	9.02782
567.766	9.10326
567.964	7.66668
568.162	9.12624
568.361	9.45036
568.559	8.73319
568.757	9.189
568.956	8.85908
569.154	8.74203
569.352	9.20335
569.55	8.86139
569.748	8.79826
569.947	8.3088
570.145	8.2571
570.343	8.13551
570.541	9.35785
570.739	8.00363
570.937	8.8148
571.135	9.06403
571.333	9.80305
571.532	9.66884
571.73	8.95243
571.928	9.51938
572.126	9.07485
572.324	8.65744
572.522	9.62463
572.72	10.55784
572.918	8.80622
573.116	9.12836
573.313	8.94779
573.511	8.81443
573.709	8.65462
573.907	9.33939
574.105	8.65758
574.303	7.90493
574.501	7.95789
574.699	9.16824
574.896	9.07455
575.094	9.26949
575.292	8.00031
575.49	9.45051
575.688	8.80503
575.885	9.80679
576.083	10.08092
576.281	9.29707
576.478	8.55302
576.676	9.44536
576.874	8.10629
577.071	8.78016
577.269	10.42526
577.467	8.77095
577.664	8.82074
577.862	9.49025
578.059	8.37528
578.257	9.59332
578.455	8.68269
578.652	8.91862
578.85	7.68708
579.047	8.9874
579.245	8.79793
579.442	8.80075
579.64	8.85838
579.837	7.67597
580.034	10.64831
580.232	8.68247
580.429	7.86978
580.627	9.16383
580.824	9.82503
581.021	9.19225
581.219	8.49547
581.416	8.14543
581.613	10.04989
581.811	9.78675
582.008	8.35703
582.205	9.58503
582.402	8.96572
582.6	9.86235
582.797	9.25725
582.994	9.26419
583.191	9.53111
583.388	8.94327
583.586	9.56192
583.783	9.65772
583.98	8.30835
584.177	9.13625
584.374	6.90111
584.571	8.67934
584.768	8.75335
584.965	8.54402
585.162	9.3318
585.359	10.19856
585.556	8.90437
585.753	9.15945
585.95	7.88294
586.147	8.28753
586.344	9.24495
586.541	8.60918
586.738	8.0043
586.935	8.87983
587.132	8.38162
587.329	9.70334
587.526	8.8492
587.722	12.44323
587.919	7.76952
588.116	9.29966
588.313	9.96249
588.51	10.60806
588.706	8.66264
588.903	9.40867
589.1	9.73413
589.297	11.00763
589.493	8.8632
589.69	9.40399
589.887	8.54286
590.083	8.10172
590.28	8.36812
590.477	9.73614
590.673	9.65054
590.87	10.1385
591.067	8.83655
591.263	9.37605
591.46	9.34778
591.656	8.79038
591.853	10.08374
592.049	8.23771
592.246	8.68283
592.442	9.975
592.639	9.87476
592.835	8.07191
593.032	9.22109
593.228	7.78458
593.425	7.84966
593.621	7.74646
593.817	9.10367
594.014	8.38774
594.21	8.93423
594.406	9.65516
594.603	9.40326
594.799	8.55087
594.995	7.3297
595.192	9.85827
595.388	8.74227
595.584	8.68117
595.78	7.78064
595.977	10.27785
596.173	10.10683
596.369	8.66588
596.565	8.37098
596.761	7.89915
596.957	9.8716
597.154	8.47002
597.35	8.59029
597.546	8.39761
597.742	9.46028
597.938	9.22571
598.134	8.44761
598.33	9.26255
598.526	10.39923
598.722	9.46344
598.918	10.66054
599.114	9.38946
599.31	8.34721
599.506	9.0742
599.702	8.26447
599.898	9.22255
600.094	9.82439
600.29	9.69433
600.485	9.77341
600.681	8.49891
600.877	10.34356
601.073	9.18125
601.269	10.41638
601.465	10.11572
601.66	8.23312
601.856	7.44791
602.052	9.96995
602.248	8.62824
602.443	7.43987
602.639	7.9082
602.835	8.15154
603.03	8.23788
603.226	9.63114
603.422	8.15364
603.617	8.69227
603.813	8.53376
604.009	8.57049
604.204	9.74746
604.4	7.77307
604.595	9.683
604.791	8.22376
604.986	9.1525
605.182	8.41595
605.377	8.73769
605.573	8.67527
605.768	9.12022
605.964	9.53364
606.159	9.68606
606.355	10.27844
606.55	8.87523
606.746	10.02583
606.941	8.81071
607.136	10.77338
607.332	11.49874
607.527	7.93612
607.722	9.22008
607.918	9.08193
608.113	8.3489
608.308	9.51067
608.503	9.35
608.699	9.2982
608.894	9.35449
609.089	8.26495
609.284	9.11905
609.479	8.64718
609.675	9.65499
609.87	8.80182
610.065	9.83062
610.26	10.0215
610.455	9.92492
610.65	9.06181
610.845	9.31274
611.04	10.16724
611.235	9.10248
611.43	8.82833
611.625	8.06752
611.82	10.57448
612.015	8.44162
612.21	10.53993
612.405	7.71009
612.6	10.81866
612.795	10.29453
612.99	9.82585
613.185	8.06873
613.38	8.47367
613.575	9.34381
613.77	11.85705
613.965	7.62197
614.159	8.46399
614.354	10.32056
614.549	10.03448
614.744	9.71465
614.938	8.32654
615.133	7.74871
615.328	10.43007
615.523	10.09144
615.717	12.02734
615.912	8.62059
616.107	9.139
616.301	8.97825
616.496	8.72526
616.691	10.91974
616.885	10.03231
617.08	12.0972
617.274	10.43751
617.469	11.43409
617.664	9.99658
617.858	8.69611
618.053	9.71438
618.247	9.05701
618.442	7.31721
618.636	10.86457
618.831	8.49402
619.025	8.66984
619.219	11.96815
619.414	5.97376
619.608	9.33469
619.803	8.68086
619.997	11.5377
620.191	10.57454
620.386	9.82647
620.58	9.39706
620.774	7.53062
620.969	8.01194
621.163	9.67287
621.357	8.26102
621.551	9.00764
621.746	9.42284
621.94	9.0836
622.134	12.98179
622.328	11.50917
622.522	7.62201
622.716	10.5123
622.911	10.44271
623.105	10.55304
623.299	9.98804
623.493	12.78839
623.687	8.77379
623.881	8.90608
624.075	9.9462
624.269	10.73527
624.463	7.44419
624.657	7.77942
624.851	9.76261
625.045	10.30416
625.239	10.42807
625.433	8.99442
625.627	10.88518
625.821	8.78891
626.015	8.66892
626.209	9.4936
626.403	8.10984
626.596	9.77477
626.79	10.24194
626.984	8.21427
627.178	9.93229
627.372	9.98602
627.565	10.32424
627.759	7.97297
627.953	8.21125
628.147	9.83483
628.34	10.29508
628.534	11.95478
628.728	9.31687
628.921	10.50881
629.115	10.29948
629.309	10.67542
629.502	10.59744
629.696	9.8687
629.89	9.4648
630.083	9.94027
630.277	10.13894
630.47	11.46851
630.664	9.25947
630.857	7.92605
631.051	10.50275
631.244	10.97166
631.438	10.67761
631.631	8.80124
631.825	11.11167
632.018	10.46797
632.212	11.91796
632.405	10.88071
632.598	8.92389
632.792	9.77961
632.985	7.02454
633.178	9.62964
633.372	9.48251
633.565	9.68593
633.758	11.20295
633.952	8.78378
634.145	8.62796
634.338	9.43223
634.531	9.18296
634.724	8.9717
634.918	9.75702
635.111	9.39133
635.304	9.19165
635.497	12.31051
635.69	10.05174
635.883	11.15399
636.077	8.36386
636.27	10.19027
636.463	9.93448
636.656	10.11392
636.849	9.28816
637.042	10.35545
637.235	11.56864
637.428	10.85994
637.621	10.33005
637.814	11.52775
638.007	11.87019
638.2	12.02058
638.393	12.66807
638.586	8.32392
638.778	9.44957
638.971	9.95588
639.164	12.26458
639.357	10.73313
639.55	11.80692
639.743	11.06211
639.935	10.96249
640.128	12.49459
640.321	11.13396
640.514	10.4052
640.707	13.38179
640.899	10.98162
641.092	8.09648
641.285	19.53244
641.477	7.24445
641.67	13.42896
641.863	11.91795
642.055	10.6975
642.248	10.27875
642.441	9.77341
642.633	10.61776
642.826	11.83295
643.018	12.04396
643.211	12.90161
643.403	12.41923
643.596	13.72347
643.788	12.97487
643.981	10.21566
644.173	11.73243
644.366	9.94926
644.558	8.20708
644.751	11.82457
644.943	8.45486
645.135	12.93536
645.328	13.09897
645.52	11.38671
645.712	12.18469
645.905	15.30006
646.097	9.00187
646.289	10.70788
646.482	13.4591
646.674	9.77408
646.866	12.38253
647.058	11.63842
647.251	8.98588
647.443	9.65372
647.635	10.55977
647.827	8.93088
648.019	9.33766
648.211	10.67126
648.404	10.97606
648.596	13.30792
648.788	10.97473
648.98	11.20303
649.172	11.41844
649.364	11.16579
649.556	8.13216
649.748	15.15421
649.94	9.09903
650.132	11.41124
650.324	9.53183
650.516	9.67259
650.708	12.65313
650.9	8.39741
651.092	10.24386
651.284	8.68506
651.476	9.30078
651.667	11.87894
651.859	12.51119
652.051	10.80675
652.243	11.00618
652.435	10.03198
652.627	11.34674
652.818	11.59934
653.01	8.34345
653.202	9.4477
653.394	10.26366
653.585	11.80999
653.777	17.95944
653.969	12.83298
654.16	12.70343
654.352	9.16909
654.544	10.77177
654.735	12.56083
654.927	11.28952
655.118	13.28012
655.31	12.33719
655.502	12.56934
655.693	10.00582
655.885	12.06895
656.076	13.33764
656.268	11.07447
656.459	13.15323
656.651	13.148
656.842	10.20275
657.034	9.81416
657.225	12.25899
657.416	13.31907
657.608	13.36049
657.799	10.72875
657.99	12.65515
658.182	9.92441
658.373	9.91629
658.564	11.78765
658.756	10.92338
658.947	10.63736
659.138	9.51901
659.33	9.9981
659.521	9.74555
659.712	10.62317
659.903	10.64889
660.094	10.05498
660.286	8.61167
660.477	14.03764
660.668	12.01993
660.859	11.09933
661.05	9.05551
661.241	12.26779
661.432	12.19899
661.623	10.70234
661.814	10.72703
662.006	8.5026
662.197	12.06417
662.388	13.10136
662.579	11.63175
662.77	13.85038
662.96	16.32149
663.151	13.26413
663.342	8.27743
663.533	12.92877
663.724	11.48757
663.915	14.54789
664.106	11.70136
664.297	15.01506
664.488	12.89359
664.678	10.70541
664.869	12.79747
665.06	13.41846
665.251	12.53534
665.442	12.62249
665.632	10.08142
665.823	15.11243
666.014	6.25512
666.204	12.93759
666.395	14.38495
666.586	16.03348
666.776	13.32442
666.967	14.93841
667.158	11.89958
667.348	14.64144
667.539	9.79458
667.729	13.30927
667.92	10.61449
668.111	13.781
668.301	12.76097
668.492	11.3663
668.682	11.82483
668.873	11.59166
669.063	9.78603
669.253	12.30973
669.444	13.37088
669.634	11.66084
669.825	15.6123
670.015	13.7883
670.206	10.7676
670.396	15.96468
670.586	11.80391
670.777	13.18885
670.967	8.19506
671.157	11.80341
671.347	11.22036
671.538	15.16845
671.728	12.75762
671.918	16.10905
672.108	14.6354
672.299	12.14691
672.489	13.0045
672.679	11.189
672.869	13.83306
673.059	15.65904
673.249	13.46709
673.44	10.47293
673.63	12.16444
673.82	14.2207
674.01	10.77732
674.2	13.42701
674.39	18.65195
674.58	13.38763
674.77	12.63731
674.96	12.36282
675.15	20.82215
675.34	14.95326
675.53	12.4419
675.72	12.15817
675.91	9.8453
676.099	16.45805
676.289	16.78978
676.479	14.81499
676.669	11.78108
676.859	13.49257
677.049	10.77542
677.238	12.63584
677.428	16.19112
677.618	12.98807
677.808	14.34565
677.997	13.90892
678.187	10.306
678.377	12.78736
678.567	11.75982
678.756	11.49978
678.946	12.04147
679.136	9.72953
679.325	10.86003
679.515	10.65017
679.704	9.88671
679.894	13.26314
680.084	12.57536
680.273	14.82375
680.463	10.93025
680.652	10.71881
680.842	12.19877
681.031	14.12155
681.221	10.92691
681.41	13.76187
681.6	12.04038
681.789	14.20845
681.978	15.55784
682.168	13.16161
682.357	13.47554
682.547	14.62474
682.736	13.53373
682.925	15.86197
683.115	15.47114
683.304	14.97952
683.493	14.15786
683.682	14.19219
683.872	13.93491
684.061	16.32308
684.25	14.47768
684.439	17.45335
684.629	15.03588
684.818	21.30975
685.007	13.31795
685.196	12.82917
685.385	16.83193
685.574	14.41512
685.763	14.99018
685.952	13.79522
686.142	11.13188
686.331	16.8001
686.52	10.10873
686.709	17.09982
686.898	17.24665
687.087	15.51556
687.276	17.76241
687.465	15.77647
687.654	13.78769
687.842	17.33431
688.031	11.20505
688.22	16.84256
688.409	14.21524
688.598	14.70087
688.787	20.19361
688.976	14.47185
689.165	18.1497
689.353	13.21948
689.542	14.99227
689.731	15.59024
689.92	18.84001
690.108	16.52461
690.297	13.5212
690.486	14.77279
690.675	16.20487
690.863	18.5841
691.052	18.19413
691.241	15.6597
691.429	15.27114
691.618	18.49404
691.806	11.8937
691.995	13.72315
692.184	14.90008
692.372	13.31779
692.561	15.07269
692.749	14.5809
692.938	20.29894
693.126	16.17577
693.315	13.61384
693.503	16.50835
693.692	16.56278
693.88	17.63907
694.068	20.69487
694.257	14.83249
694.445	15.99068
694.634	9.98433
694.822	18.11502
695.01	17.9017
695.199	17.86236
695.387	19.56124
695.575	18.57311
695.763	15.37175
695.952	14.07774
696.14	11.18099
696.328	13.58404
696.516	14.90058
696.705	15.69948
696.893	15.34857
697.081	10.68346
697.269	15.95774
697.457	12.14424
697.645	11.59389
697.833	16.1389
698.021	12.44682
698.21	12.89726
698.398	13.79886
698.586	11.64665
698.774	11.21977
698.962	13.32356
699.15	11.86287
699.338	10.80829
699.526	15.27788
699.714	12.78199
699.901	13.33382
700.089	17.02302
700.277	13.02404
700.465	14.28429
700.653	16.62181
700.841	16.3727
701.029	13.14698
701.217	17.89732
701.404	15.2152
701.592	19.67128
701.78	20.34421
701.968	14.33965
702.155	14.70869
702.343	11.97952
702.531	18.84319
702.718	16.24204
702.906	15.11811
703.094	14.1357
703.281	18.72618
703.469	15.56213
703.657	19.14435
703.844	25.06467
704.032	20.42271
704.219	14.148
704.407	17.23988
704.595	19.98152
704.782	16.37742
704.97	14.98039
705.157	15.14819
705.345	21.01014
705.532	24.03009
705.719	17.30113
705.907	20.72793
706.094	17.05023
706.282	21.29826
706.469	15.28386
706.656	16.87548
706.844	16.02004
707.031	19.41557
707.218	17.48202
707.406	21.83345
707.593	19.28716
707.78	18.5786
707.968	16.25599
708.155	14.19638
708.342	18.77902
708.529	18.26217
708.716	17.29854
708.904	22.30832
709.091	18.96132
709.278	13.64893
709.465	23.21581
709.652	23.30419
709.839	21.30479
710.026	17.97319
710.213	12.47578
710.4	18.63293
710.587	19.87814
710.774	21.20609
710.961	20.56433
711.148	17.58874
711.335	21.72681
711.522	17.07234
711.709	18.58617
711.896	24.68155
712.083	20.55768
712.27	14.56652
712.457	18.36297
712.644	13.28051
712.831	24.44698
713.017	18.18142
713.204	20.04914
713.391	16.33027
713.578	22.16095
713.765	21.93393
713.951	19.61983
714.138	28.72817
714.325	20.75236
714.512	17.76994
714.698	15.58074
714.885	23.6043
715.072	19.34863
715.258	19.24604
715.445	16.34083
715.631	22.99184
715.818	10.39898
716.005	16.43586
716.191	20.25805
716.378	17.81281
716.564	22.53762
716.751	15.55311
716.937	16.92245
717.124	22.26925
717.31	16.35531
717.497	23.51208
717.683	16.36537
717.869	28.17704
718.056	17.8044
718.242	20.81728
718.429	18.80338
718.615	15.24136
718.801	19.67238
718.988	22.51448
719.174	21.20549
719.36	19.23309
719.547	24.00928
719.733	20.52828
719.919	20.82905
720.105	22.45844
720.291	19.39271
720.478	19.90483
720.664	19.25249
720.85	18.03765
721.036	31.05964
721.222	24.97315
721.408	19.96485
721.595	28.02576
721.781	26.39375
721.967	23.79573
722.153	26.42504
722.339	23.12758
722.525	21.7171
722.711	16.27812
722.897	15.38605
723.083	18.81772
723.269	24.68173
723.455	30.16114
723.641	31.52708
723.827	20.81347
724.012	22.36327
724.198	18.71768
724.384	25.62369
724.57	22.48388
724.756	15.01411
724.942	13.32856
725.127	23.56088
725.313	26.63306
725.499	26.35655
725.685	28.14412
725.87	22.27426
726.056	17.58102
726.242	26.39343
726.428	14.18346
726.613	24.89672
726.799	19.56322
726.985	17.0319
727.17	14.53592
727.356	26.77934
727.541	17.5284
727.727	20.49047
727.913	24.32238
728.098	19.16189
728.284	23.91452
728.469	15.68957
728.655	17.55894
728.84	23.41505
729.026	24.76922
729.211	24.44095
729.397	22.82581
729.582	23.22831
729.767	20.87348
729.953	22.19135
730.138	24.58662
730.323	12.32576
730.509	17.02614
730.694	28.02897
730.879	22.45233
731.065	21.70301
731.25	30.74081
731.435	24.31299
731.621	14.83301
731.806	18.67451
731.991	22.1257
732.176	14.91615
732.361	26.28933
732.547	21.56381
732.732	15.17
732.917	31.08033
733.102	17.03279
733.287	18.08044
733.472	21.66867
733.657	21.23554
733.842	15.17951
734.027	20.50016
734.212	21.54574
734.397	18.13077
734.582	22.14985
734.767	25.26038
734.952	27.75485
735.137	11.44616
735.322	27.68419
735.507	22.72271
735.692	23.05669
735.877	31.98372
736.062	28.93031
736.247	24.02548
736.431	21.55444
736.616	27.11552
736.801	22.60105
736.986	22.44069
737.171	18.31027
737.355	16.63302
737.54	27.13705
737.725	21.56126
737.909	35.01382
738.094	19.24287
738.279	26.47457
738.463	21.01485
738.648	25.57846
738.833	23.62948
739.017	30.30457
739.202	20.08161
739.386	22.09172
739.571	15.48761
739.756	24.96488
739.94	22.60207
740.125	26.98152
740.309	18.1978
740.494	26.61658
740.678	23.28323
740.863	24.94616
741.047	24.03851
741.231	28.02291
741.416	18.03894
741.6	31.05168
741.785	19.51925
741.969	26.63843
742.153	28.42653
742.338	13.46354
742.522	22.94444
742.706	25.74697
742.89	17.22412
743.075	23.08182
743.259	29.71343
743.443	26.65467
743.627	29.06718
743.812	33.98494
743.996	15.60371
744.18	22.16298
744.364	20.43294
744.548	36.13048
744.732	21.68148
744.916	25.99927
745.1	25.87343
745.285	22.21139
745.469	25.5112
745.653	31.63899
745.837	16.31706
746.021	35.66626
746.205	29.79057
746.389	24.18098
746.573	22.10875
746.757	31.5626
746.94	21.57425
747.124	29.24643
747.308	17.98067
747.492	29.35319
747.676	20.05814
747.86	36.59419
748.044	20.80044
748.227	14.40589
748.411	43.16277
748.595	25.37666
748.779	19.02466
748.963	24.94098
749.146	24.55799
749.33	19.99112
749.514	18.63887
749.697	29.6187
749.881	20.63772
750.065	18.89488
750.248	24.52145
750.432	36.82471
750.616	23.08579
750.799	17.50203
750.983	34.65128
751.166	38.84335
751.35	16.65887
751.533	27.66396
751.717	29.2535
751.9	33.17784
752.084	22.6491
752.267	18.95032
752.451	19.85823
752.634	24.00525
752.818	28.10537
753.001	28.353
753.184	29.49586
753.368	26.42375
753.551	8.1104
753.734	19.86895
753.918	34.52323
754.101	20.35172
754.284	29.02559
754.467	21.65274
754.651	20.01342
754.834	20.10103
755.017	31.04378
755.2	28.69811
755.384	18.12956
755.567	29.49789
755.75	29.85121
755.933	23.18513
756.116	25.77432
756.299	22.5397
756.482	19.57837
756.665	28.17873
756.848	23.75219
757.032	26.39839
757.215	16.50789
757.398	20.00964
757.581	19.5081
757.764	41.1974
757.947	24.32871
758.129	32.46408
758.312	9.78122
758.495	23.27277
758.678	23.89657
758.861	23.16137
759.044	35.60457
759.227	19.77454
759.41	20.3874
759.592	26.82042
759.775	23.1871
759.958	30.76031
760.141	17.16429
760.324	38.30735
760.506	32.81863
760.689	30.28156
760.872	39.23339
761.054	28.16457
761.237	23.08312
761.42	26.89362
761.602	29.63683
761.785	26.53518
761.968	30.38814
762.15	35.22988
762.333	23.74448
762.515	25.94074
762.698	21.24989
762.88	28.59748
763.063	25.88554
763.245	28.43417
763.428	19.08333
763.61	20.54284
763.793	16.50324
763.975	24.52997
764.158	21.53884
764.34	20.4737
764.522	18.31587
764.705	21.98453
764.887	30.22142
765.069	15.8167
765.252	27.76791
765.434	28.39095
765.616	24.88488
765.799	20.53924
765.981	29.29921
766.163	18.78218
766.345	30.21784
766.528	21.11596
766.71	12.56208
766.892	25.40478
767.074	31.92331
767.256	23.51072
767.438	36.01569
767.62	26.68208
767.802	38.70843
767.985	29.39243
768.167	38.81294
768.349	23.06276
768.531	29.26679
768.713	28.8884
768.895	32.1298
769.077	28.54633
769.259	42.01995
769.441	59.89741
769.623	32.7609
769.804	37.8102
769.986	35.09232
770.168	43.3837
770.35	51.36933
770.532	36.81715
770.714	41.10719
770.896	42.6014
771.077	20.68039
771.259	45.04203
771.441	34.58359
771.623	47.27618
771.804	57.50293
771.986	19.04951
772.168	28.19887
772.35	43.71273
772.531	59.21868
772.713	34.87635
772.894	46.55173
773.076	33.26616
773.258	30.16545
773.439	45.5504
773.621	50.60069
773.802	26.18876
773.984	28.88715
774.166	37.72657
774.347	49.77951
774.529	46.26609
774.71	19.76565
774.891	34.043
775.073	32.84358
775.254	49.61327
775.436	29.09713
775.617	54.26116
775.799	30.75849
775.98	50.66121
776.161	53.76713
776.343	52.60849
776.524	33.58493
776.705	31.22322
776.886	19.92559
777.068	39.66202
777.249	61.37691
777.43	55.69816
777.611	24.67434
777.793	31.5219
777.974	50.24872
778.155	30.05304
778.336	28.24617
778.517	58.53762
778.698	29.19826
778.879	18.88261
779.061	12.1871
779.242	40.70665
779.423	41.80007
779.604	30.54624
779.785	34.59668
779.966	37.4036
780.147	45.85191
780.328	48.06166
780.509	67.38578
780.69	43.63868
780.871	29.0908
781.051	22.38791
781.232	39.66142
781.413	37.93409
781.594	33.23844
781.775	31.624
781.956	29.84555
782.137	18.74405
782.317	29.16113
782.498	40.17851
782.679	38.14098
782.86	37.65781
783.04	28.99158
783.221	39.65326
783.402	56.26862
783.583	37.05636
783.763	42.87838
783.944	31.90063
784.124	22.20647
784.305	53.44688
784.486	42.10796
784.666	33.86772
784.847	21.91571
785.027	62.52374
785.208	29.31426
785.388	28.17768
785.569	30.80054
785.749	33.21223
785.93	31.51134
786.11	21.70878
786.291	41.88299
786.471	36.80242
786.652	45.25772
786.832	35.60816
787.012	39.84763
787.193	25.62479
787.373	37.84155
787.553	32.00771
787.734	39.00929
787.914	31.5478
788.094	41.26889
788.275	40.12589
788.455	32.43791
788.635	23.61774
788.815	37.74035
788.995	25.23024
789.176	21.19335
789.356	28.50781
789.536	32.97771
789.716	42.26944
789.896	29.22369
790.076	31.12948
790.256	37.55674
790.436	15.07503
790.616	27.30706
790.796	37.56494
790.976	31.62368
791.156	28.85016
791.336	42.55828
791.516	39.78115
791.696	32.93751
791.876	22.89649
792.056	37.76841
792.236	44.23291
792.416	42.81596
792.596	39.60537
792.776	40.81227
792.956	40.42125
793.135	51.14726
793.315	25.98613
793.495	47.13849
793.675	43.25591
793.854	43.99822
794.034	46.93976
794.214	25.16762
794.394	42.94148
794.573	48.80749
794.753	35.75697
794.933	27.18134
795.112	39.17219
795.292	44.60481
795.472	56.17923
795.651	23.90672
795.831	35.64167
796.01	32.92672
796.19	33.82808
796.369	34.43493
796.549	41.04079
796.728	33.6042
796.908	22.39597
797.087	24.90504
797.267	33.02662
797.446	24.38713
797.626	41.14393
797.805	40.92552
797.984	28.25897
798.164	42.73496
798.343	26.89555
798.522	38.78238
798.702	35.83083
798.881	23.11093
799.06	33.32582
799.239	17.62767
799.419	26.71686
799.598	51.3936
799.777	41.13457
799.956	48.88113
800.136	31.25598
800.315	28.02231
800.494	38.99067
800.673	47.69344
800.852	42.8452
801.031	45.97903
801.21	40.82267
801.389	31.5771
801.568	36.85287
801.747	55.10747
801.926	37.11727
802.105	52.58439
802.284	32.47934
802.463	51.20023
802.642	37.87014
802.821	38.59929
803	49.7062
803.179	44.74379
803.358	50.21411
803.537	30.85589
803.716	36.7246
803.895	30.2391
804.073	34.22444
804.252	29.78664
804.431	40.16477
804.61	33.43681
804.789	47.88341
804.967	30.82165
805.146	30.22384
805.325	55.87262
805.503	41.57764
805.682	21.97956
805.861	65.1004
806.039	48.5392
806.218	31.38179
806.397	38.55802
806.575	37.12134
806.754	39.4389
806.932	28.29305
807.111	54.55309
807.289	43.10703
807.468	38.26965
807.646	47.51681
807.825	43.84423
808.003	40.65563
808.182	46.16221
808.36	38.55878
808.539	28.27834
808.717	52.32013
808.895	28.46325
809.074	40.17755
809.252	37.60859
809.43	44.05852
809.609	48.81551
809.787	57.41187
809.965	34.9353
810.144	37.64304
810.322	35.83141
810.5	41.99282
810.678	36.51715
810.856	63.67637
811.035	49.11393
811.213	47.67722
811.391	53.6348
811.569	40.32495
811.747	71.59798
811.925	52.9659
812.103	29.40506
812.281	37.22145
812.459	58.01764
812.637	59.88123
812.816	49.45941
812.994	61.82293
813.171	49.74541
813.349	45.63612
813.527	52.12213
813.705	55.08121
813.883	69.52024
814.061	52.22912
814.239	61.43148
814.417	65.68239
814.595	44.83724
814.773	43.6751
814.95	41.97425
815.128	44.08506
815.306	33.05987
815.484	38.14541
815.662	30.0087
815.839	27.45507
816.017	30.61575
816.195	56.10772
816.372	35.6009
816.55	45.92124
816.728	55.22255
816.905	37.14194
817.083	60.77031
817.261	38.21283
817.438	63.38046
817.616	62.0846
817.793	33.95489
817.971	50.27372
818.148	46.81607
818.326	55.46876
818.503	43.33394
818.681	55.70303
818.858	33.41936
819.036	39.47939
819.213	42.49631
819.391	31.48115
819.568	29.80281
819.745	29.23531
819.923	47.47031
820.1	34.29028
820.277	29.37443
820.455	34.2283
820.632	34.64279
820.809	34.8837
820.986	25.15953
821.164	20.67908
821.341	18.31915
821.518	23.8648
821.695	18.40115
821.872	17.88986
822.05	16.12298
822.227	13.09366
822.404	14.03935
822.581	16.40474
822.758	13.86877
822.935	14.0426
823.112	16.16836
823.289	13.60855
823.466	16.68781
823.643	15.80817
823.82	18.75547
823.997	17.42102
824.174	20.25586
824.351	24.7414
824.528	23.98525
824.705	21.64874
824.882	24.48441
825.059	30.80436
825.236	22.19005
825.412	22.31911
825.589	27.7745
825.766	35.73896
825.943	24.32623
826.12	28.39659
826.296	19.58205
826.473	23.87302
826.65	24.02689
826.827	29.31286
827.003	20.39554
827.18	22.06091
827.357	25.78648
827.533	23.32954
827.71	13.78568
827.887	20.70002
828.063	23.11072
828.24	20.62874
828.416	27.84265
828.593	22.94604
828.769	30.88261
828.946	34.1037
829.122	35.15449
829.299	32.08882
829.475	21.10518
829.652	33.17651
829.828	52.35534
830.005	33.45848
830.181	43.40939
830.357	30.98462
830.534	46.62186
830.71	35.70993
830.886	43.88511
831.063	46.03778
831.239	54.29997
831.415	26.20565
831.592	54.1524
831.768	36.12335
831.944	30.8382
832.12	52.31706
832.296	48.15471
832.473	44.96017
832.649	34.61925
832.825	43.07153
833.001	25.95565
833.177	39.4026
833.353	35.74339
833.529	21.06373
833.705	29.46857
833.881	23.32559
834.058	22.95926
834.234	24.73831
834.41	24.21863
834.586	19.98849
834.761	24.66068
834.937	26.12092
835.113	27.22493
835.289	24.53841
835.465	30.42608
835.641	25.19391
835.817	29.5579
835.993	48.4212
836.169	26.35756
836.344	37.86072
836.52	43.23174
836.696	41.50473
836.872	30.72367
837.048	76.27436
837.223	34.86877
837.399	62.729
837.575	52.1236
837.75	48.10691
837.926	64.33247
838.102	98.92223
838.277	77.08608
838.453	95.22186
838.628	92.9011
838.804	43.30905
838.98	90.06938
839.155	45.29208
839.331	64.29338
839.506	45.97458
839.682	49.43447
839.857	56.79631
840.033	64.45365
840.208	35.43635
840.384	20.29849
840.559	36.38121
840.734	53.31289
840.91	75.61955
841.085	47.3162
841.26	44.74247
841.436	42.08981
841.611	43.74628
841.786	58.91734
841.962	79.46534
842.137	51.45188
842.312	34.26891
842.487	46.90464
842.663	34.55401
842.838	45.7517
843.013	137.90781
843.188	72.32051
843.363	57.20053
843.538	116.96184
843.714	114.48366
843.889	124.56077
844.064	119.06424
844.239	103.0888
844.414	132.15639
844.589	83.38157
844.764	136.76806
844.939	137.23106
845.114	167.12433
845.289	164.77945
845.464	174.7051
845.639	136.11782
845.814	73.29384
845.989	89.71758
846.163	96.36322
846.338	112.71328
846.513	155.06304
846.688	102.8775
846.863	105.25428
847.038	90.5382
847.212	109.65111
847.387	102.41961
847.562	115.25042
847.737	138.14607
847.911	63.0364
848.086	72.23788
848.261	231.26933
848.435	96.18699
848.61	139.77435
848.785	71.02702
848.959	135.8552
849.134	181.12353
849.308	223.24632
849.483	111.12317
849.658	162.63738
849.832	94.05774
850.007	80.69153
850.181	228.20645
850.356	83.92404
850.53	193.53939
850.705	66.94376
850.879	43.13275
851.053	99.36873
851.228	91.64967
851.402	131.52585
851.577	161.07888
851.751	165.29663
851.925	113.3046
852.099	52.76382
852.274	81.69657
852.448	100.72144
852.622	137.55066
852.797	103.08618
852.971	109.4793
853.145	115.58381
853.319	236.04659
853.493	177.16796
853.668	88.6013
853.842	199.29782
854.016	160.29095
854.19	191.70573
854.364	120.11497
854.538	124.23051
854.712	159.26531
854.886	112.9845
855.06	96.03575
855.234	41.67021
855.408	183.98309
855.582	158.9472
855.756	165.6932
855.93	196.83269
856.104	123.76566
856.278	163.85741
856.452	103.57559
856.626	134.47417
856.8	227.77425
856.973	133.49839
857.147	123.02971
857.321	135.86117
857.495	154.56039
857.669	113.01425
857.842	100.44969
858.016	161.51262
858.19	79.51552
858.364	290.67585
858.537	98.49533
858.711	124.55738
858.885	103.83828
859.058	91.85215
859.232	54.67855
859.405	60.99698
859.579	152.62023
859.753	128.9236
859.926	84.47671
860.1	56.02923
860.273	108.82841
860.447	182.36779
860.62	108.33341
860.794	205.50551
860.967	130.5963
861.141	164.86938
861.314	244.56269
861.487	127.75898
861.661	168.94
861.834	201.09694
862.008	161.48076
862.181	108.02171
862.354	118.36335
862.528	137.5548
862.701	95.48134
862.874	69.93439
863.047	101.2003
863.221	94.87999
863.394	56.35552
863.567	167.80393
863.74	43.59102
863.913	155.07234
864.087	135.66
864.26	151.68389
864.433	103.74338
864.606	213.01947
864.779	114.01291
864.952	55.62777
865.125	94.06757
865.298	115.67112
865.471	116.78095
865.644	185.92576
865.817	158.99685
865.99	150.20813
866.163	190.97899
866.336	94.95003
866.509	111.30837
866.682	93.32674
866.855	170.46678
867.028	70.32232
867.2	130.14967
867.373	55.97381
867.546	117.57271
867.719	210.45256
867.892	131.44723
868.064	82.34781
868.237	130.99516
868.41	109.52173
868.583	65.67235
868.755	68.75058
868.928	101.28823
869.101	229.83795
869.273	161.87367
869.446	132.50741
869.619	170.32081
869.791	102.98509
869.964	160.82206
870.136	153.62022
870.309	123.06399
870.481	114.93219
870.654	65.3861
870.826	128.58082
870.999	93.3383
871.171	135.26252
871.344	86.97725
871.516	115.21555
871.689	77.98851
871.861	122.29417
872.033	79.90144
872.206	100.36739
872.378	156.97162
872.55	97.00514
872.723	65.50471
872.895	98.56419
873.067	159.12414
873.24	160.26208
873.412	84.80941
873.584	104.58461
873.756	91.40496
873.928	118.85175
874.101	123.94977
874.273	129.16382
874.445	52.47849
874.617	66.08541
874.789	115.76573
874.961	95.81125
875.133	136.26097
875.305	106.17874
875.477	77.06059
875.649	59.48402
875.821	74.55795
875.993	169.61757
876.165	69.64256
876.337	118.34976
876.509	106.58458
876.681	113.3366
876.853	115.78162
877.025	116.57713
877.197	74.72629
877.369	68.71881
877.541	137.67257
877.712	36.58548
877.884	63.85394
878.056	116.72836
878.228	63.93397
878.4	124.39517
878.571	66.93703
878.743	47.17332
878.915	95.64114
879.086	64.36909
879.258	77.87304
879.43	65.7985
879.601	57.21321
879.773	64.34467
879.945	19.49154
880.116	29.07874
880.288	19.39936
880.459	21.56639
880.631	17.17686
880.802	20.04374
880.974	19.0827
881.145	13.87762
881.317	18.46284
881.488	14.35545
881.66	16.50075
881.831	15.02594
882.002	19.86923
882.174	15.40323
882.345	19.11057
882.517	11.43697
882.688	23.52573
882.859	19.18165
883.03	29.35645
883.202	29.39387
883.373	24.86984
883.544	24.44915
883.715	37.08552
883.887	32.62892
884.058	28.55877
884.229	38.20005
884.4	39.43419
884.571	44.95329
884.742	36.65586
884.914	39.84703
885.085	57.42556
885.256	75.48164
885.427	61.29202
885.598	73.34048
885.769	70.75538
885.94	74.27868
886.111	50.14946
886.282	85.91306
886.453	64.25447
886.624	52.07321
886.795	88.10737
886.966	72.32566
887.136	93.96044
887.307	64.24046
887.478	129.06979
887.649	100.92672
887.82	112.19384
887.991	91.58029
888.161	127.50145
888.332	110.54691
888.503	57.42589
888.674	156.02793
888.844	178.88948
889.015	131.75293
889.186	62.26424
889.356	167.57096
889.527	63.97269
889.698	224.92986
889.868	83.90123
890.039	122.80076
890.209	96.62904
890.38	130.23752
890.551	120.26607
890.721	173.21531
890.892	136.81734
891.062	94.79069
891.233	124.55189
891.403	89.59409
891.574	76.86521
891.744	98.00576
891.914	113.39846
892.085	103.1589
892.255	40.60489
892.425	153.73735
892.596	119.06629
892.766	117.30455
892.936	154.99623
893.107	128.63806
893.277	67.77144
893.447	56.16645
893.618	38.92063
893.788	77.86299
893.958	46.67665
894.128	44.05071
894.298	52.29515
894.468	66.28212
894.639	32.29518
894.809	23.67834
894.979	36.37145
895.149	43.17815
895.319	36.6771
895.489	51.46649
895.659	65.63488
895.829	42.18821
895.999	45.91261
896.169	34.89911
896.339	44.22654
896.509	83.47362
896.679	95.15761
896.849	95.62843
897.019	129.99426
897.189	98.03082
897.358	91.58021
897.528	129.3991
897.698	45.57278
897.868	118.66872
898.038	200.67853
898.208	206.47535
898.377	60.16068
898.547	196.6452
898.717	247.43892
898.886	127.28932
899.056	204.27924
899.226	268.98155
899.395	164.61773
899.565	240.42656
899.735	163.87462
899.904	236.44397
900.074	216.38259
900.244	87.34691
900.413	345.16592
900.583	74.77098
900.752	142.59992
900.922	260.92378
901.091	27.86796
901.261	194.02822
901.43	190.60707
901.599	165.59232
901.769	429.49653
901.938	233.83964
902.108	197.84363
902.277	285.6921
902.446	75.146
902.616	86.6642
902.785	106.0731
902.954	189.14306
903.124	121.33065
903.293	90.37386
903.462	55.63756
903.631	75.93643
903.801	59.56749
903.97	33.06459
904.139	51.36178
904.308	41.70939
904.477	34.46613
904.646	22.77309
904.816	28.75649
904.985	49.17492
905.154	72.10426
