Data from WindowProjectSample_Transmission__52__00052.txt Node

Date: Sat May 03 16:47:11 EDT 2025
User: jessi
Spectrometer: SR400872
Trigger mode: 0
Integration Time (sec): 5.000010E-1
Scans to average: 6
Electric dark correction enabled: true
Nonlinearity correction enabled: true
Boxcar width: 0
XAxis mode: Wavelengths
Number of Pixels in Spectrum: 3648
>>>>>Begin Spectral Data<<<<<
184.909	178779.54486
185.132	1601.21435
185.355	-2046.61022
185.578	3276.90837
185.801	-499.14915
186.024	5833.34573
186.247	1151.16009
186.47	903.16321
186.693	88.69837
186.916	159.58077
187.139	10206.33099
187.362	3358.18262
187.585	2683.25247
187.808	-1393.30393
188.031	288.93192
188.254	7844.39674
188.476	571.5123
188.699	-4356.92987
188.922	-368.72864
189.145	-4093.91885
189.368	-471.57845
189.591	-974.02362
189.813	-2261.85008
190.036	4961.81863
190.259	2853.39804
190.482	2237.02528
190.705	8562.25812
190.927	-1612.36164
191.15	-1658.37447
191.373	4647.71953
191.595	-2018.44226
191.818	9704.60978
192.041	-207.08614
192.263	-2376.47378
192.486	-1048.61271
192.709	8839.74663
192.931	-2819.1421
193.154	-1998.48747
193.377	4484.51969
193.599	6286.39038
193.822	-1993.97579
194.044	-1659.33797
194.267	585.50329
194.489	-17.34851
194.712	2083.84194
194.934	3460.65625
195.157	-6263.06887
195.379	1920.45136
195.602	5503.14529
195.824	5456.65106
196.047	-9669.70007
196.269	-10712.54045
196.492	-1158.91085
196.714	-4767.56159
196.936	4629.39928
197.159	-2494.40407
197.381	-486.72171
197.604	1024.33535
197.826	-3361.29009
198.048	-1264.83858
198.271	-12611.34476
198.493	9652.05262
198.715	-2509.20543
198.938	-780.65684
199.16	-3812.8946
199.382	1749.95786
199.604	-1709.99104
199.827	-1313.49176
200.049	-4538.81966
200.271	2589.95192
200.493	-24576.14228
200.715	5126.035
200.938	13223.31913
201.16	-226511.88789
201.382	-5989.69447
201.604	-993.10766
201.826	-6817.60887
202.048	-6956.70364
202.27	-4567.3321
202.492	-3751.85241
202.715	-1427.41878
202.937	-3695.80441
203.159	1077.25665
203.381	-87401.98287
203.603	-1051.4614
203.825	-1502.95782
204.047	2222.5803
204.269	-880.10388
204.491	7639.5041
204.713	-9064.31464
204.935	39908.51069
205.156	2004.64296
205.378	-7843.90664
205.6	-1617.45741
205.822	6251.93459
206.044	-311.9953
206.266	-2129.57088
206.488	795.5748
206.71	-516111.33908
206.932	-17039.38921
207.153	10947.7126
207.375	-2128.13161
207.597	15656.07968
207.819	1684.43682
208.041	6097.52359
208.262	649.70792
208.484	-1050.04385
208.706	-910.5838
208.927	12270.87981
209.149	-8136.238
209.371	-2719.53743
209.593	-2626.57304
209.814	-5116.23884
210.036	2316.7518
210.258	-676.35061
210.479	1618.97897
210.701	679.60237
210.922	3848.60839
211.144	-1416.49943
211.366	5745.64549
211.587	-747.14917
211.809	-3561.49638
212.03	-2361.53903
212.252	-465.84522
212.473	2713.74553
212.695	-807.70749
212.916	-919.03948
213.138	722.88884
213.359	-1256.52645
213.581	-3456.55956
213.802	-1377.87436
214.024	11739.55202
214.245	-1172.08904
214.466	-153.91013
214.688	-3588.4003
214.909	-797.14742
215.131	9097.25707
215.352	-1162.91101
215.573	-246788.81901
215.795	4410.61872
216.016	-4052.0998
216.237	-618.11434
216.459	-10501.41111
216.68	-1682.06143
216.901	-1662.23316
217.122	2050.84393
217.344	-9023.97265
217.565	-1628.80447
217.786	23849.37197
218.007	1006.41021
218.228	-3950.26414
218.45	-6069.69815
218.671	-1540.44803
218.892	888.00711
219.113	1761.88739
219.334	178.15929
219.555	-6047.0442
219.776	35632.21196
219.997	-6732.36613
220.219	-9367.81237
220.44	-4809.34967
220.661	-1240.66265
220.882	13134.82528
221.103	-862.62965
221.324	2400.24406
221.545	-6757.71138
221.766	-1463.51085
221.987	-432.95801
222.208	1870.47966
222.429	6617.86676
222.65	-164.77318
222.87	-699.69607
223.091	37664.92372
223.312	859.33731
223.533	-2121.18562
223.754	3612.76259
223.975	1679.14642
224.196	-760.49771
224.417	-29057.34503
224.637	-2220.03189
224.858	656.45078
225.079	3581.27596
225.3	1731.80822
225.521	3680.98191
225.741	-2359.33594
225.962	1579.43169
226.183	933.86855
226.404	1844.8895
226.624	1926.1053
226.845	1243.89401
227.066	2461.77989
227.286	664.25477
227.507	423.59932
227.728	392.77473
227.948	541.85113
228.169	136.45466
228.389	127.15159
228.61	54.62397
228.831	86.29235
229.051	10.25213
229.272	47.78514
229.492	62.01155
229.713	21.97481
229.933	50.75829
230.154	42.4792
230.374	64.25256
230.595	52.47838
230.815	34.83468
231.036	50.11812
231.256	-3.85835
231.477	112.06677
231.697	63.5309
231.917	65.06552
232.138	84.84716
232.358	176.93073
232.579	180.42869
232.799	34.66602
233.019	164.00726
233.24	231.18961
233.46	79.83312
233.68	108.30434
233.901	91.84663
234.121	53.21594
234.341	19.75015
234.561	-6.19682
234.782	32.94576
235.002	118.13984
235.222	0.28652
235.442	94.45205
235.662	49.95464
235.883	104.50764
236.103	89.39356
236.323	75.32318
236.543	52.13334
236.763	74.72057
236.983	69.42332
237.203	72.76025
237.423	104.04655
237.643	150.90838
237.864	137.3114
238.084	38.90823
238.304	49.9622
238.524	89.16632
238.744	66.29422
238.964	112.0874
239.184	106.54206
239.404	100.67205
239.624	54.0492
239.843	94.52676
240.063	52.43561
240.283	37.18058
240.503	36.76869
240.723	35.95251
240.943	19.25997
241.163	26.16771
241.383	19.26651
241.603	10.52462
241.822	13.17377
242.042	10.00196
242.262	10.76454
242.482	11.79669
242.702	13.90991
242.921	4.83286
243.141	9.41833
243.361	8.71846
243.581	12.25971
243.8	10.69182
244.02	6.9552
244.24	13.12491
244.459	14.29751
244.679	25.63203
244.899	17.7964
245.118	20.50105
245.338	16.83854
245.558	21.0997
245.777	11.61908
245.997	12.68371
246.216	13.68216
246.436	7.87054
246.655	5.68725
246.875	3.84755
247.094	7.77747
247.314	2.69919
247.533	4.45583
247.753	6.19609
247.972	4.58413
248.192	1.64928
248.411	2.63873
248.631	5.47485
248.85	6.77716
249.07	4.83067
249.289	8.60824
249.508	7.35257
249.728	10.04198
249.947	11.33169
250.166	11.91723
250.386	6.89627
250.605	9.48296
250.824	15.29711
251.044	10.52633
251.263	37.8696
251.482	19.70011
251.701	17.8497
251.921	0.26115
252.14	5.74776
252.359	5.78992
252.578	13.75908
252.798	5.06584
253.017	12.92677
253.236	6.99551
253.455	8.07804
253.674	16.53611
253.893	8.20499
254.112	12.19175
254.331	18.73377
254.551	13.73245
254.77	8.38221
254.989	22.12588
255.208	18.62644
255.427	20.66497
255.646	19.15992
255.865	31.98696
256.084	14.0615
256.303	15.2946
256.522	20.87676
256.741	6.12854
256.96	7.65356
257.179	12.72889
257.397	16.60205
257.616	9.40168
257.835	8.2094
258.054	20.64464
258.273	13.25557
258.492	14.81427
258.711	8.24089
258.93	4.05016
259.148	4.97533
259.367	5.6642
259.586	7.41723
259.805	3.09305
260.023	6.64887
260.242	5.05173
260.461	3.71709
260.68	2.13446
260.898	5.98923
261.117	2.21545
261.336	1.37712
261.554	5.07592
261.773	5.11671
261.992	0.75747
262.21	5.28469
262.429	6.31305
262.648	10.22347
262.866	12.02142
263.085	7.8166
263.303	6.13836
263.522	12.36413
263.74	13.23443
263.959	21.76527
264.178	10.6212
264.396	10.24581
264.615	7.51192
264.833	16.52747
265.051	13.94871
265.27	14.2675
265.488	15.47097
265.707	10.3118
265.925	15.54984
266.144	7.09663
266.362	9.28363
266.58	9.51367
266.799	6.94077
267.017	9.11827
267.235	7.53998
267.454	4.82034
267.672	2.85671
267.89	6.31324
268.109	6.55851
268.327	6.10841
268.545	1.8238
268.763	6.06001
268.982	2.83359
269.2	7.28658
269.418	4.20057
269.636	3.39533
269.854	6.55634
270.073	4.61728
270.291	2.63838
270.509	2.97728
270.727	5.71783
270.945	9.58701
271.163	10.05511
271.381	2.55184
271.599	3.60531
271.817	7.34311
272.036	2.52463
272.254	4.32023
272.472	3.44207
272.69	3.22313
272.908	3.4369
273.126	5.68326
273.344	7.4453
273.562	2.93032
273.779	4.00288
273.997	5.27015
274.215	6.03163
274.433	4.439
274.651	6.35953
274.869	6.65982
275.087	3.85084
275.305	6.41493
275.523	3.11597
275.74	5.04158
275.958	7.64637
276.176	11.07132
276.394	3.62742
276.612	4.422
276.829	4.04751
277.047	3.79902
277.265	4.6387
277.483	5.31661
277.7	6.04118
277.918	4.91544
278.136	8.60836
278.353	4.22919
278.571	2.2886
278.789	6.69029
279.006	1.52806
279.224	4.29308
279.442	7.36296
279.659	4.51937
279.877	3.97366
280.094	7.80786
280.312	1.53943
280.529	5.3216
280.747	1.38499
280.964	3.97103
281.182	8.45926
281.399	4.01996
281.617	5.30234
281.834	3.76765
282.052	3.08755
282.269	4.37425
282.487	3.47691
282.704	2.77067
282.921	3.45206
283.139	4.47436
283.356	5.79303
283.574	5.11885
283.791	2.76503
284.008	7.14448
284.226	3.74503
284.443	4.53585
284.66	5.77561
284.877	4.93889
285.095	3.17373
285.312	2.30378
285.529	1.80774
285.746	1.30522
285.964	3.02033
286.181	1.88672
286.398	2.81227
286.615	3.74262
286.832	3.73511
287.05	1.27406
287.267	2.37246
287.484	2.61749
287.701	3.86678
287.918	3.31638
288.135	3.72947
288.352	1.81246
288.569	2.21141
288.786	3.58387
289.003	2.5165
289.22	3.76307
289.437	2.54622
289.654	3.95861
289.871	4.35991
290.088	3.84226
290.305	3.1501
290.522	2.30259
290.739	3.0475
290.956	4.46766
291.173	5.17511
291.39	4.72886
291.607	3.38567
291.824	2.46597
292.04	1.53611
292.257	4.06999
292.474	4.64518
292.691	2.63756
292.908	1.61225
293.125	2.81149
293.341	1.70808
293.558	7.22164
293.775	2.90655
293.992	3.06328
294.208	1.14988
294.425	2.12388
294.642	2.61867
294.858	4.0516
295.075	1.30451
295.292	3.08696
295.508	3.86665
295.725	5.6688
295.942	3.66885
296.158	3.3547
296.375	4.59646
296.591	3.71713
296.808	4.47991
297.024	5.13847
297.241	5.57066
297.458	5.96778
297.674	3.50897
297.891	5.52432
298.107	5.52741
298.323	4.7674
298.54	7.80698
298.756	5.43222
298.973	4.70861
299.189	8.22406
299.406	6.1929
299.622	7.86572
299.838	8.33179
300.055	7.51806
300.271	5.80706
300.487	5.95663
300.704	6.68446
300.92	6.0597
301.136	10.84954
301.353	8.47313
301.569	7.37277
301.785	8.23372
302.001	8.97206
302.218	8.29803
302.434	9.14799
302.65	6.95738
302.866	8.1403
303.083	11.30991
303.299	11.60506
303.515	8.88203
303.731	10.11583
303.947	7.71953
304.163	8.52826
304.379	9.43979
304.595	9.62417
304.812	8.1586
305.028	8.54249
305.244	8.56505
305.46	9.93123
305.676	10.83185
305.892	11.28278
306.108	10.4486
306.324	9.34493
306.54	11.89731
306.756	10.47146
306.972	9.88648
307.187	10.27748
307.403	10.88805
307.619	9.21191
307.835	10.76178
308.051	11.64494
308.267	8.39348
308.483	12.35122
308.699	10.80597
308.914	10.81705
309.13	10.20905
309.346	9.3541
309.562	9.90236
309.778	9.14756
309.993	11.34302
310.209	11.75162
310.425	9.32099
310.641	11.60511
310.856	10.40247
311.072	10.34933
311.288	11.20977
311.503	11.96404
311.719	9.36595
311.935	9.97435
312.15	12.58018
312.366	12.21682
312.581	12.50327
312.797	12.1157
313.013	12.62386
313.228	11.1082
313.444	10.89478
313.659	10.67488
313.875	11.61934
314.09	11.06508
314.306	12.32946
314.521	12.19857
314.737	12.28386
314.952	11.35603
315.168	11.40846
315.383	11.95476
315.599	10.19114
315.814	11.3004
316.029	11.93193
316.245	10.14614
316.46	8.62218
316.675	12.46352
316.891	13.61275
317.106	14.82987
317.321	11.12356
317.537	12.18961
317.752	12.37911
317.967	12.14726
318.183	10.45196
318.398	10.65217
318.613	12.36575
318.828	13.12265
319.043	11.70357
319.259	10.82517
319.474	11.34013
319.689	13.08731
319.904	9.07501
320.119	13.11326
320.334	11.16736
320.549	11.33309
320.765	12.76582
320.98	11.89029
321.195	11.69393
321.41	11.55841
321.625	12.01506
321.84	13.66444
322.055	13.16766
322.27	10.56905
322.485	9.77299
322.7	12.32306
322.915	12.58648
323.13	11.46221
323.345	14.58721
323.56	13.38602
323.775	12.89187
323.989	12.90558
324.204	12.15439
324.419	13.76634
324.634	10.78829
324.849	12.39656
325.064	15.79186
325.279	13.9953
325.493	13.05286
325.708	13.30438
325.923	11.44581
326.138	12.75053
326.352	14.38979
326.567	13.17009
326.782	11.59866
326.997	12.2512
327.211	13.06329
327.426	12.88756
327.641	12.35199
327.855	10.81707
328.07	13.30346
328.285	15.45804
328.499	11.66616
328.714	13.04268
328.928	12.37454
329.143	13.09008
329.358	14.07689
329.572	13.78328
329.787	14.89894
330.001	16.01374
330.216	10.57509
330.43	15.49396
330.645	13.85448
330.859	13.84124
331.074	11.02724
331.288	12.47023
331.503	15.17891
331.717	11.05769
331.931	12.80091
332.146	13.37692
332.36	15.54201
332.575	13.45883
332.789	12.77411
333.003	13.25563
333.218	13.5367
333.432	12.94203
333.646	14.08267
333.86	15.47505
334.075	15.0659
334.289	12.2447
334.503	11.0518
334.717	14.4818
334.932	13.74047
335.146	14.46413
335.36	12.10381
335.574	14.55757
335.788	13.12991
336.003	14.30863
336.217	14.68758
336.431	13.88297
336.645	13.05793
336.859	12.38076
337.073	13.5383
337.287	14.45444
337.501	11.80545
337.715	14.57063
337.929	14.10725
338.143	12.3868
338.357	13.17168
338.571	13.44242
338.785	15.15586
338.999	13.07635
339.213	13.47516
339.427	12.79013
339.641	15.32886
339.855	13.12459
340.069	12.87335
340.283	14.74204
340.497	15.54428
340.711	14.78152
340.924	14.14051
341.138	13.09135
341.352	12.38519
341.566	14.66071
341.78	12.69301
341.993	13.31486
342.207	13.76427
342.421	14.79248
342.635	14.3363
342.848	14.25367
343.062	11.45579
343.276	13.90426
343.49	16.8653
343.703	13.55264
343.917	15.51785
344.131	16.00851
344.344	13.43126
344.558	14.41679
344.771	13.15381
344.985	16.23876
345.199	17.15633
345.412	15.06792
345.626	15.53893
345.839	13.27399
346.053	13.33457
346.266	13.89761
346.48	15.61876
346.693	15.42169
346.907	15.3804
347.12	13.6223
347.334	14.62795
347.547	15.18032
347.76	14.80174
347.974	15.61557
348.187	15.11723
348.401	14.82672
348.614	13.56656
348.827	14.75447
349.041	15.23566
349.254	13.03224
349.467	14.3731
349.681	13.93406
349.894	13.69451
350.107	16.25321
350.32	17.39214
350.534	13.60488
350.747	14.63142
350.96	14.3509
351.173	14.46316
351.386	14.71561
351.6	14.39469
351.813	15.04426
352.026	14.93554
352.239	14.50296
352.452	14.62842
352.665	17.07461
352.878	14.83845
353.092	18.34248
353.305	16.15342
353.518	15.80906
353.731	14.30621
353.944	16.6625
354.157	15.37882
354.37	15.45614
354.583	14.38656
354.796	14.73627
355.009	16.7834
355.222	16.04569
355.435	16.10543
355.647	17.16269
355.86	15.539
356.073	16.22641
356.286	15.79275
356.499	17.42735
356.712	17.31778
356.925	17.06826
357.138	17.61299
357.35	15.66901
357.563	15.90227
357.776	17.32095
357.989	17.07171
358.201	17.91868
358.414	16.87971
358.627	18.42413
358.84	16.8184
359.052	15.82934
359.265	16.12235
359.478	18.05625
359.69	14.57176
359.903	18.14534
360.116	18.48099
360.328	15.81505
360.541	18.45675
360.753	17.11826
360.966	17.18248
361.179	17.52117
361.391	17.26618
361.604	17.22106
361.816	17.57434
362.029	17.85649
362.241	17.17688
362.454	18.05025
362.666	17.43763
362.879	18.93971
363.091	17.64514
363.304	17.7825
363.516	17.76283
363.728	17.05915
363.941	18.62831
364.153	18.62303
364.366	16.2341
364.578	17.01243
364.79	18.37051
365.003	18.67688
365.215	17.77299
365.427	18.90255
365.639	19.27837
365.852	18.58092
366.064	19.80195
366.276	17.9844
366.488	18.66175
366.701	17.94459
366.913	17.90413
367.125	18.02845
367.337	17.61935
367.549	17.9841
367.762	18.42415
367.974	18.06977
368.186	18.40749
368.398	19.71408
368.61	18.68366
368.822	19.46556
369.034	18.09679
369.246	19.64937
369.458	21.37376
369.67	17.92739
369.882	20.31566
370.094	16.86883
370.306	20.03458
370.518	18.713
370.73	18.57469
370.942	18.61666
371.154	19.1019
371.366	19.33698
371.578	19.96709
371.79	19.37045
372.002	20.4215
372.214	21.89902
372.425	18.99119
372.637	21.43358
372.849	20.06614
373.061	17.63439
373.273	20.28304
373.484	20.36206
373.696	21.04988
373.908	17.70526
374.12	20.61486
374.331	20.79095
374.543	19.03163
374.755	19.06207
374.967	20.15773
375.178	21.6452
375.39	19.96118
375.602	20.45116
375.813	18.73172
376.025	19.50273
376.236	20.53521
376.448	20.93018
376.66	20.67907
376.871	20.91586
377.083	21.52419
377.294	22.84093
377.506	20.41178
377.717	22.76328
377.929	21.42335
378.14	21.16904
378.352	21.97823
378.563	22.28878
378.775	22.70727
378.986	20.46768
379.197	21.65489
379.409	20.846
379.62	22.05354
379.832	21.84344
380.043	21.7676
380.254	22.17362
380.466	20.45422
380.677	24.3267
380.888	23.7458
381.1	24.67044
381.311	24.86073
381.522	22.71107
381.733	24.70688
381.945	22.35528
382.156	21.45414
382.367	22.09011
382.578	25.18172
382.789	25.36071
383.001	21.70391
383.212	24.30596
383.423	24.62409
383.634	23.76124
383.845	23.40295
384.056	22.37237
384.267	22.93511
384.478	23.25891
384.69	21.99574
384.901	23.84185
385.112	23.30656
385.323	25.19529
385.534	23.85449
385.745	24.08095
385.956	23.78889
386.167	22.60082
386.378	23.77964
386.588	23.10169
386.799	22.56968
387.01	22.7424
387.221	24.64398
387.432	24.14788
387.643	25.52267
387.854	23.63987
388.065	23.81845
388.275	24.0829
388.486	23.4923
388.697	24.1565
388.908	23.60718
389.119	25.60261
389.329	25.86232
389.54	24.32915
389.751	24.8242
389.962	25.85431
390.172	24.56711
390.383	24.62081
390.594	23.71408
390.804	24.05089
391.015	24.30904
391.226	25.00778
391.436	25.17689
391.647	25.41181
391.858	25.48166
392.068	23.43764
392.279	24.35118
392.489	25.8115
392.7	25.80078
392.91	24.95584
393.121	24.7907
393.331	26.03049
393.542	26.32456
393.752	26.37335
393.963	26.21774
394.173	25.78961
394.384	26.34329
394.594	26.01221
394.804	24.72029
395.015	25.8965
395.225	26.392
395.436	24.84512
395.646	26.50736
395.856	25.99372
396.067	24.53068
396.277	26.7188
396.487	26.2032
396.697	26.28156
396.908	26.79383
397.118	26.6329
397.328	26.42435
397.538	26.98044
397.749	25.73317
397.959	27.19194
398.169	26.40955
398.379	25.20602
398.589	26.55704
398.8	26.76571
399.01	26.59109
399.22	26.59838
399.43	28.69332
399.64	26.84198
399.85	26.92278
400.06	26.90921
400.27	25.97347
400.48	26.53365
400.69	27.59133
400.9	26.51235
401.11	26.00637
401.32	27.85554
401.53	26.20395
401.74	28.1961
401.95	27.40305
402.16	26.9643
402.37	27.43325
402.58	26.66536
402.79	27.58311
403	27.80723
403.209	26.90204
403.419	27.9902
403.629	26.61261
403.839	28.43626
404.049	28.40679
404.258	27.50017
404.468	27.44675
404.678	28.35932
404.888	28.95027
405.097	27.91107
405.307	27.6647
405.517	28.32929
405.727	28.46233
405.936	27.37812
406.146	28.1303
406.356	29.24292
406.565	28.00173
406.775	27.74388
406.984	27.82636
407.194	30.09705
407.404	28.07738
407.613	28.63881
407.823	29.07613
408.032	29.21687
408.242	28.90808
408.451	27.7394
408.661	28.30251
408.87	30.06578
409.08	27.88973
409.289	28.73491
409.499	28.61509
409.708	28.27669
409.918	26.79202
410.127	28.95505
410.336	29.90489
410.546	29.16493
410.755	28.42823
410.964	28.47158
411.174	27.62895
411.383	28.99999
411.592	29.19941
411.802	28.21042
412.011	29.38286
412.22	28.65688
412.429	29.99252
412.639	30.08671
412.848	29.93259
413.057	30.52178
413.266	29.88109
413.475	29.17198
413.685	29.79849
413.894	30.0167
414.103	29.82407
414.312	29.653
414.521	28.7462
414.73	29.53659
414.939	30.86511
415.148	29.69836
415.357	29.69782
415.566	29.53629
415.776	29.19654
415.985	29.20315
416.194	29.99872
416.403	31.36829
416.611	29.0115
416.82	29.58587
417.029	30.14011
417.238	29.40041
417.447	29.35355
417.656	29.69772
417.865	29.38084
418.074	29.95561
418.283	30.03112
418.492	30.988
418.7	30.80811
418.909	31.59171
419.118	30.61209
419.327	31.142
419.536	30.70514
419.744	30.88953
419.953	32.63311
420.162	33.18156
420.371	33.30557
420.579	35.06404
420.788	35.97197
420.997	36.1918
421.205	37.33411
421.414	36.7654
421.623	36.65853
421.831	36.33258
422.04	36.81764
422.249	35.15459
422.457	35.26592
422.666	33.83396
422.874	34.85552
423.083	34.91058
423.291	35.42669
423.5	35.59412
423.708	36.57475
423.917	37.43893
424.125	36.73071
424.334	36.95794
424.542	38.69543
424.751	38.01468
424.959	37.14733
425.167	36.95197
425.376	36.79767
425.584	33.60386
425.793	33.2915
426.001	31.48161
426.209	32.48807
426.418	31.50965
426.626	31.50622
426.834	31.2714
427.042	32.07493
427.251	31.1899
427.459	32.51492
427.667	31.88249
427.875	31.09245
428.084	31.49506
428.292	33.05663
428.5	32.37396
428.708	30.86715
428.916	31.04549
429.124	31.50031
429.333	31.62298
429.541	31.4263
429.749	31.69357
429.957	31.43436
430.165	33.94853
430.373	30.59225
430.581	31.90056
430.789	33.01218
430.997	31.72959
431.205	30.89781
431.413	32.47241
431.621	31.43073
431.829	32.39184
432.037	31.84579
432.245	32.36125
432.453	32.64872
432.661	31.68406
432.869	33.57722
433.076	31.67839
433.284	31.92239
433.492	32.71308
433.7	33.26477
433.908	32.03781
434.116	32.41771
434.323	32.46202
434.531	32.43146
434.739	33.08417
434.947	33.34482
435.154	33.28027
435.362	32.48338
435.57	32.24851
435.778	32.10539
435.985	33.12021
436.193	32.41304
436.401	33.68351
436.608	32.80108
436.816	32.25769
437.023	34.22386
437.231	34.50143
437.439	33.02242
437.646	33.51811
437.854	33.20843
438.061	33.6899
438.269	32.70102
438.476	33.44807
438.684	33.04781
438.891	32.69145
439.099	32.69879
439.306	32.21321
439.514	32.3684
439.721	33.3116
439.929	32.65871
440.136	33.69063
440.343	33.53733
440.551	33.46502
440.758	35.36201
440.965	33.84654
441.173	33.46743
441.38	33.30417
441.587	33.80916
441.795	33.31642
442.002	33.62897
442.209	33.96128
442.416	33.85172
442.624	34.1658
442.831	34.07647
443.038	33.30793
443.245	32.83122
443.452	33.5684
443.66	34.19397
443.867	33.11398
444.074	32.93555
444.281	33.06494
444.488	32.80934
444.695	33.33061
444.902	33.08443
445.109	33.93
445.316	33.42323
445.523	34.74287
445.73	35.40086
445.937	36.80694
446.144	38.32994
446.351	39.01431
446.558	37.29354
446.765	40.67887
446.972	38.85429
447.179	38.53566
447.386	38.34069
447.593	35.4241
447.8	36.59445
448.007	34.07842
448.214	34.18824
448.42	34.15133
448.627	35.18809
448.834	34.42542
449.041	34.31126
449.248	33.99359
449.454	34.64458
449.661	35.40401
449.868	34.00137
450.075	33.75083
450.281	32.70916
450.488	33.46774
450.695	33.17752
450.901	33.23579
451.108	33.53518
451.315	34.74388
451.521	33.59547
451.728	34.93607
451.935	33.34811
452.141	33.95899
452.348	33.84033
452.554	33.73657
452.761	34.12521
452.967	35.42919
453.174	34.57879
453.38	34.40155
453.587	33.47909
453.793	34.56173
454	34.76926
454.206	35.89769
454.413	34.9382
454.619	34.68576
454.825	33.71137
455.032	34.61462
455.238	34.72756
455.445	33.31529
455.651	34.5369
455.857	32.94478
456.064	34.65469
456.27	34.34423
456.476	34.35382
456.682	33.5611
456.889	34.54033
457.095	34.93693
457.301	35.85713
457.507	34.36333
457.714	34.10491
457.92	34.223
458.126	33.8022
458.332	34.42757
458.538	34.09684
458.744	34.11897
458.951	34.05022
459.157	35.64134
459.363	35.36156
459.569	36.49139
459.775	37.00835
459.981	37.73905
460.187	38.42128
460.393	37.63536
460.599	37.2792
460.805	35.61395
461.011	35.21892
461.217	36.10097
461.423	36.56587
461.629	35.52766
461.835	35.92464
462.041	35.33262
462.247	36.54029
462.453	35.28952
462.658	34.81702
462.864	35.83555
463.07	35.20454
463.276	35.29212
463.482	34.95877
463.688	36.57557
463.893	34.43253
464.099	34.7595
464.305	36.36254
464.511	34.56767
464.716	34.86451
464.922	35.39601
465.128	34.2714
465.333	36.4878
465.539	35.76957
465.745	35.30872
465.95	35.08686
466.156	37.24623
466.362	36.08586
466.567	35.17687
466.773	35.04921
466.978	36.17953
467.184	34.45778
467.389	33.80181
467.595	35.51949
467.8	34.49437
468.006	36.62481
468.211	36.42652
468.417	34.65284
468.622	35.92873
468.828	36.11478
469.033	35.58095
469.239	37.70503
469.444	35.21849
469.649	36.18426
469.855	35.2801
470.06	35.44081
470.266	34.47866
470.471	36.1764
470.676	35.81258
470.881	34.38609
471.087	37.34866
471.292	37.13838
471.497	34.5167
471.703	35.52269
471.908	35.20031
472.113	35.96811
472.318	36.26763
472.523	35.16835
472.729	36.44098
472.934	35.97782
473.139	35.51301
473.344	36.29846
473.549	36.83671
473.754	35.25475
473.959	37.89645
474.164	35.38498
474.369	36.02448
474.575	36.60126
474.78	35.9806
474.985	35.58073
475.19	34.66458
475.395	35.53661
475.6	35.94024
475.804	37.48641
476.009	36.17214
476.214	35.93448
476.419	35.40387
476.624	34.81119
476.829	35.30006
477.034	36.48926
477.239	35.47274
477.444	36.7695
477.648	36.67588
477.853	36.50774
478.058	35.84272
478.263	35.72954
478.468	35.769
478.672	35.7001
478.877	37.44608
479.082	37.73113
479.287	36.7236
479.491	36.16542
479.696	35.66803
479.901	37.07082
480.105	36.9856
480.31	35.94618
480.515	36.62653
480.719	38.06735
480.924	36.009
481.128	35.43623
481.333	36.56629
481.538	36.61361
481.742	36.26013
481.947	37.9945
482.151	40.87287
482.356	44.9348
482.56	52.1805
482.765	58.88039
482.969	68.71661
483.174	76.78607
483.378	87.40681
483.582	91.26739
483.787	96.29217
483.991	97.54327
484.196	97.62102
484.4	96.98627
484.604	95.28651
484.809	87.95568
485.013	81.9385
485.217	74.00372
485.422	66.3343
485.626	60.59867
485.83	57.46358
486.034	56.01074
486.239	56.96668
486.443	59.17528
486.647	61.47466
486.851	64.84089
487.055	68.98416
487.26	70.73293
487.464	73.73288
487.668	72.98249
487.872	74.8232
488.076	73.93019
488.28	70.91655
488.484	66.94789
488.688	64.06027
488.892	60.10643
489.096	55.56314
489.3	51.4643
489.504	48.13335
489.708	45.6206
489.912	44.45343
490.116	43.77876
490.32	44.48482
490.524	47.94573
490.728	50.87047
490.932	54.36373
491.136	58.47926
491.34	60.94268
491.544	62.33718
491.748	62.6988
491.951	62.36769
492.155	60.8858
492.359	57.76138
492.563	53.47461
492.767	49.86109
492.97	44.56769
493.174	39.7453
493.378	38.32265
493.582	37.73501
493.785	37.94656
493.989	38.18598
494.193	37.98227
494.396	37.55729
494.6	37.98343
494.804	37.354
495.007	37.06057
495.211	37.39925
495.414	37.05026
495.618	37.12789
495.822	38.3266
496.025	37.1586
496.229	37.73944
496.432	36.97377
496.636	37.39959
496.839	37.37971
497.043	38.45041
497.246	37.579
497.45	37.31657
497.653	37.57654
497.856	37.82585
498.06	37.50783
498.263	37.60602
498.467	37.67535
498.67	38.45402
498.873	38.07859
499.077	37.68036
499.28	38.06534
499.483	37.97963
499.686	38.55015
499.89	37.90031
500.093	38.45712
500.296	37.45267
500.499	39.19359
500.703	37.67386
500.906	38.18595
501.109	38.90373
501.312	38.0366
501.515	37.93167
501.719	37.91943
501.922	38.2233
502.125	37.51722
502.328	38.01634
502.531	37.05279
502.734	38.15417
502.937	36.76606
503.14	38.1119
503.343	37.14079
503.546	37.76818
503.749	37.53312
503.952	38.26333
504.155	37.51405
504.358	37.97108
504.561	37.98366
504.764	36.94936
504.967	38.31446
505.17	38.30105
505.373	39.36712
505.576	37.98411
505.778	38.52875
505.981	37.62189
506.184	39.10041
506.387	36.97415
506.59	39.65839
506.793	38.95375
506.995	38.42139
507.198	36.55883
507.401	38.87031
507.604	38.80056
507.806	37.28002
508.009	37.69571
508.212	38.45032
508.414	37.9865
508.617	37.94
508.82	38.37838
509.022	39.44998
509.225	38.74124
509.427	37.37695
509.63	39.1611
509.833	38.14676
510.035	38.41006
510.238	37.43841
510.44	39.71682
510.643	37.41774
510.845	40.0435
511.048	38.93361
511.25	38.18192
511.453	38.26837
511.655	38.84672
511.858	38.3579
512.06	39.5052
512.262	38.63582
512.465	39.25228
512.667	38.68038
512.869	37.89517
513.072	39.28326
513.274	39.18733
513.476	39.31099
513.679	39.32488
513.881	38.1114
514.083	40.33538
514.286	38.41271
514.488	38.51183
514.69	38.09829
514.892	38.07197
515.094	39.43331
515.297	38.43687
515.499	39.2352
515.701	38.28302
515.903	40.01343
516.105	39.96813
516.307	39.38158
516.509	37.49539
516.711	37.99412
516.913	38.8515
517.116	39.00604
517.318	38.78569
517.52	39.32557
517.722	39.26994
517.924	37.77254
518.126	39.18629
518.328	38.21943
518.529	39.52911
518.731	40.30328
518.933	38.86333
519.135	39.18377
519.337	40.15998
519.539	39.59604
519.741	38.25453
519.943	39.46999
520.145	39.5112
520.346	40.18063
520.548	39.3743
520.75	39.506
520.952	39.22048
521.153	39.6594
521.355	40.18656
521.557	38.74611
521.759	39.56805
521.96	39.48691
522.162	38.74254
522.364	40.33474
522.565	39.00584
522.767	39.75154
522.969	40.10254
523.17	39.6593
523.372	39.40786
523.573	39.63008
523.775	39.2412
523.977	38.74098
524.178	40.67559
524.38	38.8326
524.581	39.84512
524.783	38.95138
524.984	39.46259
525.186	39.07347
525.387	39.78528
525.589	39.29432
525.79	39.31652
525.991	39.54261
526.193	40.49133
526.394	40.16364
526.596	41.21936
526.797	42.54838
526.998	42.69427
527.2	45.77084
527.401	51.33422
527.602	56.13679
527.803	63.90588
528.005	69.26516
528.206	74.32279
528.407	77.95082
528.608	79.08319
528.81	79.67058
529.011	78.40398
529.212	78.63758
529.413	73.8085
529.614	68.70965
529.815	63.1972
530.017	57.57161
530.218	51.43141
530.419	46.64189
530.62	44.04401
530.821	42.07924
531.022	39.85102
531.223	40.3382
531.424	40.59373
531.625	40.44419
531.826	40.53332
532.027	41.8713
532.228	45.56536
532.429	47.72015
532.63	49.79159
532.831	52.9169
533.032	53.79829
533.233	55.55596
533.433	54.33507
533.634	54.87406
533.835	52.91244
534.036	50.63424
534.237	47.6619
534.438	44.60329
534.638	40.96283
534.839	40.85336
535.04	41.38344
535.241	40.56168
535.441	41.90433
535.642	40.86421
535.843	39.38839
536.043	39.50787
536.244	39.52404
536.445	40.08513
536.645	40.70602
536.846	40.61185
537.047	41.09507
537.247	39.71486
537.448	40.17666
537.648	40.6649
537.849	40.73769
538.049	40.93337
538.25	41.38406
538.451	41.61483
538.651	40.30793
538.851	40.92384
539.052	41.63343
539.252	40.96409
539.453	40.2215
539.653	40.51851
539.854	39.84564
540.054	40.04579
540.254	42.44598
540.455	47.10673
540.655	49.92815
540.855	55.18597
541.056	58.04102
541.256	58.96741
541.456	60.69245
541.657	60.54017
541.857	60.57
542.057	57.86827
542.257	55.2872
542.458	53.53198
542.658	50.24971
542.858	46.34328
543.058	44.27012
543.258	42.23461
543.458	40.40975
543.659	40.23314
543.859	41.53499
544.059	41.5456
544.259	41.04626
544.459	41.81433
544.659	40.56705
544.859	41.17611
545.059	40.75864
545.259	41.53589
545.459	41.21677
545.659	41.44389
545.859	40.73765
546.059	40.7304
546.259	39.8664
546.459	39.7377
546.659	39.91848
546.859	41.35971
547.059	41.35164
547.258	41.259
547.458	41.40926
547.658	40.80089
547.858	40.39558
548.058	41.89338
548.258	41.27447
548.457	40.77582
548.657	43.25123
548.857	41.11889
549.057	41.83261
549.256	41.93502
549.456	40.36718
549.656	39.70292
549.855	42.95582
550.055	40.55361
550.255	42.63725
550.454	41.10773
550.654	41.67353
550.853	42.23615
551.053	41.67833
551.253	40.85489
551.452	41.22727
551.652	39.73956
551.851	39.44613
552.051	40.29567
552.25	39.80836
552.45	39.94374
552.649	40.79643
552.849	39.98904
553.048	40.90174
553.248	41.69975
553.447	40.21273
553.646	41.87436
553.846	43.22278
554.045	42.23288
554.244	40.55581
554.444	42.92903
554.643	40.37047
554.842	42.92337
555.042	43.62757
555.241	40.88473
555.44	39.96104
555.64	41.65514
555.839	43.36773
556.038	41.63985
556.237	40.49432
556.436	41.71933
556.636	41.62484
556.835	40.5065
557.034	42.82597
557.233	41.59125
557.432	40.00006
557.631	42.34203
557.83	41.18672
558.029	40.55371
558.228	40.73789
558.427	40.24285
558.626	42.01399
558.825	40.15334
559.024	40.94321
559.223	43.38003
559.422	41.20235
559.621	41.45043
559.82	39.13227
560.019	41.42181
560.218	41.55167
560.417	38.68843
560.616	40.54331
560.815	44.60741
561.014	39.85422
561.212	43.19736
561.411	41.7659
561.61	40.35097
561.809	41.18792
562.008	42.52048
562.206	40.99758
562.405	41.90751
562.604	41.09045
562.803	41.69227
563.001	41.24976
563.2	40.13549
563.399	42.30583
563.597	40.16179
563.796	41.71645
563.995	40.646
564.193	42.342
564.392	41.27001
564.59	43.86905
564.789	39.82542
564.988	40.52545
565.186	41.751
565.385	41.27333
565.583	41.1665
565.782	41.17761
565.98	41.1288
566.179	41.40179
566.377	40.54257
566.575	41.08671
566.774	43.21028
566.972	42.90707
567.171	44.20702
567.369	43.31746
567.567	42.55835
567.766	42.90393
567.964	40.73048
568.162	42.68102
568.361	43.31434
568.559	42.14404
568.757	42.24708
568.956	41.75699
569.154	41.79419
569.352	42.40177
569.55	41.60906
569.748	41.38843
569.947	41.11741
570.145	40.84279
570.343	41.02581
570.541	42.69453
570.739	40.54933
570.937	41.50488
571.135	41.99863
571.333	43.39389
571.532	43.10012
571.73	41.9543
571.928	42.89971
572.126	42.30728
572.324	41.19785
572.522	42.94292
572.72	45.0344
572.918	42.28814
573.116	42.66166
573.313	42.64786
573.511	41.9187
573.709	41.84073
573.907	43.56963
574.105	41.68034
574.303	40.8355
574.501	40.67256
574.699	42.34491
574.896	42.39032
575.094	42.60596
575.292	40.89953
575.49	42.92947
575.688	42.07999
575.885	43.30109
576.083	44.41457
576.281	43.43796
576.478	41.54085
576.676	43.1682
576.874	40.35645
577.071	42.25582
577.269	45.0467
577.467	42.91875
577.664	42.59931
577.862	43.99664
578.059	41.00526
578.257	42.99446
578.455	42.19674
578.652	42.49561
578.85	40.24033
579.047	42.13877
579.245	42.70033
579.442	42.47826
579.64	42.46835
579.837	40.50117
580.034	45.48153
580.232	41.65535
580.429	40.82846
580.627	42.77342
580.824	43.94527
581.021	42.86964
581.219	41.67947
581.416	41.03632
581.613	44.46239
581.811	43.8498
582.008	41.36422
582.205	43.39424
582.402	42.23528
582.6	44.35133
582.797	42.55732
582.994	42.4842
583.191	43.18079
583.388	41.98022
583.586	43.33135
583.783	43.76571
583.98	41.46432
584.177	42.26368
584.374	38.73783
584.571	42.07047
584.768	41.94899
584.965	41.53218
585.162	42.72044
585.359	44.00097
585.556	42.32943
585.753	42.91169
585.95	40.54127
586.147	41.40865
586.344	42.69814
586.541	41.55392
586.738	40.68528
586.935	42.27845
587.132	41.33492
587.329	43.49279
587.526	42.07944
587.722	48.59684
587.919	41.36828
588.116	43.27519
588.313	44.81569
588.51	45.59309
588.706	42.11837
588.903	43.38587
589.1	43.75813
589.297	45.44961
589.493	43.19842
589.69	43.29139
589.887	42.22252
590.083	41.38827
590.28	42.06169
590.477	43.78754
590.673	43.94016
590.87	44.67904
591.067	42.69958
591.263	43.11437
591.46	43.25546
591.656	42.61774
591.853	44.83183
592.049	41.65994
592.246	42.27312
592.442	44.29526
592.639	44.89655
592.835	41.67399
593.032	42.92442
593.228	41.21923
593.425	40.94639
593.621	40.96599
593.817	43.17756
594.014	41.68419
594.21	42.64418
594.406	44.32392
594.603	43.63449
594.799	42.40942
594.995	40.14668
595.192	44.505
595.388	42.49403
595.584	42.09742
595.78	41.2352
595.977	45.63
596.173	45.47135
596.369	42.65562
596.565	41.37453
596.761	40.70048
596.957	44.65095
597.154	41.70177
597.35	42.37956
597.546	42.95311
597.742	44.11313
597.938	43.86373
598.134	42.88722
598.33	44.60041
598.526	45.9161
598.722	44.06448
598.918	46.00937
599.114	44.36814
599.31	42.36629
599.506	43.46022
599.702	42.41396
599.898	43.14487
600.094	44.13431
600.29	44.46075
600.485	44.8688
600.681	42.45704
600.877	45.75554
601.073	42.71909
601.269	45.88137
601.465	45.40718
601.66	41.4978
601.856	40.16459
602.052	45.32667
602.248	42.51404
602.443	40.85468
602.639	41.59424
602.835	42.1849
603.03	41.85279
603.226	44.21191
603.422	41.83922
603.617	42.31624
603.813	42.90872
604.009	42.81642
604.204	44.51087
604.4	41.17953
604.595	44.76894
604.791	42.46798
604.986	44.36501
605.182	42.44053
605.377	43.99304
605.573	43.06585
605.768	44.06802
605.964	45.05544
606.159	45.59317
606.355	45.99444
606.55	43.69579
606.746	45.62016
606.941	43.69192
607.136	46.4619
607.332	48.46522
607.527	41.90736
607.722	43.97124
607.918	43.50058
608.113	42.58198
608.308	44.21332
608.503	43.71098
608.699	43.35962
608.894	43.91502
609.089	42.04809
609.284	43.40547
609.479	42.97987
609.675	44.62652
609.87	43.08691
610.065	44.93667
610.26	45.0149
610.455	45.28843
610.65	43.92376
610.845	44.55586
611.04	46.48352
611.235	44.35619
611.43	43.80124
611.625	42.46814
611.82	46.88244
612.015	42.7695
612.21	45.66997
612.405	41.90053
612.6	46.57537
612.795	46.03085
612.99	44.57219
613.185	42.14417
613.38	42.91432
613.575	43.63626
613.77	48.51938
613.965	42.11963
614.159	42.84206
614.354	46.25776
614.549	45.7626
614.744	45.11086
614.938	42.22062
615.133	41.20939
615.328	46.26729
615.523	45.17209
615.717	49.01556
615.912	42.33399
616.107	44.12636
616.301	43.75341
616.496	43.29251
616.691	46.83583
616.885	45.49122
617.08	49.62388
617.274	45.59188
617.469	47.78972
617.664	45.08527
617.858	43.82569
618.053	45.38011
618.247	43.8305
618.442	40.61581
618.636	46.68582
618.831	43.57097
619.025	43.78467
619.219	48.98221
619.414	37.91486
619.608	44.15342
619.803	43.49808
619.997	47.93136
620.191	45.95183
620.386	44.2046
620.58	43.8914
620.774	40.81343
620.969	41.96854
621.163	44.61607
621.357	43.1457
621.551	43.34978
621.746	44.35821
621.94	43.93686
622.134	49.83075
622.328	48.38964
622.522	41.48536
622.716	45.71282
622.911	46.56781
623.105	46.1799
623.299	45.61414
623.493	49.45362
623.687	43.06757
623.881	44.09946
624.075	45.55225
624.269	46.28292
624.463	40.02522
624.657	41.88155
624.851	45.30668
625.045	46.21203
625.239	45.58613
625.433	43.76845
625.627	46.92284
625.821	43.56972
626.015	42.85002
626.209	44.71513
626.403	42.25181
626.596	45.09785
626.79	45.67383
626.984	42.39572
627.178	45.70493
627.372	45.93474
627.565	46.35959
627.759	42.47221
627.953	43.18854
628.147	46.01862
628.34	46.82625
628.534	48.75638
628.728	44.88266
628.921	46.18795
629.115	45.78117
629.309	46.80379
629.502	47.19813
629.696	44.90618
629.89	44.31135
630.083	45.6187
630.277	45.6498
630.47	48.98804
630.664	45.14319
630.857	41.35819
631.051	46.37631
631.244	47.31469
631.438	46.63352
631.631	43.12648
631.825	48.05342
632.018	46.842
632.212	49.08116
632.405	47.09209
632.598	44.07303
632.792	45.37928
632.985	40.80455
633.178	45.01928
633.372	44.71059
633.565	44.56931
633.758	47.85905
633.952	44.10775
634.145	43.11474
634.338	44.78007
634.531	44.14004
634.724	45.04131
634.918	45.34351
635.111	44.91731
635.304	44.95693
635.497	50.93817
635.69	47.15498
635.883	48.16362
636.077	43.599
636.27	46.07948
636.463	46.49801
636.656	45.53104
636.849	45.19529
637.042	47.50531
637.235	50.18593
637.428	48.21086
637.621	48.27648
637.814	49.10599
638.007	49.72268
638.2	49.24955
638.393	49.70255
638.586	44.00475
638.778	45.1085
638.971	45.53954
639.164	49.61967
639.357	47.03805
639.55	49.44136
639.743	48.06306
639.935	47.71225
640.128	50.7263
640.321	47.45829
640.514	46.03283
640.707	52.82547
640.899	48.93476
641.092	42.39385
641.285	65.20768
641.477	41.76177
641.67	51.98532
641.863	49.67032
642.055	47.52554
642.248	46.92757
642.441	45.51176
642.633	47.70069
642.826	49.24588
643.018	50.47245
643.211	52.41084
643.403	51.55098
643.596	52.09027
643.788	50.51161
643.981	45.63515
644.173	49.6058
644.366	46.473
644.558	42.19285
644.751	49.86884
644.943	43.1478
645.135	51.22691
645.328	52.03229
645.52	48.389
645.712	50.69373
645.905	54.89932
646.097	43.73471
646.289	46.77646
646.482	52.38501
646.674	45.28148
646.866	49.97236
647.058	48.31932
647.251	44.5807
647.443	46.55181
647.635	46.594
647.827	44.03223
648.019	45.22446
648.211	46.46438
648.404	47.45028
648.596	51.57653
648.788	46.87589
648.98	47.36032
649.172	48.82202
649.364	48.46632
649.556	42.19609
649.748	54.98438
649.94	45.08091
650.132	49.21193
650.324	44.58388
650.516	45.40234
650.708	50.13419
650.9	45.09788
651.092	43.77062
651.284	44.12925
651.476	45.03954
651.667	49.0635
651.859	51.3249
652.051	47.44395
652.243	48.2995
652.435	46.62891
652.627	49.64667
652.818	49.1904
653.01	43.82099
653.202	45.74574
653.394	46.75236
653.585	48.12089
653.777	60.73485
653.969	51.34885
654.16	50.61355
654.352	45.15118
654.544	47.00034
654.735	51.37031
654.927	48.22239
655.118	52.34364
655.31	48.72639
655.502	51.54739
655.693	46.64569
655.885	50.44686
656.076	52.11619
656.268	48.54339
656.459	52.09756
656.651	52.3139
656.842	46.57238
657.034	46.08984
657.225	49.83426
657.416	50.88379
657.608	51.53064
657.799	47.72882
657.99	51.87172
658.182	46.64741
658.373	46.5244
658.564	49.66526
658.756	47.9292
658.947	46.50311
659.138	46.20322
659.33	46.84387
659.521	46.51287
659.712	48.76716
659.903	48.30371
660.094	47.83357
660.286	45.20231
660.477	55.04562
660.668	51.08377
660.859	49.79487
661.05	45.93288
661.241	51.65674
661.432	51.08899
661.623	48.41349
661.814	47.64294
662.006	44.69116
662.197	49.51269
662.388	53.14456
662.579	49.46491
662.77	52.64002
662.96	58.46263
663.151	51.13082
663.342	44.91782
663.533	51.77192
663.724	50.27831
663.915	54.81159
664.106	49.24296
664.297	54.4947
664.488	52.29573
664.678	47.12014
664.869	52.59153
665.06	52.57271
665.251	50.26821
665.442	50.83931
665.632	46.19914
665.823	55.46795
666.014	40.08292
666.204	51.7117
666.395	53.47551
666.586	56.89814
666.776	52.26757
666.967	55.63928
667.158	49.47021
667.348	54.07642
667.539	46.0027
667.729	52.01855
667.92	46.17889
668.111	50.52663
668.301	51.26572
668.492	49.18682
668.682	50.1687
668.873	49.86371
669.063	46.50039
669.253	51.53846
669.444	52.00052
669.634	48.86574
669.825	56.33833
670.015	54.0078
670.206	47.68236
670.396	56.8287
670.586	50.02481
670.777	50.43555
670.967	42.9749
671.157	49.23958
671.347	48.04987
671.538	54.95786
671.728	52.07329
671.918	57.63642
672.108	54.6787
672.299	48.50706
672.489	52.34294
672.679	47.45467
672.869	51.84997
673.059	58.22022
673.249	50.75692
673.44	45.78241
673.63	49.56099
673.82	55.13554
674.01	48.18358
674.2	53.27456
674.39	61.00057
674.58	54.3362
674.77	51.46086
674.96	49.8169
675.15	64.75394
675.34	54.98925
675.53	51.30244
675.72	50.74758
675.91	46.15142
676.099	57.54594
676.289	59.61839
676.479	55.59016
676.669	49.01897
676.859	51.80473
677.049	48.38254
677.238	50.98353
677.428	59.19855
677.618	52.4415
677.808	56.31219
677.997	53.7008
678.187	47.42718
678.377	51.88693
678.567	49.82363
678.756	49.01217
678.946	51.27355
679.136	46.25364
679.325	49.15133
679.515	48.40269
679.704	47.90758
679.894	53.15978
680.084	52.39338
680.273	55.30458
680.463	50.54502
680.652	49.05616
680.842	51.66722
681.031	54.42692
681.221	49.49826
681.41	55.07437
681.6	51.61794
681.789	56.34612
681.978	56.68144
682.168	53.52812
682.357	52.42583
682.547	55.23653
682.736	53.02521
682.925	57.6016
683.115	56.44705
683.304	55.40604
683.493	54.16135
683.682	54.82709
683.872	55.38027
684.061	58.5419
684.25	55.23722
684.439	60.77828
684.629	55.20497
684.818	66.74039
685.007	53.27218
685.196	52.72639
685.385	59.98542
685.574	54.53317
685.763	54.58103
685.952	54.71019
686.142	49.85431
686.331	58.10878
686.52	47.15086
686.709	61.439
686.898	60.40792
687.087	57.17087
687.276	59.45563
687.465	58.42733
687.654	53.49298
687.842	59.53993
688.031	49.22786
688.22	58.0369
688.409	55.67665
688.598	54.84249
688.787	65.75625
688.976	54.37788
689.165	63.12089
689.353	51.89565
689.542	56.19663
689.731	58.01346
689.92	62.0282
690.108	57.80573
690.297	54.10968
690.486	54.64925
690.675	60.6558
690.863	63.60165
691.052	63.03513
691.241	56.54697
691.429	55.52921
691.618	63.13871
691.806	50.36168
691.995	54.31897
692.184	55.83569
692.372	54.74975
692.561	58.60421
692.749	56.32718
692.938	68.94899
693.126	58.9044
693.315	55.64618
693.503	58.82349
693.692	60.05374
693.88	61.94923
694.068	66.90869
694.257	56.24007
694.445	59.7125
694.634	47.70269
694.822	61.07689
695.01	62.82847
695.199	64.27388
695.387	64.96016
695.575	60.93895
695.763	56.05494
695.952	53.93284
696.14	52.63548
696.328	55.82534
696.516	58.07258
696.705	58.1368
696.893	56.60761
697.081	49.47222
697.269	59.32117
697.457	51.67166
697.645	51.11866
697.833	57.98558
698.021	51.29928
698.21	53.16454
698.398	54.08725
698.586	50.55944
698.774	50.6341
698.962	54.37483
699.15	51.73569
699.338	50.20206
699.526	57.85886
699.714	54.82667
699.901	54.72441
700.089	61.74363
700.277	55.03324
700.465	57.63708
700.653	61.64763
700.841	59.96287
701.029	55.29332
701.217	64.49138
701.404	58.9606
701.592	66.46393
701.78	68.83366
701.968	57.78989
702.155	58.40911
702.343	51.64534
702.531	66.41088
702.718	60.75432
702.906	59.73439
703.094	55.44548
703.281	67.48965
703.469	59.77732
703.657	63.73002
703.844	76.1643
704.032	67.72579
704.219	56.0563
704.407	61.20227
704.595	64.80027
704.782	59.9612
704.97	58.31672
705.157	56.96478
705.345	66.81666
705.532	76.4605
705.719	61.96048
705.907	68.01036
706.094	59.38592
706.282	70.67726
706.469	58.59687
706.656	59.79568
706.844	58.22543
707.031	65.00106
707.218	60.27069
707.406	69.22648
707.593	66.01679
707.78	64.58657
707.968	60.38996
708.155	56.27732
708.342	63.92087
708.529	65.38465
708.716	63.34108
708.904	71.24907
709.091	67.71383
709.278	55.90294
709.465	75.38271
709.652	70.97451
709.839	69.09903
710.026	62.7265
710.213	52.69349
710.4	64.11897
710.587	66.59853
710.774	67.82195
710.961	67.75685
711.148	60.95114
711.335	67.36605
711.522	60.93552
711.709	61.79134
711.896	74.07805
712.083	67.94738
712.27	58.38193
712.457	62.90557
712.644	54.72295
712.831	74.58638
713.017	63.189
713.204	68.11537
713.391	60.55901
713.578	69.18562
713.765	73.87664
713.951	66.77722
714.138	83.59011
714.325	66.35702
714.512	64.59975
714.698	58.87692
714.885	73.61235
715.072	65.36727
715.258	64.90166
715.445	60.49433
715.631	72.68028
715.818	50.85589
716.005	61.44056
716.191	69.44413
716.378	61.81363
716.564	71.75535
716.751	58.70882
716.937	62.87938
717.124	71.53155
717.31	59.68544
717.497	78.13132
717.683	61.33583
717.869	81.73137
718.056	62.93803
718.242	67.97163
718.429	65.18996
718.615	59.20706
718.801	67.01658
718.988	73.98492
719.174	71.30171
719.36	65.15356
719.547	72.81379
719.733	66.13363
719.919	68.42645
720.105	75.30995
720.291	67.78652
720.478	67.92065
720.664	66.56271
720.85	62.74384
721.036	86.04184
721.222	78.01847
721.408	70.1957
721.595	83.23266
721.781	79.38081
721.967	73.10059
722.153	79.56372
722.339	70.99891
722.525	70.94199
722.711	61.67055
722.897	59.84084
723.083	63.43972
723.269	75.68492
723.455	88.36402
723.641	94.54352
723.827	70.34994
724.012	73.12724
724.198	65.95889
724.384	77.21965
724.57	72.35645
724.756	54.93551
724.942	53.88888
725.127	77.32324
725.313	80.01324
725.499	77.45643
725.685	84.19779
725.87	68.50723
726.056	60.39361
726.242	78.68646
726.428	57.07512
726.613	75.95032
726.799	65.04521
726.985	59.30812
727.17	57.34043
727.356	79.5296
727.541	59.45999
727.727	67.30111
727.913	73.22074
728.098	62.3511
728.284	72.76683
728.469	61.02104
728.655	64.37183
728.84	74.1855
729.026	74.89828
729.211	75.78039
729.397	72.77669
729.582	73.26824
729.767	70.50516
729.953	72.52663
730.138	77.56886
730.323	52.20541
730.509	63.72184
730.694	82.90733
730.879	75.02441
731.065	67.54325
731.25	87.82243
731.435	74.72529
731.621	57.63318
731.806	66.0077
731.991	72.59716
732.176	57.65038
732.361	81.17229
732.547	76.11129
732.732	57.64117
732.917	89.25613
733.102	63.16625
733.287	62.86364
733.472	71.13414
733.657	71.54716
733.842	58.87699
734.027	66.9147
734.212	69.3847
734.397	64.50805
734.582	73.20439
734.767	80.58353
734.952	85.43853
735.137	52.38169
735.322	87.07658
735.507	78.08031
735.692	74.47288
735.877	93.80199
736.062	91.03356
736.247	78.11666
736.431	70.72437
736.616	84.32345
736.801	75.85027
736.986	69.21858
737.171	66.63862
737.355	58.3237
737.54	87.16988
737.725	74.78455
737.909	98.38657
738.094	66.17957
738.279	81.39095
738.463	67.34306
738.648	77.14564
738.833	77.67612
739.017	90.52155
739.202	68.0714
739.386	67.624
739.571	61.59052
739.756	77.46213
739.94	72.95351
740.125	79.59956
740.309	66.10158
740.494	80.83023
740.678	75.08359
740.863	78.59787
741.047	76.58004
741.231	85.20528
741.416	64.91294
741.6	87.69479
741.785	67.56102
741.969	83.7623
742.153	85.42665
742.338	57.13031
742.522	75.17734
742.706	84.0377
742.89	59.56393
743.075	76.68703
743.259	87.48853
743.443	83.67152
743.627	90.33772
743.812	98.2931
743.996	48.79788
744.18	71.49145
744.364	70.43868
744.548	104.54246
744.732	75.70494
744.916	84.14632
745.1	83.00629
745.285	75.31488
745.469	83.24264
745.653	93.33906
745.837	63.21334
746.021	104.03352
746.205	92.33283
746.389	77.59206
746.573	76.97774
746.757	94.46406
746.94	72.4726
747.124	91.46576
747.308	66.67579
747.492	87.73558
747.676	73.53325
747.86	105.0166
748.044	72.04396
748.227	58.66998
748.411	120.53452
748.595	77.63633
748.779	68.05386
748.963	79.98088
749.146	77.34522
749.33	69.80526
749.514	66.2859
749.697	88.84278
749.881	69.48633
750.065	64.62241
750.248	75.58989
750.432	106.01107
750.616	76.36315
750.799	65.07428
750.983	100.61549
751.166	106.06552
751.35	60.26154
751.533	84.87627
751.717	91.04206
751.9	97.02356
752.084	75.8501
752.267	65.37383
752.451	72.57805
752.634	79.30678
752.818	87.53129
753.001	83.97552
753.184	90.68982
753.368	81.98917
753.551	42.03449
753.734	70.78359
753.918	101.87293
754.101	68.28954
754.284	87.48402
754.467	74.67828
754.651	70.29539
754.834	72.29913
755.017	88.94796
755.2	93.95839
755.384	68.97275
755.567	89.20158
755.75	95.15975
755.933	79.57634
756.116	85.89903
756.299	74.32603
756.482	68.7696
756.665	87.32295
756.848	80.61542
757.032	84.4578
757.215	63.05134
757.398	72.96094
757.581	68.69728
757.764	110.34957
757.947	73.67298
758.129	92.10929
758.312	50.51
758.495	76.76191
758.678	79.15526
758.861	73.26744
759.044	103.00368
759.227	70.0304
759.41	71.57708
759.592	92.2866
759.775	80.42461
759.958	91.05287
760.141	62.00764
760.324	109.25417
760.506	99.18986
760.689	94.79089
760.872	110.44508
761.054	84.73729
761.237	76.4828
761.42	84.08654
761.602	90.81438
761.785	83.15791
761.968	92.90155
762.15	104.3016
762.333	77.7878
762.515	82.06699
762.698	70.12682
762.88	84.80211
763.063	77.12312
763.245	83.52467
763.428	64.58753
763.61	65.08608
763.793	64.70031
763.975	79.02369
764.158	73.25376
764.34	67.98228
764.522	69.16311
764.705	77.30624
764.887	93.2212
765.069	65.14536
765.252	90.97057
765.434	88.06287
765.616	79.4087
765.799	75.97284
765.981	89.47669
766.163	74.14926
766.345	94.86869
766.528	71.91925
766.71	59.073
766.892	83.37858
767.074	99.67614
767.256	79.91154
767.438	110.27655
767.62	89.78555
767.802	117.57437
767.985	93.89682
768.167	111.62023
768.349	80.08151
768.531	98.3899
768.713	93.06133
768.895	98.66608
769.077	91.54568
769.259	124.67574
769.441	159.31835
769.623	101.24213
769.804	111.15209
769.986	108.05054
770.168	124.82563
770.35	146.74992
770.532	122.03224
770.714	125.81571
770.896	122.82734
771.077	78.30777
771.259	138.91704
771.441	111.51163
771.623	142.14541
771.804	159.31399
771.986	71.30802
772.168	92.73435
772.35	128.26852
772.531	175.54205
772.713	110.36647
772.894	139.53315
773.076	110.24831
773.258	96.25762
773.439	141.23537
773.621	154.0729
773.802	81.51926
773.984	107.8921
774.166	109.44973
774.347	154.49299
774.529	139.39863
774.71	64.18548
774.891	111.85185
775.073	106.75313
775.254	148.04793
775.436	98.08801
775.617	168.08681
775.799	99.90351
775.98	152.75647
776.161	166.27811
776.343	151.68972
776.524	110.60966
776.705	102.35269
776.886	71.32377
777.068	117.16062
777.249	183.59189
777.43	160.78617
777.611	84.765
777.793	110.6
777.974	149.46835
778.155	98.40887
778.336	87.98095
778.517	167.04376
778.698	90.08486
778.879	70.60664
779.061	48.02176
779.242	126.28157
779.423	126.31395
779.604	97.05965
779.785	108.83986
779.966	120.8442
780.147	142.38474
780.328	137.89249
780.509	180.19329
780.69	140.77262
780.871	103.10044
781.051	85.21366
781.232	121.72896
781.413	115.24574
781.594	105.97961
781.775	103.58025
781.956	93.29346
782.137	75.57491
782.317	101.81792
782.498	120.32198
782.679	123.9057
782.86	115.67051
783.04	110.32958
783.221	122.27432
783.402	161.60951
783.583	121.51015
783.763	133.76362
783.944	108.36357
784.124	80.47157
784.305	157.04819
784.486	130.52254
784.666	121.60379
784.847	83.35932
785.027	206.14443
785.208	98.42486
785.388	96.0129
785.569	103.09697
785.749	107.9515
785.93	100.30603
786.11	75.5944
786.291	131.14069
786.471	125.27141
786.652	135.88155
786.832	110.8069
787.012	117.10202
787.193	83.82157
787.373	117.86537
787.553	100.84778
787.734	121.49257
787.914	104.60094
788.094	123.10275
788.275	120.1591
788.455	101.24498
788.635	77.93055
788.815	112.70511
788.995	85.21534
789.176	76.31997
789.356	92.49257
789.536	102.5145
789.716	118.8004
789.896	94.85991
790.076	99.05217
790.256	113.37024
790.436	62.33286
790.616	89.85959
790.796	118.86451
790.976	98.36532
791.156	97.03402
791.336	138.97455
791.516	116.44075
791.696	106.46461
791.876	78.11584
792.056	118.43767
792.236	135.05986
792.416	133.35595
792.596	124.04962
792.776	126.79186
792.956	128.88222
793.135	156.7454
793.315	95.30889
793.495	140.61692
793.675	132.84511
793.854	132.29692
794.034	130.54605
794.214	91.86195
794.394	133.38567
794.573	147.62254
794.753	114.83987
794.933	88.25749
795.112	118.75216
795.292	132.25728
795.472	162.13309
795.651	79.63895
795.831	111.35857
796.01	98.49947
796.19	104.06208
796.369	107.06257
796.549	126.18988
796.728	106.98438
796.908	82.46889
797.087	88.91762
797.267	112.61213
797.446	85.63164
797.626	126.68477
797.805	122.23846
797.984	90.26412
798.164	125.07784
798.343	84.86346
798.522	113.58693
798.702	112.82192
798.881	83.58689
799.06	116.06868
799.239	72.15927
799.419	88.76221
799.598	152.89599
799.777	127.76592
799.956	148.80505
800.136	100.43539
800.315	102.04863
800.494	128.98481
800.673	138.53879
800.852	139.66847
801.031	146.38039
801.21	130.52515
801.389	109.07997
801.568	121.20184
801.747	168.9698
801.926	111.48498
802.105	155.27172
802.284	112.21464
802.463	154.01301
802.642	121.25834
802.821	121.1494
803	152.38745
803.179	136.67157
803.358	154.63409
803.537	101.14335
803.716	127.79379
803.895	103.9747
804.073	114.08349
804.252	100.5174
804.431	139.4461
804.61	115.57365
804.789	137.08976
804.967	100.63209
805.146	104.51121
805.325	176.96874
805.503	136.46262
805.682	79.93182
805.861	191.18835
806.039	156.47164
806.218	103.20943
806.397	124.99889
806.575	122.40359
806.754	118.66656
806.932	97.49603
807.111	165.88557
807.289	141.95375
807.468	135.53933
807.646	140.8793
807.825	134.65359
808.003	121.22632
808.182	140.3222
808.36	122.81134
808.539	108.65636
808.717	152.11945
808.895	96.31763
809.074	131.24329
809.252	112.80057
809.43	137.70062
809.609	155.89837
809.787	164.36158
809.965	122.78604
810.144	125.69756
810.322	121.13066
810.5	141.7583
810.678	113.66944
810.856	190.63489
811.035	157.2347
811.213	162.67766
811.391	165.7287
811.569	125.4232
811.747	224.20913
811.925	169.57368
812.103	104.84385
812.281	112.75631
812.459	207.49508
812.637	171.37029
812.816	160.93573
812.994	191.79271
813.171	170.06384
813.349	136.4101
813.527	179.02713
813.705	176.29436
813.883	188.38555
814.061	169.49271
814.239	190.88866
814.417	206.37475
814.595	147.96021
814.773	143.47241
814.95	136.37192
815.128	138.525
815.306	116.18334
815.484	140.50741
815.662	103.34135
815.839	89.78146
816.017	105.45872
816.195	155.95368
816.372	122.4658
816.55	165.59554
816.728	171.89524
816.905	125.39415
817.083	166.05124
817.261	131.58244
817.438	221.11714
817.616	181.97839
817.793	121.75169
817.971	151.09458
818.148	160.57099
818.326	170.453
818.503	141.67459
818.681	182.92709
818.858	112.27015
819.036	131.0267
819.213	142.84245
819.391	107.93973
819.568	99.02421
819.745	96.37157
819.923	136.79303
820.1	106.87472
820.277	93.91512
820.455	109.97515
820.632	108.99121
820.809	109.13706
820.986	84.13189
821.164	76.08343
821.341	69.10249
821.518	81.58573
821.695	68.50166
821.872	66.15899
822.05	62.0574
822.227	57.15649
822.404	58.68246
822.581	62.77865
822.758	61.21119
822.935	60.134
823.112	64.21087
823.289	61.7652
823.466	66.75227
823.643	67.31655
823.82	72.77522
823.997	72.44755
824.174	77.59673
824.351	92.21445
824.528	91.21438
824.705	89.93848
824.882	94.03529
825.059	105.54814
825.236	86.82316
825.412	89.75903
825.589	97.86312
825.766	118.0326
825.943	91.40974
826.12	99.42372
826.296	83.64764
826.473	86.31517
826.65	84.4584
826.827	94.24629
827.003	73.50743
827.18	77.87905
827.357	82.59588
827.533	77.68654
827.71	63.05793
827.887	74.67765
828.063	82.06663
828.24	76.12392
828.416	90.39216
828.593	83.40625
828.769	101.30054
828.946	108.51333
829.122	113.6237
829.299	118.42584
829.475	89.35658
829.652	115.77709
829.828	158.09091
830.005	115.806
830.181	148.15814
830.357	124.46418
830.534	137.73808
830.71	119.32065
830.886	146.28995
831.063	144.17005
831.239	183.0109
831.415	101.11534
831.592	160.05698
831.768	122.80439
831.944	103.43106
832.12	164.41076
832.296	161.45062
832.473	140.46727
832.649	107.96504
832.825	127.65973
833.001	86.03993
833.177	112.03472
833.353	98.77907
833.529	74.36101
833.705	88.99759
833.881	75.74973
834.058	76.18053
834.234	80.92461
834.41	79.24189
834.586	70.99091
834.761	77.25152
834.937	83.17983
835.113	87.69191
835.289	85.1907
835.465	95.89703
835.641	96.57348
835.817	98.70984
835.993	153.33857
836.169	97.73752
836.344	129.52086
836.52	138.28761
836.696	144.85868
836.872	113.22597
837.048	242.3911
837.223	130.6279
837.399	202.93154
837.575	186.60427
837.75	163.10412
837.926	213.44977
838.102	317.21695
838.277	248.80119
838.453	337.69663
838.628	326.9494
838.804	155.62955
838.98	308.82802
839.155	179.2139
839.331	205.01843
839.506	157.67421
839.682	138.60315
839.857	197.6715
840.033	193.17055
840.208	119.72307
840.384	79.93405
840.559	119.92838
840.734	169.91311
840.91	201.83423
841.085	148.42361
841.26	141.99407
841.436	166.06458
841.611	143.15165
841.786	207.21626
841.962	276.55607
842.137	192.98347
842.312	134.03018
842.487	183.68984
842.663	158.10242
842.838	167.05873
843.013	612.2733
843.188	395.54786
843.363	250.12779
843.538	547.42876
843.714	555.96478
843.889	511.21878
844.064	544.57971
844.239	336.05345
844.414	581.71426
844.589	334.92886
844.764	768.62011
844.939	518.12326
845.114	496.07249
845.289	700.83765
845.464	831.10959
845.639	783.33303
845.814	291.80485
845.989	529.19699
846.163	435.85153
846.338	796.54569
846.513	686.55307
846.688	383.56121
846.863	826.37297
847.038	465.70479
847.212	373.13928
847.387	852.94369
847.562	484.58257
847.737	631.60073
847.911	318.39725
848.086	273.15907
848.261	576.45462
848.435	372.7304
848.61	561.02958
848.785	336.25595
848.959	562.39948
849.134	704.75299
849.308	1122.20813
849.483	797.78936
849.658	735.59931
849.832	425.16371
850.007	314.18377
850.181	1112.57587
850.356	731.76422
850.53	993.45156
850.705	431.64987
850.879	320.368
851.053	604.74871
851.228	468.43334
851.402	922.66614
851.577	736.17495
851.751	908.11833
851.925	464.69457
852.099	406.47494
852.274	348.51127
852.448	414.4682
852.622	1083.05077
852.797	431.41427
852.971	490.63158
853.145	943.26767
853.319	1081.43679
853.493	1188.8329
853.668	558.68018
853.842	1539.55231
854.016	1167.83016
854.19	1613.67646
854.364	734.14411
854.538	623.33269
854.712	828.30155
854.886	473.92481
855.06	419.9618
855.234	234.0088
855.408	893.5352
855.582	625.29282
855.756	961.09654
855.93	628.74794
856.104	769.66297
856.278	819.97616
856.452	407.9045
856.626	739.01879
856.8	1125.00889
856.973	1170.52957
857.147	1111.99273
857.321	1583.4467
857.495	586.69786
857.669	801.91334
857.842	642.45346
858.016	551.72607
858.19	455.7996
858.364	1407.32454
858.537	655.56379
858.711	1281.56869
858.885	1003.17782
859.058	359.65453
859.232	312.36556
859.405	565.56993
859.579	851.03253
859.753	712.40065
859.926	1008.17962
860.1	569.74396
860.273	1061.60844
860.447	932.77696
860.62	646.52397
860.794	930.27631
860.967	704.53608
861.141	596.59013
861.314	754.93149
861.487	746.54695
861.661	587.71418
861.834	857.3875
862.008	1164.84477
862.181	874.83885
862.354	1473.18415
862.528	702.49313
862.701	407.10344
862.874	385.22338
863.047	513.19411
863.221	578.4438
863.394	396.29095
863.567	534.87784
863.74	219.3369
863.913	1095.09818
864.087	683.25231
864.26	650.68111
864.433	710.57687
864.606	1039.78682
864.779	1632.88329
864.952	399.11333
865.125	1126.5181
865.298	634.69132
865.471	616.54932
865.644	1053.45445
865.817	669.99586
865.99	1018.14631
866.163	870.65224
866.336	524.0199
866.509	482.95985
866.682	638.3248
866.855	1308.32018
867.028	256.67235
867.2	692.78362
867.373	179.05156
867.546	531.1952
867.719	1297.62539
867.892	718.82085
868.064	462.34355
868.237	539.83407
868.41	518.45578
868.583	370.47255
868.755	364.95895
868.928	714.86457
869.101	914.85866
869.273	1772.70923
869.446	515.55258
869.619	951.98328
869.791	531.55891
869.964	798.18945
870.136	1027.95578
870.309	475.69577
870.481	418.42263
870.654	378.63862
870.826	478.16686
870.999	347.9952
871.171	531.22567
871.344	342.41931
871.516	489.61015
871.689	464.73453
871.861	575.92125
872.033	425.24446
872.206	391.15215
872.378	566.58524
872.55	475.40654
872.723	451.06967
872.895	707.0961
873.067	576.52544
873.24	568.00752
873.412	521.68814
873.584	400.87879
873.756	691.42554
873.928	779.14474
874.101	425.52491
874.273	561.23684
874.445	212.19007
874.617	358.30407
874.789	428.65158
874.961	435.21232
875.133	469.12797
875.305	589.8723
875.477	485.1134
875.649	281.84315
875.821	360.86816
875.993	760.52548
876.165	422.88569
876.337	590.8321
876.509	524.21296
876.681	488.48616
876.853	513.04433
877.025	779.64327
877.197	304.31194
877.369	334.75121
877.541	453.85194
877.712	175.24028
877.884	237.11298
878.056	565.55472
878.228	274.87547
878.4	538.62044
878.571	309.26897
878.743	218.85265
878.915	344.67047
879.086	222.04329
879.258	239.9639
879.43	218.26013
879.601	197.81751
879.773	183.10961
879.945	78.69423
880.116	97.35834
880.288	72.23498
880.459	69.22508
880.631	63.19772
880.802	69.13682
880.974	67.26116
881.145	56.95512
881.317	65.31046
881.488	60.5938
881.66	63.37252
881.831	58.84896
882.002	70.05326
882.174	61.24766
882.345	69.77693
882.517	58.59785
882.688	80.2388
882.859	74.39155
883.03	98.80944
883.202	95.02658
883.373	94.84623
883.544	95.66541
883.715	129.36079
883.887	124.32785
884.058	124.46514
884.229	140.18925
884.4	139.09087
884.571	166.94566
884.742	138.78563
884.914	149.694
885.085	212.46743
885.256	242.99047
885.427	211.90269
885.598	224.26477
885.769	253.68815
885.94	244.36913
886.111	182.63295
886.282	253.03018
886.453	279.44454
886.624	234.77427
886.795	306.73523
886.966	283.25438
887.136	338.52079
887.307	235.21547
887.478	480.09212
887.649	398.19929
887.82	434.95796
887.991	328.06191
888.161	480.12068
888.332	470.18903
888.503	266.16516
888.674	523.15868
888.844	756.98726
889.015	760.37864
889.186	370.41501
889.356	698.62159
889.527	413.32396
889.698	1092.84051
889.868	335.62112
890.039	586.48406
890.209	423.2142
890.38	650.36129
890.551	530.42473
890.721	844.1934
890.892	556.37048
891.062	1251.6162
891.233	609.40458
891.403	790.66874
891.574	661.47972
891.744	430.4066
891.914	403.26147
892.085	555.21294
892.255	174.88021
892.425	582.18053
892.596	459.01486
892.766	547.42583
892.936	826.21958
893.107	509.13432
893.277	289.03359
893.447	230.90965
893.618	175.25149
893.788	273.35059
893.958	151.7373
894.128	130.94965
894.298	169.86277
894.468	192.83224
894.639	110.1449
894.809	93.03328
894.979	111.16208
895.149	140.84357
895.319	117.38087
895.489	136.80494
895.659	185.92528
895.829	125.53656
895.999	143.51598
896.169	128.61446
896.339	168.46783
896.509	321.74175
896.679	292.77982
896.849	344.09191
897.019	414.92575
897.189	365.96978
897.358	341.77359
897.528	585.41541
897.698	236.63946
897.868	419.88453
898.038	957.71983
898.208	1079.15698
898.377	299.73938
898.547	2001.43019
898.717	3440.16325
898.886	928.23291
899.056	835.40867
899.226	2236.56218
899.395	2334.54332
899.565	2455.55175
899.735	4813.06878
899.904	1764.91937
900.074	6156.4057
900.244	690.2277
900.413	3512.44488
900.583	958.53836
900.752	-2043.01542
900.922	1120.00243
901.091	312.2044
901.261	2265.28015
901.43	1310.86507
901.599	3108.37541
901.769	2758.88035
901.938	2783.8889
902.108	1063.67247
902.277	1600.04592
902.446	612.74457
902.616	747.24339
902.785	617.24445
902.954	885.93686
903.124	526.01431
903.293	370.23891
903.462	176.39249
903.631	251.91987
903.801	181.0259
903.97	107.45104
904.139	147.78944
904.308	120.30996
904.477	108.09271
904.646	78.97144
904.816	104.18836
904.985	154.25352
905.154	213.55751
