Data from WindowProjectSample_Transmission__75__00075__007125762112882417.txt Node

Date: Mon May 05 18:45:34 EDT 2025
User: jessi
Spectrometer: SR400872
Trigger mode: 0
Integration Time (sec): 5.000010E-1
Scans to average: 20
Electric dark correction enabled: true
Nonlinearity correction enabled: true
Boxcar width: 0
XAxis mode: Wavelengths
Number of Pixels in Spectrum: 3648
>>>>>Begin Spectral Data<<<<<
184.909	21040.72916
185.132	-5399.38743
185.355	-3231.21577
185.578	-18344.85213
185.801	1924.98598
186.024	10374.25919
186.247	-1854.18272
186.47	1154.10012
186.693	281.72261
186.916	266.44755
187.139	-3902.41408
187.362	3658.14711
187.585	4132.07316
187.808	3626.69138
188.031	-20.01652
188.254	-61287.32553
188.476	-595.7991
188.699	6746.56386
188.922	608.93809
189.145	-16025.96172
189.368	-742.28286
189.591	-1451.06139
189.813	3385.66696
190.036	-52306.98096
190.259	-822.18131
190.482	-4577.09007
190.705	7499.24621
190.927	-2569.91451
191.15	13313.92229
191.373	3507.36902
191.595	-9286.23957
191.818	-4317.02462
192.041	-7875.09421
192.263	-3477.21176
192.486	-900.02397
192.709	-4179.9397
192.931	8336.96175
193.154	-28995.35046
193.377	-3044.22142
193.599	-2512.26433
193.822	-9391.14326
194.044	-2144.14417
194.267	1136.05802
194.489	234.44838
194.712	-44795.14302
194.934	-32796.213
195.157	1237.88087
195.379	1535.89432
195.602	-7000.46271
195.824	-1392.43134
196.047	-9898.27516
196.269	2814.03175
196.492	-6703.11786
196.714	31516.08611
196.936	-8719.8819
197.159	-1275.92016
197.381	1263.8217
197.604	607.99081
197.826	12631.02727
198.048	-11073.03632
198.271	-3076.76602
198.493	8222.17038
198.715	2496.16262
198.938	-584.54931
199.16	7844.39449
199.382	-104356.18517
199.604	2772.83989
199.827	-1158.22999
200.049	-3255.83643
200.271	15056.10135
200.493	1258.67783
200.715	-39808.3272
200.938	-6121.76334
201.16	-4341.80754
201.382	21231.06998
201.604	2472.15532
201.826	2358.87274
202.048	-2069.74726
202.27	-1957.7627
202.492	-37561.66586
202.715	3010.32131
202.937	-4765.67646
203.159	-6612.66216
203.381	1506.00368
203.603	6752.8837
203.825	6752.05654
204.047	2386.95799
204.269	-2984.18657
204.491	2298.15966
204.713	6201.7006
204.935	-497318.72212
205.156	1288.48867
205.378	-3063.8913
205.6	1762.56584
205.822	159880.20888
206.044	-1078.57226
206.266	1604.14031
206.488	4984.76141
206.71	-5555.27992
206.932	1179.58186
207.153	12595.41591
207.375	-7337.59713
207.597	-39369.92724
207.819	-2931.72912
208.041	2424.04331
208.262	506.94177
208.484	724.54697
208.706	-776.05621
208.927	-980.64714
209.149	541.77212
209.371	-2943.22434
209.593	-372.19345
209.814	-828.61776
210.036	619.48586
210.258	-683.92548
210.479	1894.84047
210.701	1752.36253
210.922	3316.07951
211.144	-4121.08894
211.366	2115.02887
211.587	8218.84483
211.809	-8483.36349
212.03	2406.6044
212.252	478.10771
212.473	2236.58897
212.695	-6178.5366
212.916	2987.49058
213.138	-704.5118
213.359	3892.49816
213.581	5340.45393
213.802	-868.70119
214.024	1126.47188
214.245	2306.71187
214.466	2546.76707
214.688	-3182.11082
214.909	-1220.1836
215.131	-1810.49456
215.352	-3251.82276
215.573	15230.06954
215.795	5627.3582
216.016	5562.37141
216.237	872.79674
216.459	3736.3865
216.68	1941.21052
216.901	5383.05994
217.122	-3446.7877
217.344	-11695.00798
217.565	3567.31028
217.786	9196.96246
218.007	15928.86356
218.228	-834.9847
218.45	5934.31142
218.671	833.78512
218.892	38090.54985
219.113	1548.0511
219.334	-200.46334
219.555	10801.86721
219.776	3255.89999
219.997	23497.38904
220.219	2815.54555
220.44	-12167.94026
220.661	503.06145
220.882	1538.8194
221.103	-1129.61693
221.324	2471.99361
221.545	2428.40768
221.766	-9287.13056
221.987	982.94612
222.208	1824.07871
222.429	4421.12853
222.65	275.02524
222.87	19690.79321
223.091	760.19199
223.312	617.25146
223.533	1418.73431
223.754	1505.59189
223.975	1424.76348
224.196	2061.64466
224.417	1397.55044
224.637	638.84718
224.858	107.73493
225.079	1184.29556
225.3	665.92125
225.521	3813.554
225.741	446.17957
225.962	538.62345
226.183	164.4259
226.404	702.17763
226.624	439.34055
226.845	668.16237
227.066	422.28244
227.286	268.23432
227.507	132.54908
227.728	123.20675
227.948	243.29616
228.169	76.97133
228.389	88.80152
228.61	50.43183
228.831	67.80788
229.051	2.25416
229.272	40.45047
229.492	58.65364
229.713	15.87669
229.933	38.42718
230.154	33.63578
230.374	55.26737
230.595	39.07259
230.815	25.2828
231.036	41.41596
231.256	-9.95937
231.477	71.21928
231.697	38.99658
231.917	41.85091
232.138	55.84152
232.358	112.60528
232.579	108.13802
232.799	20.49545
233.019	104.73596
233.24	119.08682
233.46	39.5541
233.68	65.81582
233.901	43.96517
234.121	27.7159
234.341	14.90248
234.561	-2.44472
234.782	21.7372
235.002	72.56683
235.222	-5.08473
235.442	66.84338
235.662	35.66152
235.883	64.15719
236.103	54.39501
236.323	37.91379
236.543	28.99651
236.763	42.72491
236.983	44.40968
237.203	44.98623
237.423	66.64909
237.643	91.22491
237.864	78.96701
238.084	21.58783
238.304	27.02082
238.524	48.15717
238.744	41.42413
238.964	75.37835
239.184	64.98291
239.404	66.07991
239.624	35.57197
239.843	62.44588
240.063	37.12731
240.283	22.82792
240.503	26.05568
240.723	25.48957
240.943	14.90763
241.163	21.01915
241.383	15.19218
241.603	7.69536
241.822	10.11223
242.042	6.64839
242.262	9.04137
242.482	9.90432
242.702	10.88295
242.921	3.03628
243.141	6.82702
243.361	6.4236
243.581	10.08928
243.8	8.02263
244.02	5.80175
244.24	9.59894
244.459	9.43278
244.679	18.60628
244.899	11.49035
245.118	13.68043
245.338	13.34369
245.558	14.25139
245.777	8.71916
245.997	11.16166
246.216	10.77723
246.436	6.50855
246.655	4.73471
246.875	3.48915
247.094	6.38762
247.314	2.11931
247.533	3.7574
247.753	4.53265
247.972	3.49288
248.192	1.26024
248.411	2.00809
248.631	3.45398
248.85	4.94643
249.07	4.33438
249.289	6.16155
249.508	5.19049
249.728	7.26323
249.947	7.02488
250.166	9.52713
250.386	4.60349
250.605	7.42406
250.824	11.1845
251.044	7.57965
251.263	29.83909
251.482	15.40556
251.701	12.42519
251.921	0.32313
252.14	3.12301
252.359	4.31342
252.578	10.50962
252.798	3.40207
253.017	9.26665
253.236	4.17916
253.455	5.7751
253.674	10.93077
253.893	5.50519
254.112	8.24631
254.331	11.55886
254.551	8.72334
254.77	3.25922
254.989	13.83311
255.208	10.51776
255.427	15.67476
255.646	13.04709
255.865	22.39375
256.084	9.60479
256.303	11.61609
256.522	13.81292
256.741	3.72526
256.96	3.53656
257.179	8.77509
257.397	11.46784
257.616	6.65757
257.835	6.54638
258.054	15.58632
258.273	11.27289
258.492	11.60515
258.711	7.11591
258.93	3.27765
259.148	5.02553
259.367	4.76262
259.586	5.67404
259.805	2.43919
260.023	5.38679
260.242	4.11868
260.461	2.82895
260.68	1.46168
260.898	4.53511
261.117	1.40336
261.336	0.80346
261.554	3.53828
261.773	3.42261
261.992	0.97904
262.21	3.54543
262.429	3.76524
262.648	7.49594
262.866	8.58665
263.085	6.11207
263.303	5.22936
263.522	8.90153
263.74	9.30676
263.959	16.21782
264.178	7.70672
264.396	6.37026
264.615	4.83984
264.833	10.72408
265.051	9.20137
265.27	11.00414
265.488	11.39767
265.707	6.76821
265.925	10.92189
266.144	4.98086
266.362	5.9655
266.58	5.40661
266.799	5.45692
267.017	6.18466
267.235	5.33405
267.454	3.34356
267.672	1.9644
267.89	4.44018
268.109	4.44811
268.327	4.50523
268.545	0.93322
268.763	4.2865
268.982	1.8047
269.2	4.3727
269.418	3.3882
269.636	2.29329
269.854	4.81049
270.073	3.37791
270.291	2.12759
270.509	2.06331
270.727	4.7266
270.945	7.18605
271.163	7.28417
271.381	1.55836
271.599	3.50169
271.817	5.61935
272.036	1.87197
272.254	3.33241
272.472	2.51245
272.69	2.60417
272.908	2.42502
273.126	4.73078
273.344	5.4218
273.562	1.85023
273.779	2.74917
273.997	3.86527
274.215	4.405
274.433	3.0969
274.651	4.52238
274.869	4.79366
275.087	3.0754
275.305	4.26368
275.523	2.49228
275.74	2.95745
275.958	5.64513
276.176	8.37682
276.394	2.60988
276.612	3.49753
276.829	3.25073
277.047	2.81535
277.265	2.97003
277.483	3.65781
277.7	4.50834
277.918	3.4168
278.136	6.55736
278.353	3.2436
278.571	1.72572
278.789	4.40574
279.006	0.91753
279.224	3.05983
279.442	5.25347
279.659	3.66407
279.877	2.73761
280.094	5.91085
280.312	1.05083
280.529	3.48266
280.747	1.06456
280.964	2.79815
281.182	6.16209
281.399	2.82548
281.617	4.12304
281.834	2.659
282.052	2.0882
282.269	3.38877
282.487	2.53739
282.704	2.11913
282.921	2.37271
283.139	3.44634
283.356	4.08967
283.574	3.99816
283.791	1.99369
284.008	5.73004
284.226	3.2107
284.443	3.33043
284.66	4.35813
284.877	3.69569
285.095	2.20832
285.312	1.71094
285.529	0.86263
285.746	0.90393
285.964	2.12006
286.181	1.43906
286.398	2.0247
286.615	2.75846
286.832	2.66307
287.05	0.55497
287.267	1.90376
287.484	1.87093
287.701	2.64514
287.918	2.8377
288.135	2.77997
288.352	1.36162
288.569	1.52704
288.786	2.50743
289.003	2.10887
289.22	3.09198
289.437	1.68092
289.654	3.10128
289.871	3.02087
290.088	3.15388
290.305	2.46349
290.522	1.91096
290.739	2.13231
290.956	3.29843
291.173	3.57964
291.39	3.60768
291.607	2.4794
291.824	1.96043
292.04	1.4279
292.257	2.95234
292.474	3.30355
292.691	2.12405
292.908	0.96614
293.125	1.65538
293.341	1.15184
293.558	5.12906
293.775	2.12295
293.992	2.24088
294.208	0.98076
294.425	1.50446
294.642	2.12648
294.858	2.94834
295.075	0.84485
295.292	2.19133
295.508	2.67988
295.725	4.58883
295.942	2.26502
296.158	2.00274
296.375	2.84924
296.591	2.35449
296.808	2.75808
297.024	3.21343
297.241	3.38538
297.458	3.76138
297.674	1.54991
297.891	3.28247
298.107	3.1597
298.323	2.68865
298.54	4.87683
298.756	3.20013
298.973	2.55506
299.189	5.19816
299.406	3.57172
299.622	5.05516
299.838	5.17654
300.055	5.12077
300.271	3.32624
300.487	3.83664
300.704	4.26687
300.92	3.61347
301.136	7.47067
301.353	5.67906
301.569	5.03322
301.785	5.41459
302.001	6.14293
302.218	5.54694
302.434	6.04312
302.65	4.41961
302.866	5.23516
303.083	7.77
303.299	7.99217
303.515	6.03919
303.731	6.59576
303.947	4.7031
304.163	5.75523
304.379	6.26128
304.595	6.69879
304.812	5.50487
305.028	5.66841
305.244	6.04711
305.46	6.9089
305.676	7.25105
305.892	7.76021
306.108	7.27118
306.324	6.15997
306.54	8.23047
306.756	7.03843
306.972	7.10922
307.187	6.81293
307.403	7.97113
307.619	6.47799
307.835	7.86685
308.051	8.34788
308.267	6.04471
308.483	8.44126
308.699	7.63469
308.914	7.44733
309.13	7.23487
309.346	6.362
309.562	6.79189
309.778	6.42867
309.993	8.05308
310.209	7.93312
310.425	6.8199
310.641	7.93436
310.856	7.17463
311.072	7.14686
311.288	7.87231
311.503	8.33552
311.719	6.48167
311.935	6.5754
312.15	8.57362
312.366	8.21426
312.581	8.25978
312.797	7.93422
313.013	8.66131
313.228	7.39825
313.444	7.65345
313.659	7.29826
313.875	8.27401
314.09	7.88498
314.306	9.28605
314.521	8.75631
314.737	8.77419
314.952	8.08246
315.168	8.16183
315.383	8.69538
315.599	7.70302
315.814	7.88206
316.029	8.69549
316.245	7.31217
316.46	6.52457
316.675	9.36124
316.891	9.90793
317.106	10.95986
317.321	8.34933
317.537	9.02461
317.752	9.19503
317.967	9.25406
318.183	7.40391
318.398	8.11439
318.613	9.18552
318.828	9.92068
319.043	9.23854
319.259	8.46194
319.474	8.60443
319.689	9.70786
319.904	7.02553
320.119	9.60356
320.334	8.89334
320.549	8.73674
320.765	9.6961
320.98	9.15458
321.195	9.03029
321.41	8.96045
321.625	9.60995
321.84	10.46804
322.055	10.56117
322.27	8.50064
322.485	7.92893
322.7	9.70236
322.915	9.89521
323.13	8.8429
323.345	10.85088
323.56	10.71241
323.775	10.19506
323.989	10.04038
324.204	9.87102
324.419	10.82752
324.634	8.67353
324.849	9.63027
325.064	12.732
325.279	10.74642
325.493	10.08245
325.708	10.71524
325.923	9.17739
326.138	9.56967
326.352	11.34899
326.567	10.7184
326.782	9.37926
326.997	9.51124
327.211	10.56734
327.426	10.11681
327.641	9.63839
327.855	8.5652
328.07	10.5522
328.285	11.60205
328.499	9.41334
328.714	10.21094
328.928	10.43126
329.143	10.09729
329.358	11.15264
329.572	11.04259
329.787	11.4428
330.001	12.65364
330.216	8.849
330.43	12.34394
330.645	11.54186
330.859	11.0881
331.074	9.46862
331.288	10.54432
331.503	11.89867
331.717	9.61165
331.931	10.68796
332.146	10.96422
332.36	12.63915
332.575	11.39083
332.789	11.10773
333.003	11.42256
333.218	11.42769
333.432	10.57073
333.646	12.13104
333.86	12.89752
334.075	12.54991
334.289	10.68056
334.503	9.69473
334.717	11.43155
334.932	10.9636
335.146	11.36476
335.36	9.90227
335.574	11.38702
335.788	10.92074
336.003	11.69915
336.217	11.78395
336.431	11.49703
336.645	11.14511
336.859	10.50609
337.073	11.46444
337.287	12.15643
337.501	10.73844
337.715	12.59422
337.929	12.75692
338.143	11.32595
338.357	11.94977
338.571	11.81506
338.785	12.88869
338.999	11.80259
339.213	11.53254
339.427	11.03372
339.641	13.20112
339.855	11.63323
340.069	11.2548
340.283	12.93913
340.497	13.72312
340.711	12.89187
340.924	12.67807
341.138	11.50488
341.352	11.23132
341.566	12.75034
341.78	11.2614
341.993	12.28559
342.207	11.98999
342.421	12.92175
342.635	12.38993
342.848	12.4625
343.062	10.62212
343.276	12.3502
343.49	14.47798
343.703	12.3055
343.917	14.02705
344.131	14.17787
344.344	12.44372
344.558	12.84396
344.771	12.06631
344.985	14.73119
345.199	14.56503
345.412	13.66702
345.626	13.70506
345.839	11.98248
346.053	12.46138
346.266	12.5946
346.48	13.92342
346.693	13.84956
346.907	13.45311
347.12	12.58077
347.334	13.5866
347.547	13.85825
347.76	13.17841
347.974	14.58151
348.187	13.36507
348.401	13.07389
348.614	12.58843
348.827	13.40005
349.041	13.86057
349.254	12.36437
349.467	13.32586
349.681	13.27111
349.894	12.98976
350.107	14.97212
350.32	15.70817
350.534	12.90456
350.747	13.68581
350.96	13.3122
351.173	13.15816
351.386	13.65077
351.6	13.31144
351.813	13.68836
352.026	13.6923
352.239	13.36136
352.452	13.6949
352.665	15.29508
352.878	14.19551
353.092	16.03259
353.305	15.02294
353.518	14.59011
353.731	13.64703
353.944	15.60101
354.157	14.34541
354.37	14.25626
354.583	13.76741
354.796	13.7305
355.009	15.55291
355.222	15.26941
355.435	14.95294
355.647	15.91703
355.86	14.31335
356.073	15.41825
356.286	14.69604
356.499	16.06477
356.712	16.00507
356.925	15.99932
357.138	15.98052
357.35	15.01183
357.563	15.19873
357.776	15.76188
357.989	15.67702
358.201	15.97629
358.414	15.73363
358.627	16.61058
358.84	15.40663
359.052	14.65145
359.265	15.1455
359.478	16.51123
359.69	13.99964
359.903	16.65416
360.116	16.9429
360.328	15.18094
360.541	16.79246
360.753	15.9316
360.966	16.26358
361.179	16.42289
361.391	16.15521
361.604	16.27747
361.816	16.26163
362.029	16.11038
362.241	15.73814
362.454	16.09653
362.666	15.58889
362.879	16.58689
363.091	15.90439
363.304	15.74708
363.516	15.80644
363.728	15.48603
363.941	16.31826
364.153	16.44686
364.366	14.89409
364.578	15.69829
364.79	16.50787
365.003	16.45373
365.215	15.73398
365.427	16.86632
365.639	17.03426
365.852	16.48103
366.064	17.82151
366.276	16.48443
366.488	16.59764
366.701	16.38706
366.913	16.32942
367.125	16.45157
367.337	15.75465
367.549	16.31256
367.762	16.43642
367.974	16.59334
368.186	16.18975
368.398	17.34396
368.61	16.80638
368.822	17.09553
369.034	16.3167
369.246	17.32278
369.458	19.02764
369.67	16.32402
369.882	18.155
370.094	15.61309
370.306	18.15968
370.518	16.87761
370.73	16.77285
370.942	16.96422
371.154	17.21293
371.366	17.12567
371.578	17.49519
371.79	17.0071
372.002	17.93568
372.214	18.7988
372.425	16.92707
372.637	18.44349
372.849	17.36827
373.061	15.73448
373.273	17.3827
373.484	17.42859
373.696	17.82984
373.908	15.95616
374.12	17.95874
374.331	17.82172
374.543	16.85648
374.755	16.98004
374.967	17.55522
375.178	18.25776
375.39	17.34554
375.602	17.93288
375.813	16.68259
376.025	17.34425
376.236	18.0732
376.448	18.3561
376.66	17.85143
376.871	17.97795
377.083	18.91898
377.294	19.53413
377.506	17.80729
377.717	19.15383
377.929	18.18301
378.14	17.86074
378.352	18.31006
378.563	18.38298
378.775	18.80483
378.986	17.25353
379.197	17.92363
379.409	17.35665
379.62	18.32898
379.832	18.38218
380.043	18.01198
380.254	18.59267
380.466	17.46722
380.677	20.26167
380.888	19.49704
381.1	20.18868
381.311	20.20088
381.522	18.57599
381.733	20.16829
381.945	18.4472
382.156	18.27347
382.367	18.17065
382.578	20.36499
382.789	20.62711
383.001	18.16389
383.212	19.82835
383.423	19.97793
383.634	19.64225
383.845	19.41594
384.056	18.73042
384.267	18.89627
384.478	19.03296
384.69	18.13861
384.901	19.25268
385.112	19.02157
385.323	20.13775
385.534	19.18279
385.745	19.28609
385.956	19.04851
386.167	18.51731
386.378	19.19621
386.588	18.64451
386.799	18.47363
387.01	18.31399
387.221	19.65894
387.432	19.14538
387.643	20.32765
387.854	18.93228
388.065	18.93916
388.275	19.0859
388.486	18.64785
388.697	19.20791
388.908	18.82328
389.119	20.04644
389.329	20.28688
389.54	19.47231
389.751	19.65713
389.962	20.30502
390.172	19.58168
390.383	19.39683
390.594	19.28744
390.804	19.44003
391.015	19.4101
391.226	20.01876
391.436	20.23736
391.647	20.13686
391.858	20.08706
392.068	18.93771
392.279	19.00226
392.489	19.79884
392.7	20.25966
392.91	19.26264
393.121	19.16627
393.331	20.0892
393.542	20.43155
393.752	20.47834
393.963	20.13531
394.173	20.2745
394.384	20.11929
394.594	20.02736
394.804	19.14233
395.015	20.02333
395.225	20.0651
395.436	19.12256
395.646	19.947
395.856	19.43284
396.067	18.72181
396.277	20.3865
396.487	19.97571
396.697	20.02549
396.908	20.11673
397.118	20.36803
397.328	20.08911
397.538	20.5301
397.749	19.50967
397.959	20.54965
398.169	20.26712
398.379	19.16383
398.589	20.41882
398.8	20.30712
399.01	20.13044
399.22	19.96679
399.43	21.56488
399.64	20.18927
399.85	20.23087
400.06	20.21528
400.27	19.40459
400.48	19.93211
400.69	20.78898
400.9	19.61577
401.11	19.28625
401.32	20.52986
401.53	19.77638
401.74	21.21208
401.95	20.52968
402.16	20.02391
402.37	20.56197
402.58	20.12429
402.79	20.60829
403	21.29542
403.209	20.06786
403.419	21.35205
403.629	20.11474
403.839	21.31659
404.049	21.20132
404.258	20.33976
404.468	20.06147
404.678	20.90854
404.888	21.32308
405.097	20.34026
405.307	20.37135
405.517	20.95652
405.727	20.76554
405.936	20.14157
406.146	20.46404
406.356	21.29837
406.565	20.25676
406.775	20.05244
406.984	19.90338
407.194	21.55628
407.404	20.19426
407.613	20.67996
407.823	20.71239
408.032	21.13689
408.242	21.09486
408.451	20.16184
408.661	20.36535
408.87	21.72227
409.08	20.27826
409.289	21.00202
409.499	21.04203
409.708	20.84605
409.918	19.62757
410.127	21.11387
410.336	21.71589
410.546	21.15944
410.755	20.42751
410.964	20.56128
411.174	19.98719
411.383	20.89181
411.592	20.75451
411.802	20.08198
412.011	21.06959
412.22	20.48967
412.429	21.71845
412.639	21.60678
412.848	21.23308
413.057	21.81104
413.266	21.37885
413.475	20.8691
413.685	21.0627
413.894	21.64098
414.103	21.74128
414.312	21.56644
414.521	21.00223
414.73	21.13723
414.939	22.60032
415.148	21.78978
415.357	21.46923
415.566	21.2646
415.776	21.32222
415.985	21.4423
416.194	21.806
416.403	22.76316
416.611	20.90965
416.82	21.53887
417.029	21.90805
417.238	21.58194
417.447	21.53253
417.656	21.84653
417.865	21.47518
418.074	21.97845
418.283	21.95947
418.492	22.53662
418.7	22.3766
418.909	23.72112
419.118	22.86739
419.327	23.33921
419.536	23.44281
419.744	24.07781
419.953	25.62372
420.162	26.29232
420.371	26.21158
420.579	27.56139
420.788	28.29015
420.997	28.53647
421.205	29.44546
421.414	28.84611
421.623	28.95472
421.831	28.5585
422.04	28.81887
422.249	27.57246
422.457	27.67615
422.666	26.32009
422.874	27.21801
423.083	27.51596
423.291	27.80996
423.5	28.07741
423.708	28.94526
423.917	29.337
424.125	29.06558
424.334	29.06056
424.542	30.59073
424.751	30.10169
424.959	29.3096
425.167	28.71054
425.376	28.55277
425.584	26.22675
425.793	25.73247
426.001	24.38683
426.209	23.57749
426.418	22.22504
426.626	21.36991
426.834	21.33684
427.042	21.62631
427.251	21.35588
427.459	22.2676
427.667	21.70763
427.875	21.07291
428.084	21.57113
428.292	22.62311
428.5	22.31235
428.708	21.48622
428.916	21.75607
429.124	22.29009
429.333	22.17817
429.541	22.24111
429.749	22.27963
429.957	22.32159
430.165	24.00688
430.373	21.52318
430.581	22.51274
430.789	23.22403
430.997	22.26581
431.205	21.96096
431.413	22.69721
431.621	22.48742
431.829	23.12743
432.037	22.68947
432.245	23.29205
432.453	23.11546
432.661	23.04041
432.869	24.19255
433.076	22.68206
433.284	22.85742
433.492	23.29191
433.7	23.51107
433.908	22.66679
434.116	22.90787
434.323	22.71239
434.531	22.46103
434.739	22.7557
434.947	22.93272
435.154	22.86153
435.362	22.38425
435.57	22.26024
435.778	22.12783
435.985	22.61068
436.193	22.41452
436.401	23.49381
436.608	22.7117
436.816	22.64333
437.023	23.76546
437.231	23.97057
437.439	23.12767
437.646	23.3823
437.854	23.32934
438.061	23.59553
438.269	23.20228
438.476	23.74413
438.684	23.59808
438.891	23.28583
439.099	23.09818
439.306	22.99976
439.514	22.97116
439.721	24.38627
439.929	24.54739
440.136	25.74075
440.343	25.95717
440.551	25.92863
440.758	27.43981
440.965	25.78594
441.173	25.52414
441.38	25.30437
441.587	24.28025
441.795	23.91755
442.002	23.08187
442.209	22.81596
442.416	22.93212
442.624	23.03946
442.831	22.87328
443.038	22.71895
443.245	22.45397
443.452	22.96094
443.66	23.50082
443.867	23.17562
444.074	23.22636
444.281	23.42115
444.488	23.60385
444.695	23.84913
444.902	23.73323
445.109	25.53215
445.316	25.9576
445.523	27.01476
445.73	27.8275
445.937	29.00555
446.144	29.90348
446.351	30.4696
446.558	29.12708
446.765	31.60806
446.972	30.01244
447.179	29.77434
447.386	29.91273
447.593	27.29984
447.8	28.19402
448.007	25.70235
448.214	24.36651
448.42	23.51345
448.627	23.32159
448.834	22.84823
449.041	22.73094
449.248	22.69711
449.454	23.20286
449.661	23.84897
449.868	22.64628
450.075	22.72642
450.281	21.94063
450.488	22.47938
450.695	22.72246
450.901	22.9463
451.108	23.03036
451.315	24.05778
451.521	23.52303
451.728	24.21161
451.935	23.23221
452.141	23.68338
452.348	23.58687
452.554	23.46765
452.761	23.24784
452.967	24.4112
453.174	23.50583
453.38	23.73103
453.587	22.74847
453.793	23.42132
454	23.92992
454.206	24.54633
454.413	23.86177
454.619	23.70282
454.825	23.13642
455.032	23.90963
455.238	23.90719
455.445	22.96798
455.651	23.70617
455.857	22.54654
456.064	23.07639
456.27	23.32722
456.476	23.4755
456.682	22.95446
456.889	23.95119
457.095	24.00689
457.301	25.24688
457.507	24.03761
457.714	24.0061
457.92	24.19754
458.126	24.00453
458.332	24.39107
458.538	24.23019
458.744	24.68838
458.951	24.70978
459.157	27.49708
459.363	27.63949
459.569	28.29758
459.775	28.84452
459.981	29.33755
460.187	29.70657
460.393	29.26048
460.599	28.88308
460.805	27.29495
461.011	25.2922
461.217	24.12288
461.423	23.58224
461.629	23.02613
461.835	23.36133
462.041	22.9518
462.247	24.01339
462.453	23.22848
462.658	23.21021
462.864	23.86317
463.07	23.82145
463.276	23.89906
463.482	23.84164
463.688	24.7028
463.893	23.71446
464.099	24.09965
464.305	24.99884
464.511	23.88924
464.716	24.00227
464.922	24.70432
465.128	23.65558
465.333	24.97894
465.539	24.54723
465.745	24.11844
465.95	24.17443
466.156	25.70909
466.362	24.80747
466.567	24.17565
466.773	24.03168
466.978	24.98475
467.184	23.52045
467.389	23.00337
467.595	24.19677
467.8	23.79535
468.006	24.75079
468.211	24.81054
468.417	23.4134
468.622	24.34494
468.828	24.54997
469.033	24.59868
469.239	25.77612
469.444	23.98804
469.649	24.88732
469.855	24.26149
470.06	24.32552
470.266	24.02645
470.471	24.76127
470.676	24.6358
470.881	23.54381
471.087	24.91742
471.292	25.54766
471.497	23.64218
471.703	24.23505
471.908	24.13914
472.113	24.56893
472.318	25.06744
472.523	23.92947
472.729	24.75501
472.934	24.74978
473.139	24.13214
473.344	24.56024
473.549	24.92027
473.754	24.0359
473.959	25.83449
474.164	23.96218
474.369	24.49207
474.575	24.93646
474.78	24.32733
474.985	24.10422
475.19	23.70625
475.395	24.40428
475.6	24.55605
475.804	25.54357
476.009	24.69916
476.214	24.81562
476.419	24.6603
476.624	23.98461
476.829	24.35254
477.034	25.20802
477.239	24.35596
477.444	25.15932
477.648	25.0871
477.853	24.95356
478.058	24.56163
478.263	24.18819
478.468	24.15034
478.672	24.07636
478.877	25.3278
479.082	25.2735
479.287	24.81709
479.491	24.44938
479.696	24.27011
479.901	24.87811
480.105	25.0876
480.31	24.46057
480.515	25.03603
480.719	26.08515
480.924	25.00068
481.128	24.5008
481.333	25.46303
481.538	25.53514
481.742	26.7777
481.947	28.88339
482.151	31.49647
482.356	34.52058
482.56	40.25802
482.765	45.58626
482.969	53.40617
483.174	59.98862
483.378	68.14853
483.582	71.49504
483.787	74.98273
483.991	76.41089
484.196	76.60194
484.4	74.80692
484.604	73.4844
484.809	67.29237
485.013	62.16597
485.217	55.86343
485.422	50.01349
485.626	45.51022
485.83	43.23898
486.034	42.44503
486.239	43.44907
486.443	45.40854
486.647	47.30344
486.851	49.87749
487.055	53.25279
487.26	54.40324
487.464	56.41156
487.668	56.29523
487.872	57.2982
488.076	56.62366
488.28	54.06217
488.484	50.7601
488.688	48.71635
488.892	45.4251
489.096	41.805
489.3	38.74166
489.504	36.10832
489.708	34.1303
489.912	33.46039
490.116	33.1832
490.32	33.74785
490.524	36.67883
490.728	39.09728
490.932	42.14169
491.136	44.77421
491.34	46.89989
491.544	47.58402
491.748	47.87147
491.951	47.55587
492.155	45.99485
492.359	44.05909
492.563	40.62207
492.767	37.68268
492.97	33.59288
493.174	30.06083
493.378	27.27157
493.582	24.66847
493.785	23.46969
493.989	23.72835
494.193	24.01378
494.396	24.05256
494.6	24.81414
494.804	24.66057
495.007	24.47707
495.211	24.77969
495.414	24.99797
495.618	25.418
495.822	26.06996
496.025	25.53509
496.229	25.95074
496.432	25.2663
496.636	25.57757
496.839	25.35653
497.043	26.16077
497.246	25.51587
497.45	25.11781
497.653	25.34982
497.856	25.2135
498.06	24.6512
498.263	24.89013
498.467	24.69352
498.67	25.44902
498.873	25.2249
499.077	24.94674
499.28	24.83697
499.483	25.05776
499.686	25.29662
499.89	25.02558
500.093	25.33488
500.296	24.61352
500.499	25.7946
500.703	25.05251
500.906	25.21543
501.109	25.87292
501.312	25.15144
501.515	25.04581
501.719	25.31692
501.922	25.71176
502.125	25.334
502.328	25.28202
502.531	24.87681
502.734	25.45615
502.937	24.77511
503.14	25.69703
503.343	25.31169
503.546	25.43188
503.749	25.20548
503.952	26.00853
504.155	25.16828
504.358	25.76879
504.561	25.53709
504.764	24.75628
504.967	25.4116
505.17	25.21106
505.373	25.95239
505.576	25.38645
505.778	25.69923
505.981	24.8875
506.184	25.96984
506.387	24.72401
506.59	26.4794
506.793	26.14905
506.995	25.91212
507.198	24.91777
507.401	26.05844
507.604	26.10794
507.806	25.4843
508.009	25.55681
508.212	26.37003
508.414	25.56452
508.617	25.66915
508.82	25.76312
509.022	26.45574
509.225	25.88629
509.427	25.05287
509.63	26.18988
509.833	25.60463
510.035	25.06416
510.238	24.74421
510.44	26.10428
510.643	24.60711
510.845	26.50248
511.048	25.80772
511.25	25.34215
511.453	25.56072
511.655	25.76318
511.858	25.56531
512.06	25.96303
512.262	25.65033
512.465	26.00842
512.667	25.27728
512.869	24.7857
513.072	25.56772
513.274	25.70559
513.476	25.58338
513.679	25.7748
513.881	24.86739
514.083	26.08252
514.286	25.02623
514.488	25.09553
514.69	25.0608
514.892	24.69085
515.094	25.91346
515.297	25.32179
515.499	25.71919
515.701	25.17735
515.903	26.57613
516.105	26.70151
516.307	26.3591
516.509	25.20737
516.711	25.70631
516.913	26.50504
517.116	26.47686
517.318	26.18334
517.52	27.27566
517.722	26.93072
517.924	26.01678
518.126	26.76625
518.328	26.51705
518.529	27.41683
518.731	28.08447
518.933	26.31315
519.135	26.46142
519.337	26.78334
519.539	25.59493
519.741	24.52472
519.943	24.95808
520.145	25.00751
520.346	25.38872
520.548	24.8101
520.75	25.3484
520.952	25.08398
521.153	25.556
521.355	25.57704
521.557	25.01384
521.759	25.60943
521.96	25.48627
522.162	25.0463
522.364	26.23847
522.565	25.3716
522.767	26.07714
522.969	26.30051
523.17	26.22893
523.372	26.16385
523.573	25.77514
523.775	25.98339
523.977	25.78804
524.178	27.37202
524.38	26.39859
524.581	26.95397
524.783	26.60738
524.984	27.0765
525.186	27.08373
525.387	28.08035
525.589	28.40813
525.79	28.89417
525.991	29.23444
526.193	29.8444
526.394	29.42617
526.596	30.47826
526.797	31.43798
526.998	31.53773
527.2	33.89239
527.401	38.1501
527.602	41.97885
527.803	47.89947
528.005	51.97961
528.206	55.59
528.407	58.28399
528.608	59.11183
528.81	59.45295
529.011	58.38633
529.212	58.28364
529.413	54.85736
529.614	50.8672
529.815	46.69266
530.017	42.28827
530.218	37.59272
530.419	34.03904
530.62	32.29388
530.821	30.65567
531.022	28.74672
531.223	29.33911
531.424	28.8874
531.625	29.33648
531.826	29.54745
532.027	31.12585
532.228	33.79864
532.429	35.46311
532.63	37.25839
532.831	39.41312
533.032	40.18135
533.233	41.30964
533.433	40.54335
533.634	40.76176
533.835	39.1295
534.036	37.35913
534.237	35.14729
534.438	32.8507
534.638	29.75785
534.839	28.0081
535.04	26.82534
535.241	25.89915
535.441	26.92258
535.642	27.02204
535.843	27.23852
536.043	28.01018
536.244	28.61481
536.445	29.27801
536.645	30.04845
536.846	29.52925
537.047	29.60177
537.247	28.14613
537.448	26.92688
537.648	25.90089
537.849	25.11932
538.049	24.90284
538.25	25.28241
538.451	25.24497
538.651	24.87994
538.851	25.89311
539.052	26.4858
539.252	26.44026
539.453	26.32459
539.653	26.93592
539.854	27.14533
540.054	27.78808
540.254	31.57716
540.455	35.07427
540.655	37.14087
540.855	41.08145
541.056	43.1632
541.256	43.71126
541.456	44.90657
541.657	44.90212
541.857	44.80361
542.057	42.66871
542.257	40.75554
542.458	39.53746
542.658	37.17871
542.858	33.8978
543.058	32.31814
543.258	30.77612
543.458	28.56237
543.659	27.45817
543.859	27.35759
544.059	26.54004
544.259	25.52197
544.459	26.03019
544.659	25.46711
544.859	25.84562
545.059	25.59372
545.259	26.47061
545.459	26.28663
545.659	26.82532
545.859	26.56079
546.059	26.89184
546.259	26.2791
546.459	25.95432
546.659	26.0038
546.859	26.65941
547.059	26.29601
547.258	26.17885
547.458	26.02896
547.658	25.07825
547.858	24.88052
548.058	25.35323
548.258	25.08836
548.457	24.70772
548.657	26.55526
548.857	25.24119
549.057	25.99381
549.256	25.76644
549.456	25.41202
549.656	24.80188
549.855	27.12436
550.055	25.8162
550.255	26.98834
550.454	26.42937
550.654	26.76385
550.853	27.19107
551.053	26.79225
551.253	26.78162
551.452	26.78408
551.652	25.95427
551.851	25.88425
552.051	26.63546
552.25	26.474
552.45	26.33454
552.649	26.42977
552.849	26.11768
553.048	26.56137
553.248	26.63033
553.447	25.44381
553.646	26.49484
553.846	27.37901
554.045	26.59897
554.244	24.94873
554.444	26.59046
554.643	25.37262
554.842	26.91991
555.042	27.01025
555.241	25.4191
555.44	25.31964
555.64	26.52091
555.839	27.12529
556.038	26.67257
556.237	25.81649
556.436	26.5202
556.636	26.55639
556.835	25.78425
557.034	27.23296
557.233	26.33693
557.432	25.03048
557.631	26.87585
557.83	26.08789
558.029	25.94579
558.228	25.76242
558.427	25.80902
558.626	26.50662
558.825	25.69376
559.024	26.08188
559.223	27.48359
559.422	26.19425
559.621	26.66783
559.82	24.9655
560.019	26.53517
560.218	26.10122
560.417	24.91675
560.616	26.18204
560.815	28.6231
561.014	25.58244
561.212	27.69857
561.411	26.67531
561.61	25.54263
561.809	25.97335
562.008	27.45695
562.206	25.89807
562.405	26.59532
562.604	25.9125
562.803	26.24228
563.001	26.0183
563.2	25.24994
563.399	26.45288
563.597	25.63702
563.796	26.31046
563.995	25.70648
564.193	27.03024
564.392	26.42291
564.59	28.29895
564.789	25.56438
564.988	26.60109
565.186	27.02306
565.385	27.05758
565.583	26.8362
565.782	27.00676
565.98	26.78172
566.179	26.64428
566.377	26.06272
566.575	26.04943
566.774	27.23118
566.972	26.71486
567.171	27.4478
567.369	26.68291
567.567	25.92905
567.766	25.85593
567.964	24.58443
568.162	26.41736
568.361	27.00378
568.559	26.1294
568.757	26.44011
568.956	26.33956
569.154	26.56285
569.352	26.68745
569.55	26.45367
569.748	26.65437
569.947	26.0201
570.145	25.81135
570.343	26.10068
570.541	27.86467
570.739	26.12025
570.937	26.83742
571.135	27.45682
571.333	28.47779
571.532	28.31118
571.73	27.18081
571.928	27.42511
572.126	27.13636
572.324	26.26563
572.522	27.22359
572.72	28.13189
572.918	26.14195
573.116	26.52045
573.313	25.94105
573.511	26.25503
573.709	25.83998
573.907	26.97844
574.105	26.27701
574.303	25.4668
574.501	25.58442
574.699	27.12891
574.896	26.85402
575.094	27.04854
575.292	25.81522
575.49	27.0913
575.688	26.20522
575.885	27.14475
576.083	28.00304
576.281	26.43019
576.478	25.59977
576.676	26.39426
576.874	25.09312
577.071	25.98736
577.269	27.70855
577.467	26.03377
577.664	25.96001
577.862	26.95151
578.059	25.43627
578.257	26.77685
578.455	25.76387
578.652	25.99368
578.85	24.83672
579.047	26.18942
579.245	25.95392
579.442	26.11831
579.64	26.02889
579.837	25.0135
580.034	28.44722
580.232	26.08143
580.429	25.37825
580.627	26.9854
580.824	27.3635
581.021	27.04178
581.219	26.00617
581.416	25.9648
581.613	27.65543
581.811	27.64368
582.008	25.95377
582.205	27.17637
582.402	26.71387
582.6	27.52821
582.797	26.40786
582.994	26.81158
583.191	27.02433
583.388	26.32666
583.586	26.96792
583.783	27.25842
583.98	25.64941
584.177	26.65159
584.374	24.40493
584.571	26.2002
584.768	26.3811
584.965	26.1233
585.162	27.09772
585.359	27.95687
585.556	26.50292
585.753	26.85324
585.95	25.24575
586.147	25.64805
586.344	27.0739
586.541	26.25242
586.738	25.63485
586.935	26.53183
587.132	25.93326
587.329	27.48541
587.526	26.51617
587.722	30.78216
587.919	25.77022
588.116	27.10732
588.313	27.91228
588.51	28.77734
588.706	26.61109
588.903	27.36855
589.1	27.49349
589.297	29.22792
589.493	26.69932
589.69	27.29028
589.887	26.30228
590.083	25.76815
590.28	25.95186
590.477	27.38152
590.673	26.78163
590.87	27.44848
591.067	25.69145
591.263	26.6037
591.46	26.63029
591.656	25.81763
591.853	27.51674
592.049	25.81146
592.246	25.8029
592.442	27.38537
592.639	27.73169
592.835	26.14009
593.032	27.2126
593.228	25.7418
593.425	25.72333
593.621	25.63333
593.817	27.20623
594.014	26.17196
594.21	27.0305
594.406	27.85361
594.603	27.20899
594.799	26.3574
594.995	25.17726
595.192	27.84548
595.388	26.49843
595.584	26.81531
595.78	26.12326
595.977	29.9588
596.173	29.02365
596.369	27.43888
596.565	26.84453
596.761	26.34839
596.957	28.22076
597.154	26.49039
597.35	26.41771
597.546	26.34106
597.742	26.78895
597.938	26.36354
598.134	25.32243
598.33	25.98939
598.526	26.85233
598.722	25.96054
598.918	27.28806
599.114	26.36747
599.31	24.84625
599.506	26.22903
599.702	25.58926
599.898	26.66013
600.094	27.16928
600.29	27.35644
600.485	27.38658
600.681	26.06226
600.877	28.424
601.073	26.79815
601.269	28.70287
601.465	28.37616
601.66	26.24533
601.856	25.47886
602.052	29.46468
602.248	27.41793
602.443	25.95695
602.639	26.67406
602.835	27.06185
603.03	26.85812
603.226	28.59873
603.422	27.03987
603.617	27.58507
603.813	27.54271
604.009	27.21447
604.204	28.3131
604.4	26.19125
604.595	28.08144
604.791	26.26504
604.986	27.03538
605.182	25.83217
605.377	26.0138
605.573	25.95715
605.768	25.9406
605.964	26.23968
606.159	26.34498
606.355	26.58373
606.55	25.287
606.746	26.75814
606.941	26.07392
607.136	28.06894
607.332	29.30386
607.527	25.50741
607.722	27.08385
607.918	26.72018
608.113	26.55076
608.308	28.62005
608.503	28.10514
608.699	28.25707
608.894	28.4083
609.089	27.08857
609.284	28.13977
609.479	27.00186
609.675	28.01404
609.87	26.96038
610.065	27.68883
610.26	27.54655
610.455	27.3108
610.65	26.36707
610.845	26.66279
611.04	27.14099
611.235	26.23759
611.43	26.13823
611.625	25.31691
611.82	28.14698
612.015	26.06344
612.21	28.39322
612.405	25.24006
612.6	28.42544
612.795	28.24857
612.99	27.44884
613.185	25.91691
613.38	26.13543
613.575	26.89628
613.77	29.94486
613.965	25.37922
614.159	26.14446
614.354	28.21616
614.549	28.02665
614.744	27.60482
614.938	25.77629
615.133	25.28964
615.328	28.25896
615.523	28.25942
615.717	30.26716
615.912	26.34941
616.107	27.03725
616.301	26.63701
616.496	26.17608
616.691	28.8684
616.885	27.71823
617.08	30.39016
617.274	27.9335
617.469	29.13666
617.664	27.75235
617.858	26.68094
618.053	27.45714
618.247	26.61498
618.442	24.63433
618.636	28.71535
618.831	26.18346
619.025	26.53026
619.219	30.44023
619.414	23.69553
619.608	26.22459
619.803	26.3203
619.997	29.34697
620.191	28.01539
620.386	27.30384
620.58	27.00542
620.774	24.89931
620.969	25.04331
621.163	27.135
621.357	25.89117
621.551	26.64699
621.746	27.20787
621.94	26.49047
622.134	30.74607
622.328	29.51113
622.522	25.19198
622.716	28.15641
622.911	28.32193
623.105	28.16801
623.299	27.67521
623.493	30.80775
623.687	26.27061
623.881	26.4244
624.075	27.71469
624.269	28.74438
624.463	25.0562
624.657	25.46657
624.851	28.1944
625.045	28.33687
625.239	28.64545
625.433	27.26567
625.627	29.68291
625.821	27.48281
626.015	27.18923
626.209	28.15578
626.403	26.18912
626.596	28.47195
626.79	28.6831
626.984	26.32638
627.178	28.13371
627.372	27.66579
627.565	27.83757
627.759	25.49941
627.953	25.70769
628.147	27.26351
628.34	27.78045
628.534	29.57419
628.728	26.47566
628.921	27.60125
629.115	27.6628
629.309	27.85199
629.502	28.18086
629.696	27.05693
629.89	26.88509
630.083	27.35861
630.277	27.48025
630.47	29.06255
630.664	26.5064
630.857	25.17827
631.051	27.59187
631.244	28.36496
631.438	28.16547
631.631	26.07878
631.825	28.85916
632.018	27.67395
632.212	29.63148
632.405	28.91402
632.598	26.09101
632.792	27.60906
632.985	24.81597
633.178	27.20113
633.372	27.57784
633.565	27.43226
633.758	29.47307
633.952	26.3943
634.145	26.37023
634.338	27.49967
634.531	26.55828
634.724	26.30467
634.918	27.43407
635.111	26.79571
635.304	26.71471
635.497	30.08406
635.69	27.64114
635.883	28.60599
636.077	25.81619
636.27	28.05924
636.463	27.46418
636.656	27.57715
636.849	27.06687
637.042	28.32698
637.235	29.59155
637.428	28.29223
637.621	27.88239
637.814	29.23766
638.007	29.42091
638.2	29.20016
638.393	29.66652
638.586	25.34709
638.778	26.77641
638.971	27.06549
639.164	29.25231
639.357	27.67498
639.55	29.61288
639.743	28.47555
639.935	28.07567
640.128	30.62343
640.321	28.80814
640.514	27.78386
640.707	30.92711
640.899	28.30324
641.092	25.08125
641.285	43.01276
641.477	24.43924
641.67	31.50391
641.863	29.36221
642.055	27.62515
642.248	27.3234
642.441	26.81603
642.633	28.161
642.826	29.7569
643.018	29.81917
643.211	30.95311
643.403	30.92602
643.596	31.44349
643.788	30.06357
643.981	27.15004
644.173	28.84841
644.366	26.92041
644.558	24.96448
644.751	29.43526
644.943	25.77328
645.135	30.26286
645.328	30.55123
645.52	28.6539
645.712	29.4991
645.905	32.50038
646.097	25.67367
646.289	28.04933
646.482	31.4365
646.674	26.53653
646.866	29.811
647.058	28.69069
647.251	26.16962
647.443	27.23359
647.635	27.60018
647.827	26.03182
648.019	26.18221
648.211	27.23209
648.404	28.14752
648.596	30.87778
648.788	28.45635
648.98	28.06528
649.172	29.30452
649.364	28.58678
649.556	25.41918
649.748	33.16436
649.94	26.65189
650.132	29.50009
650.324	26.80773
650.516	26.98856
650.708	30.50822
650.9	26.21157
651.092	25.94716
651.284	26.22507
651.476	26.63546
651.667	29.80725
651.859	30.95027
652.051	27.9458
652.243	28.44521
652.435	27.63567
652.627	29.30486
652.818	28.90914
653.01	25.4199
653.202	26.59661
653.394	27.24315
653.585	28.47159
653.777	35.92257
653.969	30.88902
654.16	30.10154
654.352	26.23284
654.544	28.06493
654.735	29.85046
654.927	28.4827
655.118	30.75912
655.31	29.6757
655.502	30.3738
655.693	28.22546
655.885	29.40734
656.076	30.91447
656.268	28.6377
656.459	31.6599
656.651	31.28264
656.842	27.72484
657.034	27.42275
657.225	30.69727
657.416	31.46201
657.608	31.68807
657.799	29.58086
657.99	31.92165
658.182	29.07625
658.373	28.77581
658.564	32.12571
658.756	30.75617
658.947	29.62042
659.138	28.41163
659.33	28.67898
659.521	27.99804
659.712	28.82499
659.903	28.40021
660.094	27.60882
660.286	25.76192
660.477	31.30938
660.668	29.41243
660.859	27.75913
661.05	25.68342
661.241	29.09703
661.432	28.72543
661.623	27.84253
661.814	27.84375
662.006	25.86418
662.197	28.0076
662.388	30.63287
662.579	28.82733
662.77	30.27812
662.96	33.61172
663.151	29.74087
663.342	25.49646
663.533	30.02321
663.724	28.5114
663.915	32.47242
664.106	28.77423
664.297	32.62706
664.488	29.99666
664.678	27.37193
664.869	30.85869
665.06	30.41154
665.251	29.08186
665.442	29.84288
665.632	26.80784
665.823	32.52627
666.014	23.63675
666.204	30.27587
666.395	31.74663
666.586	33.55445
666.776	30.65781
666.967	32.77339
667.158	29.17479
667.348	32.18557
667.539	27.53804
667.729	31.18659
667.92	28.06464
668.111	31.46015
668.301	31.1
668.492	29.67205
668.682	30.38074
668.873	29.65001
669.063	27.23366
669.253	30.06455
669.444	32.66564
669.634	29.44423
669.825	33.24265
670.015	32.33811
670.206	27.51386
670.396	33.24502
670.586	28.78807
670.777	30.18447
670.967	25.12856
671.157	28.6587
671.347	28.01209
671.538	32.51114
671.728	30.6272
671.918	33.86334
672.108	30.98244
672.299	28.97092
672.489	30.42178
672.679	27.73428
672.869	31.12387
673.059	34.45724
673.249	30.65561
673.44	27.51326
673.63	29.16614
673.82	31.55891
674.01	27.5114
674.2	30.50041
674.39	35.78094
674.58	31.10337
674.77	30.26915
674.96	29.02935
675.15	39.03418
675.34	32.19963
675.53	30.05068
675.72	29.30573
675.91	26.88704
676.099	34.564
676.289	35.16483
676.479	32.81441
676.669	29.36385
676.859	30.55416
677.049	28.85512
677.238	30.52494
677.428	34.39597
677.618	31.81323
677.808	34.76757
677.997	31.73795
678.187	29.22455
678.377	30.99088
678.567	29.34083
678.756	29.85674
678.946	31.26066
679.136	28.51033
679.325	30.23204
679.515	29.39828
679.704	28.75285
679.894	33.45712
680.084	32.17915
680.273	33.78331
680.463	29.66726
680.652	28.76658
680.842	30.54378
681.031	32.92647
681.221	28.49882
681.41	31.27643
681.6	30.02262
681.789	31.47654
681.978	32.48218
682.168	30.78379
682.357	30.72293
682.547	31.41571
682.736	30.71855
682.925	33.56561
683.115	32.89858
683.304	32.28368
683.493	30.86091
683.682	32.08486
683.872	31.66151
684.061	33.28764
684.25	31.79909
684.439	35.99199
684.629	33.08149
684.818	39.3974
685.007	31.25654
685.196	30.31874
685.385	35.81128
685.574	31.62742
685.763	32.52852
685.952	31.88013
686.142	28.28119
686.331	34.90429
686.52	27.37667
686.709	36.53683
686.898	36.29259
687.087	33.17837
687.276	36.05169
687.465	35.16529
687.654	31.21057
687.842	35.26278
688.031	29.50549
688.22	35.34323
688.409	32.43542
688.598	32.4423
688.787	38.59868
688.976	32.60886
689.165	37.02893
689.353	31.07162
689.542	32.99882
689.731	34.7716
689.92	37.8521
690.108	34.61296
690.297	30.82187
690.486	32.4194
690.675	34.99247
690.863	37.11729
691.052	36.44621
691.241	32.70039
691.429	33.25469
691.618	36.33756
691.806	29.21851
691.995	31.30499
692.184	32.58309
692.372	31.67389
692.561	32.98113
692.749	33.42568
692.938	42.15888
693.126	34.48063
693.315	31.68794
693.503	35.26457
693.692	35.78032
693.88	35.76305
694.068	39.36093
694.257	33.89314
694.445	34.91739
694.634	27.86313
694.822	35.35205
695.01	36.80791
695.199	39.40033
695.387	37.99616
695.575	36.8004
695.763	33.40163
695.952	32.59628
696.14	29.68265
696.328	32.3139
696.516	33.86811
696.705	34.90708
696.893	34.26483
697.081	29.53403
697.269	36.85456
697.457	31.99075
697.645	31.78952
697.833	37.26751
698.021	33.12767
698.21	33.66609
698.398	34.35706
698.586	31.51798
698.774	30.99558
698.962	33.72572
699.15	30.94612
699.338	29.20878
699.526	34.3105
699.714	30.55233
699.901	30.45932
700.089	34.19669
700.277	29.9435
700.465	31.71446
700.653	33.99533
700.841	33.18897
701.029	29.59552
701.217	36.31451
701.404	32.59488
701.592	37.27633
701.78	39.8132
701.968	32.42899
702.155	31.63847
702.343	29.29677
702.531	37.3891
702.718	33.76362
702.906	31.82488
703.094	31.4892
703.281	37.73432
703.469	33.25663
703.657	36.95863
703.844	44.40575
704.032	40.36345
704.219	33.18996
704.407	36.50546
704.595	38.78299
704.782	36.08969
704.97	34.7626
705.157	35.08321
705.345	42.23619
705.532	47.76858
705.719	39.00157
705.907	42.64447
706.094	39.19516
706.282	45.52557
706.469	39.41816
706.656	40.74808
706.844	39.44092
707.031	44.76635
707.218	43.35986
707.406	47.74314
707.593	44.01855
707.78	44.08489
707.968	42.21001
708.155	40.28014
708.342	44.52688
708.529	44.81456
708.716	44.03669
708.904	48.24102
709.091	44.14282
709.278	39.00248
709.465	50.24725
709.652	46.77052
709.839	45.96094
710.026	42.47663
710.213	35.63798
710.4	41.65733
710.587	42.71335
710.774	45.15187
710.961	45.13078
711.148	41.48166
711.335	44.18345
711.522	39.84315
711.709	43.39148
711.896	48.77896
712.083	44.79774
712.27	38.11663
712.457	42.37525
712.644	36.86777
712.831	49.38873
713.017	41.78915
713.204	44.35697
713.391	38.92489
713.578	44.16936
713.765	46.10065
713.951	41.74821
714.138	51.44344
714.325	41.093
714.512	39.46794
714.698	35.70551
714.885	44.46106
715.072	39.0068
715.258	38.75374
715.445	35.77064
715.631	42.42348
715.818	28.75972
716.005	35.74469
716.191	40.0613
716.378	35.65701
716.564	40.34571
716.751	33.64407
716.937	34.96338
717.124	39.98831
717.31	33.0369
717.497	43.64958
717.683	33.95186
717.869	45.1226
718.056	34.22358
718.242	37.81433
718.429	35.5973
718.615	32.4075
718.801	36.40382
718.988	41.76989
719.174	39.2179
719.36	35.34075
719.547	41.14567
719.733	37.97496
719.919	38.99827
720.105	39.61767
720.291	37.05393
720.478	38.0476
720.664	36.68411
720.85	35.24019
721.036	49.45561
721.222	43.90614
721.408	37.59809
721.595	45.49508
721.781	44.78064
721.967	42.24389
722.153	44.48477
722.339	40.21569
722.525	39.58718
722.711	32.9794
722.897	32.63285
723.083	36.00206
723.269	41.96786
723.455	50.59072
723.641	57.13331
723.827	38.42389
724.012	40.08847
724.198	37.90407
724.384	45.0021
724.57	40.01321
724.756	32.02926
724.942	30.70458
725.127	43.46884
725.313	43.93333
725.499	43.29881
725.685	47.10653
725.87	40.62818
726.056	34.58574
726.242	45.19782
726.428	31.62359
726.613	42.65156
726.799	36.54618
726.985	33.71965
727.17	31.05784
727.356	48.18397
727.541	34.49959
727.727	38.30094
727.913	42.55991
728.098	36.16236
728.284	42.56839
728.469	33.8569
728.655	35.05016
728.84	43.72374
729.026	42.30997
729.211	41.70102
729.397	41.43716
729.582	42.80664
729.767	38.73957
729.953	40.99935
730.138	45.28099
730.323	29.20465
730.509	34.53656
730.694	47.9167
730.879	42.02026
731.065	40.30053
731.25	50.27206
731.435	42.6579
731.621	32.46127
731.806	36.73148
731.991	39.66841
732.176	33.68323
732.361	46.72567
732.547	40.55677
732.732	32.70225
732.917	50.63668
733.102	33.89569
733.287	35.88061
733.472	38.67691
733.657	38.50807
733.842	32.74185
734.027	36.46404
734.212	37.86314
734.397	35.00789
734.582	38.99812
734.767	42.80487
734.952	46.45553
735.137	27.32438
735.322	46.57402
735.507	41.42243
735.692	39.44255
735.877	50.80828
736.062	47.97459
736.247	40.83185
736.431	38.24248
736.616	44.842
736.801	41.7105
736.986	39.00681
737.171	35.0886
737.355	34.17142
737.54	46.26018
737.725	40.21625
737.909	53.42187
738.094	37.31135
738.279	44.38031
738.463	38.39976
738.648	42.8502
738.833	42.80692
739.017	51.21148
739.202	37.45289
739.386	38.19776
739.571	34.60808
739.756	43.38412
739.94	39.3205
740.125	41.89447
740.309	35.18864
740.494	45.17897
740.678	40.55523
740.863	42.85795
741.047	40.80812
741.231	49.1553
741.416	35.99511
741.6	48.53896
741.785	35.63523
741.969	45.57541
742.153	48.0034
742.338	30.40111
742.522	40.3315
742.706	44.79922
742.89	34.60438
743.075	40.66429
743.259	47.96047
743.443	46.40896
743.627	48.10125
743.812	52.41805
743.996	32.15334
744.18	39.17185
744.364	39.20673
744.548	55.15831
744.732	38.79824
744.916	46.64769
745.1	44.85279
745.285	39.05963
745.469	44.66273
745.653	50.78726
745.837	34.67815
746.021	54.79809
746.205	48.62493
746.389	40.85593
746.573	40.09534
746.757	49.84121
746.94	39.26353
747.124	48.4392
747.308	34.39481
747.492	48.49067
747.676	36.52735
747.86	57.22048
748.044	37.85117
748.227	32.07133
748.411	64.48868
748.595	41.94693
748.779	36.22316
748.963	43.04548
749.146	41.26789
749.33	36.90745
749.514	35.61881
749.697	47.3989
749.881	37.27152
750.065	35.1463
750.248	42.72069
750.432	56.34179
750.616	42.03833
750.799	34.89715
750.983	57.55272
751.166	55.38772
751.35	33.59033
751.533	46.07416
751.717	52.18779
751.9	50.3534
752.084	39.90171
752.267	36.20107
752.451	37.00221
752.634	42.70572
752.818	45.22537
753.001	47.15494
753.184	49.29615
753.368	44.059
753.551	22.58497
753.734	36.8538
753.918	57.76008
754.101	38.24073
754.284	45.93796
754.467	37.73307
754.651	37.69579
754.834	36.20333
755.017	48.3115
755.2	49.57127
755.384	36.51899
755.567	46.7439
755.75	46.90495
755.933	40.66266
756.116	48.04307
756.299	37.85742
756.482	36.3761
756.665	45.33561
756.848	41.63504
757.032	44.88263
757.215	33.17924
757.398	34.51199
757.581	36.35422
757.764	61.84715
757.947	41.66042
758.129	48.14018
758.312	26.01828
758.495	41.36313
758.678	40.67923
758.861	37.87199
759.044	54.54677
759.227	36.17631
759.41	36.83976
759.592	47.57512
759.775	39.97591
759.958	47.05503
760.141	35.18022
760.324	59.10318
760.506	52.04939
760.689	47.35349
760.872	56.92003
761.054	44.83818
761.237	40.91428
761.42	43.72075
761.602	48.02553
761.785	44.51232
761.968	51.74709
762.15	54.90687
762.333	41.48367
762.515	45.62487
762.698	41.23243
762.88	50.34257
763.063	45.90315
763.245	50.60925
763.428	37.46909
763.61	40.3464
763.793	35.43168
763.975	44.41639
764.158	40.35701
764.34	38.96328
764.522	37.23955
764.705	41.42781
764.887	51.47044
765.069	32.70054
765.252	44.71233
765.434	46.04946
765.616	41.9771
765.799	37.61119
765.981	47.65412
766.163	37.45312
766.345	50.98666
766.528	37.55431
766.71	29.78052
766.892	42.8941
767.074	51.53031
767.256	40.90236
767.438	53.92927
767.62	43.97454
767.802	59.07093
767.985	46.0112
768.167	56.09993
768.349	40.05318
768.531	46.99341
768.713	46.44155
768.895	49.38285
769.077	46.08766
769.259	62.48835
769.441	82.30978
769.623	48.6054
769.804	55.43513
769.986	52.05911
770.168	60.13275
770.35	71.28917
770.532	57.24163
770.714	61.02221
770.896	60.23592
771.077	35.75072
771.259	64.11594
771.441	56.87627
771.623	67.94692
771.804	78.44775
771.986	38.23834
772.168	47.31292
772.35	64.9888
772.531	82.4068
772.713	55.96795
772.894	68.74988
773.076	57.12851
773.258	49.99949
773.439	70.72865
773.621	77.35005
773.802	44.71327
773.984	49.61315
774.166	59.6597
774.347	72.88053
774.529	65.99787
774.71	35.1942
774.891	53.85549
775.073	49.23909
775.254	71.4803
775.436	48.6921
775.617	83.18061
775.799	50.65613
775.98	69.07841
776.161	74.76568
776.343	78.74392
776.524	54.65861
776.705	51.99196
776.886	36.18174
777.068	57.2752
777.249	107.49957
777.43	80.1094
777.611	43.30427
777.793	49.30044
777.974	79.09042
778.155	49.56539
778.336	42.06639
778.517	87.80984
778.698	48.34512
778.879	36.57611
779.061	28.36149
779.242	61.73098
779.423	61.96263
779.604	48.90818
779.785	51.87582
779.966	59.21934
780.147	69.9654
780.328	69.32026
780.509	91.52161
780.69	69.3228
780.871	50.11165
781.051	39.52546
781.232	57.82857
781.413	57.80877
781.594	51.65484
781.775	50.95957
781.956	47.81291
782.137	34.12822
782.317	49.57771
782.498	56.70201
782.679	57.81028
782.86	59.8231
783.04	49.35224
783.221	60.96599
783.402	79.13477
783.583	55.81192
783.763	66.16899
783.944	49.80593
784.124	41.66726
784.305	79.93132
784.486	64.84898
784.666	55.45927
784.847	40.08846
785.027	100.9829
785.208	48.30518
785.388	48.48854
785.569	50.24861
785.749	55.29254
785.93	51.32097
786.11	40.3145
786.291	64.08478
786.471	58.73679
786.652	68.24194
786.832	54.67707
787.012	58.75927
787.193	43.88573
787.373	57.64586
787.553	51.31543
787.734	59.76034
787.914	53.4041
788.094	68.44545
788.275	60.47883
788.455	52.36715
788.635	42.54042
788.815	58.39076
788.995	43.77967
789.176	38.84123
789.356	45.96003
789.536	53.70565
789.716	61.11159
789.896	46.69663
790.076	48.95593
790.256	59.09297
790.436	31.3153
790.616	44.47934
790.796	58.44845
790.976	51.26535
791.156	47.28282
791.336	62.49363
791.516	59.58325
791.696	53.02273
791.876	39.02464
792.056	57.7278
792.236	67.96823
792.416	65.41594
792.596	60.86596
792.776	60.73902
792.956	65.14823
793.135	78.42735
793.315	43.48115
793.495	69.09416
793.675	65.40675
793.854	65.53117
794.034	68.41044
794.214	45.1076
794.394	66.69484
794.573	73.56315
794.753	57.34153
794.933	46.88942
795.112	59.7031
795.292	69.77272
795.472	77.71927
795.651	44.62347
795.831	54.00627
796.01	53.03166
796.19	52.85057
796.369	56.55519
796.549	60.14271
796.728	53.25781
796.908	40.6315
797.087	42.64638
797.267	51.82667
797.446	44.06796
797.626	62.43151
797.805	61.15042
797.984	46.14322
798.164	65.66407
798.343	46.0588
798.522	57.84114
798.702	56.02945
798.881	40.40157
799.06	53.47068
799.239	35.44618
799.419	44.48335
799.598	78.41796
799.777	60.47585
799.956	72.12376
800.136	52.66576
800.315	45.15959
800.494	60.77843
800.673	70.42296
800.852	64.82979
801.031	69.01414
801.21	62.75218
801.389	52.32332
801.568	55.73413
801.747	83.42395
801.926	57.50322
802.105	74.97518
802.284	48.94482
802.463	77.9657
802.642	61.27014
802.821	58.96514
803	75.08811
803.179	69.95413
803.358	70.34997
803.537	48.33959
803.716	57.31877
803.895	48.8039
804.073	53.59358
804.252	46.92093
804.431	62.37684
804.61	54.88923
804.789	65.6419
804.967	49.06178
805.146	49.86748
805.325	86.86018
805.503	61.52453
805.682	40.05825
805.861	100.45548
806.039	74.59356
806.218	51.89299
806.397	60.67622
806.575	56.24595
806.754	62.35423
806.932	43.81812
807.111	70.18027
807.289	68.1693
807.468	58.41073
807.646	68.18977
807.825	64.48637
808.003	59.43851
808.182	70.87353
808.36	58.07697
808.539	46.12963
808.717	76.83515
808.895	48.18606
809.074	61.35844
809.252	57.31654
809.43	64.40112
809.609	73.90977
809.787	77.76712
809.965	55.80359
810.144	57.72074
810.322	57.12072
810.5	64.004
810.678	52.66145
810.856	88.83675
811.035	72.17621
811.213	68.46716
811.391	78.3116
811.569	63.28922
811.747	111.58155
811.925	74.37255
812.103	49.55942
812.281	58.16002
812.459	85.40881
812.637	84.45358
812.816	70.35793
812.994	91.83409
813.171	80.75047
813.349	64.28779
813.527	74.23452
813.705	82.65409
813.883	100.23144
814.061	71.09038
814.239	86.79127
814.417	93.07902
814.595	68.7284
814.773	65.87846
814.95	61.36598
815.128	68.98279
815.306	65.3784
815.484	59.1313
815.662	48.82265
815.839	45.57286
816.017	52.72589
816.195	77.4881
816.372	55.07499
816.55	70.09548
816.728	83.36162
816.905	58.35311
817.083	83.2457
817.261	58.86736
817.438	106.6112
817.616	86.71395
817.793	53.02134
817.971	72.34963
818.148	74.04476
818.326	79.32567
818.503	65.83382
818.681	86.75708
818.858	58.77672
819.036	59.67494
819.213	64.14314
819.391	53.52335
819.568	52.85143
819.745	48.92089
819.923	73.04206
820.1	56.86561
820.277	50.77784
820.455	56.6476
820.632	59.03527
820.809	61.24555
820.986	47.93305
821.164	42.11901
821.341	42.214
821.518	52.92931
821.695	44.34146
821.872	43.11891
822.05	40.373
822.227	36.90689
822.404	37.76175
822.581	39.82572
822.758	36.73787
822.935	36.08388
823.112	37.87175
823.289	34.61658
823.466	37.08897
823.643	35.28959
823.82	38.50257
823.997	35.66668
824.174	38.6231
824.351	44.86088
824.528	43.84559
824.705	42.04776
824.882	43.84803
825.059	52.04714
825.236	43.16595
825.412	44.22644
825.589	49.81903
825.766	62.79929
825.943	46.64675
826.12	50.87183
826.296	43.87791
826.473	49.75621
826.65	49.47197
826.827	54.29737
827.003	43.59474
827.18	45.94984
827.357	49.63014
827.533	44.46393
827.71	34.18448
827.887	41.36454
828.063	44.16393
828.24	39.39302
828.416	45.97914
828.593	40.72149
828.769	50.40311
828.946	49.89896
829.122	51.25954
829.299	51.04187
829.475	39.18968
829.652	51.51079
829.828	71.73922
830.005	53.49076
830.181	65.26535
830.357	54.46768
830.534	67.14855
830.71	55.63312
830.886	68.22634
831.063	67.21102
831.239	78.74046
831.415	48.94897
831.592	79.41253
831.768	58.21237
831.944	53.00678
832.12	86.25689
832.296	80.12903
832.473	71.00594
832.649	54.14642
832.825	72.77557
833.001	52.01409
833.177	67.09059
833.353	61.09079
833.529	44.28847
833.705	58.51697
833.881	43.90247
834.058	44.44289
834.234	45.75656
834.41	45.54673
834.586	38.97355
834.761	42.83053
834.937	44.9902
835.113	46.07974
835.289	41.24214
835.465	45.69694
835.641	41.46503
835.817	46.2268
835.993	66.49431
836.169	43.15472
836.344	58.08402
836.52	60.14981
836.696	60.9939
836.872	50.54147
837.048	109.54812
837.223	55.17184
837.399	88.3597
837.575	74.43764
837.75	71.13678
837.926	89.70013
838.102	124.48275
838.277	102.81699
838.453	134.22462
838.628	137.56433
838.804	65.85813
838.98	119.31171
839.155	74.18109
839.331	94.76639
839.506	71.67961
839.682	70.00514
839.857	90.19263
840.033	104.59769
840.208	61.69866
840.384	39.75104
840.559	61.61979
840.734	79.25306
840.91	98.26335
841.085	69.05092
841.26	65.82484
841.436	61.7406
841.611	60.52223
841.786	83.34565
841.962	103.59499
842.137	73.12903
842.312	57.33371
842.487	68.54217
842.663	58.67016
842.838	70.66355
843.013	180.66558
843.188	94.98536
843.363	100.90087
843.538	148.59955
843.714	154.1086
843.889	158.34734
844.064	166.35959
844.239	140.44928
844.414	154.70814
844.589	114.42269
844.764	184.80206
844.939	185.92236
845.114	195.47017
845.289	186.39863
845.464	254.60651
845.639	173.3323
845.814	103.95945
845.989	118.21315
846.163	129.65695
846.338	141.51269
846.513	188.00245
846.688	124.30968
846.863	132.50762
847.038	123.84074
847.212	140.13418
847.387	145.69232
847.562	148.83721
847.737	176.68884
847.911	81.03886
848.086	92.30982
848.261	290.27749
848.435	128.51312
848.61	184.13689
848.785	100.19332
848.959	189.99757
849.134	249.58885
849.308	255.87873
849.483	148.77266
849.658	218.95098
849.832	121.24353
850.007	114.48259
850.181	274.3435
850.356	118.60507
850.53	268.75496
850.705	102.87327
850.879	65.67714
851.053	138.42332
851.228	126.62434
851.402	158.43818
851.577	200.14035
851.751	222.17654
851.925	146.18623
852.099	76.82045
852.274	110.46794
852.448	135.15573
852.622	174.08042
852.797	141.85766
852.971	139.4807
853.145	143.01694
853.319	378.15849
853.493	208.54402
853.668	122.63917
853.842	253.49753
854.016	198.50863
854.19	239.39951
854.364	151.17877
854.538	160.49411
854.712	206.06006
854.886	136.45972
855.06	134.11537
855.234	70.74281
855.408	223.99357
855.582	194.9532
855.756	187.12963
855.93	241.2769
856.104	173.72177
856.278	202.04536
856.452	150.80383
856.626	185.39151
856.8	287.72889
856.973	181.34314
857.147	173.04232
857.321	177.43209
857.495	206.86587
857.669	143.68309
857.842	123.61435
858.016	208.14117
858.19	122.29732
858.364	317.22959
858.537	135.1877
858.711	154.33376
858.885	137.17637
859.058	128.10705
859.232	79.73498
859.405	88.26104
859.579	197.76079
859.753	159.66217
859.926	124.16436
860.1	95.33958
860.273	136.69829
860.447	231.53066
860.62	134.99007
860.794	272.59551
860.967	164.27642
861.141	210.6104
861.314	288.73779
861.487	196.1742
861.661	227.00902
861.834	227.20903
862.008	204.82816
862.181	155.47682
862.354	164.22804
862.528	179.57927
862.701	129.71905
862.874	97.59579
863.047	134.68685
863.221	133.25679
863.394	71.49388
863.567	238.38602
863.74	70.72578
863.913	196.11571
864.087	166.26483
864.26	201.83734
864.433	146.52278
864.606	253.94243
864.779	158.8787
864.952	85.04584
865.125	127.60744
865.298	141.88821
865.471	154.57186
865.644	285.45187
865.817	238.98908
865.99	203.29378
866.163	229.91245
866.336	135.68921
866.509	153.76854
866.682	146.94881
866.855	214.39525
867.028	110.0022
867.2	189.57112
867.373	78.49809
867.546	164.81031
867.719	298.82578
867.892	190.09583
868.064	120.64874
868.237	179.19369
868.41	154.08333
868.583	106.95694
868.755	111.80477
868.928	155.65701
869.101	297.64771
869.273	219.80233
869.446	190.52289
869.619	218.2396
869.791	153.21136
869.964	215.95806
870.136	201.5776
870.309	166.19269
870.481	169.07859
870.654	96.60771
870.826	167.68363
870.999	140.1122
871.171	203.21349
871.344	139.93255
871.516	160.83803
871.689	112.28358
871.861	166.79477
872.033	120.36699
872.206	141.0235
872.378	210.69736
872.55	143.0844
872.723	101.7177
872.895	143.24604
873.067	214.40674
873.24	241.27104
873.412	128.27693
873.584	142.84292
873.756	137.54952
873.928	176.46274
874.101	177.30371
874.273	193.15876
874.445	79.49091
874.617	107.69427
874.789	172.90055
874.961	146.34927
875.133	185.37052
875.305	157.50397
875.477	113.26568
875.649	93.9339
875.821	122.36619
875.993	248.98487
876.165	106.32785
876.337	180.84421
876.509	144.98583
876.681	172.84613
876.853	170.64302
877.025	172.51192
877.197	124.75589
877.369	110.23182
877.541	201.46715
877.712	78.36
877.884	109.57255
878.056	192.33668
878.228	112.29142
878.4	181.23072
878.571	114.92513
878.743	86.47011
878.915	169.78767
879.086	110.2579
879.258	132.25863
879.43	121.91486
879.601	109.70142
879.773	112.90624
879.945	44.90117
880.116	62.23916
880.288	47.61385
880.459	49.52565
880.631	43.5149
880.802	48.94883
880.974	46.74636
881.145	40.05481
881.317	45.37717
881.488	40.13999
881.66	42.08158
881.831	40.05087
882.002	45.98564
882.174	39.68379
882.345	44.82691
882.517	34.52938
882.688	47.57841
882.859	43.56068
883.03	55.95676
883.202	55.03333
883.373	50.53083
883.544	51.04672
883.715	73.14435
883.887	64.71997
884.058	58.24091
884.229	74.30663
884.4	78.28214
884.571	84.76541
884.742	76.0185
884.914	82.45682
885.085	107.50588
885.256	127.42972
885.427	108.28692
885.598	126.1238
885.769	132.5285
885.94	123.07106
886.111	93.12574
886.282	144.90665
886.453	123.24944
886.624	91.9888
886.795	140.40093
886.966	123.7539
887.136	151.6199
887.307	117.72833
887.478	188.11522
887.649	166.01338
887.82	170.41744
887.991	141.99596
888.161	184.24914
888.332	177.43321
888.503	106.62368
888.674	242.70821
888.844	246.24544
889.015	204.71535
889.186	108.94238
889.356	229.51629
889.527	103.85696
889.698	373.65439
889.868	137.14092
890.039	165.99407
890.209	153.34655
890.38	214.04933
890.551	172.2354
890.721	247.9359
890.892	200.0007
891.062	151.59969
891.233	178.60732
891.403	147.34746
891.574	118.44047
891.744	147.7542
891.914	194.39199
892.085	158.98814
892.255	78.23791
892.425	241.29792
892.596	189.83983
892.766	181.63309
892.936	236.50517
893.107	208.39354
893.277	124.79315
893.447	103.83073
893.618	78.80539
893.788	139.57921
893.958	82.5256
894.128	89.60686
894.298	95.18017
894.468	123.27682
894.639	67.82717
894.809	56.73525
894.979	75.00161
895.149	83.62166
895.319	72.44921
895.489	90.22287
895.659	104.11549
895.829	76.78172
895.999	80.78729
896.169	65.84842
896.339	78.28391
896.509	134.7866
896.679	154.39345
896.849	148.57613
897.019	198.2565
897.189	155.69806
897.358	144.44717
897.528	213.66277
897.698	92.6226
897.868	195.64225
898.038	303.45529
898.208	281.44945
898.377	111.04033
898.547	298.74644
898.717	455.13966
898.886	191.43729
899.056	286.34109
899.226	416.07828
899.395	262.27877
899.565	326.28363
899.735	218.95231
899.904	361.42934
900.074	302.08523
900.244	157.97064
900.413	547.62053
900.583	153.49402
900.752	229.2498
900.922	338.12075
901.091	58.98946
901.261	305.35537
901.43	277.78005
901.599	274.10272
901.769	603.21991
901.938	319.15495
902.108	312.99267
902.277	398.07646
902.446	133.73551
902.616	144.77553
902.785	198.9319
902.954	322.25859
903.124	217.24952
903.293	179.77636
903.462	118.53369
903.631	145.76303
903.801	107.66191
903.97	70.893
904.139	104.33749
904.308	82.76207
904.477	71.77854
904.646	50.13588
904.816	65.4058
904.985	89.3585
905.154	121.15121
