Data from WindowProjectSample_Transmission__70__00070.txt Node

Date: Mon May 05 18:39:29 EDT 2025
User: jessi
Spectrometer: SR400872
Trigger mode: 0
Integration Time (sec): 5.000010E-1
Scans to average: 20
Electric dark correction enabled: true
Nonlinearity correction enabled: true
Boxcar width: 0
XAxis mode: Wavelengths
Number of Pixels in Spectrum: 3648
>>>>>Begin Spectral Data<<<<<
184.909	21430.09912
185.132	-5207.55819
185.355	-3132.28862
185.578	-18390.84173
185.801	1986.55227
186.024	10709.55379
186.247	-2078.24806
186.47	1287.34741
186.693	377.42817
186.916	304.93857
187.139	-3739.52852
187.362	3669.80388
187.585	4015.52925
187.808	3567.36731
188.031	49.62274
188.254	-56092.45695
188.476	-675.6716
188.699	6587.18737
188.922	707.95649
189.145	-15677.74727
189.368	-792.47163
189.591	-1549.25683
189.813	3232.86224
190.036	-52408.63033
190.259	-888.2269
190.482	-4624.83335
190.705	7158.47359
190.927	-2580.82004
191.15	13146.68205
191.373	3681.82593
191.595	-9532.9066
191.818	-4316.06405
192.041	-7286.28818
192.263	-3568.92454
192.486	-999.86909
192.709	-4014.35332
192.931	8065.10536
193.154	-28236.07965
193.377	-2984.00953
193.599	-2670.63189
193.822	-9396.58862
194.044	-2053.24878
194.267	1263.15018
194.489	180.05317
194.712	-44762.02646
194.934	-32720.41963
195.157	1314.74666
195.379	1423.47589
195.602	-7084.43137
195.824	-1423.57013
196.047	-9076.67139
196.269	2746.64042
196.492	-6485.64368
196.714	29184.99714
196.936	-8908.76425
197.159	-1255.7824
197.381	1302.16684
197.604	600.74287
197.826	11960.24263
198.048	-11339.54086
198.271	-3004.01572
198.493	7711.68676
198.715	2373.65983
198.938	-444.13384
199.16	7491.09291
199.382	-101128.9875
199.604	2816.17022
199.827	-1085.3031
200.049	-3073.70675
200.271	14670.7576
200.493	1299.38112
200.715	-40761.58932
200.938	-6364.17293
201.16	-4300.11003
201.382	20571.39525
201.604	2378.71448
201.826	2364.69007
202.048	-1856.40798
202.27	-1957.58007
202.492	-37245.56467
202.715	3029.29369
202.937	-4724.56308
203.159	-6464.35398
203.381	1570.40126
203.603	6885.66421
203.825	6841.49373
204.047	2296.52248
204.269	-2920.37529
204.491	2196.71736
204.713	5904.64285
204.935	-471971.71603
205.156	1207.8855
205.378	-2980.76468
205.6	1603.12341
205.822	160291.25752
206.044	-1091.64858
206.266	1595.12234
206.488	4513.66296
206.71	-5216.27063
206.932	1192.51705
207.153	12172.90306
207.375	-7045.55881
207.597	-38421.57347
207.819	-2844.66088
208.041	2460.08127
208.262	505.81805
208.484	683.91932
208.706	-828.43896
208.927	-864.13387
209.149	539.19759
209.371	-3029.42054
209.593	-346.08065
209.814	-864.70543
210.036	653.3788
210.258	-628.40044
210.479	1766.98546
210.701	1700.3949
210.922	3568.67407
211.144	-3890.36696
211.366	2146.40173
211.587	7793.44581
211.809	-8521.95809
212.03	2306.98025
212.252	487.15845
212.473	2138.49026
212.695	-6427.7848
212.916	2966.96471
213.138	-651.51452
213.359	3697.78287
213.581	5360.90477
213.802	-823.86737
214.024	1134.98492
214.245	2156.9774
214.466	3280.25638
214.688	-3207.24064
214.909	-1315.43055
215.131	-1793.95448
215.352	-3033.16151
215.573	15122.83924
215.795	5342.50197
216.016	5582.33411
216.237	882.86678
216.459	3659.32222
216.68	1912.65925
216.901	5235.01595
217.122	-3443.93189
217.344	-12084.31312
217.565	3480.25203
217.786	8821.34346
218.007	17067.01491
218.228	-725.86965
218.45	6014.09739
218.671	883.28407
218.892	37685.53003
219.113	1562.64829
219.334	-312.35426
219.555	9575.49523
219.776	3213.76011
219.997	21899.38046
220.219	2870.14397
220.44	-10909.2486
220.661	450.68194
220.882	1499.26245
221.103	-1059.47537
221.324	2414.76199
221.545	2308.48478
221.766	-9628.25322
221.987	1011.40806
222.208	1750.84166
222.429	4324.66112
222.65	413.69019
222.87	18915.48937
223.091	733.50235
223.312	572.74147
223.533	1344.37858
223.754	1488.9587
223.975	1351.62189
224.196	2167.63834
224.417	1360.45202
224.637	614.25664
224.858	130.39732
225.079	1075.24572
225.3	703.34545
225.521	3831.17495
225.741	492.03943
225.962	508.06659
226.183	162.1604
226.404	684.88816
226.624	434.17928
226.845	694.66901
227.066	427.20914
227.286	259.28613
227.507	128.76154
227.728	123.24739
227.948	244.73968
228.169	70.78689
228.389	85.61973
228.61	49.65577
228.831	64.84198
229.051	4.55117
229.272	39.18343
229.492	56.52048
229.713	13.76273
229.933	37.76228
230.154	32.49306
230.374	55.87948
230.595	39.22462
230.815	24.2717
231.036	41.8641
231.256	-8.98687
231.477	71.78303
231.697	39.08623
231.917	40.91474
232.138	58.75222
232.358	108.79596
232.579	102.14779
232.799	20.06475
233.019	105.44832
233.24	117.63723
233.46	36.91039
233.68	66.25252
233.901	46.99268
234.121	27.03131
234.341	15.29828
234.561	-4.36386
234.782	25.32954
235.002	67.97337
235.222	-5.43087
235.442	66.73053
235.662	33.60963
235.883	63.79299
236.103	52.22123
236.323	35.66655
236.543	30.59971
236.763	38.88133
236.983	45.38071
237.203	41.02319
237.423	63.12444
237.643	90.98834
237.864	79.59571
238.084	18.05897
238.304	27.4835
238.524	42.97243
238.744	39.82709
238.964	75.68332
239.184	63.07585
239.404	66.14159
239.624	34.9845
239.843	62.82662
240.063	38.57012
240.283	23.50261
240.503	25.79524
240.723	25.14926
240.943	15.42822
241.163	20.39899
241.383	15.91133
241.603	7.38017
241.822	10.66559
242.042	6.59285
242.262	8.05775
242.482	9.47403
242.702	10.86745
242.921	2.82788
243.141	6.79049
243.361	6.34322
243.581	9.67487
243.8	7.40301
244.02	5.76703
244.24	9.86444
244.459	9.34683
244.679	18.01855
244.899	11.89693
245.118	13.6872
245.338	12.79819
245.558	14.20149
245.777	8.92077
245.997	10.59485
246.216	10.90715
246.436	6.537
246.655	4.92296
246.875	3.596
247.094	6.20437
247.314	1.94005
247.533	3.87117
247.753	4.36882
247.972	3.58149
248.192	1.21669
248.411	1.93774
248.631	3.76585
248.85	4.77222
249.07	4.07864
249.289	5.93466
249.508	5.09468
249.728	7.01591
249.947	7.12201
250.166	8.76406
250.386	4.59363
250.605	7.12453
250.824	11.0157
251.044	8.08279
251.263	29.32232
251.482	15.19614
251.701	12.05918
251.921	0.05959
252.14	3.46477
252.359	3.98246
252.578	10.37759
252.798	3.23429
253.017	9.46057
253.236	4.27496
253.455	5.59546
253.674	10.8939
253.893	5.41625
254.112	7.74566
254.331	10.80356
254.551	9.294
254.77	3.66263
254.989	13.75962
255.208	10.01276
255.427	14.96717
255.646	12.28137
255.865	22.50943
256.084	8.72568
256.303	10.4454
256.522	14.61592
256.741	3.11113
256.96	3.01112
257.179	8.5406
257.397	10.35003
257.616	6.18657
257.835	5.98314
258.054	15.0657
258.273	10.65739
258.492	11.3381
258.711	6.51768
258.93	2.99611
259.148	4.90231
259.367	4.72244
259.586	5.68824
259.805	2.37285
260.023	5.39009
260.242	3.99859
260.461	2.76554
260.68	1.27424
260.898	4.57834
261.117	1.39908
261.336	0.81047
261.554	3.58485
261.773	3.50269
261.992	0.8226
262.21	3.27205
262.429	3.96723
262.648	7.70743
262.866	8.29476
263.085	5.88528
263.303	5.13857
263.522	8.70443
263.74	9.39462
263.959	15.71451
264.178	7.63424
264.396	6.83405
264.615	4.85637
264.833	10.39744
265.051	9.21427
265.27	11.18251
265.488	11.31979
265.707	6.32589
265.925	11.34732
266.144	5.19432
266.362	5.62502
266.58	5.54991
266.799	5.02962
267.017	6.07637
267.235	5.19959
267.454	3.28896
267.672	1.85873
267.89	4.39403
268.109	4.42023
268.327	4.30577
268.545	1.10128
268.763	3.98646
268.982	1.39836
269.2	4.22622
269.418	3.09016
269.636	1.89421
269.854	5.02424
270.073	3.29009
270.291	1.943
270.509	1.74861
270.727	4.446
270.945	7.24843
271.163	7.29919
271.381	1.41462
271.599	3.24495
271.817	5.47149
272.036	1.89187
272.254	3.11203
272.472	2.59331
272.69	2.54176
272.908	2.34886
273.126	4.57409
273.344	5.367
273.562	2.0182
273.779	2.83874
273.997	3.88345
274.215	4.24381
274.433	2.92323
274.651	4.46204
274.869	4.86185
275.087	2.98218
275.305	4.15709
275.523	2.42345
275.74	3.0781
275.958	5.48198
276.176	8.33297
276.394	2.50086
276.612	3.30466
276.829	3.3269
277.047	2.8028
277.265	3.02286
277.483	3.785
277.7	4.29356
277.918	3.58586
278.136	6.27191
278.353	2.98016
278.571	1.72985
278.789	4.52499
279.006	0.88793
279.224	3.19045
279.442	5.16934
279.659	3.53602
279.877	2.76908
280.094	5.79959
280.312	1.16559
280.529	3.44696
280.747	0.91334
280.964	2.87948
281.182	6.21211
281.399	2.84148
281.617	3.97663
281.834	2.62868
282.052	1.86108
282.269	3.16176
282.487	2.53068
282.704	2.20279
282.921	2.32692
283.139	3.57054
283.356	4.1467
283.574	3.80876
283.791	2.0555
284.008	5.76578
284.226	2.89514
284.443	3.28369
284.66	4.38159
284.877	3.55528
285.095	2.14268
285.312	1.73535
285.529	1.01903
285.746	0.84109
285.964	2.16078
286.181	1.38874
286.398	1.93744
286.615	2.72712
286.832	2.64848
287.05	0.582
287.267	1.87955
287.484	1.83744
287.701	2.69145
287.918	2.67352
288.135	2.73642
288.352	1.16779
288.569	1.46864
288.786	2.41046
289.003	2.07655
289.22	3.02619
289.437	1.76384
289.654	2.91338
289.871	3.09385
290.088	3.07108
290.305	2.32014
290.522	1.88436
290.739	2.02092
290.956	3.13234
291.173	3.64938
291.39	3.5032
291.607	2.53835
291.824	1.74639
292.04	1.37305
292.257	2.91737
292.474	3.235
292.691	1.93246
292.908	1.0604
293.125	1.70029
293.341	1.06281
293.558	4.98072
293.775	1.92343
293.992	2.01641
294.208	0.893
294.425	1.34856
294.642	1.96772
294.858	3.10483
295.075	0.66987
295.292	2.03747
295.508	2.44141
295.725	4.16749
295.942	1.74602
296.158	1.41242
296.375	2.18815
296.591	1.67321
296.808	1.82836
297.024	2.25939
297.241	2.46736
297.458	2.65317
297.674	0.40819
297.891	2.07062
298.107	1.72137
298.323	1.3479
298.54	3.40685
298.756	1.64985
298.973	1.01529
299.189	3.54579
299.406	1.66628
299.622	3.26785
299.838	3.24097
300.055	3.15605
300.271	1.15441
300.487	1.53534
300.704	1.82505
300.92	1.27607
301.136	4.83664
301.353	3.22415
301.569	2.40781
301.785	2.74263
302.001	3.24996
302.218	2.86771
302.434	3.0091
302.65	1.51902
302.866	2.16024
303.083	4.66485
303.299	4.59919
303.515	2.82416
303.731	2.93292
303.947	1.30593
304.163	2.09151
304.379	2.86509
304.595	3.10559
304.812	2.08075
305.028	2.03974
305.244	2.47723
305.46	3.37841
305.676	3.46195
305.892	3.98952
306.108	3.35515
306.324	2.41891
306.54	4.59726
306.756	3.29008
306.972	3.23839
307.187	2.6667
307.403	4.13244
307.619	2.41102
307.835	3.99771
308.051	4.26794
308.267	1.85397
308.483	3.95233
308.699	3.32517
308.914	2.93596
309.13	2.71058
309.346	1.70864
309.562	2.03502
309.778	1.72988
309.993	3.4212
310.209	2.99959
310.425	1.84697
310.641	2.80485
310.856	1.97382
311.072	1.94751
311.288	2.77433
311.503	3.12957
311.719	1.38473
311.935	1.31075
312.15	3.48275
312.366	2.96806
312.581	3.28863
312.797	2.84038
313.013	3.66938
313.228	2.29642
313.444	2.76592
313.659	2.44845
313.875	3.43179
314.09	2.78266
314.306	4.29291
314.521	3.77129
314.737	3.67289
314.952	2.93319
315.168	2.98579
315.383	3.37395
315.599	2.82175
315.814	2.64134
316.029	3.78201
316.245	2.00844
316.46	1.58282
316.675	4.02682
316.891	4.69246
317.106	5.76644
317.321	3.21983
317.537	3.65615
317.752	3.88424
317.967	3.83283
318.183	2.20686
318.398	2.83356
318.613	3.93556
318.828	4.4993
319.043	3.93901
319.259	2.90511
319.474	3.30487
319.689	4.45797
319.904	1.68191
320.119	3.83573
320.334	3.42442
320.549	3.0324
320.765	4.19163
320.98	3.54311
321.195	3.8664
321.41	3.23219
321.625	3.98713
321.84	4.93102
322.055	4.73394
322.27	2.86363
322.485	2.32415
322.7	3.67575
322.915	4.1756
323.13	2.67453
323.345	4.87927
323.56	4.12199
323.775	4.051
323.989	3.72884
324.204	3.70119
324.419	4.47812
324.634	2.30567
324.849	3.2498
325.064	6.48475
325.279	4.40022
325.493	3.79204
325.708	4.21766
325.923	2.74088
326.138	3.07074
326.352	4.88503
326.567	4.34792
326.782	3.07792
326.997	2.92164
327.211	3.96006
327.426	3.83052
327.641	3.1958
327.855	2.16298
328.07	3.86718
328.285	5.22366
328.499	3.17669
328.714	3.66604
328.928	3.99921
329.143	3.37256
329.358	4.39769
329.572	4.4598
329.787	4.91168
330.001	5.96205
330.216	2.41414
330.43	5.45425
330.645	4.90986
330.859	4.38091
331.074	2.95684
331.288	3.64771
331.503	5.0631
331.717	2.68364
331.931	3.76859
332.146	3.89308
332.36	5.36408
332.575	4.02885
332.789	3.97939
333.003	4.06724
333.218	4.3473
333.432	3.34662
333.646	4.63144
333.86	5.49691
334.075	5.32586
334.289	3.36327
334.503	2.79822
334.717	4.3165
334.932	4.07613
335.146	4.82333
335.36	3.29094
335.574	4.28305
335.788	3.96606
336.003	4.67928
336.217	4.43882
336.431	4.2721
336.645	3.33997
336.859	2.77245
337.073	3.72671
337.287	4.24514
337.501	3.01225
337.715	4.4419
337.929	4.72886
338.143	3.05552
338.357	3.80919
338.571	3.45667
338.785	4.53345
338.999	3.52202
339.213	3.58178
339.427	2.75176
339.641	5.13487
339.855	3.68373
340.069	3.55685
340.283	4.85235
340.497	5.51784
340.711	4.55648
340.924	4.13891
341.138	3.2256
341.352	2.97534
341.566	4.36751
341.78	2.78197
341.993	3.76149
342.207	3.41268
342.421	4.31292
342.635	3.89918
342.848	3.85756
343.062	2.15774
343.276	3.54273
343.49	5.83461
343.703	3.56177
343.917	5.16522
344.131	5.27535
344.344	3.60786
344.558	4.04957
344.771	3.15766
344.985	5.57777
345.199	5.564
345.412	4.47942
345.626	4.72367
345.839	2.95235
346.053	3.32996
346.266	3.31683
346.48	4.76822
346.693	4.69144
346.907	4.40651
347.12	3.3874
347.334	4.51708
347.547	4.5857
347.76	3.87401
347.974	5.22965
348.187	4.54184
348.401	4.08127
348.614	3.66405
348.827	4.05994
349.041	4.78987
349.254	2.94006
349.467	4.08154
349.681	3.40114
349.894	3.8089
350.107	5.329
350.32	6.06287
350.534	3.23396
350.747	4.10437
350.96	3.6708
351.173	3.80721
351.386	4.172
351.6	3.89698
351.813	4.00095
352.026	4.16887
352.239	3.46412
352.452	4.08082
352.665	5.28397
352.878	4.39556
353.092	6.13076
353.305	5.13097
353.518	4.55498
353.731	3.77368
353.944	5.39237
354.157	4.07111
354.37	3.95982
354.583	3.69079
354.796	3.39065
355.009	5.29868
355.222	4.80116
355.435	4.53875
355.647	5.39149
355.86	3.96193
356.073	4.88295
356.286	4.16528
356.499	5.40709
356.712	5.15094
356.925	5.23968
357.138	5.32811
357.35	4.03291
357.563	4.45895
357.776	4.86712
357.989	4.67776
358.201	5.14556
358.414	4.95915
358.627	5.752
358.84	4.59445
359.052	3.76754
359.265	4.23742
359.478	5.52521
359.69	2.8603
359.903	5.58661
360.116	5.6849
360.328	3.91394
360.541	5.62487
360.753	4.44878
360.966	4.77771
361.179	4.9648
361.391	4.75156
361.604	4.74511
361.816	4.81501
362.029	4.80059
362.241	4.38534
362.454	4.77132
362.666	4.37285
362.879	5.33166
363.091	4.63018
363.304	4.56187
363.516	4.67485
363.728	4.12479
363.941	5.1003
364.153	4.9623
364.366	3.4539
364.578	4.18753
364.79	5.04904
365.003	4.99265
365.215	4.32168
365.427	5.38963
365.639	5.67138
365.852	5.01321
366.064	6.51639
366.276	4.84044
366.488	5.20935
366.701	4.68673
366.913	4.71619
367.125	4.7877
367.337	4.34635
367.549	4.61249
367.762	4.99795
367.974	4.83739
368.186	4.6581
368.398	5.59228
368.61	5.23876
368.822	5.39488
369.034	4.65585
369.246	5.50171
369.458	7.21554
369.67	4.42155
369.882	6.26914
370.094	3.70882
370.306	6.17238
370.518	4.81632
370.73	4.71103
370.942	4.68356
371.154	5.20909
371.366	4.85577
371.578	5.4453
371.79	4.90034
372.002	5.87691
372.214	6.75734
372.425	5.06297
372.637	6.18842
372.849	5.45788
373.061	3.71462
373.273	5.4077
373.484	5.40754
373.696	5.74988
373.908	3.61114
374.12	5.89312
374.331	5.47361
374.543	4.60548
374.755	4.57381
374.967	5.28876
375.178	5.88474
375.39	4.85334
375.602	5.35437
375.813	4.0832
376.025	4.56296
376.236	5.42589
376.448	5.61009
376.66	5.14881
376.871	5.18778
377.083	6.30193
377.294	6.67915
377.506	5.10344
377.717	6.33963
377.929	5.61474
378.14	5.14699
378.352	5.63522
378.563	5.65605
378.775	6.36283
378.986	4.51906
379.197	5.17664
379.409	4.79923
379.62	5.67626
379.832	5.69034
380.043	5.37406
380.254	5.62501
380.466	4.70299
380.677	7.50401
380.888	6.72918
381.1	7.23408
381.311	7.30916
381.522	5.61108
381.733	7.45199
381.945	5.48777
382.156	5.44565
382.367	5.05668
382.578	7.40232
382.789	7.44949
383.001	5.12979
383.212	6.67481
383.423	6.73415
383.634	6.4628
383.845	6.0645
384.056	5.43451
384.267	5.74019
384.478	5.68074
384.69	4.95637
384.901	5.95516
385.112	5.86642
385.323	6.92371
385.534	5.92858
385.745	5.89446
385.956	6.03066
386.167	5.13953
386.378	6.05985
386.588	5.29503
386.799	5.2479
387.01	4.71052
387.221	6.24846
387.432	5.74876
387.643	6.90429
387.854	5.56516
388.065	5.45832
388.275	5.69383
388.486	5.35778
388.697	5.71736
388.908	5.35455
389.119	6.53201
389.329	6.82592
389.54	5.86282
389.751	6.01697
389.962	6.72683
390.172	5.89023
390.383	5.75411
390.594	5.44033
390.804	5.6119
391.015	5.69948
391.226	6.03085
391.436	6.39203
391.647	6.2155
391.858	6.3526
392.068	5.08817
392.279	5.23916
392.489	6.14685
392.7	6.61729
392.91	5.40645
393.121	5.34881
393.331	6.26906
393.542	6.75831
393.752	6.51762
393.963	6.39702
394.173	6.35407
394.384	6.4121
394.594	6.21004
394.804	5.34832
395.015	6.10848
395.225	6.32108
395.436	5.38072
395.646	6.15026
395.856	5.67925
396.067	5.03721
396.277	6.55518
396.487	6.24841
396.697	6.2871
396.908	6.21626
397.118	6.33804
397.328	6.09708
397.538	6.76726
397.749	5.43824
397.959	6.66187
398.169	6.35251
398.379	5.22467
398.589	6.44721
398.8	6.23674
399.01	6.14346
399.22	5.78711
399.43	7.44595
399.64	6.08123
399.85	6.51566
400.06	6.10065
400.27	5.45707
400.48	5.96364
400.69	7.01865
400.9	5.71638
401.11	5.38679
401.32	6.55404
401.53	5.74526
401.74	7.12169
401.95	6.50667
402.16	5.74423
402.37	6.23763
402.58	5.93056
402.79	6.58987
403	7.00928
403.209	5.84613
403.419	7.04283
403.629	5.66747
403.839	6.98252
404.049	6.84571
404.258	6.10687
404.468	5.80203
404.678	6.56112
404.888	7.10756
405.097	6.11094
405.307	6.18407
405.517	6.71803
405.727	6.44588
405.936	6.0183
406.146	6.38462
406.356	7.1607
406.565	6.14771
406.775	6.00341
406.984	5.89496
407.194	7.33412
407.404	6.16351
407.613	6.56549
407.823	6.73776
408.032	6.83949
408.242	6.9273
408.451	5.91262
408.661	6.1371
408.87	7.46044
409.08	5.88372
409.289	6.5948
409.499	6.58717
409.708	6.46497
409.918	5.20328
410.127	6.72144
410.336	7.42488
410.546	6.81034
410.755	6.11265
410.964	6.195
411.174	5.81323
411.383	6.59781
411.592	6.55708
411.802	5.73109
412.011	6.75052
412.22	6.18757
412.429	7.38228
412.639	7.19704
412.848	6.92823
413.057	7.18765
413.266	7.17656
413.475	6.4533
413.685	6.8183
413.894	7.14924
414.103	7.32582
414.312	7.09564
414.521	6.41422
414.73	6.68749
414.939	8.03877
415.148	7.03846
415.357	6.97281
415.566	6.65611
415.776	6.60073
415.985	6.75151
416.194	7.35105
416.403	8.20825
416.611	6.2689
416.82	6.77057
417.029	7.11313
417.238	6.7934
417.447	6.68296
417.656	7.02655
417.865	6.81148
418.074	7.15587
418.283	7.24218
418.492	7.83871
418.7	7.68277
418.909	8.53997
419.118	7.68699
419.327	8.11659
419.536	7.90997
419.744	7.95036
419.953	9.12999
420.162	9.31274
420.371	8.76294
420.579	9.13168
420.788	9.90416
420.997	9.9539
421.205	10.13729
421.414	9.84944
421.623	9.89392
421.831	9.56567
422.04	9.93802
422.249	9.10612
422.457	9.61319
422.666	8.8875
422.874	9.59878
423.083	9.77802
423.291	9.87769
423.5	9.7672
423.708	10.10766
423.917	10.48387
424.125	10.07243
424.334	9.91516
424.542	11.40305
424.751	10.83014
424.959	10.38872
425.167	10.41664
425.376	10.24842
425.584	9.18029
425.793	9.17212
426.001	8.29386
426.209	8.44272
426.418	7.49919
426.626	7.25699
426.834	7.19696
427.042	7.51043
427.251	7.15866
427.459	8.06933
427.667	7.48435
427.875	6.79879
428.084	7.27492
428.292	8.26149
428.5	7.95531
428.708	7.01575
428.916	6.98091
429.124	7.65847
429.333	7.3724
429.541	7.41544
429.749	7.65415
429.957	7.60826
430.165	9.23649
430.373	6.75551
430.581	7.74063
430.789	8.55182
430.997	7.58815
431.205	7.25498
431.413	7.93604
431.621	7.61053
431.829	8.25284
432.037	7.74353
432.245	7.97258
432.453	8.17684
432.661	7.86713
432.869	9.06396
433.076	7.60748
433.284	7.92605
433.492	8.37946
433.7	8.57026
433.908	7.80643
434.116	7.961
434.323	7.9798
434.531	7.8392
434.739	8.19608
434.947	8.29886
435.154	8.32549
435.362	7.85154
435.57	7.65616
435.778	7.50359
435.985	8.08459
436.193	7.65043
436.401	8.70831
436.608	7.91664
436.816	7.80432
437.023	8.80095
437.231	8.9647
437.439	8.24809
437.646	8.40445
437.854	8.34647
438.061	8.56342
438.269	8.06293
438.476	8.61353
438.684	8.27987
438.891	8.18579
439.099	7.91208
439.306	7.75757
439.514	7.83143
439.721	8.86177
439.929	8.47917
440.136	9.33669
440.343	9.2139
440.551	9.23404
440.758	10.54502
440.965	9.36965
441.173	9.12734
441.38	8.85927
441.587	8.79302
441.795	8.51175
442.002	8.26216
442.209	8.26527
442.416	8.38051
442.624	8.39156
442.831	8.19574
443.038	7.87079
443.245	7.67508
443.452	8.03099
443.66	8.50602
443.867	8.09559
444.074	8.06999
444.281	8.07079
444.488	8.34165
444.695	8.51905
444.902	8.30486
445.109	9.39906
445.316	9.1632
445.523	9.52375
445.73	9.64153
445.937	10.35781
446.144	10.85681
446.351	11.10724
446.558	10.2008
446.765	11.75907
446.972	11.15281
447.179	10.65017
447.386	11.2203
447.593	9.75501
447.8	10.56455
448.007	9.21073
448.214	8.7811
448.42	8.31334
448.627	8.75757
448.834	8.27116
449.041	8.09642
449.248	8.0159
449.454	8.55316
449.661	9.24476
449.868	7.96878
450.075	7.96822
450.281	7.22513
450.488	7.65697
450.695	7.81776
450.901	8.00014
451.108	7.97303
451.315	8.92088
451.521	8.24243
451.728	9.05123
451.935	8.04473
452.141	8.36396
452.348	8.28252
452.554	8.27387
452.761	8.07262
452.967	9.22781
453.174	8.40729
453.38	8.57135
453.587	7.7316
453.793	8.36651
454	8.73996
454.206	9.4295
454.413	8.83657
454.619	8.57203
454.825	8.08381
455.032	8.80144
455.238	8.73318
455.445	7.82783
455.651	8.46066
455.857	7.50508
456.064	8.09381
456.27	8.12218
456.476	8.21132
456.682	7.80831
456.889	8.60322
457.095	8.80239
457.301	9.89355
457.507	8.53974
457.714	8.59524
457.92	8.65852
458.126	8.30649
458.332	8.71227
458.538	8.56943
458.744	8.88455
458.951	8.83888
459.157	10.64602
459.363	9.91685
459.569	10.13247
459.775	10.76769
459.981	10.49586
460.187	10.76679
460.393	10.88264
460.599	11.00525
460.805	10.14349
461.011	9.19498
461.217	9.17923
461.423	8.98182
461.629	8.40972
461.835	8.66506
462.041	8.30036
462.247	9.23208
462.453	8.29663
462.658	8.35833
462.864	8.81427
463.07	8.61771
463.276	8.64978
463.482	8.63136
463.688	9.26193
463.893	8.22221
464.099	8.52577
464.305	9.45614
464.511	8.34178
464.716	8.52574
464.922	9.16913
465.128	8.27398
465.333	9.52926
465.539	9.06914
465.745	8.67927
465.95	8.66697
466.156	10.17751
466.362	9.4108
466.567	8.7592
466.773	8.45014
466.978	9.53833
467.184	8.17807
467.389	7.7438
467.595	8.85694
467.8	8.26754
468.006	9.42435
468.211	9.34825
468.417	8.05662
468.622	8.89838
468.828	9.08053
469.033	8.93777
469.239	10.2161
469.444	8.51305
469.649	9.2326
469.855	8.74371
470.06	8.84022
470.266	8.38569
470.471	9.15265
470.676	8.97038
470.881	7.91193
471.087	9.54916
471.292	10.33604
471.497	8.17539
471.703	8.67944
471.908	8.53401
472.113	8.84488
472.318	9.3927
472.523	8.3661
472.729	9.08308
472.934	9.13967
473.139	8.6081
473.344	8.99946
473.549	9.46204
473.754	8.49585
473.959	10.31751
474.164	8.35959
474.369	8.74381
474.575	9.17551
474.78	8.87028
474.985	8.56864
475.19	7.86877
475.395	8.41996
475.6	8.93721
475.804	9.79315
476.009	9.07053
476.214	9.06646
476.419	8.83568
476.624	8.29351
476.829	8.54092
477.034	9.43831
477.239	8.61952
477.444	9.37696
477.648	9.35856
477.853	9.32319
478.058	8.92632
478.263	8.64222
478.468	8.50536
478.672	8.50112
478.877	9.74076
479.082	9.82179
479.287	9.23929
479.491	9.05443
479.696	8.56712
479.901	9.41689
480.105	9.50244
480.31	8.82998
480.515	9.23891
480.719	10.36674
480.924	9.08294
481.128	8.7591
481.333	9.50475
481.538	9.40241
481.742	9.74237
481.947	10.90172
482.151	11.97417
482.356	12.81437
482.56	15.1373
482.765	17.0147
482.969	20.06098
483.174	22.63307
483.378	25.75553
483.582	26.59704
483.787	28.40632
483.991	28.58124
484.196	28.90315
484.4	28.01265
484.604	28.19415
484.809	25.36464
485.013	23.6935
485.217	21.20097
485.422	19.03224
485.626	17.32113
485.83	16.50385
486.034	16.10462
486.239	16.53911
486.443	17.17516
486.647	17.63709
486.851	18.95205
487.055	20.28933
487.26	20.28437
487.464	21.23787
487.668	20.6493
487.872	21.07541
488.076	21.1752
488.28	20.21073
488.484	18.7547
488.688	18.30329
488.892	17.20828
489.096	15.97198
489.3	14.62335
489.504	13.75948
489.708	13.18539
489.912	12.89887
490.116	12.76421
490.32	12.60293
490.524	13.93968
490.728	14.82735
490.932	15.66675
491.136	16.63814
491.34	17.68795
491.544	17.96064
491.748	17.78083
491.951	17.76624
492.155	17.18475
492.359	16.58987
492.563	15.08485
492.767	13.9961
492.97	12.44171
493.174	11.14082
493.378	10.23971
493.582	9.07756
493.785	8.85168
493.989	8.97579
494.193	9.04849
494.396	8.93563
494.6	9.3769
494.804	9.18887
495.007	8.88961
495.211	8.98342
495.414	9.18611
495.618	9.58031
495.822	10.0388
496.025	9.55291
496.229	9.82282
496.432	9.22546
496.636	9.50108
496.839	9.35255
497.043	10.24995
497.246	9.63822
497.45	9.15778
497.653	9.46167
497.856	9.43
498.06	8.88205
498.263	9.12058
498.467	9.06773
498.67	9.60547
498.873	9.51039
499.077	9.04033
499.28	9.199
499.483	9.38951
499.686	9.56642
499.89	9.35787
500.093	9.6028
500.296	8.86145
500.499	10.02832
500.703	9.134
500.906	9.50311
501.109	10.02902
501.312	9.36364
501.515	9.16866
501.719	9.57498
501.922	9.84757
502.125	9.38031
502.328	9.2129
502.531	8.7998
502.734	9.32373
502.937	8.58062
503.14	9.50146
503.343	9.0405
503.546	9.22119
503.749	9.03981
503.952	9.82324
504.155	9.03357
504.358	9.58482
504.561	9.40605
504.764	8.74375
504.967	9.2833
505.17	9.24228
505.373	10.07658
505.576	9.26083
505.778	9.68178
505.981	8.90772
506.184	9.91369
506.387	8.52343
506.59	10.48347
506.793	9.97412
506.995	9.78749
507.198	8.60915
507.401	9.83115
507.604	9.73811
507.806	9.07681
508.009	9.13885
508.212	9.97278
508.414	9.17179
508.617	9.29036
508.82	9.35963
509.022	10.18655
509.225	9.52181
509.427	8.83462
509.63	10.08553
509.833	9.44394
510.035	9.10195
510.238	8.74042
510.44	10.00755
510.643	8.58863
510.845	10.3551
511.048	9.66067
511.25	9.16983
511.453	9.42502
511.655	9.57005
511.858	9.30474
512.06	9.96094
512.262	9.54171
512.465	9.89139
512.667	9.24092
512.869	8.81465
513.072	9.5529
513.274	9.70261
513.476	9.59979
513.679	9.69819
513.881	8.83217
514.083	10.12303
514.286	8.94363
514.488	9.03503
514.69	8.94647
514.892	8.66298
515.094	9.59047
515.297	8.96423
515.499	9.44291
515.701	9.00848
515.903	10.42737
516.105	10.31848
516.307	9.9375
516.509	8.7266
516.711	9.25874
516.913	9.80874
517.116	9.68956
517.318	9.55551
517.52	10.39739
517.722	10.20058
517.924	9.26179
518.126	10.03732
518.328	9.6515
518.529	10.19414
518.731	11.05468
518.933	9.56171
519.135	9.75172
519.337	10.31609
519.539	9.73573
519.741	8.6092
519.943	9.1392
520.145	9.16507
520.346	9.66572
520.548	9.05307
520.75	9.42014
520.952	9.11438
521.153	9.51327
521.355	9.42593
521.557	8.98569
521.759	9.55575
521.96	9.30992
522.162	8.9372
522.364	10.02976
522.565	9.15493
522.767	9.78803
522.969	10.04747
523.17	9.94437
523.372	9.76283
523.573	9.38802
523.775	9.52739
523.977	9.32729
524.178	10.70059
524.38	9.58649
524.581	10.2391
524.783	9.86028
524.984	10.21586
525.186	10.0553
525.387	10.61473
525.589	10.56676
525.79	10.59329
525.991	10.68312
526.193	11.26359
526.394	10.61546
526.596	11.53152
526.797	11.88983
526.998	11.70074
527.2	12.36552
527.401	14.52148
527.602	15.78091
527.803	18.24145
528.005	19.47399
528.206	20.93217
528.407	21.96661
528.608	21.97453
528.81	22.32049
529.011	21.588
529.212	22.16467
529.413	20.61219
529.614	19.12949
529.815	17.78267
530.017	16.21682
530.218	14.33807
530.419	12.88388
530.62	12.36114
530.821	11.75331
531.022	10.66191
531.223	11.33884
531.424	11.15448
531.625	11.23757
531.826	11.1105
532.027	11.80678
532.228	13.15245
532.429	13.48767
532.63	13.94217
532.831	14.83944
533.032	14.95798
533.233	15.68336
533.433	15.3743
533.634	15.54933
533.835	14.6375
534.036	13.79613
534.237	13.18446
534.438	12.28157
534.638	10.97674
534.839	10.48022
535.04	10.23393
535.241	9.70153
535.441	10.64554
535.642	10.34681
535.843	9.90795
536.043	10.26617
536.244	10.50229
536.445	10.78914
536.645	11.47193
536.846	11.15774
537.047	11.45329
537.247	10.37316
537.448	9.97565
537.648	9.75256
537.849	9.32973
538.049	9.28908
538.25	9.53412
538.451	9.56484
538.651	9.07893
538.851	9.82222
539.052	10.25887
539.252	10.14381
539.453	9.88602
539.653	10.18771
539.854	10.16611
540.054	10.46174
540.254	12.16626
540.455	13.50491
540.655	13.71387
540.855	15.39852
541.056	16.31544
541.256	16.24595
541.456	17.13795
541.657	16.72724
541.857	17.22711
542.057	15.77026
542.257	15.08095
542.458	15.1213
542.658	14.43042
542.858	12.58567
543.058	12.55393
543.258	11.7996
543.458	10.41536
543.659	10.04191
543.859	10.40926
544.059	10.13719
544.259	9.53882
544.459	10.15668
544.659	9.41846
544.859	9.85118
545.059	9.4192
545.259	10.10584
545.459	9.91546
545.659	10.33123
545.859	9.91964
546.059	10.15854
546.259	9.57462
546.459	9.2724
546.659	9.37019
546.859	10.1636
547.059	9.81377
547.258	9.96666
547.458	9.93624
547.658	9.1272
547.858	8.97379
548.058	9.48897
548.258	9.2229
548.457	8.91183
548.657	10.6528
548.857	9.25352
549.057	9.8347
549.256	9.8034
549.456	9.11357
549.656	8.42882
549.855	10.64251
550.055	9.36961
550.255	10.51517
550.454	9.70136
550.654	10.13538
550.853	10.62402
551.053	10.19232
551.253	9.95389
551.452	10.18075
551.652	9.15342
551.851	8.98991
552.051	9.62162
552.25	9.55807
552.45	9.43765
552.649	9.46727
552.849	9.23256
553.048	9.73173
553.248	10.11483
553.447	8.91276
553.646	9.95323
553.846	11.03827
554.045	10.32077
554.244	8.62836
554.444	10.25701
554.643	8.74765
554.842	10.52042
555.042	10.72683
555.241	9.1849
555.44	8.7879
555.64	9.93298
555.839	10.48325
556.038	9.89989
556.237	9.03559
556.436	9.74014
556.636	9.79843
556.835	9.14337
557.034	10.48536
557.233	9.55866
557.432	8.68491
557.631	10.29987
557.83	9.30371
558.029	9.10843
558.228	9.05872
558.427	8.80095
558.626	9.75142
558.825	8.93344
559.024	9.362
559.223	10.70906
559.422	9.33119
559.621	9.81396
559.82	8.11541
560.019	9.63163
560.218	9.21226
560.417	8.03839
560.616	9.29625
560.815	11.79147
561.014	8.62193
561.212	10.71993
561.411	9.70037
561.61	8.58729
561.809	9.31343
562.008	10.72301
562.206	9.28977
562.405	9.79177
562.604	9.49587
562.803	9.59906
563.001	9.41379
563.2	8.67388
563.399	9.81585
563.597	8.84201
563.796	9.63825
563.995	8.71467
564.193	10.10651
564.392	9.42698
564.59	11.08473
564.789	8.64284
564.988	9.59498
565.186	9.94749
565.385	9.74975
565.583	9.67159
565.782	9.82658
565.98	9.78316
566.179	9.63962
566.377	9.15015
566.575	9.10569
566.774	10.5518
566.972	10.05352
567.171	10.83134
567.369	10.39677
567.567	9.52868
567.766	9.56462
567.964	8.01653
568.162	9.827
568.361	10.38443
568.559	9.37023
568.757	9.69786
568.956	9.60101
569.154	9.56598
569.352	10.02517
569.55	9.62933
569.748	9.67592
569.947	9.17728
570.145	8.9722
570.343	9.06456
570.541	10.75787
570.739	9.04162
570.937	9.79429
571.135	10.17521
571.333	11.4897
571.532	11.25104
571.73	10.0183
571.928	10.56112
572.126	10.2606
572.324	9.55672
572.522	10.45777
572.72	11.4647
572.918	9.5637
573.116	10.00696
573.313	9.3649
573.511	9.5811
573.709	9.25159
573.907	10.27171
574.105	9.40868
574.303	8.73693
574.501	8.76368
574.699	10.16178
574.896	10.00905
575.094	10.19148
575.292	8.80789
575.49	10.27766
575.688	9.49241
575.885	10.4671
576.083	11.22673
576.281	10.01752
576.478	8.94392
576.676	9.9992
576.874	8.48275
577.071	9.45322
577.269	11.07645
577.467	9.41023
577.664	9.4397
577.862	10.21639
578.059	8.87714
578.257	10.06159
578.455	9.36691
578.652	9.46365
578.85	8.03506
579.047	9.4794
579.245	9.09453
579.442	9.50449
579.64	9.29693
579.837	8.3625
580.034	11.66452
580.232	9.27668
580.429	8.63709
580.627	10.08741
580.824	10.5939
581.021	10.09604
581.219	9.16748
581.416	9.03809
581.613	10.73091
581.811	10.67717
582.008	8.9023
582.205	10.28476
582.402	9.87839
582.6	10.74593
582.797	9.73585
582.994	9.81702
583.191	10.29841
583.388	9.49468
583.586	10.24618
583.783	10.48483
583.98	8.6883
584.177	9.78417
584.374	7.44186
584.571	9.39718
584.768	9.53491
584.965	9.26302
585.162	10.24935
585.359	11.02958
585.556	9.65967
585.753	10.06051
585.95	8.64437
586.147	8.86172
586.344	10.06386
586.541	9.34773
586.738	8.58599
586.935	9.69063
587.132	9.02333
587.329	10.50228
587.526	9.64024
587.722	13.92714
587.919	8.51736
588.116	10.16088
588.313	10.9175
588.51	11.48664
588.706	9.44733
588.903	10.19687
589.1	10.63575
589.297	12.16801
589.493	9.69251
589.69	10.14975
589.887	9.20881
590.083	8.67845
590.28	9.01547
590.477	10.47976
590.673	10.18221
590.87	10.89864
591.067	9.02432
591.263	10.01099
591.46	9.92944
591.656	9.41482
591.853	10.97474
592.049	9.01149
592.246	9.14377
592.442	10.61051
592.639	10.88644
592.835	8.96894
593.032	10.12628
593.228	8.65184
593.425	8.70885
593.621	8.64518
593.817	10.07045
594.014	9.06784
594.21	10.17849
594.406	10.69937
594.603	10.19478
594.799	9.27037
594.995	7.99562
595.192	10.83311
595.388	9.4588
595.584	9.70007
595.78	8.97183
595.977	12.38228
596.173	11.44863
596.369	9.96762
596.565	9.23084
596.761	9.48359
596.957	10.95988
597.154	9.50839
597.35	9.50739
597.546	9.25096
597.742	10.0026
597.938	9.79346
598.134	8.78178
598.33	9.48585
598.526	10.53116
598.722	9.69009
598.918	11.1161
599.114	10.1253
599.31	8.3973
599.506	9.59603
599.702	8.86217
599.898	9.87082
600.094	10.55083
600.29	10.44686
600.485	10.75328
600.681	9.10797
600.877	11.30101
601.073	9.85718
601.269	11.72828
601.465	11.44547
601.66	8.94792
601.856	8.38789
602.052	11.99323
602.248	10.0074
602.443	8.60767
602.639	9.05915
602.835	9.54256
603.03	9.46693
603.226	10.94898
603.422	9.52613
603.617	9.99925
603.813	10.0357
604.009	9.715
604.204	11.20829
604.4	8.93518
604.595	11.02626
604.791	9.21631
604.986	10.25663
605.182	9.19417
605.377	9.35257
605.573	9.38554
605.768	9.52356
605.964	9.94341
606.159	10.09363
606.355	10.46093
606.55	9.16216
606.746	10.54058
606.941	9.65874
607.136	11.43993
607.332	12.49032
607.527	8.81517
607.722	10.23328
607.918	9.69072
608.113	9.28042
608.308	11.03587
608.503	10.85521
608.699	10.62008
608.894	10.77154
609.089	9.65812
609.284	10.62899
609.479	9.87496
609.675	10.7071
609.87	9.77244
610.065	10.66085
610.26	10.79415
610.455	10.53029
610.65	9.67798
610.845	10.14862
611.04	10.46433
611.235	9.62756
611.43	9.47678
611.625	8.81434
611.82	11.1017
612.015	9.3236
612.21	11.52086
612.405	8.41635
612.6	11.79419
612.795	11.64901
612.99	10.74768
613.185	8.99569
613.38	9.40532
613.575	10.10304
613.77	13.26425
613.965	8.76551
614.159	9.24755
614.354	11.60873
614.549	11.32065
614.744	10.74878
614.938	8.97013
615.133	8.76833
615.328	11.64647
615.523	11.47449
615.717	13.4467
615.912	9.62819
616.107	10.33875
616.301	9.70775
616.496	9.28001
616.691	12.04095
616.885	11.01484
617.08	13.45668
617.274	11.33721
617.469	12.483
617.664	11.10231
617.858	9.75658
618.053	10.61721
618.247	9.81508
618.442	7.80157
618.636	11.89811
618.831	9.56955
619.025	9.50911
619.219	13.68419
619.414	7.01312
619.608	10.09156
619.803	9.30756
619.997	12.90754
620.191	11.42435
620.386	10.83003
620.58	10.05346
620.774	8.33058
620.969	8.33898
621.163	10.28363
621.357	9.00771
621.551	10.22656
621.746	10.46311
621.94	9.79836
622.134	14.12627
622.328	12.91687
622.522	8.537
622.716	11.63913
622.911	11.70444
623.105	11.49082
623.299	10.9829
623.493	14.0525
623.687	9.59136
623.881	9.63391
624.075	11.33689
624.269	11.78808
624.463	8.27043
624.657	8.69237
624.851	11.35059
625.045	11.30884
625.239	11.45063
625.433	10.17545
625.627	12.7759
625.821	10.1603
626.015	9.99927
626.209	10.93628
626.403	9.03517
626.596	11.18284
626.79	11.49829
626.984	9.33886
627.178	11.17769
627.372	11.07794
627.565	11.26711
627.759	8.95742
627.953	9.00988
628.147	10.53968
628.34	11.05987
628.534	12.7931
628.728	9.94811
628.921	11.41716
629.115	11.18844
629.309	11.67044
629.502	11.86092
629.696	10.62681
629.89	10.35538
630.083	10.85566
630.277	10.77314
630.47	12.68813
630.664	10.07624
630.857	8.88333
631.051	11.6109
631.244	11.9632
631.438	11.90803
631.631	9.78021
631.825	12.28043
632.018	11.2047
632.212	13.10924
632.405	12.46021
632.598	9.93523
632.792	11.10942
632.985	8.06715
633.178	10.7502
633.372	10.86559
633.565	10.42383
633.758	12.22978
633.952	9.88679
634.145	9.72221
634.338	10.56568
634.531	10.10367
634.724	9.55363
634.918	10.83957
635.111	10.23172
635.304	10.25006
635.497	13.82148
635.69	11.06757
635.883	12.27149
636.077	9.66209
636.27	11.35675
636.463	11.22487
636.656	11.00375
636.849	10.49851
637.042	11.6212
637.235	13.58138
637.428	11.98093
637.621	11.43627
637.814	12.89201
638.007	12.99107
638.2	12.99791
638.393	13.56996
638.586	9.05509
638.778	10.49183
638.971	10.86843
639.164	13.22501
639.357	11.5108
639.55	13.39975
639.743	12.21775
639.935	11.70888
640.128	14.76425
640.321	12.39878
640.514	11.46781
640.707	14.71577
640.899	12.14741
641.092	8.94739
641.285	26.86951
641.477	8.16845
641.67	15.18512
641.863	13.34054
642.055	11.73501
642.248	11.16223
642.441	11.37377
642.633	12.22035
642.826	12.87709
643.018	13.50271
643.211	14.4488
643.403	14.7402
643.596	15.37129
643.788	14.95276
643.981	11.17909
644.173	12.9046
644.366	11.04576
644.558	9.1196
644.751	12.98911
644.943	10.10001
645.135	14.44314
645.328	14.47581
645.52	12.51408
645.712	13.67635
645.905	16.91439
646.097	10.01016
646.289	12.40503
646.482	15.47243
646.674	10.62041
646.866	13.84468
647.058	12.86781
647.251	10.48072
647.443	10.93556
647.635	11.7992
647.827	10.37039
648.019	10.11601
648.211	11.68795
648.404	11.91577
648.596	14.60618
648.788	12.70075
648.98	12.24974
649.172	12.78928
649.364	12.71776
649.556	9.41883
649.748	16.53896
649.94	10.73633
650.132	13.32833
650.324	10.82199
650.516	11.15528
650.708	13.75623
650.9	10.06246
651.092	9.52221
651.284	10.14913
651.476	10.42775
651.667	13.41561
651.859	14.44542
652.051	11.86632
652.243	12.40329
652.435	11.33829
652.627	13.3035
652.818	12.94755
653.01	9.26451
653.202	10.83826
653.394	11.37847
653.585	12.82742
653.777	20.04325
653.969	15.17806
654.16	14.34037
654.352	10.60067
654.544	12.0203
654.735	14.32135
654.927	12.70838
655.118	15.09227
655.31	13.99849
655.502	14.48252
655.693	11.93749
655.885	13.35992
656.076	15.31769
656.268	13.13532
656.459	15.29946
656.651	15.05016
656.842	12.13209
657.034	11.5044
657.225	14.37786
657.416	15.31471
657.608	15.12093
657.799	13.06584
657.99	15.15312
658.182	11.61653
658.373	11.83039
658.564	15.22086
658.756	13.63528
658.947	12.59795
659.138	11.43787
659.33	12.22562
659.521	11.70373
659.712	12.6698
659.903	12.1585
660.094	11.66413
660.286	9.96325
660.477	15.65259
660.668	13.5725
660.859	12.3619
661.05	10.27155
661.241	13.66282
661.432	13.2882
661.623	12.25149
661.814	12.04199
662.006	10.07768
662.197	12.87663
662.388	14.7345
662.579	13.46653
662.77	15.25671
662.96	18.30718
663.151	14.59722
663.342	9.76766
663.533	14.18859
663.724	13.20633
663.915	16.87394
664.106	13.41244
664.297	16.80898
664.488	14.72163
664.678	11.86372
664.869	15.29155
665.06	15.25925
665.251	13.89649
665.442	14.6618
665.632	11.34406
665.823	17.75616
666.014	8.32482
666.204	14.476
666.395	16.13868
666.586	18.36781
666.776	15.15864
666.967	17.27067
667.158	13.69506
667.348	17.10276
667.539	11.86507
667.729	15.53836
667.92	12.66204
668.111	15.90861
668.301	15.19865
668.492	13.40504
668.682	14.1989
668.873	13.84225
669.063	11.52545
669.253	14.50318
669.444	16.60281
669.634	13.67378
669.825	17.50601
670.015	16.18871
670.206	12.45274
670.396	18.37146
670.586	13.37467
670.777	14.74239
670.967	9.91323
671.157	13.49728
671.347	12.71795
671.538	17.00892
671.728	15.78431
671.918	17.90848
672.108	16.44657
672.299	13.68243
672.489	14.81037
672.679	12.64485
672.869	15.26239
673.059	19.13526
673.249	15.30181
673.44	12.12217
673.63	14.13438
673.82	16.12869
674.01	12.33092
674.2	15.21492
674.39	20.39256
674.58	15.91411
674.77	14.81463
674.96	14.0595
675.15	23.55288
675.34	16.97029
675.53	14.99073
675.72	13.28019
675.91	11.38183
676.099	18.85784
676.289	20.02903
676.479	17.03703
676.669	13.58676
676.859	15.94107
677.049	13.07281
677.238	15.19743
677.428	18.89129
677.618	15.97682
677.808	19.18755
677.997	16.08723
678.187	13.04491
678.377	14.9359
678.567	13.72766
678.756	13.9442
678.946	15.13369
679.136	12.68583
679.325	14.26294
679.515	13.45676
679.704	12.68536
679.894	17.00346
680.084	16.08038
680.273	17.74576
680.463	13.23704
680.652	13.15656
680.842	14.91484
681.031	16.98317
681.221	13.23523
681.41	16.08799
681.6	14.69054
681.789	16.41519
681.978	17.51801
682.168	15.69722
682.357	15.58722
682.547	16.13428
682.736	15.4161
682.925	17.87264
683.115	18.1038
683.304	16.84872
683.493	15.71693
683.682	16.71007
683.872	16.56089
684.061	18.07289
684.25	17.15233
684.439	21.04502
684.629	17.90596
684.818	24.30323
685.007	16.00849
685.196	15.1149
685.385	20.28355
685.574	17.53758
685.763	16.96733
685.952	17.36422
686.142	13.38543
686.331	19.79611
686.52	12.62544
686.709	21.45232
686.898	21.06315
687.087	18.13803
687.276	20.63647
687.465	19.65756
687.654	16.13075
687.842	20.26478
688.031	13.89508
688.22	20.75608
688.409	17.3093
688.598	17.26439
688.787	23.31447
688.976	16.93253
689.165	22.26391
689.353	16.05484
689.542	18.07798
689.731	19.96155
689.92	23.21597
690.108	18.99192
690.297	16.6211
690.486	17.92611
690.675	19.51075
690.863	21.73695
691.052	21.66083
691.241	18.15655
691.429	18.12109
691.618	21.56469
691.806	14.33279
691.995	16.18507
692.184	17.84588
692.372	16.70773
692.561	17.97373
692.749	18.511
692.938	27.31276
693.126	19.4092
693.315	17.34539
693.503	20.25675
693.692	20.35641
693.88	20.36371
694.068	24.05113
694.257	18.71173
694.445	20.33897
694.634	12.63091
694.822	20.69748
695.01	21.56382
695.199	24.34662
695.387	23.10505
695.575	21.98601
695.763	17.91617
695.952	17.4597
696.14	14.1151
696.328	16.67181
696.516	18.55463
696.705	19.74415
696.893	19.51272
697.081	13.87404
697.269	21.20756
697.457	15.87597
697.645	15.35731
697.833	20.8666
698.021	16.46059
698.21	17.14972
698.398	17.99603
698.586	15.49103
698.774	14.90961
698.962	17.76199
699.15	15.21772
699.338	13.78172
699.526	18.9619
699.714	15.71317
699.901	15.82217
700.089	19.38987
700.277	15.6305
700.465	17.13793
700.653	19.75525
700.841	19.18555
701.029	16.07105
701.217	22.29465
701.404	18.27574
701.592	22.47934
701.78	25.59729
701.968	17.75114
702.155	17.61989
702.343	15.45272
702.531	23.02894
702.718	20.44909
702.906	17.26805
703.094	17.04423
703.281	23.09549
703.469	18.71679
703.657	23.24859
703.844	29.96732
704.032	25.85586
704.219	18.37376
704.407	21.42462
704.595	24.7516
704.782	21.04146
704.97	19.86617
705.157	19.57876
705.345	26.92604
705.532	31.80437
705.719	23.80074
705.907	27.09811
706.094	22.85966
706.282	29.61404
706.469	22.65324
706.656	24.64911
706.844	22.9262
707.031	28.04888
707.218	26.30798
707.406	30.25389
707.593	27.9267
707.78	27.96226
707.968	25.922
708.155	22.64478
708.342	28.4318
708.529	28.12729
708.716	27.07167
708.904	31.26652
709.091	28.21268
709.278	22.65884
709.465	33.32859
709.652	30.85404
709.839	29.91739
710.026	25.91445
710.213	19.84671
710.4	26.1312
710.587	27.78083
710.774	27.9626
710.961	29.38631
711.148	25.60814
711.335	29.02751
711.522	24.31413
711.709	27.49361
711.896	32.41545
712.083	29.06503
712.27	22.36044
712.457	26.23607
712.644	20.69283
712.831	32.78906
713.017	26.54219
713.204	28.63493
713.391	23.74112
713.578	28.67083
713.765	30.90059
713.951	26.48554
714.138	36.35826
714.325	25.7224
714.512	24.29352
714.698	20.71822
714.885	29.53101
715.072	24.3377
715.258	23.37101
715.445	21.27799
715.631	28.0589
715.818	14.33142
716.005	21.20146
716.191	25.82837
716.378	21.37317
716.564	26.43861
716.751	19.84683
716.937	21.09578
717.124	26.66152
717.31	19.44403
717.497	30.40129
717.683	20.07042
717.869	30.93527
718.056	21.10594
718.242	24.95699
718.429	22.93944
718.615	18.61529
718.801	22.88887
718.988	27.82959
719.174	25.85767
719.36	22.27377
719.547	28.97037
719.733	24.20414
719.919	24.34318
720.105	25.91976
720.291	23.5379
720.478	24.44891
720.664	23.55604
720.85	21.80859
721.036	35.73361
721.222	31.12546
721.408	23.66494
721.595	31.21497
721.781	30.78592
721.967	29.21206
722.153	31.10827
722.339	27.28632
722.525	26.16141
722.711	20.39379
722.897	18.77979
723.083	22.93615
723.269	28.50986
723.455	37.38779
723.641	42.34958
723.827	25.6055
724.012	26.76571
724.198	24.58615
724.384	30.73693
724.57	26.68306
724.756	19.02038
724.942	16.87263
725.127	29.65961
725.313	30.63854
725.499	30.77526
725.685	34.04827
725.87	26.77415
726.056	21.52921
726.242	31.15826
726.428	18.78113
726.613	29.53082
726.799	23.86314
726.985	20.00557
727.17	17.80394
727.356	34.53805
727.541	21.19478
727.727	24.55579
727.913	29.21691
728.098	23.20872
728.284	28.68999
728.469	20.83155
728.655	22.47615
728.84	30.46238
729.026	29.2062
729.211	29.11258
729.397	27.2431
729.582	28.68662
729.767	25.21101
729.953	26.87625
730.138	31.85303
730.323	15.65975
730.509	20.54691
730.694	33.73199
730.879	28.34734
731.065	26.5612
731.25	36.69224
731.435	29.07969
731.621	19.46171
731.806	23.15295
731.991	27.19525
732.176	18.82629
732.361	33.61745
732.547	27.95113
732.732	19.50269
732.917	37.48354
733.102	21.33847
733.287	22.83463
733.472	25.79039
733.657	25.7661
733.842	19.18935
734.027	23.20251
734.212	25.41963
734.397	22.76969
734.582	26.61865
734.767	31.18602
734.952	32.61877
735.137	15.04857
735.322	33.46011
735.507	28.00576
735.692	26.91193
735.877	37.16833
736.062	35.50958
736.247	28.38884
736.431	26.06795
736.616	31.39875
736.801	28.83627
736.986	27.15952
737.171	22.3417
737.355	21.76076
737.54	33.3208
737.725	27.28562
737.909	41.61222
738.094	24.39693
738.279	30.99466
738.463	25.0862
738.648	30.05034
738.833	29.28796
739.017	39.26233
739.202	25.20503
739.386	26.03089
739.571	23.13665
739.756	31.5823
739.94	27.32033
740.125	30.73797
740.309	24.41456
740.494	31.30546
740.678	28.59851
740.863	30.1013
741.047	27.99768
741.231	35.72443
741.416	24.42775
741.6	35.44623
741.785	22.73933
741.969	32.45454
742.153	35.1382
742.338	17.11972
742.522	27.43755
742.706	31.7134
742.89	21.30391
743.075	28.42931
743.259	35.52616
743.443	33.80266
743.627	35.53791
743.812	41.13745
743.996	19.84488
744.18	27.01661
744.364	26.05406
744.548	41.82883
744.732	27.10156
744.916	34.20268
745.1	31.80351
745.285	26.42433
745.469	32.35782
745.653	37.64627
745.837	22.38431
746.021	42.32254
746.205	36.03347
746.389	29.16881
746.573	27.68278
746.757	36.55053
746.94	25.80012
747.124	35.6297
747.308	22.02368
747.492	35.09923
747.676	24.06611
747.86	44.56485
748.044	26.98356
748.227	19.75424
748.411	52.34577
748.595	30.59538
748.779	24.56459
748.963	31.71341
749.146	29.60896
749.33	24.322
749.514	24.79251
749.697	36.41991
749.881	24.48029
750.065	23.73312
750.248	30.54267
750.432	43.8499
750.616	28.64739
750.799	23.16465
750.983	45.17168
751.166	45.33773
751.35	20.70913
751.533	36.07695
751.717	40.59282
751.9	38.99471
752.084	28.86786
752.267	24.49184
752.451	25.6253
752.634	30.65238
752.818	33.22347
753.001	34.71951
753.184	37.29072
753.368	32.47602
753.551	10.98768
753.734	24.74992
753.918	45.85993
754.101	25.30465
754.284	34.92378
754.467	27.56217
754.651	24.51197
754.834	23.9702
755.017	37.16294
755.2	37.2745
755.384	24.3112
755.567	34.73306
755.75	35.79813
755.933	27.56192
756.116	34.9256
756.299	26.23301
756.482	24.08613
756.665	34.58677
756.848	30.2875
757.032	32.74552
757.215	22.2659
757.398	26.04287
757.581	25.29801
757.764	48.85618
757.947	29.601
758.129	36.63015
758.312	14.18573
758.495	29.48546
758.678	28.91922
758.861	27.67715
759.044	42.63362
759.227	24.66266
759.41	24.72367
759.592	33.35668
759.775	29.14398
759.958	36.68396
760.141	23.2857
760.324	47.37261
760.506	40.44911
760.689	36.6825
760.872	45.472
761.054	33.72716
761.237	29.15477
761.42	32.21543
761.602	35.77373
761.785	33.78544
761.968	39.49988
762.15	43.10527
762.333	29.92127
762.515	34.8902
762.698	29.45206
762.88	37.56187
763.063	34.01908
763.245	38.74114
763.428	25.47151
763.61	27.75994
763.793	23.61278
763.975	32.92802
764.158	29.04791
764.34	26.66857
764.522	24.58828
764.705	29.0573
764.887	39.69861
765.069	21.47122
765.252	33.70774
765.434	35.20305
765.616	31.37889
765.799	26.27958
765.981	35.39175
766.163	26.40507
766.345	40.49804
766.528	26.54191
766.71	18.3454
766.892	33.21829
767.074	40.7407
767.256	29.34559
767.438	44.0975
767.62	33.21041
767.802	48.63019
767.985	36.18712
768.167	44.61065
768.349	28.58233
768.531	35.62981
768.713	34.82471
768.895	37.72021
769.077	34.31869
769.259	52.85803
769.441	69.55157
769.623	38.57917
769.804	45.02448
769.986	41.4434
770.168	49.30265
770.35	59.81011
770.532	46.38399
770.714	49.62982
770.896	49.60927
771.077	25.36525
771.259	53.88462
771.441	45.81999
771.623	54.32756
771.804	68.26997
771.986	28.14918
772.168	36.54044
772.35	53.37318
772.531	70.42927
772.713	44.59238
772.894	57.48931
773.076	45.19694
773.258	37.95132
773.439	59.50911
773.621	64.91352
773.802	33.0255
773.984	37.02363
774.166	46.45959
774.347	62.43203
774.529	56.47397
774.71	24.7455
774.891	43.38967
775.073	40.66364
775.254	59.06435
775.436	37.7023
775.617	70.84575
775.799	38.53325
775.98	58.58404
776.161	64.87686
776.343	67.61286
776.524	43.09206
776.705	42.7288
776.886	27.62252
777.068	49.94674
777.249	96.02686
777.43	69.41883
777.611	32.0644
777.793	39.47994
777.974	65.98615
778.155	40.18366
778.336	34.24998
778.517	75.23283
778.698	35.87564
778.879	24.96127
779.061	17.37334
779.242	50.79699
779.423	50.88307
779.604	39.22491
779.785	40.50927
779.966	48.06319
780.147	57.02558
780.328	56.45714
780.509	79.07734
780.69	55.43577
780.871	38.24595
781.051	30.11419
781.232	48.1583
781.413	47.78665
781.594	41.05658
781.775	40.28006
781.956	37.90032
782.137	24.41738
782.317	40.95087
782.498	46.66246
782.679	44.45711
782.86	46.6938
783.04	37.10024
783.221	48.07559
783.402	68.76084
783.583	45.57161
783.763	55.85723
783.944	40.3175
784.124	29.67667
784.305	68.10169
784.486	53.93858
784.666	45.15362
784.847	28.90713
785.027	90.90174
785.208	38.50344
785.388	36.91141
785.569	38.05886
785.749	42.84917
785.93	40.4583
786.11	28.60782
786.291	53.46517
786.471	49.1758
786.652	56.38597
786.832	42.40272
787.012	49.27805
787.193	34.19636
787.373	46.61302
787.553	41.16967
787.734	48.9829
787.914	41.27961
788.094	58.04098
788.275	50.71213
788.455	40.88931
788.635	32.28192
788.815	49.10325
788.995	33.58219
789.176	27.61059
789.356	35.7971
789.536	41.81109
789.716	51.70143
789.896	36.04102
790.076	38.0763
790.256	49.62322
790.436	21.93135
790.616	34.33695
790.796	47.5801
790.976	40.79805
791.156	36.61972
791.336	51.9838
791.516	49.09628
791.696	42.74301
791.876	30.11942
792.056	49.04888
792.236	57.75071
792.416	55.67626
792.596	50.82867
792.776	50.3466
792.956	54.56026
793.135	69.62727
793.315	32.67229
793.495	60.25341
793.675	55.52717
793.854	55.57086
794.034	57.89043
794.214	34.09176
794.394	53.93027
794.573	59.64038
794.753	47.4568
794.933	36.20091
795.112	49.50789
795.292	59.74823
795.472	68.97774
795.651	31.01171
795.831	45.78355
796.01	42.42884
796.19	43.24208
796.369	45.91161
796.549	51.57464
796.728	43.14749
796.908	30.72479
797.087	32.97652
797.267	43.11682
797.446	33.22017
797.626	52.66515
797.805	51.90052
797.984	38.36783
798.164	55.06834
798.343	36.152
798.522	47.89139
798.702	47.84222
798.881	32.09174
799.06	42.4475
799.239	23.12482
799.419	36.87477
799.598	68.3569
799.777	50.54853
799.956	60.07906
800.136	43.31982
800.315	35.12859
800.494	50.59434
800.673	60.0495
800.852	53.94405
801.031	60.88675
801.21	53.94495
801.389	41.30255
801.568	48.20604
801.747	72.88299
801.926	46.88686
802.105	65.32516
802.284	39.44998
802.463	67.80131
802.642	50.03726
802.821	49.34463
803	65.18141
803.179	58.66036
803.358	60.05919
803.537	39.19484
803.716	46.23888
803.895	39.20795
804.073	43.93391
804.252	36.68784
804.431	53.28787
804.61	45.34206
804.789	55.70852
804.967	39.54886
805.146	41.63288
805.325	77.65581
805.503	51.35092
805.682	31.75844
805.861	93.09326
806.039	66.28632
806.218	41.23379
806.397	48.36495
806.575	45.77097
806.754	51.88674
806.932	35.03493
807.111	60.95418
807.289	60.54225
807.468	47.63058
807.646	61.15
807.825	55.76507
808.003	47.70806
808.182	60.23872
808.36	47.78434
808.539	36.76387
808.717	68.63238
808.895	39.29871
809.074	52.20675
809.252	47.67635
809.43	55.23285
809.609	64.2853
809.787	73.26129
809.965	44.8834
810.144	49.23125
810.322	46.45525
810.5	52.498
810.678	43.05353
810.856	78.97786
811.035	61.7726
811.213	56.27844
811.391	69.77575
811.569	52.60894
811.747	102.22285
811.925	65.12055
812.103	40.28791
812.281	47.65512
812.459	76.28957
812.637	73.65982
812.816	60.96689
812.994	79.32532
813.171	68.11043
813.349	55.4224
813.527	63.59487
813.705	71.20007
813.883	89.42692
814.061	62.37761
814.239	75.21588
814.417	83.26799
814.595	58.61042
814.773	55.47975
814.95	52.20067
815.128	59.00575
815.306	54.51031
815.484	47.80642
815.662	37.7883
815.839	35.30469
816.017	43.04468
816.195	68.86582
816.372	44.24445
816.55	62.26001
816.728	73.64996
816.905	47.22894
817.083	76.06463
817.261	51.42736
817.438	94.83298
817.616	77.88991
817.793	45.31186
817.971	63.44968
818.148	61.81671
818.326	69.69399
818.503	56.12445
818.681	75.88235
818.858	45.37986
819.036	51.27762
819.213	54.14126
819.391	42.77317
819.568	42.98885
819.745	39.73091
819.923	63.16709
820.1	47.81423
820.277	40.99325
820.455	47.68996
820.632	49.3604
820.809	52.03858
820.986	37.00982
821.164	32.20002
821.341	32.06362
821.518	40.84851
821.695	33.0454
821.872	31.39904
822.05	28.61217
822.227	25.18465
822.404	26.00367
822.581	28.22474
822.758	25.78426
822.935	25.83333
823.112	27.62918
823.289	24.98084
823.466	27.89151
823.643	26.88435
823.82	30.16952
823.997	27.9578
824.174	31.45294
824.351	38.30704
824.528	36.78939
824.705	33.9084
824.882	37.16965
825.059	45.18165
825.236	35.36156
825.412	36.96124
825.589	41.58378
825.766	53.60911
825.943	37.99778
826.12	43.24458
826.296	34.15227
826.473	39.69634
826.65	39.76856
826.827	44.35135
827.003	33.65332
827.18	36.42349
827.357	39.70696
827.533	35.21895
827.71	24.29976
827.887	31.76494
828.063	35.02303
828.24	31.22578
828.416	37.68405
828.593	33.30972
828.769	42.59614
828.946	43.19788
829.122	45.02816
829.299	42.57262
829.475	32.72985
829.652	44.27516
829.828	65.87355
830.005	45.37326
830.181	57.88137
830.357	44.7193
830.534	62.03979
830.71	47.25406
830.886	58.81481
831.063	58.50182
831.239	70.13011
831.415	39.85448
831.592	72.04998
831.768	49.74837
831.944	45.67443
832.12	76.2536
832.296	71.1256
832.473	62.26236
832.649	44.51162
832.825	63.02612
833.001	41.14419
833.177	55.79045
833.353	50.20304
833.529	33.56552
833.705	47.65209
833.881	34.73006
834.058	34.57646
834.234	36.3585
834.41	36.65674
834.586	30.41476
834.761	34.36726
834.937	37.50664
835.113	37.11802
835.289	33.81273
835.465	38.22086
835.641	35.02834
835.817	39.91331
835.993	59.51203
836.169	36.1738
836.344	50.05589
836.52	56.16537
836.696	51.15855
836.872	44.07319
837.048	103.18219
837.223	49.12429
837.399	80.03758
837.575	64.73546
837.75	61.56559
837.926	82.5838
838.102	116.05037
838.277	96.57232
838.453	124.92596
838.628	127.11265
838.804	55.5286
838.98	110.66108
839.155	62.39548
839.331	83.79511
839.506	62.21304
839.682	63.95482
839.857	85.18157
840.033	96.93299
840.208	50.83245
840.384	30.13852
840.559	50.18823
840.734	70.75892
840.91	91.18384
841.085	58.2568
841.26	57.9922
841.436	54.02119
841.611	54.6837
841.786	76.20261
841.962	98.15499
842.137	63.73287
842.312	48.44249
842.487	58.4959
842.663	53.34607
842.838	58.51365
843.013	168.33967
843.188	87.58145
843.363	94.83331
843.538	140.46188
843.714	143.50018
843.889	146.61118
844.064	147.8391
844.239	128.0728
844.414	144.16762
844.589	102.09379
844.764	178.83774
844.939	178.60813
845.114	191.09335
845.289	180.09175
845.464	246.35201
845.639	171.58462
845.814	94.65181
845.989	107.39897
846.163	123.0332
846.338	128.99203
846.513	171.86741
846.688	121.8133
846.863	123.09227
847.038	111.14793
847.212	129.05782
847.387	130.60678
847.562	133.8097
847.737	160.0451
847.911	68.10895
848.086	83.44945
848.261	275.27679
848.435	120.48632
848.61	174.69857
848.785	93.04474
848.959	173.58258
849.134	234.90001
849.308	236.68956
849.483	139.41289
849.658	205.80385
849.832	117.84331
850.007	102.55161
850.181	265.34975
850.356	113.68686
850.53	252.07515
850.705	87.09648
850.879	62.41034
851.053	130.24203
851.228	121.58339
851.402	146.97477
851.577	191.35433
851.751	202.80911
851.925	141.83439
852.099	68.68572
852.274	102.22801
852.448	125.76909
852.622	158.72738
852.797	139.76045
852.971	125.50868
853.145	134.69892
853.319	360.42302
853.493	196.74239
853.668	115.49344
853.842	232.74715
854.016	198.02964
854.19	227.47888
854.364	143.30752
854.538	153.46769
854.712	198.22046
854.886	123.24557
855.06	125.10831
855.234	58.7505
855.408	211.50613
855.582	172.48168
855.756	187.30814
855.93	238.75639
856.104	167.4567
856.278	184.77442
856.452	137.46979
856.626	176.72773
856.8	284.13932
856.973	167.02148
857.147	159.88006
857.321	159.87812
857.495	193.61627
857.669	129.50073
857.842	118.27031
858.016	196.2358
858.19	108.36763
858.364	303.65135
858.537	121.45534
858.711	146.76559
858.885	125.5735
859.058	115.05067
859.232	66.75582
859.405	84.32612
859.579	185.6013
859.753	157.27447
859.926	114.30736
860.1	78.76532
860.273	138.97007
860.447	224.88183
860.62	124.83332
860.794	260.30571
860.967	162.49084
861.141	195.312
861.314	280.61335
861.487	173.16088
861.661	225.23249
861.834	221.5062
862.008	198.67731
862.181	149.1779
862.354	147.71047
862.528	163.46165
862.701	124.33177
862.874	83.80021
863.047	134.13356
863.221	122.34303
863.394	66.30242
863.567	227.01391
863.74	59.97662
863.913	191.63846
864.087	156.85773
864.26	186.1011
864.433	145.04295
864.606	244.80059
864.779	145.72941
864.952	74.037
865.125	118.07092
865.298	140.37525
865.471	144.04465
865.644	278.51768
865.817	222.77006
865.99	196.88737
866.163	215.22407
866.336	126.46122
866.509	144.54252
866.682	126.92576
866.855	201.18351
867.028	93.6426
867.2	178.79405
867.373	64.41908
867.546	152.76944
867.719	283.59855
867.892	175.07963
868.064	107.966
868.237	168.55479
868.41	145.83226
868.583	89.57598
868.755	95.76936
868.928	146.37901
869.101	292.05959
869.273	212.47081
869.446	178.36377
869.619	209.17978
869.791	147.46224
869.964	211.03823
870.136	186.96358
870.309	148.31731
870.481	157.92875
870.654	83.64481
870.826	162.20631
870.999	128.97268
871.171	194.9502
871.344	124.21063
871.516	144.42038
871.689	108.61862
871.861	154.34282
872.033	109.04218
872.206	131.30958
872.378	203.85616
872.55	128.88382
872.723	88.08959
872.895	138.13474
873.067	206.12586
873.24	234.16537
873.412	122.57124
873.584	129.45664
873.756	124.79127
873.928	172.21283
874.101	169.8056
874.273	182.52982
874.445	69.20931
874.617	94.95993
874.789	160.71111
874.961	132.56381
875.133	179.07538
875.305	153.59743
875.477	104.87827
875.649	90.87352
875.821	106.23718
875.993	242.56325
876.165	107.15438
876.337	166.31965
876.509	135.51645
876.681	165.07122
876.853	157.62693
877.025	159.80389
877.197	114.29088
877.369	103.54624
877.541	194.68298
877.712	69.2608
877.884	99.2586
878.056	181.98042
878.228	102.94399
878.4	175.52954
878.571	104.86617
878.743	77.35049
878.915	159.33854
879.086	100.06414
879.258	120.01604
879.43	110.15347
879.601	97.72875
879.773	101.58996
879.945	35.9697
880.116	51.78137
880.288	37.32123
880.459	40.30375
880.631	34.09472
880.802	37.50987
880.974	36.31892
881.145	29.47691
881.317	35.35646
881.488	29.88667
881.66	32.74665
881.831	30.42998
882.002	36.956
882.174	31.42536
882.345	36.71704
882.517	27.40536
882.688	41.26441
882.859	38.06834
883.03	50.61452
883.202	50.23884
883.373	47.06648
883.544	46.19352
883.715	69.17269
883.887	61.88418
884.058	55.94357
884.229	72.58431
884.4	74.36464
884.571	84.00924
884.742	74.81689
884.914	78.58291
885.085	97.67766
885.256	124.15037
885.427	104.16024
885.598	121.40638
885.769	126.84206
885.94	122.88112
886.111	88.3243
886.282	143.01942
886.453	119.67865
886.624	91.55942
886.795	135.10208
886.966	117.9743
887.136	148.58464
887.307	105.6293
887.478	181.42399
887.649	161.60376
887.82	166.66287
887.991	135.84306
888.161	176.51963
888.332	175.07561
888.503	95.78087
888.674	222.7168
888.844	240.30157
889.015	195.11644
889.186	92.92397
889.356	222.25706
889.527	98.64104
889.698	371.15521
889.868	135.00453
890.039	166.15789
890.209	151.3926
890.38	196.39277
890.551	161.16022
890.721	227.97022
890.892	194.82841
891.062	139.82064
891.233	173.92583
891.403	136.27378
891.574	114.67022
891.744	140.6962
891.914	185.01404
892.085	148.87319
892.255	68.36908
892.425	229.50857
892.596	182.1087
892.766	169.45854
892.936	229.44307
893.107	192.05028
893.277	118.08889
893.447	92.64036
893.618	74.32613
893.788	131.26343
893.958	70.09284
894.128	79.45322
894.298	85.11686
894.468	113.86526
894.639	57.42343
894.809	47.76316
894.979	66.46514
895.149	71.52121
895.319	63.1601
895.489	81.48818
895.659	96.4628
895.829	73.54043
895.999	75.91328
896.169	61.6999
896.339	72.92221
896.509	132.23603
896.679	150.72635
896.849	146.67248
897.019	195.50696
897.189	153.44223
897.358	147.83837
897.528	203.4436
897.698	83.27475
897.868	181.3215
898.038	296.53804
898.208	281.86421
898.377	116.68974
898.547	285.29976
898.717	443.75969
898.886	188.97546
899.056	289.66641
899.226	404.43581
899.395	250.84446
899.565	329.81508
899.735	217.25667
899.904	355.52599
900.074	301.69313
900.244	148.93687
900.413	535.76511
900.583	139.54409
900.752	207.8525
900.922	332.84846
901.091	56.09088
901.261	284.87291
901.43	272.03985
901.599	268.63048
901.769	569.04796
901.938	318.91434
902.108	296.05091
902.277	385.4639
902.446	120.17995
902.616	134.14112
902.785	188.41112
902.954	299.02057
903.124	205.64725
903.293	168.91586
903.462	101.52732
903.631	129.66593
903.801	101.6592
903.97	59.67989
904.139	92.37909
904.308	71.67263
904.477	62.57614
904.646	44.2437
904.816	61.38713
904.985	78.8958
905.154	114.29779
