Data from WindowProjectSample3_Transmission__59__00059.txt Node

Date: Sun May 04 11:35:35 EDT 2025
User: jessi
Spectrometer: SR400872
Trigger mode: 0
Integration Time (sec): 5.000050E-1
Scans to average: 20
Electric dark correction enabled: true
Nonlinearity correction enabled: true
Boxcar width: 0
XAxis mode: Wavelengths
Number of Pixels in Spectrum: 3648
>>>>>Begin Spectral Data<<<<<
184.909	-1406.44235
185.132	-1287.12391
185.355	-1561.06319
185.578	-1534.89277
185.801	1370.21996
186.024	-1275.4389
186.247	-23711.14733
186.47	-2176.95953
186.693	-2106.89263
186.916	-445.24845
187.139	-978.06857
187.362	-1225.95311
187.585	-1128.93872
187.808	-1072.22413
188.031	707.49004
188.254	-1164.24392
188.476	-879.22475
188.699	-1005.44689
188.922	308.78557
189.145	-1021.92115
189.368	7025.9027
189.591	3801.57838
189.813	-4379.37126
190.036	-1334.4933
190.259	-7272.29914
190.482	-3512.90382
190.705	-2756.7126
190.927	-1921.02329
191.15	-1314.65348
191.373	-3574.42672
191.595	29765.18625
191.818	-3223.13572
192.041	-996.30521
192.263	-1619.98342
192.486	-925.30265
192.709	-1881.06335
192.931	-4689.38885
193.154	-1346.5309
193.377	-1608.72013
193.599	1249.87072
193.822	8920.93336
194.044	-9581.78135
194.267	-3498.1862
194.489	-47.8453
194.712	-1863.13321
194.934	-2604.90606
195.157	-644.1038
195.379	-4600.07612
195.602	-1575.0339
195.824	-2408.37881
196.047	2525.75132
196.269	-1296.6533
196.492	-1425.70006
196.714	-942.75449
196.936	-2055.09924
197.159	-3822.9501
197.381	-1035.69259
197.604	-6762.10638
197.826	-2215.34027
198.048	-2194.68206
198.271	-1493.3325
198.493	-2335.60691
198.715	-3250.91381
198.938	-8215.56237
199.16	-4760.91909
199.382	-1473.37398
199.604	-1543.95424
199.827	-3702.89941
200.049	-19232.16226
200.271	-1113.59422
200.493	-4342.90728
200.715	-1141.74186
200.938	-910.59209
201.16	-928.71827
201.382	-2763.53874
201.604	-3661.70119
201.826	-1220.0249
202.048	-1669.44848
202.27	-1153.22222
202.492	-1504.39664
202.715	-1720.62402
202.937	-4019.92982
203.159	-4938.76318
203.381	6043.79854
203.603	-1394.81094
203.825	5755.95425
204.047	-2464.00366
204.269	3603.58356
204.491	-2384.0362
204.713	-1525.23879
204.935	-1048.73522
205.156	-3702.93597
205.378	-2580.31788
205.6	-1515.63003
205.822	-1631.27435
206.044	1186.79528
206.266	-19040.86957
206.488	-1342.50458
206.71	-2955.36557
206.932	25768.61503
207.153	-1323.98615
207.375	-2758.98526
207.597	-1291.37013
207.819	-1478.96373
208.041	-1300.85177
208.262	-1368.35874
208.484	-1789.37501
208.706	-8931.30442
208.927	-1904.22917
209.149	-9679.38656
209.371	-1299.18739
209.593	1060.03802
209.814	-2424.50485
210.036	485.82995
210.258	-1374.24186
210.479	-2605.17763
210.701	-6268.39615
210.922	-2587.28624
211.144	3999.74908
211.366	-2084.78474
211.587	1479.19784
211.809	-2258.0696
212.03	175287.9963
212.252	470.9625
212.473	-38914.3686
212.695	3370.06963
212.916	-3010.23445
213.138	806.78906
213.359	-1200.41906
213.581	-8899.79253
213.802	-1117.96751
214.024	-5651.58971
214.245	3210.64071
214.466	377.46935
214.688	-2171.13775
214.909	-1721.63005
215.131	-3185.39102
215.352	17230.91114
215.573	-1583.8134
215.795	-4444.33188
216.016	-1842.14775
216.237	1298.28417
216.459	10235.39889
216.68	-1482.8972
216.901	-3667.01201
217.122	19621.96706
217.344	-1756.20507
217.565	-1883.68102
217.786	-2342.66113
218.007	4281.41058
218.228	5509.96546
218.45	-2784.99142
218.671	18722.00816
218.892	-3155.25541
219.113	-7289.93418
219.334	-112.00317
219.555	-13101.71892
219.776	-2208.54525
219.997	-2357.39733
220.219	-2520.55093
220.44	8367.36459
220.661	7940.6464
220.882	-5022.44835
221.103	2376.89918
221.324	7223.86033
221.545	-9459.95288
221.766	-2313.22986
221.987	1163.79212
222.208	1700.89106
222.429	-1553.19101
222.65	171.01063
222.87	744.79789
223.091	3479.4963
223.312	535.39192
223.533	5282.99719
223.754	-4810.85894
223.975	1683.70505
224.196	1194.19948
224.417	6187.11702
224.637	735.66772
224.858	48.63661
225.079	770.21623
225.3	468.06572
225.521	-2110.03679
225.741	590.73813
225.962	611.38098
226.183	109.73517
226.404	1290.79457
226.624	477.87389
226.845	624.04661
227.066	494.45113
227.286	270.86985
227.507	122.46291
227.728	100.03086
227.948	205.46425
228.169	62.34851
228.389	68.74287
228.61	41.75154
228.831	54.80327
229.051	4.13288
229.272	31.77054
229.492	46.72097
229.713	13.82209
229.933	34.35043
230.154	28.98693
230.374	47.71873
230.595	37.08141
230.815	22.22852
231.036	35.54721
231.256	-5.21756
231.477	62.88017
231.697	36.57457
231.917	38.88732
232.138	53.57226
232.358	110.95644
232.579	92.32817
232.799	13.73814
233.019	81.83496
233.24	96.35275
233.46	36.05441
233.68	51.79099
233.901	37.10714
234.121	24.72164
234.341	8.41636
234.561	-3.50325
234.782	16.16259
235.002	58.23055
235.222	-1.13118
235.442	52.49079
235.662	26.19053
235.883	49.92503
236.103	42.60689
236.323	27.15308
236.543	23.8137
236.763	34.96696
236.983	36.10057
237.203	34.59712
237.423	49.53885
237.643	73.53477
237.864	61.7018
238.084	16.40376
238.304	22.61795
238.524	39.2979
238.744	32.3944
238.964	55.81497
239.184	46.79615
239.404	54.40919
239.624	28.70403
239.843	45.25841
240.063	27.7974
240.283	17.95701
240.503	19.69915
240.723	20.47939
240.943	12.67327
241.163	16.41315
241.383	11.86256
241.603	6.747
241.822	7.71765
242.042	5.19637
242.262	7.25705
242.482	7.69633
242.702	8.83818
242.921	3.14981
243.141	6.06621
243.361	5.54979
243.581	8.36699
243.8	7.17857
244.02	4.9218
244.24	8.43077
244.459	8.11812
244.679	15.61202
244.899	9.80776
245.118	11.44428
245.338	10.95003
245.558	11.63506
245.777	6.99175
245.997	8.25214
246.216	8.6884
246.436	4.95571
246.655	3.55389
246.875	3.04916
247.094	5.45488
247.314	2.01446
247.533	3.50383
247.753	3.68886
247.972	3.11688
248.192	1.30543
248.411	1.90573
248.631	3.17171
248.85	4.02727
249.07	4.00178
249.289	5.68856
249.508	4.15796
249.728	6.3357
249.947	6.40139
250.166	8.07842
250.386	3.8237
250.605	6.18429
250.824	10.04348
251.044	6.48337
251.263	19.30165
251.482	11.15878
251.701	9.49641
251.921	0.19168
252.14	3.38177
252.359	4.03053
252.578	8.62907
252.798	3.3709
253.017	7.43709
253.236	3.64805
253.455	4.89412
253.674	10.14653
253.893	4.52322
254.112	7.13141
254.331	10.03316
254.551	7.85308
254.77	4.03276
254.989	11.62138
255.208	8.15007
255.427	12.96253
255.646	10.65902
255.865	17.23212
256.084	7.51407
256.303	9.36149
256.522	11.02139
256.741	3.12695
256.96	2.64534
257.179	7.25474
257.397	8.94742
257.616	4.90708
257.835	5.12564
258.054	12.824
258.273	8.91142
258.492	8.84889
258.711	5.8153
258.93	2.61118
259.148	3.94665
259.367	3.80047
259.586	4.73814
259.805	2.19909
260.023	4.13219
260.242	2.98597
260.461	2.43091
260.68	1.26726
260.898	3.72206
261.117	1.2548
261.336	0.85108
261.554	3.12859
261.773	3.34498
261.992	1.00979
262.21	3.03736
262.429	3.51999
262.648	6.05168
262.866	6.89103
263.085	4.88744
263.303	4.35657
263.522	7.38553
263.74	7.46858
263.959	12.73522
264.178	6.78489
264.396	5.68234
264.615	3.94029
264.833	9.1533
265.051	8.08235
265.27	9.01194
265.488	9.04336
265.707	5.40856
265.925	8.87563
266.144	4.31618
266.362	4.69651
266.58	5.00408
266.799	4.09789
267.017	4.95424
267.235	4.48663
267.454	3.26042
267.672	1.4513
267.89	3.73529
268.109	4.07678
268.327	3.93014
268.545	0.91124
268.763	3.76244
268.982	1.63992
269.2	4.09683
269.418	2.82197
269.636	2.14327
269.854	3.97139
270.073	2.78898
270.291	1.65401
270.509	1.55351
270.727	3.72212
270.945	6.09219
271.163	5.99143
271.381	1.52391
271.599	2.75094
271.817	4.26024
272.036	1.50565
272.254	2.97149
272.472	2.049
272.69	2.06322
272.908	2.21583
273.126	3.46073
273.344	4.49842
273.562	1.58135
273.779	2.42063
273.997	3.6777
274.215	3.46539
274.433	2.48422
274.651	3.93095
274.869	4.00234
275.087	2.41982
275.305	3.57973
275.523	2.09717
275.74	2.61573
275.958	4.75192
276.176	6.80316
276.394	2.16193
276.612	2.86975
276.829	2.90219
277.047	2.48657
277.265	2.6105
277.483	3.07818
277.7	3.44836
277.918	2.90541
278.136	5.20106
278.353	2.5995
278.571	1.58545
278.789	4.04983
279.006	0.98676
279.224	2.41465
279.442	4.24689
279.659	3.02355
279.877	1.95168
280.094	4.29304
280.312	0.99611
280.529	3.00099
280.747	1.07886
280.964	2.49042
281.182	4.6092
281.399	2.56513
281.617	2.99036
281.834	2.16538
282.052	1.59377
282.269	2.81779
282.487	2.06958
282.704	2.00939
282.921	1.78615
283.139	2.85419
283.356	3.56111
283.574	3.40871
283.791	1.63585
284.008	4.37594
284.226	2.67409
284.443	2.85255
284.66	3.63114
284.877	3.25868
285.095	1.93285
285.312	1.51766
285.529	0.87014
285.746	0.77803
285.964	1.79645
286.181	1.19297
286.398	1.74688
286.615	2.36587
286.832	2.34001
287.05	0.61501
287.267	1.6216
287.484	1.68519
287.701	2.3615
287.918	2.21828
288.135	2.40109
288.352	1.08219
288.569	1.2815
288.786	2.21911
289.003	1.69401
289.22	2.60186
289.437	1.45257
289.654	2.50337
289.871	2.46792
290.088	2.52918
290.305	2.01549
290.522	1.68396
290.739	1.80357
290.956	2.60718
291.173	3.00497
291.39	2.90985
291.607	2.05887
291.824	1.68485
292.04	1.27327
292.257	2.60948
292.474	2.8186
292.691	1.91099
292.908	0.99689
293.125	1.53598
293.341	1.00226
293.558	4.22126
293.775	1.99219
293.992	2.09693
294.208	0.79286
294.425	1.36766
294.642	1.76183
294.858	2.63118
295.075	0.80766
295.292	1.93847
295.508	2.26525
295.725	3.17056
295.942	1.90492
296.158	1.49597
296.375	2.16559
296.591	1.87535
296.808	1.91299
297.024	2.25841
297.241	2.47973
297.458	2.56581
297.674	0.94859
297.891	2.31188
298.107	2.11914
298.323	1.71068
298.54	3.20873
298.756	2.15394
298.973	1.45963
299.189	3.52361
299.406	2.20352
299.622	3.49706
299.838	3.55076
300.055	3.2852
300.271	1.77459
300.487	2.1852
300.704	2.33883
300.92	1.89442
301.136	4.61792
301.353	3.73174
301.569	3.03656
301.785	3.29528
302.001	3.54296
302.218	3.43836
302.434	3.6197
302.65	2.23994
302.866	2.80668
303.083	5.02478
303.299	5.07242
303.515	3.34651
303.731	3.76167
303.947	2.45748
304.163	3.03804
304.379	3.57174
304.595	3.86203
304.812	3.07012
305.028	2.93968
305.244	3.25548
305.46	3.95355
305.676	4.17155
305.892	4.64764
306.108	4.12943
306.324	3.36801
306.54	5.03549
306.756	3.9775
306.972	3.89397
307.187	3.65156
307.403	4.70229
307.619	3.21628
307.835	4.52577
308.051	4.66844
308.267	3.04137
308.483	4.72433
308.699	4.08503
308.914	3.71886
309.13	3.76821
309.346	2.77759
309.562	3.15081
309.778	2.83144
309.993	4.20966
310.209	3.96235
310.425	3.04803
310.641	3.85702
310.856	3.35541
311.072	3.25884
311.288	3.94456
311.503	4.26102
311.719	2.80935
311.935	2.8595
312.15	4.43016
312.366	4.28077
312.581	4.43689
312.797	4.09701
313.013	4.66848
313.228	3.61824
313.444	3.94581
313.659	3.51094
313.875	4.19799
314.09	3.88859
314.306	5.11863
314.521	4.57659
314.737	4.573
314.952	4.17519
315.168	4.1944
315.383	4.25762
315.599	3.79501
315.814	3.88189
316.029	4.7941
316.245	3.27829
316.46	2.71969
316.675	4.97129
316.891	5.42514
317.106	6.35866
317.321	4.41762
317.537	4.47479
317.752	4.81926
317.967	4.79891
318.183	3.52732
318.398	3.72908
318.613	4.85724
318.828	5.23476
319.043	4.71358
319.259	3.9468
319.474	4.15421
319.689	4.99283
319.904	2.72027
320.119	5.00834
320.334	4.33996
320.549	3.95461
320.765	5.08619
320.98	4.50707
321.195	4.67932
321.41	4.23066
321.625	4.82852
321.84	5.43102
322.055	5.42316
322.27	3.55989
322.485	3.31622
322.7	4.55011
322.915	4.91823
323.13	3.75151
323.345	5.44985
323.56	4.59369
323.775	4.89213
323.989	4.67413
324.204	4.37186
324.419	4.97664
324.634	3.40792
324.849	4.29849
325.064	5.88113
325.279	5.15053
325.493	4.71904
325.708	5.01842
325.923	3.77356
326.138	4.08481
326.352	5.60949
326.567	4.8915
326.782	3.99972
326.997	3.87062
327.211	4.911
327.426	4.55609
327.641	4.31694
327.855	3.24454
328.07	4.92373
328.285	5.85717
328.499	4.17007
328.714	4.57363
328.928	4.72936
329.143	4.42448
329.358	5.39125
329.572	5.17316
329.787	5.51589
330.001	6.39717
330.216	3.25414
330.43	5.92955
330.645	5.51293
330.859	5.07338
331.074	3.59969
331.288	4.33859
331.503	5.82803
331.717	3.62736
331.931	4.28992
332.146	4.72579
332.36	5.99543
332.575	4.69074
332.789	4.47425
333.003	4.48633
333.218	4.78134
333.432	3.94989
333.646	5.10476
333.86	5.79706
334.075	5.76969
334.289	4.10527
334.503	3.49486
334.717	4.87257
334.932	4.71289
335.146	5.07988
335.36	3.99146
335.574	5.04487
335.788	4.86528
336.003	5.26896
336.217	5.30901
336.431	4.65678
336.645	4.21868
336.859	3.69142
337.073	4.40138
337.287	4.57687
337.501	3.50902
337.715	4.77753
337.929	4.83843
338.143	3.5905
338.357	4.36599
338.571	4.14244
338.785	5.21749
338.999	4.12471
339.213	4.16188
339.427	3.70468
339.641	5.57614
339.855	4.17314
340.069	3.85877
340.283	5.25297
340.497	5.62266
340.711	5.00902
340.924	4.34325
341.138	3.85861
341.352	3.57208
341.566	4.54739
341.78	3.3688
341.993	4.08477
342.207	3.85332
342.421	4.76685
342.635	4.39258
342.848	4.12194
343.062	2.86467
343.276	4.04493
343.49	5.92178
343.703	3.99366
343.917	5.20837
344.131	5.34654
344.344	3.8764
344.558	4.17444
344.771	3.68297
344.985	5.30046
345.199	5.72768
345.412	4.76308
345.626	4.9137
345.839	3.29445
346.053	3.65802
346.266	3.83132
346.48	4.80856
346.693	4.72138
346.907	4.70771
347.12	3.81378
347.334	4.45979
347.547	4.64368
347.76	4.31014
347.974	5.19919
348.187	4.56765
348.401	4.36013
348.614	3.90477
348.827	4.27604
349.041	4.74188
349.254	3.22766
349.467	4.23557
349.681	3.74998
349.894	3.87724
350.107	5.22343
350.32	5.80565
350.534	3.48463
350.747	4.24264
350.96	3.84831
351.173	3.90377
351.386	4.0579
351.6	4.0242
351.813	4.01103
352.026	4.23373
352.239	3.71766
352.452	4.13064
352.665	5.21562
352.878	4.17999
353.092	5.89773
353.305	4.89532
353.518	4.42767
353.731	3.70282
353.944	5.05577
354.157	4.15995
354.37	4.05913
354.583	3.64782
354.796	3.46369
355.009	5.11327
355.222	4.55761
355.435	4.43521
355.647	5.23111
355.86	3.92395
356.073	4.45849
356.286	4.00718
356.499	5.07554
356.712	4.91093
356.925	4.72607
357.138	5.11931
357.35	3.905
357.563	4.17164
357.776	4.60049
357.989	4.54775
358.201	4.88932
358.414	4.79689
358.627	5.20221
358.84	4.38545
359.052	3.67677
359.265	3.85278
359.478	5.02391
359.69	2.86518
359.903	5.06823
360.116	5.11652
360.328	3.61049
360.541	5.06614
360.753	4.10193
360.966	4.35877
361.179	4.41053
361.391	4.40167
361.604	4.39678
361.816	4.65893
362.029	4.67996
362.241	4.32614
362.454	4.65362
362.666	4.16212
362.879	4.88625
363.091	4.38526
363.304	4.25482
363.516	4.3973
363.728	3.86571
363.941	4.73738
364.153	4.58061
364.366	3.23178
364.578	3.81522
364.79	4.72557
365.003	4.62577
365.215	4.20404
365.427	4.79442
365.639	5.14075
365.852	4.5612
366.064	5.37375
366.276	4.25556
366.488	4.67622
366.701	4.32757
366.913	4.24373
367.125	4.44617
367.337	4.0162
367.549	4.18281
367.762	4.39389
367.974	4.29813
368.186	4.2679
368.398	5.04135
368.61	4.75627
368.822	4.82751
369.034	4.28923
369.246	4.94689
369.458	5.94321
369.67	3.86169
369.882	5.61849
370.094	3.13557
370.306	5.32254
370.518	4.23889
370.73	4.20241
370.942	4.06094
371.154	4.44962
371.366	4.27329
371.578	4.82402
371.79	4.33452
372.002	5.04895
372.214	5.80429
372.425	4.48159
372.637	5.51879
372.849	4.76618
373.061	3.18606
373.273	4.80278
373.484	4.79024
373.696	5.00254
373.908	3.13279
374.12	5.19201
374.331	4.77993
374.543	4.00926
374.755	3.9382
374.967	4.50085
375.178	5.11036
375.39	4.22094
375.602	4.55505
375.813	3.59105
376.025	3.94608
376.236	4.54998
376.448	4.63945
376.66	4.52846
376.871	4.37491
377.083	5.04967
377.294	5.53536
377.506	4.33208
377.717	5.47123
377.929	4.67122
378.14	4.31254
378.352	4.91317
378.563	4.96463
378.775	5.41859
378.986	4.10899
379.197	4.8373
379.409	4.13016
379.62	5.0326
379.832	4.62585
380.043	4.51696
380.254	4.82647
380.466	3.87401
380.677	6.25207
380.888	5.90835
381.1	6.16583
381.311	6.27947
381.522	4.75431
381.733	6.38833
381.945	4.57954
382.156	4.63753
382.367	4.27005
382.578	6.409
382.789	6.48428
383.001	4.22321
383.212	5.76366
383.423	5.76278
383.634	5.43508
383.845	5.1113
384.056	4.46878
384.267	4.78991
384.478	4.76378
384.69	4.12214
384.901	5.15025
385.112	4.98885
385.323	5.93164
385.534	4.96993
385.745	5.09326
385.956	5.06528
386.167	4.36366
386.378	5.20174
386.588	4.39065
386.799	4.37643
387.01	3.87283
387.221	5.43811
387.432	4.92257
387.643	5.9967
387.854	4.73717
388.065	4.65096
388.275	4.79776
388.486	4.58478
388.697	4.96669
388.908	4.54769
389.119	5.55836
389.329	5.78542
389.54	4.9858
389.751	5.12967
389.962	5.6613
390.172	5.03299
390.383	4.84298
390.594	4.57341
390.804	4.61459
391.015	4.72797
391.226	5.09246
391.436	5.44703
391.647	5.186
391.858	5.43195
392.068	4.23551
392.279	4.47162
392.489	5.21864
392.7	5.56621
392.91	4.62074
393.121	4.64172
393.331	5.33391
393.542	5.79413
393.752	5.3572
393.963	5.30282
394.173	5.22531
394.384	5.5471
394.594	5.16154
394.804	4.49177
395.015	5.24121
395.225	5.56195
395.436	4.56971
395.646	5.401
395.856	4.91561
396.067	4.41149
396.277	5.63986
396.487	5.37442
396.697	5.3574
396.908	5.62478
397.118	5.61999
397.328	5.19713
397.538	5.70355
397.749	4.84171
397.959	5.77611
398.169	5.47661
398.379	4.50085
398.589	5.60906
398.8	5.32299
399.01	5.41682
399.22	5.03672
399.43	6.44625
399.64	5.2314
399.85	5.56156
400.06	5.37326
400.27	4.81256
400.48	5.31831
400.69	5.94381
400.9	5.09219
401.11	4.85407
401.32	5.78374
401.53	5.0699
401.74	6.20749
401.95	5.61605
402.16	5.0577
402.37	5.7144
402.58	5.10591
402.79	5.79193
403	5.94765
403.209	5.09
403.419	5.99845
403.629	5.17436
403.839	6.11423
404.049	6.10487
404.258	5.31508
404.468	5.15333
404.678	6.00632
404.888	6.2666
405.097	5.49018
405.307	5.63142
405.517	6.06213
405.727	5.88613
405.936	5.54301
406.146	5.84599
406.356	6.46572
406.565	5.72529
406.775	5.57809
406.984	5.57731
407.194	6.82029
407.404	5.79798
407.613	6.01881
407.823	6.11211
408.032	6.60383
408.242	6.34178
408.451	5.59927
408.661	5.83445
408.87	6.83751
409.08	5.60186
409.289	6.12395
409.499	6.11764
409.708	6.0617
409.918	4.92014
410.127	6.08822
410.336	6.78699
410.546	6.43275
410.755	5.90001
410.964	5.81345
411.174	5.70823
411.383	6.49203
411.592	6.32985
411.802	5.65547
412.011	6.6946
412.22	6.19359
412.429	7.08081
412.639	6.98673
412.848	6.85994
413.057	7.19548
413.266	6.86229
413.475	6.38541
413.685	6.74808
413.894	6.84435
414.103	6.97665
414.312	6.781
414.521	6.37628
414.73	6.67272
414.939	7.39327
415.148	6.95591
415.357	6.79998
415.566	6.55255
415.776	6.43001
415.985	6.56826
416.194	7.17463
416.403	7.74621
416.611	6.27852
416.82	6.7825
417.029	7.38981
417.238	7.24997
417.447	7.2945
417.656	8.05585
417.865	8.11705
418.074	8.39141
418.283	9.13839
418.492	10.19582
418.7	10.01948
418.909	11.50615
419.118	10.41241
419.327	10.88561
419.536	10.81503
419.744	10.86348
419.953	12.20025
420.162	12.64861
420.371	11.90697
420.579	12.50501
420.788	13.4569
420.997	13.55154
421.205	13.96217
421.414	13.58103
421.623	13.72126
421.831	13.24026
422.04	13.87339
422.249	12.83219
422.457	13.18301
422.666	12.26801
422.874	13.39371
423.083	13.46357
423.291	13.51403
423.5	13.55333
423.708	13.9855
423.917	14.5756
424.125	13.98963
424.334	13.91407
424.542	15.74299
424.751	15.06442
424.959	14.53688
425.167	14.58682
425.376	14.41584
425.584	12.9841
425.793	12.99661
426.001	11.87058
426.209	12.07291
426.418	10.8004
426.626	10.23244
426.834	9.76896
427.042	9.73019
427.251	9.2095
427.459	9.91454
427.667	8.90841
427.875	7.91681
428.084	8.25128
428.292	8.71176
428.5	8.55903
428.708	7.70363
428.916	7.76075
429.124	8.20296
429.333	8.09997
429.541	8.15361
429.749	8.24489
429.957	8.36018
430.165	9.53772
430.373	7.66253
430.581	8.42844
430.789	8.99176
430.997	8.29806
431.205	8.17789
431.413	8.80302
431.621	8.49572
431.829	9.29513
432.037	9.46972
432.245	9.60687
432.453	10.05824
432.661	10.17926
432.869	11.76583
433.076	10.45779
433.284	11.05109
433.492	11.80748
433.7	12.14183
433.908	11.15655
434.116	11.4189
434.323	10.96244
434.531	10.97058
434.739	10.90242
434.947	10.63299
435.154	10.48095
435.362	9.74009
435.57	9.47635
435.778	9.34035
435.985	9.55016
436.193	9.28027
436.401	10.32668
436.608	9.43956
436.816	9.02721
437.023	10.47253
437.231	10.64088
437.439	10.28788
437.646	10.64628
437.854	10.42972
438.061	10.58912
438.269	10.80137
438.476	11.24102
438.684	11.35956
438.891	11.82558
439.099	11.65493
439.306	11.62816
439.514	11.88083
439.721	13.38381
439.929	13.17987
440.136	14.0881
440.343	14.28107
440.551	14.08747
440.758	15.52789
440.965	14.36662
441.173	14.10246
441.38	13.67009
441.587	13.40423
441.795	13.09171
442.002	12.68735
442.209	12.50632
442.416	12.1962
442.624	11.83106
442.831	11.52552
443.038	10.82489
443.245	10.58896
443.452	10.63034
443.66	11.5977
443.867	10.96924
444.074	11.14207
444.281	11.68035
444.488	12.19185
444.695	12.66202
444.902	13.09723
445.109	14.49999
445.316	14.37971
445.523	15.09679
445.73	15.38249
445.937	16.30668
446.144	17.02246
446.351	17.45561
446.558	16.22336
446.765	18.39797
446.972	17.46606
447.179	16.85915
447.386	17.52064
447.593	15.5826
447.8	16.53719
448.007	14.72434
448.214	13.9339
448.42	13.38278
448.627	13.67866
448.834	12.77932
449.041	12.30446
449.248	11.94474
449.454	11.8057
449.661	12.04888
449.868	10.5807
450.075	10.38306
450.281	9.40812
450.488	9.63858
450.695	9.68217
450.901	9.88273
451.108	10.10007
451.315	10.62382
451.521	10.16629
451.728	11.29056
451.935	10.20236
452.141	10.84525
452.348	11.0328
452.554	10.80412
452.761	10.91596
452.967	11.95721
453.174	11.38539
453.38	11.24725
453.587	10.24957
453.793	10.93647
454	11.03403
454.206	11.5363
454.413	10.88656
454.619	10.64539
454.825	10.14597
455.032	10.66193
455.238	10.81641
455.445	9.89183
455.651	10.39793
455.857	9.56796
456.064	10.30736
456.27	10.36714
456.476	10.33796
456.682	9.86395
456.889	10.61061
457.095	10.69897
457.301	11.44099
457.507	10.58103
457.714	10.84216
457.92	10.97584
458.126	11.17072
458.332	12.27641
458.538	12.86166
458.744	13.74509
458.951	14.76068
459.157	16.98825
459.363	16.9649
459.569	17.28522
459.775	17.92615
459.981	17.71921
460.187	18.22464
460.393	18.12472
460.599	18.06071
460.805	16.73763
461.011	15.56859
461.217	15.06684
461.423	13.76881
461.629	12.85853
461.835	12.50074
462.041	11.51777
462.247	11.8518
462.453	10.8811
462.658	10.86186
462.864	11.3969
463.07	11.01816
463.276	11.12358
463.482	11.15938
463.688	11.79892
463.893	10.83056
464.099	11.00731
464.305	11.89352
464.511	10.84078
464.716	11.09468
464.922	11.558
465.128	10.8309
465.333	12.04419
465.539	11.54837
465.745	11.36942
465.95	11.36862
466.156	12.57879
466.362	11.93769
466.567	11.32284
466.773	11.14349
466.978	12.13158
467.184	10.99619
467.389	10.43923
467.595	11.66529
467.8	11.13084
468.006	12.13084
468.211	12.2183
468.417	11.04586
468.622	11.91452
468.828	11.95142
469.033	11.79267
469.239	12.88974
469.444	11.44729
469.649	11.97175
469.855	11.67569
470.06	11.69221
470.266	11.18266
470.471	12.01893
470.676	11.89528
470.881	10.9359
471.087	12.54425
471.292	12.4763
471.497	11.17276
471.703	11.62108
471.908	11.54935
472.113	11.85849
472.318	12.2054
472.523	11.30943
472.729	12.10637
472.934	12.03947
473.139	11.78888
473.344	12.06072
473.549	12.62213
473.754	11.50789
473.959	12.85187
474.164	11.69517
474.369	12.03742
474.575	12.3106
474.78	12.01764
474.985	11.63533
475.19	11.23629
475.395	11.66279
475.6	12.01405
475.804	12.62449
476.009	12.1565
476.214	12.04879
476.419	11.90861
476.624	11.40082
476.829	11.81121
477.034	12.61893
477.239	12.20982
477.444	12.73684
477.648	13.14094
477.853	13.12984
478.058	12.82511
478.263	12.84459
478.468	12.43361
478.672	12.45995
478.877	13.79734
479.082	13.69005
479.287	13.17257
479.491	12.95695
479.696	12.48418
479.901	13.30165
480.105	13.73379
480.31	13.25559
480.515	13.88353
480.719	15.70983
480.924	14.87738
481.128	15.18531
481.333	16.35578
481.538	16.92702
481.742	17.86694
481.947	19.5392
482.151	21.26251
482.356	23.07407
482.56	27.08904
482.765	30.62554
482.969	36.26705
483.174	41.19
483.378	46.71979
483.582	48.80646
483.787	51.42069
483.991	52.49015
484.196	52.26237
484.4	51.09808
484.604	50.19507
484.809	45.78799
485.013	42.26802
485.217	38.03638
485.422	33.90492
485.626	31.06837
485.83	29.43931
486.034	28.88225
486.239	29.92691
486.443	31.10014
486.647	32.38464
486.851	34.63574
487.055	36.88918
487.26	37.55429
487.464	39.12613
487.668	38.82335
487.872	39.41102
488.076	39.31516
488.28	37.37719
488.484	34.90105
488.688	33.37926
488.892	31.53703
489.096	29.00802
489.3	26.78024
489.504	24.92232
489.708	23.87307
489.912	23.25106
490.116	22.98215
490.32	23.19566
490.524	25.61657
490.728	27.28803
490.932	29.21498
491.136	31.12765
491.34	33.07583
491.544	33.56236
491.748	33.58598
491.951	33.25193
492.155	32.24111
492.359	30.77322
492.563	28.0963
492.767	26.08981
492.97	23.42048
493.174	20.73727
493.378	18.93093
493.582	16.92783
493.785	16.3049
493.989	15.88098
494.193	15.22026
494.396	14.41436
494.6	14.80372
494.804	14.39288
495.007	14.11862
495.211	14.29488
495.414	14.57828
495.618	15.39329
495.822	16.27932
496.025	16.31739
496.229	17.10324
496.432	16.89057
496.636	17.39786
496.839	17.57672
497.043	18.66636
497.246	17.93121
497.45	17.5252
497.653	17.67038
497.856	17.32671
498.06	16.54762
498.263	16.3704
498.467	15.90655
498.67	16.52767
498.873	15.98216
499.077	15.18757
499.28	14.99207
499.483	15.0272
499.686	15.00557
499.89	14.63237
500.093	14.3771
500.296	13.39266
500.499	14.20197
500.703	13.496
500.906	13.65789
501.109	14.29633
501.312	13.4997
501.515	13.54149
501.719	13.76426
501.922	14.16058
502.125	13.76649
502.328	13.50612
502.531	13.14451
502.734	13.6609
502.937	12.88175
503.14	13.61312
503.343	13.25561
503.546	13.6527
503.749	13.47985
503.952	14.0164
504.155	13.46766
504.358	14.14346
504.561	13.94012
504.764	13.36429
504.967	13.86061
505.17	13.79109
505.373	14.64446
505.576	13.8079
505.778	14.13713
505.981	13.55786
506.184	14.45567
506.387	13.19698
506.59	14.62054
506.793	14.47869
506.995	14.21405
507.198	13.11409
507.401	14.19859
507.604	14.64722
507.806	14.40572
508.009	14.71795
508.212	15.58194
508.414	15.36205
508.617	15.61119
508.82	15.90088
509.022	16.76553
509.225	16.04104
509.427	15.37592
509.63	16.47386
509.833	15.72097
510.035	15.4937
510.238	14.69636
510.44	15.96829
510.643	14.36192
510.845	16.20612
511.048	15.49393
511.25	15.06338
511.453	15.28258
511.655	15.73111
511.858	15.40759
512.06	15.815
512.262	15.36104
512.465	15.84474
512.667	14.89975
512.869	14.48248
513.072	14.95156
513.274	14.85738
513.476	14.52849
513.679	14.61942
513.881	13.79474
514.083	15.02549
514.286	13.98876
514.488	14.01975
514.69	13.95298
514.892	13.6607
515.094	14.61146
515.297	13.9752
515.499	14.22729
515.701	13.89075
515.903	15.11953
516.105	15.09759
516.307	14.5927
516.509	13.53274
516.711	13.97241
516.913	14.62603
517.116	15.50699
517.318	16.11159
517.52	17.71503
517.722	18.40356
517.924	18.09473
518.126	19.66796
518.328	19.54317
518.529	20.48068
518.731	21.09442
518.933	19.6003
519.135	19.71599
519.337	19.95491
519.539	18.92603
519.741	17.18837
519.943	16.85545
520.145	16.16408
520.346	16.1928
520.548	15.02435
520.75	15.19044
520.952	14.51648
521.153	14.76147
521.355	14.94405
521.557	14.13634
521.759	14.63357
521.96	14.67688
522.162	14.12257
522.364	15.15985
522.565	14.32887
522.767	14.95363
522.969	15.23057
523.17	14.97953
523.372	14.91831
523.573	14.53226
523.775	14.69689
523.977	14.68141
524.178	16.28151
524.38	16.23274
524.581	17.8657
524.783	18.25912
524.984	19.89109
525.186	20.53061
525.387	21.75086
525.589	21.84786
525.79	22.14347
525.991	22.17822
526.193	22.95203
526.394	22.26368
526.596	23.42837
526.797	23.99264
526.998	24.13964
527.2	25.67327
527.401	29.48248
527.602	32.36719
527.803	37.42075
528.005	40.60098
528.206	43.47828
528.407	45.61472
528.608	45.93712
528.81	46.12244
529.011	44.94568
529.212	45.01122
529.413	42.24541
529.614	38.98771
529.815	35.86513
530.017	32.60758
530.218	28.91951
530.419	25.98505
530.62	24.82181
530.821	23.56615
531.022	21.89678
531.223	22.83677
531.424	22.34202
531.625	22.9053
531.826	22.93512
532.027	24.30324
532.228	26.57398
532.429	27.83268
532.63	29.18985
532.831	30.90259
533.032	31.46993
533.233	32.47856
533.433	31.78832
533.634	31.82153
533.835	30.2586
534.036	28.94121
534.237	27.32356
534.438	25.31151
534.638	22.79537
534.839	21.58959
535.04	20.85528
535.241	19.9782
535.441	21.30045
535.642	21.06161
535.843	21.08544
536.043	21.7464
536.244	22.25986
536.445	22.73872
536.645	23.83926
536.846	23.3001
537.047	23.29615
537.247	21.8693
537.448	20.9786
537.648	20.26701
537.849	18.94602
538.049	17.91418
538.25	17.11228
538.451	16.71439
538.651	15.65058
538.851	16.30341
539.052	16.75891
539.252	16.8952
539.453	17.13135
539.653	18.35721
539.854	19.81684
540.054	21.84768
540.254	25.01647
540.455	27.93068
540.655	29.38268
540.855	32.56105
541.056	34.34495
541.256	34.5302
541.456	35.98021
541.657	35.34944
541.857	35.53459
542.057	33.15744
542.257	31.63792
542.458	31.06388
542.658	29.01408
542.858	26.32241
543.058	25.64078
543.258	24.29946
543.458	22.06311
543.659	21.27066
543.859	21.65731
544.059	20.91259
544.259	19.69048
544.459	19.4113
544.659	18.24227
544.859	18.43979
545.059	17.65859
545.259	18.41145
545.459	17.92582
545.659	18.87061
545.859	18.55211
546.059	19.19613
546.259	18.83831
546.459	18.74124
546.659	18.77326
546.859	19.26285
547.059	18.82374
547.258	18.41239
547.458	17.84499
547.658	16.29689
547.858	15.57398
548.058	15.91888
548.258	15.68895
548.457	15.3911
548.657	17.20021
548.857	15.78927
549.057	16.22227
549.256	16.16381
549.456	15.59142
549.656	14.72531
549.855	16.72362
550.055	15.71594
550.255	16.86818
550.454	16.07907
550.654	16.32722
550.853	16.66792
551.053	16.32578
551.253	16.18061
551.452	16.08493
551.652	15.45441
551.851	15.13161
552.051	15.78895
552.25	15.66122
552.45	15.59549
552.649	15.81742
552.849	15.55206
553.048	15.96915
553.248	16.39968
553.447	15.51553
553.646	16.44852
553.846	16.71984
554.045	16.66443
554.244	15.33562
554.444	17.19332
554.643	15.5208
554.842	16.91787
555.042	17.25626
555.241	15.67865
555.44	15.4378
555.64	16.35428
555.839	17.36116
556.038	16.51428
556.237	15.68007
556.436	16.13887
556.636	16.32425
556.835	15.62849
557.034	17.113
557.233	16.00207
557.432	15.26569
557.631	16.92367
557.83	16.06697
558.029	15.84102
558.228	15.75926
558.427	15.57321
558.626	16.53321
558.825	15.63495
559.024	16.25752
559.223	17.18084
559.422	16.03797
559.621	16.44728
559.82	14.72132
560.019	16.29742
560.218	16.03915
560.417	14.74393
560.616	15.97195
560.815	18.28495
561.014	15.31754
561.212	17.17756
561.411	16.42869
561.61	15.42282
561.809	16.09529
562.008	17.11234
562.206	16.04108
562.405	16.63663
562.604	16.14068
562.803	16.34279
563.001	15.97964
563.2	15.38104
563.399	16.38193
563.597	15.58337
563.796	16.27421
563.995	15.52957
564.193	16.6945
564.392	16.03332
564.59	17.68293
564.789	15.17602
564.988	15.88826
565.186	16.32588
565.385	16.17998
565.583	15.96822
565.782	16.26462
565.98	16.13843
566.179	16.21644
566.377	15.68471
566.575	15.79391
566.774	17.07651
566.972	16.82955
567.171	17.7829
567.369	17.09645
567.567	16.42256
567.766	16.6632
567.964	15.25286
568.162	16.85764
568.361	16.85751
568.559	16.3057
568.757	16.75018
568.956	16.42802
569.154	16.27355
569.352	17.0169
569.55	16.37104
569.748	16.4361
569.947	16.03088
570.145	15.97114
570.343	15.80446
570.541	16.95848
570.739	15.75643
570.937	16.51478
571.135	16.76241
571.333	17.4777
571.532	17.37356
571.73	16.70137
571.928	17.16761
572.126	16.7759
572.324	16.37341
572.522	17.40705
572.72	18.22124
572.918	16.47031
573.116	16.8854
573.313	16.60896
573.511	16.67579
573.709	16.34852
573.907	17.1243
574.105	16.37442
574.303	15.6409
574.501	15.59976
574.699	16.91385
574.896	16.87122
575.094	16.93415
575.292	15.8732
575.49	17.27091
575.688	16.49451
575.885	17.50379
576.083	17.83978
576.281	17.0302
576.478	16.36844
576.676	16.93965
576.874	15.97543
577.071	16.58952
577.269	18.35884
577.467	16.86854
577.664	16.67538
577.862	17.29673
578.059	16.07686
578.257	17.37245
578.455	16.41918
578.652	16.79362
578.85	15.39005
579.047	16.86543
579.245	16.66054
579.442	16.62466
579.64	16.58602
579.837	15.50447
580.034	18.47564
580.232	16.51148
580.429	15.76915
580.627	16.99783
580.824	17.77226
581.021	17.17956
581.219	16.48754
581.416	16.00116
581.613	17.92724
581.811	17.78857
582.008	16.12884
582.205	17.4372
582.402	17.01671
582.6	18.17947
582.797	16.7505
582.994	17.19738
583.191	17.29029
583.388	16.87457
583.586	17.45063
583.783	17.66052
583.98	16.25101
584.177	16.87838
584.374	14.81355
584.571	16.78458
584.768	16.6608
584.965	16.41999
585.162	17.16433
585.359	18.1938
585.556	16.70677
585.753	17.05103
585.95	16.06613
586.147	16.33892
586.344	17.27831
586.541	16.63075
586.738	16.07693
586.935	16.84052
587.132	16.39883
587.329	17.83898
587.526	16.78803
587.722	20.49971
587.919	15.89209
588.116	17.31133
588.313	17.98983
588.51	18.6839
588.706	16.74178
588.903	17.39458
589.1	17.72175
589.297	18.99635
589.493	16.87827
589.69	17.4437
589.887	16.69756
590.083	16.18082
590.28	16.55152
590.477	17.72802
590.673	17.81636
590.87	18.14895
591.067	16.8127
591.263	17.51765
591.46	17.3755
591.656	17.02765
591.853	18.04637
592.049	16.26788
592.246	16.63565
592.442	18.08798
592.639	17.73727
592.835	16.12834
593.032	17.38945
593.228	16.00775
593.425	15.90344
593.621	15.82704
593.817	17.25985
594.014	16.42504
594.21	17.24131
594.406	17.69517
594.603	17.68635
594.799	16.60285
594.995	15.45969
595.192	18.06187
595.388	16.95752
595.584	16.69715
595.78	15.91584
595.977	18.53483
596.173	18.4109
596.369	16.89306
596.565	16.55913
596.761	16.16617
596.957	18.13874
597.154	16.72886
597.35	17.00744
597.546	16.85925
597.742	17.8318
597.938	17.63381
598.134	16.7528
598.33	17.38969
598.526	18.72418
598.722	17.64055
598.918	18.84334
599.114	17.62436
599.31	16.61253
599.506	17.23819
599.702	16.50166
599.898	17.47837
600.094	18.02765
600.29	17.77512
600.485	17.93825
600.681	16.63125
600.877	18.85227
601.073	17.16755
601.269	18.50188
601.465	18.28219
601.66	16.41811
601.856	15.6692
602.052	18.56063
602.248	16.90385
602.443	15.67907
602.639	16.14574
602.835	16.39377
603.03	16.5532
603.226	17.95316
603.422	16.40884
603.617	17.00102
603.813	16.8882
604.009	16.93576
604.204	18.17203
604.4	16.13482
604.595	18.16417
604.791	16.57968
604.986	17.67815
605.182	16.97098
605.377	17.2427
605.573	17.14865
605.768	17.67123
605.964	18.15712
606.159	18.08349
606.355	18.56235
606.55	17.33046
606.746	18.31613
606.941	17.2568
607.136	19.12597
607.332	19.99107
607.527	16.39638
607.722	17.54665
607.918	17.35045
608.113	16.69475
608.308	18.04945
608.503	17.82338
608.699	17.60607
608.894	17.86165
609.089	16.84995
609.284	17.75018
609.479	17.1635
609.675	18.1965
609.87	17.32088
610.065	18.16127
610.26	18.43018
610.455	18.38412
610.65	17.68241
610.845	17.84203
611.04	18.52756
611.235	17.6889
611.43	17.28643
611.625	16.67927
611.82	19.10971
612.015	16.85359
612.21	18.82101
612.405	16.24268
612.6	19.20783
612.795	18.75739
612.99	17.94743
613.185	16.55636
613.38	16.968
613.575	17.697
613.77	20.35162
613.965	16.0862
614.159	16.92348
614.354	18.93472
614.549	18.53284
614.744	18.53407
614.938	16.74007
615.133	16.05975
615.328	18.81633
615.523	18.62985
615.717	20.63199
615.912	16.95644
616.107	17.7152
616.301	17.54759
616.496	17.10362
616.691	19.26516
616.885	18.30289
617.08	20.73676
617.274	19.05776
617.469	19.81232
617.664	18.39843
617.858	17.21375
618.053	18.22517
618.247	17.73292
618.442	15.60868
618.636	19.30978
618.831	17.08442
619.025	17.35566
619.219	20.44129
619.414	14.56284
619.608	17.61582
619.803	17.12627
619.997	20.10319
620.191	18.94068
620.386	18.3589
620.58	17.97973
620.774	15.95954
620.969	16.21812
621.163	18.07831
621.357	16.4883
621.551	17.51105
621.746	17.98963
621.94	17.57093
622.134	21.63167
622.328	20.03793
622.522	15.93163
622.716	18.9633
622.911	19.14539
623.105	19.06293
623.299	18.62425
623.493	21.31517
623.687	17.28862
623.881	17.30838
624.075	18.42811
624.269	19.50277
624.463	16.03615
624.657	16.34026
624.851	18.37684
625.045	19.02167
625.239	19.18533
625.433	17.62516
625.627	19.34615
625.821	17.54548
626.015	17.28634
626.209	18.22192
626.403	16.8817
626.596	18.53267
626.79	18.97034
626.984	16.97426
627.178	18.68506
627.372	18.80832
627.565	19.03841
627.759	16.68879
627.953	16.9744
628.147	18.62824
628.34	19.01229
628.534	20.64575
628.728	18.02307
628.921	19.2374
629.115	18.73292
629.309	19.32092
629.502	19.13224
629.696	18.48663
629.89	18.01262
630.083	18.58205
630.277	18.64078
630.47	20.43217
630.664	18.10035
630.857	16.40402
631.051	18.8586
631.244	19.63972
631.438	19.19434
631.631	17.39307
631.825	19.84678
632.018	19.02317
632.212	20.613
632.405	19.70665
632.598	17.34496
632.792	18.49216
632.985	15.63171
633.178	18.24211
633.372	18.36523
633.565	18.3959
633.758	19.89001
633.952	17.41518
634.145	17.56549
634.338	18.13662
634.531	17.74955
634.724	17.96647
634.918	18.76067
635.111	18.26435
635.304	17.99913
635.497	21.19962
635.69	18.81703
635.883	19.86898
636.077	17.05267
636.27	19.04875
636.463	18.32049
636.656	18.97705
636.849	18.08661
637.042	19.12669
637.235	20.04633
637.428	19.50466
637.621	18.96803
637.814	20.28534
638.007	20.4528
638.2	20.5566
638.393	21.12596
638.586	17.07146
638.778	17.8941
638.971	18.33893
639.164	20.80424
639.357	19.03016
639.55	20.45639
639.743	19.65631
639.935	19.56938
640.128	21.29557
640.321	19.61143
640.514	19.17397
640.707	21.6341
640.899	19.48854
641.092	16.54844
641.285	28.32109
641.477	16.06812
641.67	21.92283
641.863	20.77165
642.055	19.06149
642.248	18.79367
642.441	18.24332
642.633	19.50578
642.826	21.05211
643.018	20.73777
643.211	21.7839
643.403	21.86911
643.596	22.23985
643.788	21.54287
643.981	18.69704
644.173	20.3945
644.366	19.00611
644.558	16.46322
644.751	20.42994
644.943	17.12811
645.135	21.4761
645.328	21.64222
645.52	20.06199
645.712	20.83609
645.905	23.71833
646.097	17.56133
646.289	19.32239
646.482	22.47785
646.674	18.53914
646.866	21.16623
647.058	20.32609
647.251	17.71717
647.443	18.56783
647.635	19.54152
647.827	17.41397
648.019	18.1061
648.211	19.46723
648.404	19.30176
648.596	21.93172
648.788	19.64836
648.98	19.90572
649.172	19.99963
649.364	19.95538
649.556	16.6302
649.748	24.05891
649.94	17.92302
650.132	20.26444
650.324	18.063
650.516	18.36432
650.708	21.22508
650.9	17.2321
651.092	16.83058
651.284	17.42396
651.476	17.88921
651.667	20.74673
651.859	21.6285
652.051	19.55899
652.243	19.66312
652.435	18.90157
652.627	20.29346
652.818	20.62549
653.01	17.16292
653.202	18.17073
653.394	19.08168
653.585	20.62795
653.777	26.55809
653.969	21.75475
654.16	21.44826
654.352	17.81087
654.544	19.63587
654.735	20.97088
654.927	20.07977
655.118	21.92629
655.31	20.79962
655.502	21.63867
655.693	18.92379
655.885	20.85166
656.076	21.93499
656.268	19.88452
656.459	22.07107
656.651	21.77632
656.842	18.97994
657.034	18.77462
657.225	21.00112
657.416	22.33334
657.608	22.25542
657.799	19.6726
657.99	22.04364
658.182	18.86599
658.373	18.98925
658.564	21.02306
658.756	20.30992
658.947	19.8891
659.138	18.79855
659.33	19.37731
659.521	19.03347
659.712	20.05238
659.903	19.87918
660.094	19.25131
660.286	17.96326
660.477	23.19393
660.668	21.29363
660.859	20.26427
661.05	17.83941
661.241	21.59546
661.432	21.08124
661.623	19.61598
661.814	19.86501
662.006	17.47638
662.197	21.11699
662.388	22.09122
662.579	20.76735
662.77	22.61565
662.96	24.84455
663.151	21.64417
663.342	17.43442
663.533	21.35315
663.724	20.43813
663.915	23.37544
664.106	20.17531
664.297	23.41455
664.488	21.73632
664.678	19.09201
664.869	21.87405
665.06	22.07719
665.251	20.71295
665.442	21.47621
665.632	18.55134
665.823	23.62926
666.014	15.15228
666.204	21.52348
666.395	22.88616
666.586	25.38167
666.776	21.76395
666.967	24.00466
667.158	20.79743
667.348	23.2234
667.539	18.37072
667.729	22.10708
667.92	19.32797
668.111	22.20226
668.301	21.72925
668.492	20.28769
668.682	20.7759
668.873	20.53949
669.063	18.45508
669.253	21.11376
669.444	22.04201
669.634	20.75909
669.825	24.63187
670.015	23.02237
670.206	19.47647
670.396	24.54575
670.586	20.40819
670.777	21.74958
670.967	17.03644
671.157	20.09805
671.347	19.68449
671.538	23.34466
671.728	21.81218
671.918	24.82414
672.108	23.18755
672.299	20.92338
672.489	21.76566
672.679	19.50676
672.869	21.70065
673.059	24.65646
673.249	21.38968
673.44	18.70327
673.63	20.92629
673.82	22.67268
674.01	19.60916
674.2	21.77007
674.39	27.29957
674.58	22.68327
674.77	21.56015
674.96	21.02858
675.15	29.51633
675.34	23.72984
675.53	21.30001
675.72	20.80699
675.91	18.59369
676.099	25.18442
676.289	25.63255
676.479	23.66751
676.669	20.70899
676.859	22.07648
677.049	19.46098
677.238	21.45724
677.428	25.48542
677.618	22.17033
677.808	23.52697
677.997	22.91835
678.187	19.09952
678.377	21.71945
678.567	20.77467
678.756	20.75133
678.946	21.31304
679.136	18.84345
679.325	20.27731
679.515	19.8483
679.704	19.30525
679.894	22.60677
680.084	22.17363
680.273	24.16766
680.463	20.33244
680.652	20.26718
680.842	21.67402
681.031	23.79561
681.221	20.38802
681.41	23.56552
681.6	21.93588
681.789	23.55786
681.978	25.05484
682.168	22.22169
682.357	22.62553
682.547	23.43666
682.736	22.61813
682.925	24.68788
683.115	24.67095
683.304	24.14822
683.493	23.36041
683.682	23.34892
683.872	23.20246
684.061	25.26328
684.25	23.65583
684.439	26.30446
684.629	24.03023
684.818	30.09194
685.007	22.19703
685.196	22.15251
685.385	25.7754
685.574	23.25608
685.763	24.38702
685.952	23.05519
686.142	20.09699
686.331	25.95935
686.52	19.21366
686.709	26.18237
686.898	25.82961
687.087	24.45565
687.276	26.94708
687.465	25.1225
687.654	23.14401
687.842	26.47077
688.031	20.57656
688.22	26.27369
688.409	23.58113
688.598	23.68147
688.787	29.40611
688.976	23.32268
689.165	27.47924
689.353	22.17588
689.542	24.46595
689.731	24.65252
689.92	27.90037
690.108	25.66213
690.297	22.64715
690.486	23.31148
690.675	25.77113
690.863	27.77828
691.052	27.61729
691.241	24.82904
691.429	24.21463
691.618	27.40811
691.806	21.09216
691.995	22.7797
692.184	24.09692
692.372	22.80804
692.561	24.44624
692.749	23.83133
692.938	29.85133
693.126	25.46417
693.315	22.86468
693.503	25.6641
693.692	25.26869
693.88	26.87443
694.068	30.06438
694.257	24.08741
694.445	25.50674
694.634	19.03617
694.822	26.96871
695.01	27.09746
695.199	27.06751
695.387	28.44427
695.575	27.66724
695.763	24.11531
695.952	23.20213
696.14	20.55719
696.328	23.25844
696.516	24.3723
696.705	25.07493
696.893	24.85067
697.081	20.12945
697.269	25.64585
697.457	22.33116
697.645	21.45867
697.833	26.03736
698.021	22.19475
698.21	22.9213
698.398	23.83636
698.586	21.72
698.774	21.38702
698.962	23.62469
699.15	22.05435
699.338	20.76226
699.526	25.51271
699.714	22.94519
699.901	23.30475
700.089	27.0513
700.277	23.09266
700.465	24.27076
700.653	26.56318
700.841	26.53068
701.029	22.57817
701.217	27.94297
701.404	24.94733
701.592	29.96714
701.78	29.57134
701.968	24.38344
702.155	24.07412
702.343	21.27725
702.531	28.40043
702.718	26.05801
702.906	24.52971
703.094	22.98638
703.281	27.99244
703.469	25.0952
703.657	28.0418
703.844	34.42236
704.032	30.06889
704.219	23.79016
704.407	25.88023
704.595	28.68212
704.782	25.58618
704.97	24.67769
705.157	24.3801
705.345	29.81403
705.532	32.92206
705.719	26.481
705.907	29.67261
706.094	25.95295
706.282	30.10476
706.469	24.46085
706.656	25.71868
706.844	24.86222
707.031	28.99124
707.218	26.44423
707.406	31.04566
707.593	28.74019
707.78	27.59896
707.968	25.54739
708.155	24.07553
708.342	28.01122
708.529	26.96325
708.716	26.75018
708.904	31.19181
709.091	28.80706
709.278	22.48415
709.465	33.23795
709.652	32.00765
709.839	30.80505
710.026	26.84483
710.213	21.80252
710.4	28.53182
710.587	29.03749
710.774	30.17095
710.961	29.52289
711.148	27.14892
711.335	30.05843
711.522	25.86186
711.709	27.75612
711.896	34.20448
712.083	29.79978
712.27	24.00278
712.457	27.77002
712.644	22.82373
712.831	33.89613
713.017	27.553
713.204	29.70095
713.391	25.899
713.578	31.07868
713.765	31.5344
713.951	29.21187
714.138	38.59601
714.325	30.19649
714.512	28.13595
714.698	25.1861
714.885	33.13884
715.072	29.48304
715.258	28.50072
715.445	25.62723
715.631	33.13621
715.818	19.89536
716.005	26.13846
716.191	30.34447
716.378	27.28856
716.564	32.1008
716.751	25.57519
716.937	26.69717
717.124	31.99396
717.31	25.84244
717.497	33.41397
717.683	26.12029
717.869	37.71
718.056	26.79523
718.242	30.18174
718.429	27.85263
718.615	24.79237
718.801	28.98184
718.988	31.39146
719.174	30.70731
719.36	28.75345
719.547	33.0626
719.733	29.42938
719.919	30.688
720.105	31.32089
720.291	28.13589
720.478	29.45007
720.664	28.90874
720.85	27.99569
721.036	40.55754
721.222	35.13738
721.408	29.03478
721.595	37.02962
721.781	35.71464
721.967	32.71429
722.153	36.03359
722.339	32.56015
722.525	30.67721
722.711	26.10843
722.897	25.50265
723.083	28.07731
723.269	33.6449
723.455	39.32508
723.641	41.55001
723.827	30.02627
724.012	32.39552
724.198	28.3275
724.384	35.76602
724.57	32.27502
724.756	24.28508
724.942	23.23878
725.127	33.62597
725.313	36.01732
725.499	35.95544
725.685	37.24456
725.87	31.62951
726.056	26.65565
726.242	36.15558
726.428	24.05044
726.613	34.17896
726.799	28.73641
726.985	26.52085
727.17	24.01536
727.356	36.44758
727.541	26.26087
727.727	29.6535
727.913	33.47835
728.098	27.90989
728.284	33.33167
728.469	25.37192
728.655	26.97844
728.84	32.79775
729.026	34.28901
729.211	33.95605
729.397	31.85946
729.582	33.25558
729.767	31.08075
729.953	31.80159
730.138	34.5341
730.323	22.74918
730.509	26.36034
730.694	38.48805
730.879	32.9931
731.065	31.15225
731.25	40.22469
731.435	33.88667
731.621	25.15339
731.806	28.97577
731.991	31.76234
732.176	24.73379
732.361	37.16939
732.547	31.77549
732.732	25.08597
732.917	41.14905
733.102	26.45747
733.287	28.07157
733.472	30.98751
733.657	31.13134
733.842	24.32986
734.027	29.7618
734.212	31.27938
734.397	28.44489
734.582	32.42571
734.767	35.66253
734.952	37.31269
735.137	20.44123
735.322	37.5257
735.507	33.20767
735.692	32.58724
735.877	41.27967
736.062	38.45989
736.247	33.60979
736.431	31.01359
736.616	36.75439
736.801	31.55732
736.986	31.04904
737.171	27.76381
737.355	26.90628
737.54	36.56706
737.725	30.93494
737.909	43.66207
738.094	28.34477
738.279	36.39005
738.463	30.00726
738.648	35.01135
738.833	33.37805
739.017	39.80657
739.202	29.98642
739.386	31.61311
739.571	24.59999
739.756	34.43627
739.94	32.12631
740.125	35.79027
740.309	28.58455
740.494	36.35049
740.678	32.45974
740.863	34.14111
741.047	33.32437
741.231	37.89932
741.416	27.73965
741.6	40.7979
741.785	28.68005
741.969	36.19263
742.153	37.95724
742.338	23.2524
742.522	33.23178
742.706	35.09721
742.89	26.69842
743.075	33.1201
743.259	39.99174
743.443	35.25457
743.627	38.92153
743.812	43.39948
743.996	23.94454
744.18	30.78724
744.364	29.6912
744.548	44.6111
744.732	30.3317
744.916	35.98069
745.1	34.922
745.285	30.89309
745.469	34.81139
745.653	40.51882
745.837	25.81598
746.021	45.6239
746.205	39.56605
746.389	33.0447
746.573	32.36625
746.757	41.11747
746.94	31.04391
747.124	38.96563
747.308	26.95728
747.492	38.87723
747.676	28.90447
747.86	47.14232
748.044	29.89069
748.227	24.40932
748.411	52.25084
748.595	33.63015
748.779	28.35948
748.963	34.72133
749.146	33.70537
749.33	28.98061
749.514	27.70545
749.697	39.16796
749.881	30.9051
750.065	28.23072
750.248	33.6213
750.432	46.10741
750.616	32.75075
750.799	26.43674
750.983	43.81434
751.166	48.05946
751.35	25.87892
751.533	39.45791
751.717	38.61921
751.9	43.30448
752.084	30.73839
752.267	28.32828
752.451	30.00544
752.634	34.13273
752.818	37.47427
753.001	38.06704
753.184	38.8298
753.368	36.40483
753.551	17.04795
753.734	29.62796
753.918	43.26599
754.101	29.58124
754.284	37.80098
754.467	31.27938
754.651	29.79713
754.834	29.04972
755.017	40.15652
755.2	39.46346
755.384	27.52446
755.567	39.12125
755.75	39.51482
755.933	32.56797
756.116	34.77116
756.299	31.67374
756.482	28.55907
756.665	37.65309
756.848	33.05724
757.032	36.04911
757.215	26.16456
757.398	28.82414
757.581	29.16842
757.764	50.27045
757.947	32.98325
758.129	41.61149
758.312	19.40357
758.495	32.46113
758.678	33.44088
758.861	31.72273
759.044	44.37858
759.227	29.29043
759.41	29.68992
759.592	37.53266
759.775	32.3466
759.958	39.86731
760.141	27.44261
760.324	49.06484
760.506	42.93183
760.689	39.85352
760.872	48.70421
761.054	37.87555
761.237	33.28614
761.42	36.47983
761.602	39.94735
761.785	35.82537
761.968	40.9611
762.15	44.75396
762.333	33.31686
762.515	36.11545
762.698	31.10293
762.88	38.88643
763.063	35.73889
763.245	38.06435
763.428	28.55939
763.61	30.69631
763.793	26.33958
763.975	34.84322
764.158	31.90097
764.34	30.50849
764.522	28.88462
764.705	33.4942
764.887	40.74425
765.069	26.14545
765.252	38.52535
765.434	38.68259
765.616	35.02436
765.799	30.99904
765.981	39.73017
766.163	31.12046
766.345	40.65691
766.528	30.52567
766.71	22.52986
766.892	35.10607
767.074	42.81929
767.256	33.22233
767.438	45.05605
767.62	36.52903
767.802	47.78985
767.985	38.51288
768.167	49.06092
768.349	31.56714
768.531	37.98683
768.713	37.9494
768.895	41.09561
769.077	37.08408
769.259	50.96479
769.441	68.75576
769.623	42.37576
769.804	47.49786
769.986	44.00514
770.168	51.87682
770.35	60.38315
770.532	45.7876
770.714	50.71201
770.896	52.80337
771.077	29.62487
771.259	54.43432
771.441	44.21895
771.623	58.1552
771.804	67.23566
771.986	28.33169
772.168	38.58028
772.35	53.61236
772.531	66.13835
772.713	44.25455
772.894	57.1637
773.076	42.73943
773.258	39.26052
773.439	54.27048
773.621	62.61007
773.802	34.8103
773.984	39.91389
774.166	47.89167
774.347	58.62317
774.529	56.05957
774.71	27.7834
774.891	44.74246
775.073	40.28674
775.254	59.06786
775.436	37.5976
775.617	64.93318
775.799	39.37023
775.98	59.69509
776.161	61.72376
776.343	62.62727
776.524	43.70438
776.705	40.78859
776.886	28.8518
777.068	46.1714
777.249	72.21981
777.43	66.60489
777.611	33.99578
777.793	42.03023
777.974	60.58989
778.155	38.97828
778.336	35.51832
778.517	68.74199
778.698	37.5163
778.879	27.76619
779.061	21.95861
779.242	49.67587
779.423	50.18504
779.604	40.08807
779.785	43.48916
779.966	45.83758
780.147	55.44892
780.328	58.29509
780.509	76.34988
780.69	52.8228
780.871	37.6892
781.051	31.89267
781.232	49.70019
781.413	46.59521
781.594	43.52558
781.775	40.48024
781.956	38.13007
782.137	27.30557
782.317	37.49106
782.498	48.80771
782.679	46.48409
782.86	45.78676
783.04	39.41788
783.221	48.69437
783.402	64.94729
783.583	45.90064
783.763	53.06505
783.944	41.56516
784.124	31.86477
784.305	62.00062
784.486	49.81899
784.666	45.96752
784.847	30.63563
785.027	71.24725
785.208	38.44177
785.388	40.31464
785.569	39.56345
785.749	42.94659
785.93	42.23279
786.11	31.61597
786.291	54.02308
786.471	47.28488
786.652	54.14553
786.832	43.80469
787.012	48.43616
787.193	35.26075
787.373	47.12279
787.553	40.67572
787.734	49.41648
787.914	42.27509
788.094	51.03033
788.275	50.14479
788.455	42.79023
788.635	33.13389
788.815	47.27227
788.995	34.87116
789.176	31.4531
789.356	37.62109
789.536	42.81135
789.716	52.99061
789.896	37.85855
790.076	39.92626
790.256	46.83242
790.436	24.66349
790.616	36.86462
790.796	46.58446
790.976	41.28204
791.156	37.71448
791.336	52.78425
791.516	49.49543
791.696	42.65797
791.876	32.37131
792.056	46.08956
792.236	54.19934
792.416	52.90831
792.596	47.81463
792.776	50.19413
792.956	49.98321
793.135	60.64472
793.315	35.14415
793.495	56.53546
793.675	52.40038
793.854	52.06241
794.034	54.45067
794.214	35.27282
794.394	51.91126
794.573	57.25765
794.753	45.91864
794.933	37.05313
795.112	48.19772
795.292	53.92681
795.472	66.48368
795.651	33.33973
795.831	43.97564
796.01	41.38406
796.19	42.73014
796.369	45.72112
796.549	50.84501
796.728	43.02864
796.908	31.65734
797.087	35.44967
797.267	41.49675
797.446	34.4511
797.626	53.0676
797.805	50.88363
797.984	37.2583
798.164	52.53481
798.343	35.52383
798.522	49.47928
798.702	45.98478
798.881	33.58703
799.06	41.88536
799.239	26.86717
799.419	36.88942
799.598	61.23886
799.777	49.88105
799.956	59.33179
800.136	40.76042
800.315	39.29354
800.494	50.25455
800.673	58.25018
800.852	51.77377
801.031	54.6914
801.21	52.41972
801.389	41.68898
801.568	46.00105
801.747	65.72161
801.926	45.37722
802.105	62.57718
802.284	40.48058
802.463	62.07163
802.642	48.09683
802.821	49.38262
803	59.08082
803.179	55.65705
803.358	59.10489
803.537	40.27804
803.716	46.28497
803.895	38.57359
804.073	45.72354
804.252	39.76096
804.431	50.3984
804.61	43.07896
804.789	57.62101
804.967	40.92973
805.146	40.23803
805.325	66.18156
805.503	52.89762
805.682	30.63506
805.861	74.27471
806.039	58.6167
806.218	42.37819
806.397	48.82827
806.575	46.11127
806.754	49.62708
806.932	37.06424
807.111	63.90471
807.289	54.71928
807.468	49.35241
807.646	58.57062
807.825	54.32433
808.003	49.09313
808.182	56.44253
808.36	49.24693
808.539	39.12285
808.717	63.35323
808.895	37.18217
809.074	50.4376
809.252	48.43668
809.43	53.77545
809.609	58.27439
809.787	69.17791
809.965	38.88046
810.144	49.20017
810.322	45.34699
810.5	54.05057
810.678	45.10455
810.856	72.31283
811.035	59.76889
811.213	55.61693
811.391	65.20403
811.569	49.89412
811.747	81.80325
811.925	63.7154
812.103	38.27143
812.281	47.42671
812.459	68.33566
812.637	72.40179
812.816	59.36761
812.994	71.92504
813.171	61.53963
813.349	55.74254
813.527	61.27409
813.705	66.07616
813.883	81.79496
814.061	62.86764
814.239	72.05926
814.417	76.38874
814.595	51.82215
814.773	53.72512
814.95	50.32556
815.128	54.50225
815.306	44.45247
815.484	47.2208
815.662	41.60543
815.839	37.72441
816.017	41.13423
816.195	66.15806
816.372	44.18483
816.55	56.68586
816.728	64.89388
816.905	46.27326
817.083	69.69573
817.261	49.74159
817.438	73.48492
817.616	70.3189
817.793	44.78107
817.971	59.91226
818.148	58.30227
818.326	64.72537
818.503	53.50541
818.681	65.22026
818.858	44.25452
819.036	48.82781
819.213	51.9033
819.391	42.61146
819.568	40.97059
819.745	38.58743
819.923	59.13434
820.1	44.57793
820.277	39.87723
820.455	43.87196
820.632	45.91121
820.809	45.34828
820.986	36.19345
821.164	32.0451
821.341	29.69953
821.518	36.02811
821.695	30.61231
821.872	30.02602
822.05	28.46536
822.227	25.40514
822.404	26.73084
822.581	28.86514
822.758	26.78169
822.935	27.22588
823.112	29.33894
823.289	26.79774
823.466	30.15836
823.643	29.55634
823.82	32.50168
823.997	31.06741
824.174	34.64302
824.351	39.46767
824.528	38.71521
824.705	36.40771
824.882	38.7437
825.059	45.61238
825.236	35.44017
825.412	36.97479
825.589	41.35562
825.766	49.54325
825.943	38.20907
826.12	41.345
826.296	32.90355
826.473	36.20414
826.65	37.12422
826.827	41.81317
827.003	32.7921
827.18	35.10829
827.357	38.28638
827.533	35.47429
827.71	26.62522
827.887	32.79005
828.063	35.55831
828.24	33.34369
828.416	40.26155
828.593	35.44246
828.769	44.06706
828.946	47.24722
829.122	48.38046
829.299	45.29479
829.475	32.81701
829.652	45.18231
829.828	64.88817
830.005	45.33169
830.181	56.63328
830.357	44.18588
830.534	59.06518
830.71	46.75132
830.886	54.63834
831.063	56.72895
831.239	65.64685
831.415	36.60606
831.592	64.92603
831.768	47.31358
831.944	42.28125
832.12	63.4357
832.296	58.64204
832.473	55.01722
832.649	42.69177
832.825	53.24432
833.001	36.33315
833.177	50.21224
833.353	45.94312
833.529	31.4638
833.705	41.07564
833.881	33.91421
834.058	34.37411
834.234	36.35937
834.41	36.03826
834.586	32.13222
834.761	36.48465
834.937	38.21943
835.113	38.9978
835.289	36.69807
835.465	42.00406
835.641	36.80047
835.817	40.6314
835.993	62.02928
836.169	38.46076
836.344	49.62848
836.52	54.09087
836.696	51.60473
836.872	42.19957
837.048	86.59526
837.223	47.2803
837.399	75.4366
837.575	61.49042
837.75	60.65528
837.926	76.07075
838.102	111.4159
838.277	89.26175
838.453	106.49734
838.628	106.48889
838.804	55.40133
838.98	100.07288
839.155	54.77887
839.331	75.14927
839.506	57.56252
839.682	57.92687
839.857	67.31417
840.033	75.30595
840.208	46.75198
840.384	31.6489
840.559	46.91982
840.734	65.20095
840.91	86.93286
841.085	56.5612
841.26	56.80255
841.436	53.1493
841.611	52.64527
841.786	75.06993
841.962	90.07698
842.137	60.80967
842.312	44.32414
842.487	55.67843
842.663	46.22682
842.838	54.97794
843.013	150.06526
843.188	84.1965
843.363	68.17716
843.538	133.20544
843.714	128.67667
843.889	135.50768
844.064	131.48029
844.239	113.81867
844.414	144.75016
844.589	92.49798
844.764	147.95301
844.939	153.45264
845.114	175.12391
845.289	175.22015
845.464	186.87893
845.639	146.63966
845.814	78.54408
845.989	98.56057
846.163	104.02458
846.338	126.32026
846.513	163.95038
846.688	115.93688
846.863	114.66016
847.038	103.67789
847.212	118.97605
847.387	114.78936
847.562	126.49598
847.737	152.51904
847.911	70.44371
848.086	82.80271
848.261	238.56597
848.435	107.0224
848.61	147.24738
848.785	85.03117
848.959	147.45753
849.134	191.66901
849.308	234.74147
849.483	122.85119
849.658	173.14943
849.832	105.81613
850.007	96.07082
850.181	240.07564
850.356	94.52169
850.53	209.95008
850.705	80.39616
850.879	57.68263
851.053	108.85543
851.228	104.31877
851.402	143.29928
851.577	171.87418
851.751	178.06878
851.925	120.12102
852.099	68.72786
852.274	95.14191
852.448	110.37466
852.622	155.41514
852.797	118.8614
852.971	116.63031
853.145	124.80065
853.319	257.82915
853.493	187.24561
853.668	99.16644
853.842	214.12784
854.016	167.02127
854.19	204.58831
854.364	130.60449
854.538	139.18531
854.712	172.22659
854.886	120.52977
855.06	102.13793
855.234	56.2367
855.408	199.11744
855.582	164.65013
855.756	180.8925
855.93	206.58839
856.104	135.0987
856.278	164.1135
856.452	115.4041
856.626	145.78547
856.8	243.71344
856.973	146.41486
857.147	135.68872
857.321	148.20619
857.495	171.50148
857.669	122.66838
857.842	111.63559
858.016	170.39617
858.19	91.43145
858.364	308.84185
858.537	109.9225
858.711	139.74134
858.885	111.11911
859.058	106.31478
859.232	59.63285
859.405	73.9865
859.579	163.82116
859.753	142.20078
859.926	95.51832
860.1	66.21112
860.273	118.9386
860.447	195.57594
860.62	115.73227
860.794	218.62354
860.967	144.26196
861.141	195.61304
861.314	257.57869
861.487	138.82925
861.661	184.58307
861.834	213.70103
862.008	169.60263
862.181	124.91618
862.354	131.00217
862.528	151.01584
862.701	108.08197
862.874	77.28944
863.047	115.5258
863.221	102.27305
863.394	63.09069
863.567	187.20188
863.74	56.80296
863.913	167.48897
864.087	143.49729
864.26	161.13771
864.433	120.5428
864.606	223.06859
864.779	121.42846
864.952	68.44009
865.125	101.57622
865.298	123.1831
865.471	126.70231
865.644	201.57975
865.817	175.2295
865.99	163.67382
866.163	206.12394
866.336	106.19743
866.509	123.28766
866.682	104.52642
866.855	184.7683
867.028	82.86947
867.2	147.37555
867.373	53.79609
867.546	129.10719
867.719	219.18362
867.892	140.3251
868.064	92.94268
868.237	146.06341
868.41	124.12223
868.583	85.76275
868.755	82.24378
868.928	118.07343
869.101	244.28223
869.273	170.68943
869.446	141.64157
869.619	179.19018
869.791	116.78188
869.964	171.65124
870.136	162.27417
870.309	135.28405
870.481	127.03602
870.654	73.50846
870.826	145.09075
870.999	104.49874
871.171	149.89822
871.344	95.41887
871.516	115.94692
871.689	90.38445
871.861	133.61772
872.033	93.90107
872.206	111.13031
872.378	168.50622
872.55	108.8281
872.723	72.72734
872.895	112.04439
873.067	167.54589
873.24	173.76586
873.412	96.99125
873.584	116.71735
873.756	106.09496
873.928	133.20832
874.101	136.50592
874.273	143.35697
874.445	61.84445
874.617	80.768
874.789	129.46628
874.961	111.00378
875.133	143.98275
875.305	119.78929
875.477	88.00338
875.649	74.5118
875.821	88.31361
875.993	183.87646
876.165	80.03748
876.337	134.23411
876.509	115.08637
876.681	124.95236
876.853	125.06592
877.025	127.71079
877.197	88.78851
877.369	81.45185
877.541	149.18672
877.712	53.81239
877.884	75.67232
878.056	130.21533
878.228	72.99999
878.4	136.94071
878.571	79.6978
878.743	59.54313
878.915	107.31865
879.086	75.74181
879.258	88.30015
879.43	77.22936
879.601	70.03526
879.773	75.82743
879.945	30.72492
880.116	38.39523
880.288	30.40388
880.459	32.70824
880.631	28.9466
880.802	31.82592
880.974	31.30958
881.145	25.98018
881.317	30.81229
881.488	27.13346
881.66	29.16356
881.831	27.66678
882.002	33.15548
882.174	28.08264
882.345	32.28047
882.517	24.79121
882.688	37.47198
882.859	33.3697
883.03	43.46326
883.202	43.3665
883.373	40.34096
883.544	38.50328
883.715	53.0959
883.887	47.68516
884.058	43.33697
884.229	53.4342
884.4	55.08286
884.571	59.91909
884.742	52.56363
884.914	55.11136
885.085	73.42473
885.256	91.94134
885.427	74.77672
885.598	88.34377
885.769	86.74738
885.94	89.92127
886.111	66.00302
886.282	103.43727
886.453	79.30692
886.624	67.81629
886.795	100.24748
886.966	87.29585
887.136	110.02108
887.307	79.78543
887.478	141.47899
887.649	113.28595
887.82	125.29016
887.991	103.5001
888.161	140.65939
888.332	126.42062
888.503	70.79706
888.674	169.54471
888.844	193.29404
889.015	146.6524
889.186	71.5664
889.356	178.01003
889.527	76.41395
889.698	246.50981
889.868	98.37917
890.039	132.3434
890.209	111.01104
890.38	145.87444
890.551	126.50106
890.721	185.06416
890.892	149.84928
891.062	110.21597
891.233	130.80347
891.403	102.88294
891.574	93.71877
891.744	108.46891
891.914	125.80548
892.085	118.51975
892.255	53.91601
892.425	165.82701
892.596	127.38396
892.766	130.96223
892.936	165.48864
893.107	143.54036
893.277	81.41755
893.447	68.62308
893.618	53.89998
893.788	93.04798
893.958	58.9452
894.128	55.97744
894.298	63.95781
894.468	77.11678
894.639	43.93671
894.809	35.53721
894.979	47.42469
895.149	54.58105
895.319	47.34627
895.489	60.90451
895.659	75.68007
895.829	55.33858
895.999	58.09812
896.169	48.93617
896.339	56.08435
896.509	99.42144
896.679	109.83403
896.849	109.77309
897.019	147.1443
897.189	109.68997
897.358	107.18347
897.528	146.70608
897.698	59.58705
897.868	132.86312
898.038	218.45284
898.208	218.71797
898.377	73.1396
898.547	212.30746
898.717	260.39949
898.886	140.89189
899.056	222.99588
899.226	284.56365
899.395	172.27153
899.565	255.22998
899.735	178.07518
899.904	266.06988
900.074	231.9426
900.244	99.46829
900.413	365.35974
900.583	90.77803
900.752	155.50543
900.922	277.24881
901.091	37.69655
901.261	206.05241
901.43	209.50974
901.599	185.85694
901.769	443.75339
901.938	260.04661
902.108	208.65466
902.277	300.65566
902.446	86.95129
902.616	101.16201
902.785	116.96622
902.954	203.18232
903.124	135.13428
903.293	105.31074
903.462	64.21293
903.631	88.78383
903.801	69.54827
903.97	43.72726
904.139	60.97594
904.308	51.67164
904.477	46.26497
904.646	33.08705
904.816	38.72141
904.985	60.61806
905.154	86.31415
