Data from WindowProjectSample2_Transmission__2__00007.txt Node

Date: Sat May 03 22:22:40 EDT 2025
User: jessi
Spectrometer: SR400872
Trigger mode: 0
Integration Time (sec): 5.000010E-1
Scans to average: 10
Electric dark correction enabled: true
Nonlinearity correction enabled: true
Boxcar width: 0
XAxis mode: Wavelengths
Number of Pixels in Spectrum: 3648
>>>>>Begin Spectral Data<<<<<
184.909	-6364.96327
185.132	7368.05925
185.355	18705.92573
185.578	8554.49051
185.801	-758.08593
186.024	-2100.31322
186.247	-4459.86411
186.47	-2361.304
186.693	-183.321
186.916	-104.64146
187.139	-4433.63119
187.362	-13608.8901
187.585	1926.10591
187.808	-3219.31331
188.031	125.50803
188.254	3017.79784
188.476	-3800.87782
188.699	-37885.3687
188.922	4034.69358
189.145	-7479.8208
189.368	1193.79835
189.591	1105.36676
189.813	1420.98064
190.036	-3932.04454
190.259	1968.79298
190.482	9634.72339
190.705	3373.4882
190.927	12349.86294
191.15	5735.7899
191.373	1780.00508
191.595	5071.07893
191.818	3059.97813
192.041	671.90501
192.263	2752.51704
192.486	-1868.00413
192.709	-11392.51294
192.931	5754.65457
193.154	-15504.33335
193.377	6043.77045
193.599	12031.02305
193.822	-1467.89539
194.044	935.08087
194.267	1165.98679
194.489	9.67005
194.712	-6170.44396
194.934	4759.09009
195.157	-3471.8652
195.379	832.66931
195.602	1790.98285
195.824	9955.45127
196.047	4257.40882
196.269	-10640.56417
196.492	-11936.94061
196.714	-4385.27813
196.936	-4225.42268
197.159	6207.72431
197.381	-730.5592
197.604	2437.54784
197.826	-14285.25796
198.048	3850.7414
198.271	2252.37399
198.493	1712.26715
198.715	2625.23944
198.938	-3063.59251
199.16	2422.81823
199.382	3319.68121
199.604	3831.02336
199.827	-1225.93768
200.049	-2252.17496
200.271	3657.9729
200.493	-3094.2969
200.715	8268.82815
200.938	3284.27959
201.16	-6662.51653
201.382	-159959.76647
201.604	-8149.61484
201.826	2219.77491
202.048	23604.29294
202.27	19341.6507
202.492	5026.83693
202.715	-5960.70806
202.937	-6114.77744
203.159	-44903.7762
203.381	2279.60338
203.603	4274.53639
203.825	-1505.64015
204.047	4506.37873
204.269	12779.82513
204.491	1541.008
204.713	9510.07746
204.935	6337.55439
205.156	-10218.82938
205.378	965.1386
205.6	3059.49722
205.822	5086.6041
206.044	1855.40866
206.266	4857.26986
206.488	2460.67521
206.71	16568.66801
206.932	-11326.58829
207.153	-4574.60695
207.375	5786.3988
207.597	9094.47513
207.819	2938.89157
208.041	27143.64147
208.262	-1716.36888
208.484	-5206.55844
208.706	1141.14508
208.927	4426.49788
209.149	2166.76775
209.371	4451.105
209.593	452.10684
209.814	3412.31878
210.036	2513.18169
210.258	1523.25789
210.479	827.79242
210.701	1522.57121
210.922	-9436.31337
211.144	3666.76348
211.366	1846.9979
211.587	1489.38425
211.809	9020.84901
212.03	3492.74395
212.252	3275.81176
212.473	5866.42838
212.695	1597.5594
212.916	3987.19133
213.138	1450.40329
213.359	-4624.28313
213.581	1655.97928
213.802	1217.71637
214.024	-11327.48321
214.245	-4222.27611
214.466	1096.59667
214.688	2686.75895
214.909	3409.63832
215.131	-11666.65862
215.352	2163.8781
215.573	14641.30396
215.795	2014.05774
216.016	3681.89061
216.237	-1272.21126
216.459	2562.29889
216.68	-15720.10633
216.901	3116.97357
217.122	-9321.16996
217.344	-2035.23115
217.565	-57651.50201
217.786	-102545.06624
218.007	592.96243
218.228	894.21307
218.45	16063.47263
218.671	474.85886
218.892	1722.87118
219.113	1239.93208
219.334	-1136.17516
219.555	4120.62637
219.776	6132.87025
219.997	5320.33534
220.219	5454.91044
220.44	1323.4584
220.661	-9932.22096
220.882	5712.05294
221.103	-10793.85583
221.324	1507.30132
221.545	3048.93702
221.766	2351.31831
221.987	1904.56362
222.208	740.12834
222.429	1668.79765
222.65	289.26698
222.87	802.67932
223.091	2972.35815
223.312	2223.79549
223.533	1137.86536
223.754	7218.39422
223.975	6626.34574
224.196	1084.60845
224.417	-22590.47716
224.637	798.15403
224.858	200.37494
225.079	10136.65372
225.3	1856.50712
225.521	2855.60644
225.741	726.75686
225.962	698.0501
226.183	310.61769
226.404	1119.56472
226.624	1350.07656
226.845	619.78181
227.066	646.57259
227.286	335.17851
227.507	191.45671
227.728	183.99045
227.948	278.0384
228.169	87.78813
228.389	96.05945
228.61	53.40939
228.831	71.58971
229.051	7.53997
229.272	43.51427
229.492	60.66446
229.713	20.3347
229.933	43.53498
230.154	38.76863
230.374	66.77994
230.595	44.55741
230.815	28.22009
231.036	47.29455
231.256	-7.80637
231.477	88.44166
231.697	48.3971
231.917	53.28472
232.138	69.96708
232.358	151.09497
232.579	130.16496
232.799	26.37762
233.019	121.50951
233.24	140.8446
233.46	50.20507
233.68	80.378
233.901	61.22434
234.121	39.14877
234.341	13.78142
234.561	-3.55155
234.782	27.18985
235.002	87.14792
235.222	-0.26673
235.442	75.33541
235.662	39.73516
235.883	79.44792
236.103	66.37423
236.323	52.0729
236.543	37.39414
236.763	52.46339
236.983	58.3573
237.203	55.76205
237.423	83.11367
237.643	112.9111
237.864	98.17239
238.084	28.92603
238.304	38.02536
238.524	64.84684
238.744	53.33565
238.964	84.14194
239.184	72.28754
239.404	80.14217
239.624	43.95143
239.843	69.09768
240.063	41.40868
240.283	28.83121
240.503	33.22831
240.723	29.51362
240.943	18.819
241.163	23.56396
241.383	17.79688
241.603	9.39089
241.822	10.89157
242.042	7.87487
242.262	9.84646
242.482	11.29876
242.702	12.96218
242.921	4.53453
243.141	8.78938
243.361	8.49884
243.581	11.55362
243.8	10.63996
244.02	6.58031
244.24	12.63929
244.459	11.55487
244.679	23.54987
244.899	15.17433
245.118	18.62041
245.338	13.78799
245.558	17.58682
245.777	9.53749
245.997	12.20132
246.216	12.4968
246.436	7.50308
246.655	5.76969
246.875	3.72192
247.094	7.58704
247.314	2.70248
247.533	4.30733
247.753	5.3563
247.972	4.59358
248.192	1.6755
248.411	2.69268
248.631	4.67197
248.85	6.11414
249.07	5.31614
249.289	8.29093
249.508	6.10095
249.728	9.55736
249.947	9.94012
250.166	11.07298
250.386	6.30975
250.605	8.81853
250.824	13.43333
251.044	11.40889
251.263	29.46046
251.482	17.23987
251.701	14.16642
251.921	0.63281
252.14	4.82037
252.359	5.75339
252.578	12.66353
252.798	4.27722
253.017	11.14013
253.236	5.90526
253.455	7.97123
253.674	15.08851
253.893	6.6834
254.112	10.97443
254.331	15.08411
254.551	12.99067
254.77	5.42662
254.989	17.61784
255.208	13.54802
255.427	19.47311
255.646	18.04656
255.865	26.7843
256.084	10.7179
256.303	14.24458
256.522	17.77392
256.741	4.63105
256.96	5.23022
257.179	10.81525
257.397	14.62369
257.616	6.71159
257.835	8.3487
258.054	18.88158
258.273	11.98804
258.492	13.4018
258.711	7.86059
258.93	3.89536
259.148	5.45974
259.367	5.2363
259.586	6.45534
259.805	2.85311
260.023	6.13256
260.242	4.7267
260.461	3.30566
260.68	1.94028
260.898	5.42264
261.117	2.09082
261.336	1.24234
261.554	4.60589
261.773	5.08505
261.992	1.13625
262.21	4.45068
262.429	5.40929
262.648	8.92548
262.866	10.55439
263.085	7.42546
263.303	6.70859
263.522	11.17058
263.74	11.30551
263.959	19.32236
264.178	9.22424
264.396	8.53722
264.615	6.14899
264.833	15.08315
265.051	12.67585
265.27	13.10902
265.488	13.7122
265.707	8.47606
265.925	13.56244
266.144	6.05453
266.362	7.64951
266.58	6.61555
266.799	6.55123
267.017	7.25317
267.235	6.4069
267.454	4.26646
267.672	2.50369
267.89	5.41059
268.109	5.94374
268.327	6.02538
268.545	1.52568
268.763	5.32743
268.982	2.05746
269.2	6.34298
269.418	3.81694
269.636	2.84964
269.854	5.53119
270.073	4.30152
270.291	2.03732
270.509	2.18227
270.727	5.74377
270.945	9.04592
271.163	9.29127
271.381	2.2096
271.599	3.67572
271.817	6.61775
272.036	2.34152
272.254	4.0623
272.472	3.40325
272.69	3.40113
272.908	3.28011
273.126	5.25885
273.344	6.74224
273.562	2.65789
273.779	3.42208
273.997	4.93762
274.215	5.5785
274.433	4.25576
274.651	6.07356
274.869	6.44902
275.087	3.6834
275.305	5.43503
275.523	3.24492
275.74	4.25652
275.958	6.73702
276.176	10.65348
276.394	3.05117
276.612	4.37318
276.829	4.00998
277.047	3.50584
277.265	3.67596
277.483	4.68529
277.7	5.52426
277.918	4.70038
278.136	8.0065
278.353	3.88325
278.571	2.55685
278.789	6.0599
279.006	1.54067
279.224	3.83568
279.442	6.21
279.659	4.46089
279.877	3.07215
280.094	6.6985
280.312	1.44177
280.529	4.27343
280.747	1.23222
280.964	3.49028
281.182	7.34468
281.399	3.52469
281.617	4.7993
281.834	3.28615
282.052	3.14972
282.269	3.94313
282.487	3.11746
282.704	2.89717
282.921	3.09547
283.139	4.24207
283.356	5.31813
283.574	4.80881
283.791	2.26994
284.008	6.61313
284.226	3.83647
284.443	4.39699
284.66	5.339
284.877	4.18908
285.095	2.86116
285.312	2.24283
285.529	1.29911
285.746	1.23873
285.964	2.84375
286.181	1.72343
286.398	2.59899
286.615	3.23767
286.832	3.24413
287.05	1.06398
287.267	2.50475
287.484	2.34919
287.701	3.6413
287.918	3.53977
288.135	3.39209
288.352	1.58868
288.569	1.98638
288.786	3.16506
289.003	2.45559
289.22	3.69207
289.437	2.14751
289.654	3.54591
289.871	3.79303
290.088	3.72985
290.305	2.71376
290.522	2.24028
290.739	2.51524
290.956	4.0946
291.173	4.61249
291.39	4.34256
291.607	3.22849
291.824	2.67658
292.04	1.87639
292.257	3.73665
292.474	4.06617
292.691	2.50058
292.908	1.14487
293.125	2.39976
293.341	1.54947
293.558	6.09654
293.775	2.70519
293.992	2.81637
294.208	0.99209
294.425	1.6972
294.642	2.40521
294.858	3.48874
295.075	0.92652
295.292	2.40605
295.508	3.00616
295.725	4.59389
295.942	2.25048
296.158	1.69774
296.375	2.60032
296.591	2.01366
296.808	2.15614
297.024	2.38765
297.241	2.74031
297.458	2.92506
297.674	0.28843
297.891	2.44175
298.107	1.77898
298.323	1.35922
298.54	3.47232
298.756	1.69655
298.973	0.86479
299.189	3.64441
299.406	1.49531
299.622	3.80456
299.838	3.61654
300.055	3.27364
300.271	0.80158
300.487	1.13636
300.704	1.51633
300.92	1.10122
301.136	4.79635
301.353	3.67083
301.569	2.39962
301.785	2.76888
302.001	3.25616
302.218	3.03414
302.434	3.09528
302.65	0.98497
302.866	2.05726
303.083	4.95085
303.299	4.64618
303.515	2.61384
303.731	2.83552
303.947	0.83251
304.163	1.66806
304.379	2.78067
304.595	3.04347
304.812	1.73903
305.028	1.62402
305.244	2.32253
305.46	3.56541
305.676	3.37862
305.892	4.15865
306.108	3.20331
306.324	2.33756
306.54	4.6687
306.756	3.22441
306.972	3.18428
307.187	2.40268
307.403	4.52465
307.619	2.04361
307.835	3.69818
308.051	4.15765
308.267	1.26906
308.483	3.66531
308.699	2.88154
308.914	2.53126
309.13	2.56964
309.346	0.86366
309.562	1.61973
309.778	1.01263
309.993	2.87283
310.209	2.4464
310.425	1.30793
310.641	2.186
310.856	1.43756
311.072	1.27686
311.288	2.52507
311.503	2.67803
311.719	0.80932
311.935	0.57639
312.15	2.77847
312.366	2.50815
312.581	3.10329
312.797	2.49617
313.013	3.19953
313.228	2.01482
313.444	2.59452
313.659	1.79777
313.875	2.8753
314.09	2.47233
314.306	4.2383
314.521	3.46614
314.737	3.08952
314.952	2.5937
315.168	2.29879
315.383	3.21348
315.599	2.24757
315.814	2.46468
316.029	3.69782
316.245	1.28092
316.46	0.93458
316.675	4.10471
316.891	4.88603
317.106	5.90708
317.321	3.22641
317.537	3.38356
317.752	3.3823
317.967	3.49901
318.183	1.6671
318.398	2.29906
318.613	3.85469
318.828	4.30368
319.043	3.56183
319.259	2.29098
319.474	3.1008
319.689	3.69567
319.904	0.91512
320.119	3.62753
320.334	2.9697
320.549	2.49412
320.765	3.87701
320.98	2.86325
321.195	3.48401
321.41	2.58059
321.625	3.65874
321.84	4.83779
322.055	4.68763
322.27	1.97032
322.485	1.47705
322.7	3.13935
322.915	3.93003
323.13	1.73581
323.345	4.22936
323.56	3.13109
323.775	3.45253
323.989	3.41023
324.204	2.85216
324.419	3.72537
324.634	1.0507
324.849	2.5425
325.064	5.12634
325.279	3.68006
325.493	3.23259
325.708	3.91346
325.923	1.97479
326.138	1.87317
326.352	4.57824
326.567	3.61281
326.782	2.28664
326.997	2.0338
327.211	3.46955
327.426	3.18833
327.641	2.3526
327.855	0.95393
328.07	3.29631
328.285	4.67768
328.499	2.35025
328.714	3.14426
328.928	3.7297
329.143	2.75669
329.358	3.98992
329.572	3.73015
329.787	4.20896
330.001	5.69104
330.216	1.16357
330.43	4.90331
330.645	4.59478
330.859	3.67305
331.074	2.00213
331.288	2.83588
331.503	4.56326
331.717	1.75032
331.931	2.77015
332.146	2.90194
332.36	4.992
332.575	3.30178
332.789	3.04114
333.003	2.55339
333.218	3.35236
333.432	2.10454
333.646	3.87698
333.86	4.48758
334.075	4.58056
334.289	2.31373
334.503	1.78086
334.717	3.54144
334.932	3.39436
335.146	4.28499
335.36	2.50638
335.574	3.80128
335.788	3.8767
336.003	4.20037
336.217	3.63631
336.431	3.37686
336.645	2.31155
336.859	1.58487
337.073	2.59854
337.287	2.9586
337.501	1.71591
337.715	3.14011
337.929	3.34741
338.143	1.41696
338.357	2.60107
338.571	1.83434
338.785	3.47062
338.999	2.20129
339.213	2.25779
339.427	1.2458
339.641	4.20312
339.855	2.53312
340.069	2.1685
340.283	3.97722
340.497	4.41536
340.711	3.39549
340.924	2.59729
341.138	1.68839
341.352	1.36321
341.566	2.85294
341.78	1.006
341.993	2.22761
342.207	1.86493
342.421	3.13848
342.635	3.05815
342.848	2.11884
343.062	0.6908
343.276	2.08276
343.49	4.92988
343.703	1.8945
343.917	3.62507
344.131	3.73703
344.344	1.88548
344.558	2.24679
344.771	1.6914
344.985	4.00925
345.199	4.51205
345.412	3.07028
345.626	2.94404
345.839	0.82834
346.053	1.60759
346.266	1.6314
346.48	3.42194
346.693	2.98652
346.907	3.17744
347.12	1.78961
347.334	2.78894
347.547	3.09118
347.76	2.48851
347.974	4.03166
348.187	2.89323
348.401	2.4332
348.614	2.03885
348.827	2.48475
349.041	3.36032
349.254	0.71558
349.467	2.52724
349.681	1.45516
349.894	1.96496
350.107	3.92065
350.32	4.40421
350.534	1.08629
350.747	2.32815
350.96	1.85959
351.173	2.05301
351.386	2.10398
351.6	2.1069
351.813	1.97502
352.026	2.62428
352.239	1.51429
352.452	2.42436
352.665	3.69662
352.878	2.5879
353.092	4.76149
353.305	3.17506
353.518	2.5823
353.731	1.77378
353.944	3.5315
354.157	2.1331
354.37	1.65377
354.583	1.49417
354.796	1.13114
355.009	3.70797
355.222	2.65497
355.435	2.59266
355.647	3.69647
355.86	1.69949
356.073	2.45131
356.286	1.98005
356.499	3.28921
356.712	2.97011
356.925	2.86426
357.138	3.47466
357.35	1.57878
357.563	2.1323
357.776	2.59257
357.989	2.32345
358.201	2.93909
358.414	2.7989
358.627	3.66766
358.84	2.21637
359.052	1.55867
359.265	1.60742
359.478	3.4135
359.69	-0.00598
359.903	3.16192
360.116	3.24942
360.328	0.84945
360.541	3.14467
360.753	1.64552
360.966	1.98802
361.179	2.12105
361.391	1.84329
361.604	1.49542
361.816	1.97109
362.029	1.76804
362.241	1.51314
362.454	1.84746
362.666	1.51757
362.879	2.47086
363.091	2.14498
363.304	1.68732
363.516	2.32951
363.728	1.32069
363.941	2.83403
364.153	2.17276
364.366	0.51211
364.578	1.33277
364.79	2.65878
365.003	2.37343
365.215	1.83249
365.427	2.73621
365.639	3.33126
365.852	2.49625
366.064	4.04966
366.276	2.11772
366.488	2.80933
366.701	1.94029
366.913	2.17049
367.125	1.80791
367.337	1.75821
367.549	1.7955
367.762	2.23955
367.974	2.29486
368.186	1.87076
368.398	3.37494
368.61	2.92763
368.822	2.99663
369.034	2.26042
369.246	2.91704
369.458	4.6635
369.67	1.60483
369.882	3.90185
370.094	0.49811
370.306	3.75815
370.518	2.02762
370.73	1.90432
370.942	1.62754
371.154	2.27411
371.366	2.02265
371.578	2.6909
371.79	1.75224
372.002	3.25912
372.214	4.1534
372.425	2.53298
372.637	3.75694
372.849	2.78913
373.061	0.46844
373.273	2.76228
373.484	2.83092
373.696	3.15562
373.908	0.52377
374.12	3.31716
374.331	2.91508
374.543	1.5404
374.755	1.64201
374.967	2.44837
375.178	3.18441
375.39	2.15948
375.602	2.35345
375.813	1.28109
376.025	1.3266
376.236	2.42444
376.448	2.46982
376.66	1.93253
376.871	1.9236
377.083	3.21421
377.294	3.46121
377.506	1.97162
377.717	3.47656
377.929	2.54463
378.14	1.76159
378.352	2.86305
378.563	2.81938
378.775	3.54494
378.986	1.6455
379.197	2.6835
379.409	1.91588
379.62	3.1126
379.832	2.49593
380.043	2.21591
380.254	2.55299
380.466	1.3391
380.677	4.68871
380.888	4.27652
381.1	4.56592
381.311	4.40866
381.522	2.47511
381.733	5.17622
381.945	2.19859
382.156	2.46201
382.367	2.15579
382.578	4.96872
382.789	4.77513
383.001	2.0686
383.212	3.77966
383.423	3.81629
383.634	3.60275
383.845	2.92878
384.056	2.13089
384.267	2.47332
384.478	2.48915
384.69	1.61654
384.901	2.93102
385.112	2.81964
385.323	3.85327
385.534	2.81374
385.745	2.69974
385.956	2.91213
386.167	1.79064
386.378	3.0104
386.588	1.66679
386.799	1.81196
387.01	1.18069
387.221	3.38018
387.432	2.34842
387.643	4.16919
387.854	2.23805
388.065	2.36479
388.275	2.35862
388.486	2.12459
388.697	2.53474
388.908	2.25032
389.119	3.44781
389.329	3.93727
389.54	2.62596
389.751	2.84249
389.962	3.59447
390.172	2.69678
390.383	2.23024
390.594	2.02181
390.804	1.88766
391.015	2.11371
391.226	2.58942
391.436	3.00024
391.647	2.88126
391.858	3.18679
392.068	1.19448
392.279	1.66899
392.489	2.72689
392.7	3.49632
392.91	1.76823
393.121	2.05011
393.331	2.88609
393.542	3.60454
393.752	3.12574
393.963	2.81218
394.173	2.74823
394.384	3.10917
394.594	2.57822
394.804	1.64345
395.015	2.6839
395.225	3.15933
395.436	1.70353
395.646	3.09961
395.856	2.10703
396.067	1.45542
396.277	3.37851
396.487	3.07865
396.697	2.79897
396.908	3.35986
397.118	3.20015
397.328	2.82563
397.538	3.36283
397.749	2.13204
397.959	3.48694
398.169	3.16115
398.379	1.58826
398.589	3.33051
398.8	2.69575
399.01	2.65383
399.22	2.51346
399.43	4.60789
399.64	2.43101
399.85	3.16926
400.06	2.72953
400.27	2.17595
400.48	2.71163
400.69	3.9635
400.9	2.36461
401.11	2.18208
401.32	3.44628
401.53	2.2246
401.74	4.09622
401.95	3.53624
402.16	2.05112
402.37	3.34454
402.58	2.29759
402.79	3.28453
403	3.55772
403.209	2.3027
403.419	3.36779
403.629	2.33944
403.839	3.25885
404.049	3.39438
404.258	2.16217
404.468	2.26412
404.678	3.25429
404.888	3.34754
405.097	2.15643
405.307	2.62139
405.517	3.34701
405.727	3.06083
405.936	2.39081
406.146	2.99205
406.356	3.91733
406.565	2.85164
406.775	2.43631
406.984	2.49481
407.194	4.28764
407.404	2.8657
407.613	3.25656
407.823	3.42637
408.032	3.92717
408.242	3.79539
408.451	2.50529
408.661	2.8262
408.87	4.20524
409.08	2.48841
409.289	3.2938
409.499	3.09274
409.708	3.01864
409.918	1.27338
410.127	2.88206
410.336	4.10294
410.546	3.42153
410.755	2.66233
410.964	2.50993
411.174	2.19219
411.383	3.37419
411.592	3.31253
411.802	2.21119
412.011	3.70176
412.22	2.82721
412.429	4.10761
412.639	4.10233
412.848	3.86037
413.057	4.22933
413.266	3.8655
413.475	3.04405
413.685	3.75313
413.894	3.84413
414.103	3.95847
414.312	3.71876
414.521	2.92572
414.73	3.1171
414.939	4.53092
415.148	3.48362
415.357	3.28989
415.566	2.73755
415.776	2.71291
415.985	2.70872
416.194	3.66656
416.403	4.28116
416.611	1.95388
416.82	2.60564
417.029	3.02707
417.238	2.58187
417.447	2.30685
417.656	2.58338
417.865	2.44928
418.074	2.70473
418.283	2.85246
418.492	3.63026
418.7	3.46582
418.909	4.25444
419.118	3.35294
419.327	3.55773
419.536	3.31077
419.744	3.02336
419.953	4.34284
420.162	4.32397
420.371	3.23924
420.579	3.3156
420.788	4.33472
420.997	4.40546
421.205	4.45622
421.414	4.18082
421.623	4.19058
421.831	3.65156
422.04	4.53242
422.249	3.53375
422.457	4.09366
422.666	3.45022
422.874	4.57118
423.083	4.45803
423.291	4.50158
423.5	4.13266
423.708	4.40227
423.917	4.79693
424.125	4.22388
424.334	4.0056
424.542	5.97866
424.751	5.01586
424.959	4.83677
425.167	5.17815
425.376	5.01285
425.584	4.04571
425.793	4.29102
426.001	3.41766
426.209	4.13748
426.418	3.18213
426.626	3.12674
426.834	2.86413
427.042	3.4121
427.251	3.01247
427.459	3.92582
427.667	3.51084
427.875	2.6325
428.084	2.98864
428.292	4.25363
428.5	3.87612
428.708	2.81986
428.916	2.76383
429.124	3.5172
429.333	3.27427
429.541	3.17978
429.749	3.46912
429.957	3.34888
430.165	4.9316
430.373	2.50278
430.581	3.50746
430.789	4.46067
430.997	3.13765
431.205	3.00239
431.413	3.55212
431.621	3.2274
431.829	3.90917
432.037	3.16878
432.245	3.46937
432.453	3.65393
432.661	3.18685
432.869	4.73617
433.076	2.90082
433.284	3.33221
433.492	3.97133
433.7	4.31446
433.908	3.30883
434.116	3.6299
434.323	3.72573
434.531	3.61389
434.739	3.86745
434.947	4.1574
435.154	4.06159
435.362	3.69401
435.57	3.4538
435.778	3.24331
435.985	3.84012
436.193	3.25533
436.401	4.44442
436.608	3.64816
436.816	3.30681
437.023	4.76673
437.231	4.71634
437.439	3.70613
437.646	4.03324
437.854	3.81086
438.061	4.10846
438.269	3.51533
438.476	3.9705
438.684	3.81992
438.891	3.52061
439.099	3.28916
439.306	2.77418
439.514	3.06061
439.721	4.16256
439.929	3.58404
440.136	4.43018
440.343	4.41884
440.551	4.02254
440.758	5.73118
440.965	4.54782
441.173	4.23148
441.38	3.70816
441.587	4.20762
441.795	3.63847
442.002	3.91966
442.209	3.94762
442.416	4.22403
442.624	4.13466
442.831	4.09073
443.038	3.44948
443.245	3.19522
443.452	3.58084
443.66	4.22751
443.867	3.42093
444.074	3.44155
444.281	3.30665
444.488	3.49125
444.695	3.70255
444.902	3.53139
445.109	4.40344
445.316	3.93522
445.523	4.06861
445.73	3.93393
445.937	4.71411
446.144	5.12288
446.351	5.20318
446.558	4.1565
446.765	5.62585
446.972	5.53542
447.179	4.66738
447.386	5.637
447.593	4.16909
447.8	5.37462
448.007	4.1114
448.214	4.10237
448.42	3.68667
448.627	4.52067
448.834	3.77734
449.041	3.8181
449.248	3.67469
449.454	4.51399
449.661	5.11286
449.868	3.5825
450.075	3.59062
450.281	2.66324
450.488	3.20842
450.695	3.25614
450.901	3.26385
451.108	3.53769
451.315	4.53429
451.521	3.69536
451.728	4.46812
451.935	3.37369
452.141	3.76472
452.348	3.75028
452.554	3.8409
452.761	3.55688
452.967	4.88877
453.174	3.91161
453.38	4.08558
453.587	3.1905
453.793	3.95579
454	4.45972
454.206	5.2664
454.413	4.6711
454.619	4.28485
454.825	3.53129
455.032	4.20326
455.238	4.53273
455.445	3.11231
455.651	4.06707
455.857	2.76741
456.064	3.77749
456.27	3.72076
456.476	3.84315
456.682	3.03699
456.889	4.16194
457.095	4.38397
457.301	5.52055
457.507	4.05849
457.714	3.98039
457.92	3.94969
458.126	3.31169
458.332	3.71414
458.538	3.38358
458.744	3.64875
458.951	3.74417
459.157	5.41068
459.363	4.59452
459.569	4.65298
459.775	5.31204
459.981	4.42489
460.187	4.97586
460.393	5.29576
460.599	5.56096
460.805	4.74558
461.011	4.34598
461.217	4.81294
461.423	4.90745
461.629	4.00634
461.835	4.58181
462.041	4.07568
462.247	5.29913
462.453	4.01152
462.658	4.18982
462.864	4.59494
463.07	4.37
463.276	4.30332
463.482	4.29547
463.688	5.14329
463.893	3.82711
464.099	4.02518
464.305	5.25732
464.511	3.92259
464.716	4.2531
464.922	4.81158
465.128	3.59164
465.333	5.43518
465.539	4.61824
465.745	4.06379
465.95	4.29192
466.156	6.11362
466.362	4.9
466.567	4.12415
466.773	4.0478
466.978	5.4523
467.184	3.65547
467.389	2.78196
467.595	4.60211
467.8	3.72049
468.006	5.25408
468.211	5.04693
468.417	3.70624
468.622	4.54894
468.828	4.7904
469.033	4.4324
469.239	6.17025
469.444	3.93815
469.649	4.76644
469.855	4.1476
470.06	4.32947
470.266	3.56067
470.471	4.89945
470.676	4.69504
470.881	3.22316
471.087	5.26015
471.292	5.62166
471.497	3.59064
471.703	4.08412
471.908	3.91905
472.113	4.61428
472.318	4.97964
472.523	3.58348
472.729	4.64377
472.934	4.77201
473.139	4.13397
473.344	4.76601
473.549	5.31847
473.754	3.98008
473.959	5.81254
474.164	4.02514
474.369	4.35915
474.575	4.97906
474.78	4.48877
474.985	3.95566
475.19	3.13867
475.395	3.74196
475.6	4.14431
475.804	5.21653
476.009	4.36721
476.214	4.40412
476.419	3.9934
476.624	3.22202
476.829	3.82062
477.034	4.68514
477.239	3.91166
477.444	4.85325
477.648	4.66532
477.853	4.76295
478.058	4.2211
478.263	3.89184
478.468	3.70461
478.672	3.74984
478.877	5.29662
479.082	5.56235
479.287	4.60752
479.491	4.43671
479.696	3.54222
479.901	4.90187
480.105	4.71934
480.31	3.82967
480.515	4.30495
480.719	5.8637
480.924	3.93562
481.128	3.62009
481.333	4.3595
481.538	4.52363
481.742	4.40958
481.947	5.18383
482.151	5.64916
482.356	5.69241
482.56	7.23678
482.765	7.69051
482.969	9.54958
483.174	10.75826
483.378	12.72203
483.582	12.81603
483.787	13.80216
483.991	13.88405
484.196	13.93887
484.4	13.54894
484.604	14.07717
484.809	12.13051
485.013	11.7684
485.217	10.19862
485.422	9.22552
485.626	8.35881
485.83	7.9013
486.034	7.63379
486.239	7.77488
486.443	8.10084
486.647	8.15054
486.851	9.20507
487.055	9.90119
487.26	9.49261
487.464	10.15258
487.668	9.43962
487.872	9.52194
488.076	10.27703
488.28	9.42054
488.484	8.70379
488.688	8.62594
488.892	8.41878
489.096	7.86527
489.3	7.04551
489.504	6.54289
489.708	6.59118
489.912	6.61326
490.116	6.33654
490.32	5.6724
490.524	6.6801
490.728	7.26093
490.932	7.39316
491.136	7.53761
491.34	8.72918
491.544	9.06544
491.748	8.5502
491.951	8.48082
492.155	8.09707
492.359	8.25927
492.563	6.86152
492.767	6.57848
492.97	5.92075
493.174	5.20922
493.378	5.05841
493.582	4.23599
493.785	4.72727
493.989	4.89137
494.193	4.81721
494.396	4.39516
494.6	5.21451
494.804	4.63611
495.007	4.31227
495.211	4.32831
495.414	4.47176
495.618	4.63433
495.822	5.30815
496.025	4.5451
496.229	5.07778
496.432	4.15772
496.636	4.58948
496.839	4.56008
497.043	5.5751
497.246	4.82356
497.45	4.38221
497.653	4.46967
497.856	4.75062
498.06	4.08188
498.263	4.46296
498.467	4.34283
498.67	5.15638
498.873	4.84462
499.077	4.43097
499.28	4.39521
499.483	4.90088
499.686	5.1033
499.89	4.78285
500.093	5.06218
500.296	4.16451
500.499	5.70299
500.703	4.64643
500.906	4.85272
501.109	5.85117
501.312	4.77038
501.515	4.48305
501.719	4.9497
501.922	5.61969
502.125	4.82476
502.328	4.62201
502.531	3.90728
502.734	4.79601
502.937	3.47801
503.14	4.82825
503.343	4.01974
503.546	4.41676
503.749	4.16105
503.952	4.89714
504.155	4.13158
504.358	5.09397
504.561	4.69605
504.764	3.95386
504.967	4.67921
505.17	4.70172
505.373	5.8391
505.576	4.77518
505.778	5.23516
505.981	4.30032
506.184	5.55745
506.387	3.5821
506.59	5.79907
506.793	5.39465
506.995	4.96836
507.198	3.53093
507.401	4.88861
507.604	4.87207
507.806	3.89483
508.009	4.22642
508.212	5.087
508.414	4.33584
508.617	4.25441
508.82	4.59269
509.022	5.31461
509.225	4.90572
509.427	3.64673
509.63	5.41757
509.833	4.57947
510.035	4.52515
510.238	3.73387
510.44	5.37755
510.643	3.47081
510.845	6.08821
511.048	4.96843
511.25	4.40089
511.453	4.55865
511.655	4.99012
511.858	4.43233
512.06	5.30411
512.262	4.66522
512.465	5.25144
512.667	4.42407
512.869	4.02242
513.072	4.88876
513.274	5.26499
513.476	5.1409
513.679	5.34473
513.881	4.07379
514.083	5.74955
514.286	4.28362
514.488	4.38691
514.69	4.22962
514.892	3.79759
515.094	5.16743
515.297	4.42323
515.499	4.81641
515.701	4.05082
515.903	5.87719
516.105	5.87211
516.307	5.25929
516.509	3.61537
516.711	3.9666
516.913	4.61191
517.116	4.5768
517.318	4.35262
517.52	5.20356
517.722	4.92903
517.924	3.96487
518.126	4.9482
518.328	4.39971
518.529	5.16686
518.731	5.91567
518.933	4.46705
519.135	4.71223
519.337	5.44718
519.539	5.05316
519.741	3.74119
519.943	4.66305
520.145	4.63924
520.346	5.18973
520.548	4.59755
520.75	4.96547
520.952	4.45268
521.153	4.93547
521.355	4.96568
521.557	4.13115
521.759	4.82362
521.96	4.69748
522.162	4.11336
522.364	5.61013
522.565	4.13395
522.767	5.22588
522.969	5.60616
523.17	5.044
523.372	5.05749
523.573	4.24712
523.775	4.57824
523.977	4.02604
524.178	5.77677
524.38	4.26159
524.581	5.02635
524.783	4.33404
524.984	5.0684
525.186	4.84987
525.387	5.30768
525.589	5.13886
525.79	4.90444
525.991	4.72626
526.193	5.37518
526.394	4.47592
526.596	5.55553
526.797	5.67076
526.998	5.27124
527.2	5.2824
527.401	7.09848
527.602	7.45016
527.803	9.36641
528.005	9.47654
528.206	10.35583
528.407	10.853
528.608	10.54392
528.81	10.8189
529.011	9.93021
529.212	10.97275
529.413	9.96046
529.614	9.20199
529.815	8.92189
530.017	8.07545
530.218	7.0331
530.419	6.02801
530.62	5.9944
530.821	5.85442
531.022	4.69615
531.223	5.84818
531.424	5.61716
531.625	5.6959
531.826	5.43563
532.027	5.82442
532.228	6.85293
532.429	6.5815
532.63	6.72843
532.831	7.20602
533.032	7.22629
533.233	7.78947
533.433	7.62796
533.634	7.78327
533.835	6.90588
534.036	6.44639
534.237	6.3385
534.438	5.77943
534.638	4.842
534.839	5.00129
535.04	5.25495
535.241	4.68885
535.441	5.92624
535.642	5.12644
535.843	4.51086
536.043	4.70562
536.244	4.77239
536.445	4.93889
536.645	5.93266
536.846	5.39824
537.047	6.00816
537.247	4.63204
537.448	4.89318
537.648	4.9122
537.849	4.81655
538.049	4.80395
538.25	5.42902
538.451	5.14481
538.651	4.49056
538.851	5.15144
539.052	5.60142
539.252	5.46348
539.453	4.84363
539.653	4.93989
539.854	4.63311
540.054	4.89705
540.254	6.14239
540.455	6.86255
540.655	6.48897
540.855	7.48182
541.056	8.09526
541.256	7.63947
541.456	8.79048
541.657	7.86718
541.857	8.75857
542.057	7.14252
542.257	6.99984
542.458	7.48835
542.658	7.27412
542.858	5.74211
543.058	6.37516
543.258	5.86106
543.458	4.58843
543.659	4.46548
543.859	5.34907
544.059	5.28603
544.259	4.73184
544.459	5.44573
544.659	4.62755
544.859	5.22252
545.059	4.434
545.259	5.28856
545.459	5.11172
545.659	5.4912
545.859	4.83137
546.059	5.00308
546.259	4.46584
546.459	3.9208
546.659	4.28188
546.859	5.282
547.059	5.11503
547.258	5.17907
547.458	5.24373
547.658	4.22223
547.858	4.14273
548.058	5.20885
548.258	4.81038
548.457	4.25002
548.657	7.08869
548.857	4.72585
549.057	5.7529
549.256	5.3689
549.456	4.74859
549.656	3.62576
549.855	6.6158
550.055	4.78029
550.255	6.44032
550.454	5.3697
550.654	5.89542
550.853	6.19377
551.053	5.95061
551.253	5.40879
551.452	5.35362
551.652	4.31703
551.851	3.81893
552.051	4.72252
552.25	4.53685
552.45	4.47412
552.649	4.67184
552.849	4.38783
553.048	5.09801
553.248	5.52987
553.447	4.39392
553.646	5.75393
553.846	6.40754
554.045	5.94715
554.244	4.26112
554.444	6.5585
554.643	4.33356
554.842	6.23651
555.042	6.99334
555.241	4.78355
555.44	4.44333
555.64	5.3778
555.839	6.67499
556.038	5.67609
556.237	4.74778
556.436	5.19622
556.636	5.57232
556.835	4.35562
557.034	6.6295
557.233	5.36829
557.432	4.04962
557.631	6.28222
557.83	5.0034
558.029	4.88314
558.228	4.96447
558.427	4.26796
558.626	5.63799
558.825	4.64457
559.024	5.45275
559.223	7.13074
559.422	5.08993
559.621	5.5796
559.82	3.11397
560.019	5.1536
560.218	4.88202
560.417	2.82466
560.616	4.79308
560.815	7.96036
561.014	3.99608
561.212	6.31341
561.411	5.39437
561.61	3.71902
561.809	5.04918
562.008	6.49192
562.206	5.02196
562.405	5.65255
562.604	5.19964
562.803	5.40017
563.001	4.99943
563.2	3.9344
563.399	5.61823
563.597	4.07696
563.796	5.29988
563.995	3.93449
564.193	5.60247
564.392	4.65476
564.59	7.06134
564.789	3.32355
564.988	4.77631
565.186	5.05181
565.385	4.59775
565.583	4.61903
565.782	4.90502
565.98	4.50775
566.179	4.77791
566.377	4.02446
566.575	4.20592
566.774	5.93158
566.972	5.9619
567.171	6.79452
567.369	6.13502
567.567	5.18857
567.766	5.44437
567.964	3.37697
568.162	5.57888
568.361	6.10298
568.559	4.97216
568.757	5.63544
568.956	5.24721
569.154	5.00299
569.352	5.70938
569.55	5.06951
569.748	5.04484
569.947	4.29824
570.145	4.44517
570.343	4.00729
570.541	6.11378
570.739	3.97169
570.937	5.04586
571.135	5.18686
571.333	6.45187
571.532	6.31722
571.73	5.18504
571.928	5.87356
572.126	5.4383
572.324	4.56429
572.522	6.20808
572.72	7.33643
572.918	5.16066
573.116	5.23367
573.313	5.06124
573.511	5.01742
573.709	4.82667
573.907	5.77474
574.105	4.8159
574.303	3.64437
574.501	3.90369
574.699	5.16402
574.896	5.30721
575.094	5.58086
575.292	3.85571
575.49	5.7755
575.688	4.97734
575.885	6.22421
576.083	6.9455
576.281	5.57756
576.478	4.6857
576.676	5.94046
576.874	4.039
577.071	4.93782
577.269	7.54873
577.467	4.98631
577.664	5.20291
577.862	6.15134
578.059	4.4993
578.257	6.17211
578.455	5.12905
578.652	5.42483
578.85	3.47843
579.047	5.36771
579.245	5.54788
579.442	5.18952
579.64	5.38689
579.837	3.51995
580.034	7.98998
580.232	5.12294
580.429	4.55774
580.627	5.90478
580.824	6.84874
581.021	5.95373
581.219	5.27926
581.416	4.60401
581.613	6.81709
581.811	6.81994
582.008	4.51007
582.205	6.27193
582.402	5.8726
582.6	8.0498
582.797	5.61328
582.994	6.20335
583.191	6.40357
583.388	5.72617
583.586	6.4855
583.783	7.03244
583.98	4.56008
584.177	5.551
584.374	2.51771
584.571	5.50183
584.768	5.52453
584.965	5.30654
585.162	6.65446
585.359	7.54192
585.556	5.55496
585.753	6.03281
585.95	4.07847
586.147	4.83948
586.344	6.16914
586.541	5.4006
586.738	4.38633
586.935	5.71096
587.132	4.60991
587.329	6.79212
587.526	5.3039
587.722	10.92651
587.919	4.16364
588.116	5.93904
588.313	7.18179
588.51	8.28145
588.706	5.24388
588.903	6.00505
589.1	6.51871
589.297	8.70154
589.493	5.15659
589.69	6.1188
589.887	4.83495
590.083	4.19266
590.28	4.53309
590.477	6.6533
590.673	6.39123
590.87	7.30144
591.067	5.12609
591.263	6.26819
591.46	6.32883
591.656	5.35806
591.853	7.56362
592.049	4.9302
592.246	5.0061
592.442	7.19319
592.639	7.02051
592.835	4.33944
593.032	5.98465
593.228	3.89026
593.425	3.70414
593.621	3.80607
593.817	5.86002
594.014	4.86241
594.21	5.66416
594.406	6.62916
594.603	5.78961
594.799	4.88847
594.995	3.03022
595.192	6.61619
595.388	4.8623
595.584	4.8085
595.78	3.85962
595.977	7.7482
596.173	7.18916
596.369	4.863
596.565	4.19534
596.761	3.76869
596.957	6.40582
597.154	4.35173
597.35	4.66845
597.546	4.31198
597.742	5.84142
597.938	5.47102
598.134	4.44113
598.33	5.70458
598.526	7.53152
598.722	6.17852
598.918	7.7932
599.114	6.35181
599.31	4.89076
599.506	5.72408
599.702	4.81996
599.898	6.20529
600.094	7.23458
600.29	6.92395
600.485	6.75586
600.681	5.53237
600.877	7.90284
601.073	5.69551
601.269	8.09317
601.465	7.44836
601.66	4.6305
601.856	3.43297
602.052	7.80018
602.248	5.11532
602.443	3.23737
602.639	3.93206
602.835	4.36467
603.03	4.55744
603.226	6.45941
603.422	4.36124
603.617	5.15037
603.813	4.78857
604.009	4.58295
604.204	6.50515
604.4	3.43859
604.595	6.33732
604.791	4.07385
604.986	5.54646
605.182	4.2643
605.377	4.85359
605.573	4.68819
605.768	5.50365
605.964	6.04325
606.159	6.48439
606.355	7.03571
606.55	5.30442
606.746	6.70171
606.941	5.82477
607.136	8.15454
607.332	9.44007
607.527	4.37353
607.722	6.2668
607.918	5.80573
608.113	4.77139
608.308	6.38676
608.503	6.15203
608.699	5.90531
608.894	5.9991
609.089	4.49458
609.284	5.65798
609.479	4.78614
609.675	6.19529
609.87	4.81416
610.065	6.19252
610.26	6.66018
610.455	6.54218
610.65	5.34226
610.845	5.93293
611.04	6.82861
611.235	5.81559
611.43	5.43857
611.625	4.31725
611.82	7.86268
612.015	4.73371
612.21	8.12934
612.405	4.1034
612.6	8.82163
612.795	8.14555
612.99	7.24001
613.185	4.64938
613.38	4.85315
613.575	6.4203
613.77	9.92088
613.965	4.26064
614.159	4.98388
614.354	8.0928
614.549	7.99357
614.744	7.32908
614.938	4.89846
615.133	4.45546
615.328	8.13297
615.523	7.93086
615.717	10.70135
615.912	6.0087
616.107	6.41751
616.301	5.81801
616.496	5.14439
616.691	9.19866
616.885	7.16975
617.08	10.40675
617.274	8.38245
617.469	9.88832
617.664	7.53386
617.858	5.50902
618.053	6.82345
618.247	6.10919
618.442	3.02508
618.636	8.33378
618.831	5.65019
619.025	5.6678
619.219	10.61742
619.414	1.76826
619.608	6.18234
619.803	5.42481
619.997	9.72449
620.191	8.49065
620.386	7.11789
620.58	6.81919
620.774	4.11353
620.969	4.25389
621.163	6.41592
621.357	4.66188
621.551	6.04711
621.746	6.88452
621.94	6.62466
622.134	12.73249
622.328	9.7394
622.522	4.36872
622.716	8.07945
622.911	8.32849
623.105	8.12954
623.299	7.21368
623.493	12.17611
623.687	5.34294
623.881	6.28758
624.075	7.72104
624.269	8.1185
624.463	3.45195
624.657	4.1658
624.851	7.42355
625.045	8.22433
625.239	7.78696
625.433	5.50159
625.627	8.77162
625.821	5.43707
626.015	5.09973
626.209	6.27014
626.403	4.40621
626.596	6.83971
626.79	7.45757
626.984	4.29968
627.178	6.78072
627.372	6.99116
627.565	7.42609
627.759	3.91039
627.953	4.38104
628.147	7.27399
628.34	7.53006
628.534	9.85774
628.728	6.14641
628.921	8.05701
629.115	7.99089
629.309	8.07507
629.502	8.37172
629.696	7.09662
629.89	6.59951
630.083	7.31447
630.277	7.76352
630.47	9.84144
630.664	6.61662
630.857	4.56693
631.051	8.24948
631.244	9.13383
631.438	8.48393
631.631	5.44592
631.825	9.00897
632.018	7.55891
632.212	10.35065
632.405	8.95637
632.598	5.90722
632.792	7.33658
632.985	3.12018
633.178	6.33459
633.372	6.98827
633.565	6.88777
633.758	9.29066
633.952	5.33758
634.145	5.61851
634.338	6.81174
634.531	6.23185
634.724	5.66283
634.918	7.50982
635.111	6.44662
635.304	6.0655
635.497	11.02383
635.69	7.40775
635.883	9.10459
636.077	5.19421
636.27	8.95791
636.463	7.54371
636.656	8.29682
636.849	6.25205
637.042	8.26937
637.235	10.7927
637.428	8.79469
637.621	9.52801
637.814	10.3985
638.007	10.86715
638.2	10.58898
638.393	11.93669
638.586	4.73
638.778	6.82184
638.971	8.03483
639.164	10.91765
639.357	8.92981
639.55	10.89554
639.743	9.61548
639.935	9.35644
640.128	12.11257
640.321	9.33326
640.514	8.42991
640.707	13.39743
640.899	9.65408
641.092	4.76257
641.285	23.3077
641.477	3.71548
641.67	12.90931
641.863	10.51417
642.055	8.53563
642.248	8.52177
642.441	7.30735
642.633	8.81004
642.826	10.65515
643.018	11.32315
643.211	12.055
643.403	11.90599
643.596	13.42956
643.788	12.37443
643.981	7.72538
644.173	9.75678
644.366	7.84144
644.558	4.95527
644.751	10.74834
644.943	5.56447
645.135	12.5661
645.328	12.77123
645.52	10.30879
645.712	10.5764
645.905	16.22156
646.097	6.72925
646.289	10.05874
646.482	13.12292
646.674	7.44566
646.866	11.38457
647.058	9.85858
647.251	6.6922
647.443	7.34369
647.635	8.42505
647.827	6.36904
648.019	6.42757
648.211	9.08082
648.404	9.03476
648.596	12.36095
648.788	10.01313
648.98	10.1348
649.172	9.79416
649.364	9.77092
649.556	4.89711
649.748	14.67921
649.94	6.69354
650.132	10.31854
650.324	6.67837
650.516	7.26669
650.708	11.22514
650.9	6.12199
651.092	8.01778
651.284	5.47404
651.476	6.18937
651.667	10.13422
651.859	12.01242
652.051	8.59999
652.243	9.67587
652.435	7.46682
652.627	10.19668
652.818	9.79157
653.01	5.55092
653.202	7.29248
653.394	8.46183
653.585	10.58134
653.777	20.36942
653.969	12.39473
654.16	12.70881
654.352	6.88835
654.544	8.79875
654.735	12.26476
654.927	9.78598
655.118	13.51557
655.31	11.77287
655.502	12.03701
655.693	8.22243
655.885	10.55353
656.076	12.93378
656.268	9.35684
656.459	13.10001
656.651	13.09141
656.842	8.18345
657.034	7.24532
657.225	11.08688
657.416	13.1251
657.608	12.46378
657.799	8.86567
657.99	11.23546
658.182	7.04178
658.373	7.23957
658.564	10.42994
658.756	8.8136
658.947	8.40171
659.138	6.59566
659.33	7.45695
659.521	6.79436
659.712	8.19506
659.903	8.0173
660.094	7.78247
660.286	5.50464
660.477	14.08526
660.668	10.42397
660.859	9.36869
661.05	5.85957
661.241	11.05578
661.432	11.21264
661.623	8.38955
661.814	8.23843
662.006	5.5893
662.197	11.50273
662.388	12.22968
662.579	10.48353
662.77	18.00293
662.96	17.44971
663.151	12.47679
663.342	4.9924
663.533	11.50916
663.724	9.52196
663.915	14.92779
664.106	9.68884
664.297	15.50853
664.488	12.35073
664.678	8.96034
664.869	12.08321
665.06	13.00606
665.251	10.63057
665.442	11.69522
665.632	8.01833
665.823	16.17579
666.014	3.04233
666.204	12.40502
666.395	14.33146
666.586	18.42347
666.776	12.85617
666.967	16.53585
667.158	11.15714
667.348	15.1946
667.539	7.84313
667.729	12.84961
667.92	8.0929
668.111	13.73349
668.301	12.58899
668.492	8.8856
668.682	10.43211
668.873	9.72004
669.063	7.86
669.253	10.49708
669.444	13.97279
669.634	10.06262
669.825	15.8526
670.015	13.66465
670.206	8.8635
670.396	16.96994
670.586	10.7748
670.777	12.1514
670.967	5.66095
671.157	11.31123
671.347	9.4708
671.538	15.93916
671.728	12.67358
671.918	16.54413
672.108	15.2118
672.299	11.40651
672.489	12.75247
672.679	9.81622
672.869	13.99282
673.059	16.19137
673.249	13.10079
673.44	9.20114
673.63	11.054
673.82	14.02663
674.01	8.63027
674.2	13.58822
674.39	20.66935
674.58	13.15791
674.77	12.12564
674.96	11.25601
675.15	24.71002
675.34	14.13107
675.53	12.62246
675.72	10.3974
675.91	7.42101
676.099	17.20375
676.289	18.8683
676.479	15.47561
676.669	10.61535
676.859	13.82781
677.049	8.42034
677.238	11.55013
677.428	17.22783
677.618	11.79489
677.808	15.04947
677.997	12.7465
678.187	8.4512
678.377	11.60337
678.567	9.20779
678.756	10.73561
678.946	10.09768
679.136	6.81913
679.325	8.65512
679.515	8.45706
679.704	7.2405
679.894	12.59278
680.084	11.74252
680.273	14.50555
680.463	8.6172
680.652	8.14101
680.842	10.54596
681.031	13.92557
681.221	8.45765
681.41	12.61237
681.6	10.92259
681.789	13.37841
681.978	15.82464
682.168	12.68433
682.357	12.95459
682.547	14.34115
682.736	13.29586
682.925	15.71148
683.115	16.0728
683.304	15.2553
683.493	13.21447
683.682	13.85432
683.872	12.97584
684.061	17.23165
684.25	15.08726
684.439	18.82687
684.629	14.37635
684.818	23.73799
685.007	12.56958
685.196	11.52354
685.385	18.83858
685.574	15.06712
685.763	13.73892
685.952	13.55469
686.142	8.91436
686.331	18.18143
686.52	7.15332
686.709	18.50359
686.898	18.80971
687.087	15.53364
687.276	19.17136
687.465	17.27652
687.654	11.98995
687.842	18.53559
688.031	8.74887
688.22	17.88854
688.409	14.0652
688.598	14.1703
688.787	22.94282
688.976	13.34913
689.165	20.28849
689.353	12.48507
689.542	15.92068
689.731	17.51051
689.92	21.28779
690.108	18.03224
690.297	13.18702
690.486	14.3901
690.675	17.15774
690.863	21.4169
691.052	20.39695
691.241	16.19717
691.429	16.18717
691.618	20.63558
691.806	9.17121
691.995	14.34761
692.184	14.52561
692.372	12.61037
692.561	15.17726
692.749	14.57459
692.938	24.86572
693.126	17.74158
693.315	14.70548
693.503	17.00334
693.692	17.95433
693.88	19.14334
694.068	25.30414
694.257	15.42244
694.445	16.80164
694.634	7.90013
694.822	20.10934
695.01	20.86927
695.199	20.71576
695.387	21.92542
695.575	20.57407
695.763	15.0136
695.952	13.73531
696.14	9.21806
696.328	12.95971
696.516	16.34815
696.705	16.21924
696.893	15.92054
697.081	8.79675
697.269	17.82242
697.457	10.60243
697.645	9.48087
697.833	16.63647
698.021	10.35893
698.21	11.50576
698.398	12.47684
698.586	8.65484
698.774	8.35423
698.962	11.5571
699.15	9.42733
699.338	7.81755
699.526	14.74599
699.714	10.55725
699.901	11.21648
700.089	17.79626
700.277	11.12628
700.465	13.75554
700.653	17.88477
700.841	16.62929
701.029	12.1832
701.217	20.03464
701.404	15.93839
701.592	21.16784
701.78	24.04883
701.968	13.89265
702.155	15.57432
702.343	10.45086
702.531	21.74003
702.718	17.85516
702.906	15.0756
703.094	13.61727
703.281	22.00381
703.469	15.5779
703.657	21.5385
703.844	31.80912
704.032	23.94024
704.219	14.10117
704.407	19.08507
704.595	23.58745
704.782	17.41429
704.97	15.9547
705.157	15.60451
705.345	24.94301
705.532	28.84913
705.719	19.07553
705.907	24.28343
706.094	18.21501
706.282	26.44899
706.469	16.03212
706.656	18.26677
706.844	17.11855
707.031	23.32328
707.218	19.36546
707.406	24.6711
707.593	21.96554
707.78	21.09787
707.968	16.51436
708.155	13.11959
708.342	21.3145
708.529	21.13818
708.716	18.86746
708.904	26.37561
709.091	20.99467
709.278	12.89858
709.465	26.16281
709.652	27.58149
709.839	24.92472
710.026	20.39786
710.213	10.63048
710.4	20.94597
710.587	22.63357
710.774	23.40195
710.961	24.64457
711.148	19.59952
711.335	24.31559
711.522	18.52712
711.709	19.31479
711.896	29.56188
712.083	24.17479
712.27	14.48055
712.457	20.46287
712.644	12.5317
712.831	30.66034
713.017	20.52024
713.204	23.76012
713.391	16.62948
713.578	26.01924
713.765	26.42711
713.951	23.65467
714.138	37.10409
714.325	22.71725
714.512	20.46325
714.698	16.08507
714.885	28.54384
715.072	22.07668
715.258	20.70301
715.445	17.81274
715.631	27.60476
715.818	7.63351
716.005	17.52088
716.191	23.71536
716.378	19.06441
716.564	25.21399
716.751	15.60822
716.937	18.29471
717.124	27.49401
717.31	17.47621
717.497	30.10414
717.683	17.18362
717.869	34.92387
718.056	19.4349
718.242	25.10436
718.429	21.53782
718.615	15.64047
718.801	21.74281
718.988	26.88647
719.174	24.58168
719.36	21.50721
719.547	30.43466
719.733	23.8812
719.919	25.16614
720.105	26.72265
720.291	21.46617
720.478	23.84672
720.664	21.71229
720.85	18.90145
721.036	41.5724
721.222	32.43323
721.408	22.90786
721.595	37.22504
721.781	33.60725
721.967	30.99682
722.153	34.2319
722.339	27.62947
722.525	27.44082
722.711	16.9287
722.897	14.72726
723.083	21.49393
723.269	30.61029
723.455	40.23966
723.641	43.41192
723.827	25.78768
724.012	27.37552
724.198	21.84767
724.384	31.81019
724.57	28.0411
724.756	16.0581
724.942	12.00576
725.127	30.7876
725.313	34.91351
725.499	32.77033
725.685	38.89258
725.87	27.76801
726.056	19.90264
726.242	32.44132
726.428	15.37519
726.613	31.01584
726.799	23.71434
726.985	18.41657
727.17	15.25645
727.356	34.72907
727.541	19.58539
727.727	23.91033
727.913	29.04944
728.098	22.25052
728.284	29.08703
728.469	16.13595
728.655	17.92243
728.84	29.32798
729.026	29.67905
729.211	30.59
729.397	26.10944
729.582	29.60566
729.767	24.71965
729.953	27.48552
730.138	31.08776
730.323	11.64934
730.509	17.13319
730.694	35.39044
730.879	27.96191
731.065	26.99509
731.25	39.51025
731.435	29.12974
731.621	15.88025
731.806	21.71201
731.991	27.29523
732.176	15.44731
732.361	33.29843
732.547	27.27553
732.732	14.52828
732.917	40.7413
733.102	17.01951
733.287	20.41496
733.472	25.41159
733.657	26.33211
733.842	15.42165
734.027	24.0435
734.212	23.86522
734.397	21.20144
734.582	27.63394
734.767	33.07518
734.952	38.14426
735.137	9.08736
735.322	35.96549
735.507	28.12827
735.692	29.1113
735.877	43.44563
736.062	40.91848
736.247	28.88612
736.431	25.58578
736.616	37.14638
736.801	29.15649
736.986	28.24534
737.171	19.62643
737.355	15.35335
737.54	36.2774
737.725	25.82163
737.909	49.15035
738.094	22.5344
738.279	33.50086
738.463	26.64375
738.648	31.56819
738.833	30.35362
739.017	41.55294
739.202	26.00281
739.386	27.93329
739.571	19.85091
739.756	33.90264
739.94	26.78647
740.125	33.85344
740.309	21.93264
740.494	34.46056
740.678	29.21336
740.863	31.87131
741.047	28.58193
741.231	38.41467
741.416	21.87052
741.6	40.63546
741.785	23.58367
741.969	34.14194
742.153	37.63203
742.338	12.03118
742.522	27.53368
742.706	35.68123
742.89	18.45443
743.075	28.77529
743.259	40.97744
743.443	35.06018
743.627	37.30442
743.812	47.66306
743.996	9.2096
744.18	27.6915
744.364	25.01815
744.548	51.95693
744.732	26.90292
744.916	35.71265
745.1	31.94473
745.285	27.76485
745.469	32.82922
745.653	46.14306
745.837	18.87466
746.021	50.95059
746.205	38.68483
746.389	30.47451
746.573	26.67372
746.757	43.57734
746.94	24.3315
747.124	39.80968
747.308	18.98274
747.492	40.52003
747.676	25.11687
747.86	50.24648
748.044	25.94414
748.227	16.43706
748.411	61.96124
748.595	33.38275
748.779	23.6892
748.963	33.87121
749.146	30.02682
749.33	24.63427
749.514	21.93917
749.697	40.8395
749.881	24.73116
750.065	20.98226
750.248	31.5337
750.432	51.51433
750.616	30.48351
750.799	20.19383
750.983	47.44766
751.166	56.38765
751.35	18.44467
751.533	35.88872
751.717	41.16918
751.9	47.59286
752.084	26.32178
752.267	23.00978
752.451	24.54328
752.634	31.2363
752.818	36.11765
753.001	37.84054
753.184	39.44943
753.368	34.10944
753.551	3.04195
753.734	24.50246
753.918	49.7588
754.101	23.50418
754.284	37.11065
754.467	27.99469
754.651	24.26823
754.834	24.28761
755.017	41.783
755.2	38.94769
755.384	22.01308
755.567	39.37818
755.75	41.59606
755.933	28.21202
756.116	32.60699
756.299	25.76342
756.482	24.78846
756.665	37.52797
756.848	28.92219
757.032	36.04256
757.215	18.3861
757.398	24.03184
757.581	25.13932
757.764	57.73659
757.947	31.30933
758.129	44.42352
758.312	5.18679
758.495	32.19122
758.678	30.27349
758.861	27.58203
759.044	52.15375
759.227	26.37604
759.41	24.53197
759.592	37.96257
759.775	30.69441
759.958	41.94767
760.141	19.70433
760.324	54.38352
760.506	45.87695
760.689	39.77722
760.872	56.64657
761.054	35.67865
761.237	28.37325
761.42	35.18106
761.602	41.40689
761.785	34.02535
761.968	39.90335
762.15	49.18156
762.333	29.59473
762.515	33.80027
762.698	25.46449
762.88	35.64329
763.063	32.72428
763.245	36.65291
763.428	22.00964
763.61	24.34241
763.793	18.35669
763.975	30.86039
764.158	26.42181
764.34	24.32299
764.522	19.91931
764.705	25.36199
764.887	43.29003
765.069	17.18169
765.252	38.03699
765.434	39.49074
765.616	30.8378
765.799	26.42034
765.981	41.0737
766.163	21.76959
766.345	40.92927
766.528	24.94651
766.71	10.6128
766.892	33.89006
767.074	43.75078
767.256	27.39481
767.438	48.60355
767.62	35.68603
767.802	55.68153
767.985	42.15879
768.167	55.47861
768.349	26.23906
768.531	41.584
768.713	37.73383
768.895	44.74072
769.077	39.63167
769.259	61.28294
769.441	92.85405
769.623	48.75987
769.804	55.16696
769.986	54.70924
770.168	65.84466
770.35	81.11661
770.532	59.08697
770.714	61.96202
770.896	66.65255
771.077	25.88507
771.259	67.43088
771.441	55.00329
771.623	71.38453
771.804	93.02027
771.986	23.33154
772.168	39.97033
772.35	68.471
772.531	93.13451
772.713	53.94698
772.894	71.441
773.076	52.53158
773.258	43.90735
773.439	69.50441
773.621	82.02955
773.802	34.21864
773.984	43.22282
774.166	57.40161
774.347	80.94579
774.529	70.21711
774.71	20.49716
774.891	46.60098
775.073	43.68934
775.254	81.40402
775.436	40.14989
775.617	84.06557
775.799	46.69427
775.98	80.3877
776.161	84.85687
776.343	81.99108
776.524	50.08387
776.705	47.72557
776.886	24.55262
777.068	59.62725
777.249	99.88415
777.43	90.04189
777.611	35.25711
777.793	46.89969
777.974	82.6422
778.155	47.54694
778.336	42.89691
778.517	91.26677
778.698	42.18806
778.879	21.40311
779.061	10.21615
779.242	63.91813
779.423	63.56213
779.604	49.72178
779.785	52.24775
779.966	57.59441
780.147	68.81561
780.328	74.45408
780.509	106.31368
780.69	69.6222
780.871	37.91501
781.051	27.50565
781.232	57.65657
781.413	59.96415
781.594	48.45501
781.775	44.30658
781.956	39.45925
782.137	20.64493
782.317	49.36457
782.498	61.29995
782.679	58.09049
782.86	56.28756
783.04	40.84021
783.221	59.00774
783.402	90.53646
783.583	55.58144
783.763	65.92563
783.944	46.02899
784.124	27.65341
784.305	87.76555
784.486	66.492
784.666	53.5001
784.847	25.53929
785.027	106.69782
785.208	40.2945
785.388	40.06942
785.569	43.00204
785.749	45.3118
785.93	40.33241
786.11	29.48189
786.291	58.07494
786.471	62.7255
786.652	70.22764
786.832	50.21294
787.012	59.945
787.193	33.4079
787.373	53.06477
787.553	46.04362
787.734	57.14718
787.914	44.93891
788.094	61.7926
788.275	56.24183
788.455	43.99491
788.635	28.49363
788.815	57.54759
788.995	34.15186
789.176	29.04192
789.356	38.2985
789.536	48.61373
789.716	63.17278
789.896	40.28828
790.076	43.61249
790.256	56.74326
790.436	13.6343
790.616	40.70026
790.796	57.68684
790.976	49.54632
791.156	44.71333
791.336	66.10157
791.516	58.10043
791.696	48.25304
791.876	28.48168
792.056	55.89531
792.236	65.03753
792.416	68.80326
792.596	62.06868
792.776	61.85401
792.956	63.43499
793.135	82.81323
793.315	35.44281
793.495	76.23885
793.675	64.63765
793.854	71.06722
794.034	72.99405
794.214	29.67385
794.394	66.20823
794.573	72.39816
794.753	52.85951
794.933	38.13487
795.112	55.9433
795.292	66.26758
795.472	86.59886
795.651	29.88853
795.831	53.948
796.01	45.12177
796.19	47.74046
796.369	48.99606
796.549	59.13575
796.728	50.09404
796.908	32.2682
797.087	33.98435
797.267	46.07325
797.446	30.92653
797.626	57.32921
797.805	62.36817
797.984	34.3485
798.164	63.59589
798.343	40.25051
798.522	59.64419
798.702	54.39455
798.881	30.14868
799.06	47.86127
799.239	20.18236
799.419	32.7769
799.598	81.55387
799.777	61.81604
799.956	73.32931
800.136	44.28596
800.315	38.8754
800.494	57.00378
800.673	70.38155
800.852	63.74066
801.031	69.33838
801.21	65.9952
801.389	44.22824
801.568	53.53609
801.747	86.87834
801.926	51.77557
802.105	81.20153
802.284	46.39255
802.463	80.33476
802.642	59.63339
802.821	54.84043
803	77.94222
803.179	69.01069
803.358	77.7537
803.537	41.38715
803.716	59.86789
803.895	39.8307
804.073	54.49877
804.252	45.96854
804.431	61.23395
804.61	52.65023
804.789	79.14426
804.967	47.31238
805.146	43.10564
805.325	92.06068
805.503	60.6549
805.682	30.45851
805.861	100.75776
806.039	77.47183
806.218	39.13802
806.397	61.10851
806.575	49.69655
806.754	56.40488
806.932	39.60315
807.111	85.32711
807.289	70.79449
807.468	59.99493
807.646	73.76984
807.825	63.63416
808.003	63.15015
808.182	70.22301
808.36	57.76735
808.539	38.94433
808.717	89.45326
808.895	39.78698
809.074	60.10858
809.252	55.15499
809.43	68.40593
809.609	84.8445
809.787	89.03158
809.965	52.33056
810.144	59.03013
810.322	49.65484
810.5	69.0557
810.678	52.44705
810.856	102.61023
811.035	79.44128
811.213	75.11173
811.391	82.5501
811.569	61.07436
811.747	117.59912
811.925	80.38224
812.103	42.03427
812.281	55.18933
812.459	98.85759
812.637	95.68909
812.816	78.58477
812.994	97.63444
813.171	78.61382
813.349	77.28956
813.527	86.73218
813.705	84.92628
813.883	104.62575
814.061	84.91583
814.239	105.50706
814.417	103.99089
814.595	72.97973
814.773	66.7794
814.95	65.85135
815.128	70.73678
815.306	61.00904
815.484	58.14524
815.662	42.6303
815.839	35.20239
816.017	48.66224
816.195	89.85847
816.372	59.47411
816.55	75.05816
816.728	93.81943
816.905	60.67854
817.083	99.04528
817.261	59.76643
817.438	112.51297
817.616	99.86222
817.793	52.54806
817.971	78.56499
818.148	74.49459
818.326	88.57024
818.503	70.25406
818.681	88.72765
818.858	50.38087
819.036	59.86021
819.213	64.82394
819.391	45.19211
819.568	43.46282
819.745	39.92841
819.923	72.27126
820.1	45.80542
820.277	39.27412
820.455	47.72824
820.632	50.81464
820.809	50.05719
820.986	29.96991
821.164	24.19831
821.341	20.0133
821.518	28.74439
821.695	19.6103
821.872	16.99127
822.05	15.44291
822.227	10.56116
822.404	11.79544
822.581	15.35952
822.758	11.54539
822.935	12.07187
823.112	14.66137
823.289	10.57261
823.466	15.45137
823.643	14.1269
823.82	18.65874
823.997	17.06697
824.174	21.36262
824.351	30.13518
824.528	29.07618
824.705	23.95949
824.882	28.64018
825.059	39.19838
825.236	24.99731
825.412	25.53313
825.589	34.82261
825.766	49.99728
825.943	28.25206
826.12	33.6736
826.296	21.49293
826.473	28.08101
826.65	28.142
826.827	35.42055
827.003	23.14888
827.18	24.72768
827.357	28.79155
827.533	25.83069
827.71	12.17299
827.887	22.21254
828.063	26.70684
828.24	23.88203
828.416	34.62601
828.593	27.36225
828.769	42.56547
828.946	50.42469
829.122	50.26699
829.299	52.93818
829.475	25.9512
829.652	45.49926
829.828	80.77197
830.005	50.96424
830.181	64.05362
830.357	44.36583
830.534	68.51853
830.71	50.37526
830.886	71.14752
831.063	61.67748
831.239	90.47519
831.415	40.54123
831.592	88.77364
831.768	52.18055
831.944	40.17829
832.12	82.6744
832.296	74.14272
832.473	64.58793
832.649	48.80227
832.825	60.62628
833.001	34.28873
833.177	53.08433
833.353	46.0397
833.529	26.29551
833.705	36.58554
833.881	26.54788
834.058	25.80648
834.234	28.60381
834.41	28.9814
834.586	23.38933
834.761	28.80564
834.937	33.07838
835.113	35.78971
835.289	31.10718
835.465	41.23451
835.641	35.42106
835.817	41.84846
835.993	76.20436
836.169	35.66329
836.344	57.01536
836.52	66.70538
836.696	67.43641
836.872	43.72364
837.048	134.43271
837.223	48.67593
837.399	110.41858
837.575	82.18645
837.75	79.05243
837.926	105.50128
838.102	175.13408
838.277	127.79219
838.453	167.85898
838.628	152.87693
838.804	61.9028
838.98	157.08374
839.155	74.28624
839.331	99.73013
839.506	72.93466
839.682	66.67572
839.857	92.33256
840.033	107.62906
840.208	48.54731
840.384	23.0452
840.559	51.78802
840.734	85.39171
840.91	119.35321
841.085	78.45002
841.26	75.08493
841.436	69.58789
841.611	67.5144
841.786	107.50676
841.962	148.57523
842.137	82.81591
842.312	45.72601
842.487	82.19957
842.663	67.8726
842.838	73.52362
843.013	244.99692
843.188	134.20938
843.363	93.23359
843.538	226.50385
843.714	206.17503
843.889	250.40355
844.064	235.07128
844.239	198.19035
844.414	278.91319
844.589	151.11309
844.764	267.00062
844.939	258.9362
845.114	297.56662
845.289	301.04509
845.464	377.2428
845.639	271.9474
845.814	125.44359
845.989	162.5711
846.163	189.92129
846.338	205.80755
846.513	299.51259
846.688	199.05503
846.863	216.35605
847.038	160.80369
847.212	175.10835
847.387	196.03888
847.562	220.20926
847.737	237.80877
847.911	124.9494
848.086	128.29989
848.261	345.06053
848.435	186.15205
848.61	301.06012
848.785	125.41812
848.959	265.99001
849.134	340.55333
849.308	404.59089
849.483	202.55852
849.658	327.13228
849.832	170.53328
850.007	147.5429
850.181	493.96662
850.356	160.16715
850.53	329.49954
850.705	146.20314
850.879	88.8636
851.053	197.32253
851.228	185.88318
851.402	249.03602
851.577	285.88687
851.751	367.18285
851.925	216.38561
852.099	81.38295
852.274	145.49255
852.448	204.16963
852.622	235.86435
852.797	180.09284
852.971	225.90128
853.145	290.34082
853.319	438.93588
853.493	319.2648
853.668	205.15861
853.842	382.90272
854.016	319.66531
854.19	384.46167
854.364	229.50621
854.538	267.32118
854.712	286.56079
854.886	238.63067
855.06	219.1735
855.234	70.60891
855.408	356.87879
855.582	286.17183
855.756	324.67556
855.93	323.60887
856.104	267.96295
856.278	301.93128
856.452	222.92866
856.626	297.34437
856.8	418.63474
856.973	283.47301
857.147	286.65812
857.321	280.28469
857.495	284.77926
857.669	237.78959
857.842	188.32021
858.016	313.27146
858.19	141.97832
858.364	534.33261
858.537	182.4131
858.711	229.91478
858.885	203.56541
859.058	156.64702
859.232	98.90765
859.405	102.946
859.579	297.66966
859.753	293.41079
859.926	158.30161
860.1	124.1255
860.273	237.75255
860.447	340.30221
860.62	193.11526
860.794	374.08085
860.967	224.57899
861.141	321.78602
861.314	512.19216
861.487	234.77596
861.661	313.43152
861.834	387.1248
862.008	288.78929
862.181	222.56992
862.354	265.99839
862.528	286.14429
862.701	203.53764
862.874	145.09523
863.047	186.84453
863.221	202.92886
863.394	104.44376
863.567	301.76614
863.74	67.49399
863.913	322.51518
864.087	298.82003
864.26	293.8338
864.433	221.69851
864.606	426.04936
864.779	206.41492
864.952	100.58711
865.125	212.31973
865.298	212.15154
865.471	203.44015
865.644	353.44772
865.817	287.73797
865.99	322.58538
866.163	330.05111
866.336	204.67181
866.509	209.28612
866.682	200.47779
866.855	313.20956
867.028	120.25241
867.2	268.10973
867.373	64.19941
867.546	226.05222
867.719	407.78753
867.892	280.05434
868.064	149.98706
868.237	248.18259
868.41	204.71795
868.583	105.84702
868.755	121.90709
868.928	201.7687
869.101	391.83878
869.273	290.42419
869.446	238.99342
869.619	305.28315
869.791	213.53048
869.964	309.7553
870.136	302.36856
870.309	212.55783
870.481	247.25017
870.654	115.16388
870.826	228.45755
870.999	162.96893
871.171	264.02281
871.344	145.66728
871.516	162.26613
871.689	146.33029
871.861	217.39545
872.033	164.80927
872.206	180.33551
872.378	253.17124
872.55	210.16387
872.723	122.53015
872.895	212.92018
873.067	289.56366
873.24	249.87422
873.412	183.05836
873.584	188.27198
873.756	196.07705
873.928	239.52549
874.101	235.18676
874.273	240.28767
874.445	81.0315
874.617	123.31324
874.789	229.09737
874.961	171.95775
875.133	248.4193
875.305	201.6471
875.477	142.49349
875.649	110.48283
875.821	135.88908
875.993	320.80343
876.165	141.72224
876.337	207.825
876.509	207.50691
876.681	224.80978
876.853	181.52949
877.025	196.80955
877.197	125.39125
877.369	122.84461
877.541	235.84511
877.712	59.89197
877.884	114.37513
878.056	207.05501
878.228	113.96122
878.4	247.25693
878.571	119.26145
878.743	81.43589
878.915	166.52672
879.086	102.60509
879.258	131.93705
879.43	110.42004
879.601	93.72406
879.773	99.4965
879.945	25.03184
880.116	37.66603
880.288	22.4307
880.459	25.41465
880.631	17.30124
880.802	22.6183
880.974	20.90824
881.145	13.72238
881.317	19.51179
881.488	13.86549
881.66	15.40085
881.831	14.28666
882.002	22.04742
882.174	14.38749
882.345	21.45217
882.517	8.54142
882.688	28.4414
882.859	22.75862
883.03	38.6878
883.202	40.05535
883.373	31.91219
883.544	33.2238
883.715	59.81066
883.887	53.28039
884.058	40.41373
884.229	60.09935
884.4	59.94737
884.571	69.43346
884.742	56.8409
884.914	62.99908
885.085	93.67101
885.256	133.89379
885.427	97.82555
885.598	122.47942
885.769	126.33764
885.94	114.13669
886.111	73.522
886.282	131.23132
886.453	117.45684
886.624	89.12186
886.795	158.03784
886.966	119.97014
887.136	163.03362
887.307	112.52095
887.478	228.22606
887.649	175.58719
887.82	184.87652
887.991	146.53856
888.161	225.7322
888.332	204.31279
888.503	95.81627
888.674	264.33874
888.844	301.69279
889.015	234.93202
889.186	121.7409
889.356	266.65697
889.527	107.42057
889.698	399.55364
889.868	141.69736
890.039	230.99526
890.209	182.66875
890.38	236.51984
890.551	233.7288
890.721	322.93817
890.892	268.54237
891.062	172.54903
891.233	208.76392
891.403	198.64446
891.574	128.59519
891.744	168.79937
891.914	207.61141
892.085	166.06445
892.255	55.10582
892.425	270.34376
892.596	198.64768
892.766	211.62194
892.936	251.19875
893.107	216.4836
893.277	115.20174
893.447	89.19811
893.618	61.03809
893.788	128.13302
893.958	67.49442
894.128	61.44831
894.298	79.06734
894.468	97.87122
894.639	43.75935
894.809	30.03906
894.979	52.06537
895.149	64.54399
895.319	49.46596
895.489	78.1986
895.659	101.24409
895.829	64.90177
895.999	74.26562
896.169	58.66902
896.339	79.27639
896.509	160.21415
896.679	167.04286
896.849	175.2049
897.019	256.65009
897.189	183.10552
897.358	172.30447
897.528	255.14478
897.698	89.09596
897.868	226.67575
898.038	346.27157
898.208	416.69853
898.377	108.01433
898.547	346.88529
898.717	539.0996
898.886	220.68582
899.056	346.16707
899.226	488.04457
899.395	332.20875
899.565	503.25822
899.735	327.70918
899.904	574.30172
900.074	516.42501
900.244	202.12415
900.413	662.92666
900.583	183.16075
900.752	353.07486
900.922	570.8662
901.091	31.15328
901.261	444.03197
901.43	372.33259
901.599	444.04161
901.769	827.83153
901.938	402.10812
902.108	330.00548
902.277	460.37544
902.446	137.76166
902.616	160.8692
902.785	171.34791
902.954	342.47318
903.124	210.18294
903.293	145.81328
903.462	77.94571
903.631	114.69605
903.801	89.48152
903.97	41.75175
904.139	77.27813
904.308	59.76765
904.477	49.82275
904.646	29.53371
904.816	50.43296
904.985	75.01842
905.154	117.59851
