Data from WindowProjectSample_Transmission__5__00005__0001755727182911948.txt Node

Date: Mon May 05 16:39:46 EDT 2025
User: jessi
Spectrometer: SR400872
Trigger mode: 0
Integration Time (sec): 5.000010E-1
Scans to average: 20
Electric dark correction enabled: true
Nonlinearity correction enabled: true
Boxcar width: 0
XAxis mode: Wavelengths
Number of Pixels in Spectrum: 3648
>>>>>Begin Spectral Data<<<<<
184.909	19135.18302
185.132	-4578.37069
185.355	-2869.20374
185.578	-16418.28259
185.801	1380.13397
186.024	9943.1524
186.247	-1638.89284
186.47	1090.61634
186.693	296.3026
186.916	351.8571
187.139	-3395.50987
187.362	3002.02966
187.585	3945.4866
187.808	3203.94691
188.031	34.8793
188.254	-53026.65091
188.476	-1611.10657
188.699	5644.73629
188.922	537.27773
189.145	-14602.63681
189.368	-700.58242
189.591	-1190.25119
189.813	2925.99452
190.036	-44487.30696
190.259	-832.89201
190.482	-4498.39798
190.705	6563.02724
190.927	-2214.02968
191.15	12498.3239
191.373	3188.45437
191.595	-8075.95825
191.818	-3811.66247
192.041	-4901.25635
192.263	-3127.63287
192.486	-655.1815
192.709	-3732.6849
192.931	7344.60111
193.154	-26438.18855
193.377	-2634.76878
193.599	-2232.15634
193.822	-8327.82706
194.044	-1812.18332
194.267	1043.10424
194.489	281.17371
194.712	-39176.0243
194.934	-28891.35207
195.157	1089.4771
195.379	1462.81064
195.602	-6413.07655
195.824	-1228.87047
196.047	-8604.71499
196.269	2568.19098
196.492	-6073.09825
196.714	26118.11528
196.936	-7928.15892
197.159	-1077.68339
197.381	1040.62073
197.604	480.45589
197.826	10860.81661
198.048	-9719.64653
198.271	-2612.39532
198.493	6879.86783
198.715	2146.06784
198.938	-489.37873
199.16	6641.23215
199.382	-95341.89407
199.604	2596.50404
199.827	-1024.36663
200.049	-2638.22474
200.271	12344.39311
200.493	1107.67176
200.715	-36478.69802
200.938	-5790.00306
201.16	-3955.85422
201.382	18681.51755
201.604	2160.98713
201.826	2040.49495
202.048	-1819.78038
202.27	-1803.57244
202.492	-33415.05795
202.715	2828.38962
202.937	-4315.87687
203.159	-5855.18851
203.381	1399.99393
203.603	6780.60014
203.825	5803.69061
204.047	2004.91876
204.269	-2511.55869
204.491	1844.10991
204.713	5702.20989
204.935	-456971.28444
205.156	1094.1891
205.378	-2552.50106
205.6	1444.03157
205.822	141353.83137
206.044	-988.39941
206.266	1520.29025
206.488	3853.32573
206.71	-4882.76252
206.932	1023.00228
207.153	11588.87446
207.375	-6800.32952
207.597	-35512.2217
207.819	-2595.84974
208.041	2277.57304
208.262	438.63141
208.484	681.43355
208.706	-767.39402
208.927	-704.25712
209.149	517.92394
209.371	-2689.72553
209.593	-272.78805
209.814	-708.23221
210.036	548.26829
210.258	-589.09251
210.479	1857.07211
210.701	1587.63517
210.922	2936.26706
211.144	-3351.66332
211.366	1920.74097
211.587	7566.31569
211.809	-7340.22262
212.03	2171.06929
212.252	386.631
212.473	2000.82409
212.695	-5937.04263
212.916	2671.03968
213.138	-730.57976
213.359	3328.18231
213.581	4602.15685
213.802	-834.25584
214.024	1018.73715
214.245	1915.92329
214.466	3259.0013
214.688	-2823.69435
214.909	-1085.90394
215.131	-1618.89756
215.352	-2860.73767
215.573	13603.3867
215.795	4946.67151
216.016	5305.37876
216.237	861.79398
216.459	3258.16685
216.68	1538.02074
216.901	4669.28008
217.122	-3001.38862
217.344	-10649.86984
217.565	3117.80277
217.786	8150.51244
218.007	14966.00455
218.228	-661.36672
218.45	5311.14944
218.671	669.72457
218.892	36235.25656
219.113	1464.08785
219.334	-233.29572
219.555	9380.26457
219.776	2917.38634
219.997	20903.39018
220.219	2605.36588
220.44	-10017.60878
220.661	473.3125
220.882	1424.14648
221.103	-970.4201
221.324	2147.18337
221.545	2143.95675
221.766	-8155.45366
221.987	859.2686
222.208	1565.26842
222.429	4040.42603
222.65	262.58382
222.87	16697.09023
223.091	643.1065
223.312	570.76136
223.533	1218.51562
223.754	1345.38421
223.975	1244.77129
224.196	1793.01545
224.417	1236.21376
224.637	491.1505
224.858	80.01665
225.079	1003.57738
225.3	580.46241
225.521	3636.40243
225.741	437.81647
225.962	442.63821
226.183	131.05737
226.404	610.40194
226.624	405.04798
226.845	608.77675
227.066	375.45067
227.286	237.82053
227.507	116.46113
227.728	106.22172
227.948	217.08773
228.169	61.80071
228.389	81.89637
228.61	45.37046
228.831	57.61037
229.051	0.08577
229.272	35.96183
229.492	53.35973
229.713	13.89125
229.933	32.7805
230.154	30.25336
230.374	49.19206
230.595	33.90717
230.815	21.34389
231.036	36.80649
231.256	-9.94747
231.477	64.62298
231.697	33.34213
231.917	38.15079
232.138	52.11843
232.358	95.01321
232.579	93.98604
232.799	20.8395
233.019	93.08334
233.24	102.73041
233.46	33.74433
233.68	53.87285
233.901	40.46291
234.121	26.69089
234.341	15.97088
234.561	-5.16288
234.782	17.65719
235.002	65.62987
235.222	-2.54669
235.442	59.45502
235.662	28.86319
235.883	58.96683
236.103	47.72265
236.323	34.47649
236.543	26.95687
236.763	35.39947
236.983	40.22006
237.203	36.5136
237.423	54.23964
237.643	79.59002
237.864	68.10411
238.084	17.75793
238.304	23.40367
238.524	43.76232
238.744	36.88339
238.964	69.36263
239.184	55.66884
239.404	59.11496
239.624	31.69799
239.843	56.39192
240.063	33.82096
240.283	19.90754
240.503	22.58019
240.723	23.80195
240.943	13.53503
241.163	19.03057
241.383	13.35597
241.603	6.87069
241.822	8.44378
242.042	6.07458
242.262	7.74583
242.482	8.43161
242.702	10.02873
242.921	2.57769
243.141	6.04246
243.361	5.79842
243.581	9.25186
243.8	6.50824
244.02	5.11786
244.24	8.55021
244.459	8.41955
244.679	15.92477
244.899	10.59098
245.118	11.73412
245.338	11.09533
245.558	13.51613
245.777	7.99016
245.997	9.84119
246.216	9.59096
246.436	5.78811
246.655	4.39379
246.875	2.79186
247.094	5.78834
247.314	2.17183
247.533	3.22192
247.753	4.20021
247.972	3.08512
248.192	0.86226
248.411	1.66263
248.631	3.20807
248.85	4.47602
249.07	3.55792
249.289	5.27485
249.508	5.08669
249.728	6.94808
249.947	6.36411
250.166	8.2563
250.386	4.50995
250.605	6.07376
250.824	9.9598
251.044	7.04433
251.263	26.3731
251.482	13.71508
251.701	11.1876
251.921	0.02831
252.14	2.87998
252.359	3.48894
252.578	9.19992
252.798	3.35426
253.017	7.94396
253.236	3.81846
253.455	5.33034
253.674	9.236
253.893	4.19844
254.112	6.66914
254.331	10.38489
254.551	7.44687
254.77	3.52925
254.989	12.68839
255.208	9.56228
255.427	13.86044
255.646	10.91388
255.865	20.70394
256.084	7.93465
256.303	9.45165
256.522	12.90862
256.741	2.89219
256.96	2.62979
257.179	7.57529
257.397	10.09241
257.616	5.67861
257.835	5.19716
258.054	14.09922
258.273	9.3444
258.492	10.11098
258.711	6.18378
258.93	2.87154
259.148	4.48703
259.367	4.36506
259.586	5.05118
259.805	2.26694
260.023	4.79003
260.242	3.59591
260.461	2.53328
260.68	1.28506
260.898	4.15355
261.117	1.22667
261.336	0.7293
261.554	3.18793
261.773	2.9505
261.992	0.78363
262.21	3.11424
262.429	3.121
262.648	6.74954
262.866	7.54467
263.085	5.24731
263.303	4.32299
263.522	7.92983
263.74	8.44143
263.959	14.47403
264.178	6.29651
264.396	5.71007
264.615	4.19927
264.833	9.89609
265.051	8.05792
265.27	9.98211
265.488	10.15727
265.707	5.49558
265.925	10.09977
266.144	4.4774
266.362	5.52564
266.58	5.05103
266.799	4.58379
267.017	5.62477
267.235	4.83649
267.454	3.12863
267.672	1.65673
267.89	3.77402
268.109	3.86109
268.327	4.14744
268.545	0.83879
268.763	3.98892
268.982	1.2537
269.2	3.66631
269.418	2.94123
269.636	2.01262
269.854	4.26376
270.073	2.88385
270.291	1.65573
270.509	1.74806
270.727	3.87589
270.945	6.84337
271.163	6.50224
271.381	1.28363
271.599	2.98393
271.817	4.8695
272.036	1.60876
272.254	2.96412
272.472	2.22386
272.69	2.31517
272.908	2.2121
273.126	4.23699
273.344	4.90128
273.562	1.68899
273.779	2.32324
273.997	3.4459
274.215	3.74211
274.433	2.65919
274.651	4.16746
274.869	4.3396
275.087	2.56164
275.305	3.82206
275.523	2.24726
275.74	2.64935
275.958	4.94396
276.176	7.66396
276.394	2.37324
276.612	2.82781
276.829	2.9466
277.047	2.41439
277.265	2.66965
277.483	3.44124
277.7	3.89516
277.918	3.08025
278.136	5.90467
278.353	2.53549
278.571	1.49978
278.789	3.85958
279.006	0.79404
279.224	2.71083
279.442	4.83343
279.659	3.28037
279.877	2.15136
280.094	5.50907
280.312	1.03397
280.529	3.23308
280.747	0.92455
280.964	2.10616
281.182	5.46049
281.399	2.51669
281.617	3.41789
281.834	2.18296
282.052	1.73629
282.269	2.85883
282.487	2.34821
282.704	2.10139
282.921	2.09952
283.139	3.05928
283.356	3.7139
283.574	3.61733
283.791	1.71518
284.008	5.22755
284.226	2.74784
284.443	2.93392
284.66	4.20916
284.877	3.15053
285.095	1.81006
285.312	1.50756
285.529	0.90075
285.746	0.7343
285.964	1.93637
286.181	1.3479
286.398	1.69332
286.615	2.4929
286.832	2.34842
287.05	0.50593
287.267	1.79983
287.484	1.69494
287.701	2.39668
287.918	2.44492
288.135	2.44101
288.352	1.17201
288.569	1.31885
288.786	2.30475
289.003	1.88197
289.22	2.80946
289.437	1.45355
289.654	2.69385
289.871	2.7927
290.088	2.81372
290.305	2.09568
290.522	1.6278
290.739	1.93264
290.956	2.87038
291.173	3.35759
291.39	3.18952
291.607	2.25826
291.824	1.59374
292.04	1.30837
292.257	2.54537
292.474	2.87832
292.691	1.79508
292.908	0.76573
293.125	1.6206
293.341	0.98727
293.558	4.55498
293.775	1.678
293.992	2.04885
294.208	0.77935
294.425	1.13118
294.642	1.74816
294.858	2.55775
295.075	0.61489
295.292	1.719
295.508	2.09286
295.725	3.82819
295.942	1.61915
296.158	1.31418
296.375	2.08035
296.591	1.55701
296.808	1.73843
297.024	1.99328
297.241	2.32248
297.458	2.46252
297.674	0.42693
297.891	1.94282
298.107	1.77368
298.323	1.27138
298.54	3.32449
298.756	1.65966
298.973	0.94634
299.189	3.33829
299.406	1.57537
299.622	3.01652
299.838	3.04008
300.055	2.92354
300.271	1.13729
300.487	1.47041
300.704	1.76935
300.92	1.29408
301.136	4.57594
301.353	3.05076
301.569	2.43755
301.785	2.66793
302.001	3.10141
302.218	2.63223
302.434	2.9615
302.65	1.35627
302.866	2.18373
303.083	4.53352
303.299	4.33981
303.515	2.74354
303.731	2.98564
303.947	1.40596
304.163	2.04844
304.379	2.83565
304.595	3.06083
304.812	2.03213
305.028	2.10665
305.244	2.50901
305.46	3.2999
305.676	3.40656
305.892	3.88922
306.108	3.22931
306.324	2.40043
306.54	4.37558
306.756	3.33897
306.972	3.12388
307.187	2.71017
307.403	4.0567
307.619	2.45837
307.835	3.87425
308.051	4.18671
308.267	2.02385
308.483	3.86282
308.699	3.28112
308.914	2.87667
309.13	2.82281
309.346	1.82828
309.562	2.12846
309.778	1.80349
309.993	3.35485
310.209	3.05403
310.425	2.02871
310.641	2.90127
310.856	2.22376
311.072	2.10288
311.288	2.84566
311.503	3.21504
311.719	1.58499
311.935	1.52498
312.15	3.44214
312.366	3.15681
312.581	3.43287
312.797	2.95277
313.013	3.81033
313.228	2.44609
313.444	2.85564
313.659	2.44146
313.875	3.47158
314.09	2.90521
314.306	4.36873
314.521	3.74327
314.737	3.68447
314.952	2.97393
315.168	2.94998
315.383	3.40821
315.599	2.71781
315.814	2.78917
316.029	3.62191
316.245	2.11938
316.46	1.64421
316.675	4.05689
316.891	4.52304
317.106	5.34884
317.321	3.22945
317.537	3.59571
317.752	3.84002
317.967	3.89694
318.183	2.35743
318.398	2.81775
318.613	3.95016
318.828	4.34045
319.043	3.93179
319.259	2.9558
319.474	3.32852
319.689	4.19799
319.904	1.8544
320.119	3.80384
320.334	3.38986
320.549	2.91592
320.765	4.15463
320.98	3.35741
321.195	3.68359
321.41	3.20588
321.625	3.87082
321.84	4.71907
322.055	4.70567
322.27	2.70003
322.485	2.23703
322.7	3.66133
322.915	3.68373
323.13	2.66047
323.345	4.56812
323.56	4.0868
323.775	3.81465
323.989	3.59989
324.204	3.55175
324.419	4.25623
324.634	2.27238
324.849	3.18326
325.064	6.23642
325.279	4.1147
325.493	3.66403
325.708	3.98191
325.923	2.66121
326.138	2.91915
326.352	4.67604
326.567	4.11773
326.782	2.88552
326.997	2.8852
327.211	3.8946
327.426	3.56474
327.641	2.94151
327.855	2.03489
328.07	3.74004
328.285	4.93535
328.499	2.84752
328.714	3.5912
328.928	3.79816
329.143	3.20879
329.358	4.16977
329.572	4.23935
329.787	4.57653
330.001	5.43171
330.216	2.38812
330.43	5.1277
330.645	4.72652
330.859	4.16083
331.074	2.67506
331.288	3.44441
331.503	4.62713
331.717	2.50072
331.931	3.54142
332.146	3.62653
332.36	5.08124
332.575	3.67709
332.789	3.61635
333.003	3.64933
333.218	3.91293
333.432	2.95969
333.646	4.14742
333.86	4.99663
334.075	4.81729
334.289	3.03776
334.503	2.51787
334.717	3.85162
334.932	3.80045
335.146	4.42345
335.36	2.95817
335.574	4.10093
335.788	3.81784
336.003	4.22001
336.217	4.07741
336.431	3.81997
336.645	3.02603
336.859	2.51116
337.073	3.23676
337.287	3.6818
337.501	2.50996
337.715	3.7975
337.929	4.11168
338.143	2.54234
338.357	3.41944
338.571	3.00836
338.785	4.04202
338.999	3.1142
339.213	3.08496
339.427	2.40072
339.641	4.66428
339.855	3.12554
340.069	2.89313
340.283	4.2014
340.497	4.9543
340.711	3.91567
340.924	3.56522
341.138	2.71846
341.352	2.50055
341.566	3.62371
341.78	2.25122
341.993	3.10294
342.207	2.88102
342.421	3.62857
342.635	3.45753
342.848	3.13758
343.062	1.78992
343.276	2.96522
343.49	5.02019
343.703	2.95124
343.917	4.27442
344.131	4.35784
344.344	2.94889
344.558	3.21393
344.771	2.56713
344.985	4.7589
345.199	4.76077
345.412	3.80032
345.626	3.8703
345.839	2.31535
346.053	2.65783
346.266	2.69169
346.48	3.95302
346.693	3.83263
346.907	3.67856
347.12	2.7481
347.334	3.66794
347.547	3.81313
347.76	3.43373
347.974	4.43935
348.187	3.71514
348.401	3.22407
348.614	2.88544
348.827	3.2642
349.041	3.81726
349.254	2.31468
349.467	3.19611
349.681	2.63653
349.894	2.88344
350.107	4.3475
350.32	4.86033
350.534	2.3941
350.747	3.10488
350.96	2.76962
351.173	2.91747
351.386	3.19824
351.6	3.07027
351.813	3.04297
352.026	3.33799
352.239	2.544
352.452	3.01648
352.665	4.30167
352.878	3.39446
353.092	4.91148
353.305	4.15687
353.518	3.56559
353.731	2.76255
353.944	4.2304
354.157	3.10444
354.37	2.89888
354.583	2.64587
354.796	2.45762
355.009	4.11495
355.222	3.65651
355.435	3.48361
355.647	4.07718
355.86	2.92084
356.073	3.63195
356.286	3.14524
356.499	4.06516
356.712	3.73858
356.925	3.98448
357.138	4.06131
357.35	2.87624
357.563	3.21182
357.776	3.49771
357.989	3.40612
358.201	3.91701
358.414	3.74128
358.627	4.566
358.84	3.45266
359.052	2.64534
359.265	2.9633
359.478	4.25445
359.69	1.83668
359.903	4.02982
360.116	4.25705
360.328	2.41276
360.541	4.10787
360.753	2.97537
360.966	3.27891
361.179	3.41189
361.391	3.28133
361.604	3.16093
361.816	3.36081
362.029	3.28732
362.241	3.00302
362.454	3.43025
362.666	2.9519
362.879	3.94332
363.091	3.31084
363.304	3.17702
363.516	3.40854
363.728	2.91969
363.941	3.84706
364.153	3.5112
364.366	2.18695
364.578	2.80628
364.79	3.67493
365.003	3.6214
365.215	3.10132
365.427	3.81949
365.639	4.18933
365.852	3.57562
366.064	5.01109
366.276	3.4443
366.488	3.70824
366.701	3.2744
366.913	3.34659
367.125	3.33801
367.337	2.96632
367.549	3.19074
367.762	3.55647
367.974	3.40906
368.186	3.12763
368.398	4.08404
368.61	3.91797
368.822	4.04595
369.034	3.2881
369.246	4.08268
369.458	5.64336
369.67	2.9292
369.882	4.75073
370.094	2.24229
370.306	4.73372
370.518	3.28884
370.73	3.14064
370.942	3.18936
371.154	3.46572
371.366	3.35111
371.578	3.90291
371.79	3.22604
372.002	4.29145
372.214	5.0302
372.425	3.53625
372.637	4.60873
372.849	3.88121
373.061	2.35733
373.273	3.96691
373.484	3.83195
373.696	4.25115
373.908	2.37497
374.12	4.35328
374.331	3.85012
374.543	3.1389
374.755	3.11615
374.967	3.76478
375.178	4.19866
375.39	3.3703
375.602	3.77464
375.813	2.66754
376.025	3.12103
376.236	3.76591
376.448	3.96518
376.66	3.50423
376.871	3.53536
377.083	4.56981
377.294	4.88927
377.506	3.52645
377.717	4.69407
377.929	4.03127
378.14	3.51809
378.352	4.01963
378.563	4.07981
378.775	4.75229
378.986	3.21378
379.197	4.0172
379.409	3.33277
379.62	4.20433
379.832	4.15252
380.043	3.68121
380.254	3.91436
380.466	3.21345
380.677	5.7103
380.888	5.11337
381.1	5.42941
381.311	5.59365
381.522	4.00589
381.733	5.80462
381.945	3.89448
382.156	3.768
382.367	3.58913
382.578	5.80416
382.789	5.68214
383.001	3.57576
383.212	5.04726
383.423	5.0472
383.634	4.68486
383.845	4.48543
384.056	3.88056
384.267	4.09492
384.478	4.10441
384.69	3.38294
384.901	4.36162
385.112	4.30633
385.323	5.25634
385.534	4.39384
385.745	4.26118
385.956	4.25439
386.167	3.67793
386.378	4.4299
386.588	3.75962
386.799	3.66216
387.01	3.29241
387.221	4.73576
387.432	4.19573
387.643	5.21238
387.854	3.97232
388.065	4.02481
388.275	4.11347
388.486	3.87309
388.697	4.13928
388.908	3.90464
389.119	4.9419
389.329	5.14256
389.54	4.2737
389.751	4.50328
389.962	5.17232
390.172	4.37732
390.383	4.14128
390.594	3.89016
390.804	3.9454
391.015	4.01442
391.226	4.48987
391.436	4.76667
391.647	4.58465
391.858	4.80769
392.068	3.48499
392.279	3.83997
392.489	4.63009
392.7	5.13579
392.91	4.08543
393.121	3.96265
393.331	4.733
393.542	5.12975
393.752	4.68141
393.963	4.76343
394.173	4.62298
394.384	4.84448
394.594	4.59551
394.804	3.91869
395.015	4.6558
395.225	4.8551
395.436	4.03262
395.646	4.79509
395.856	4.2939
396.067	3.71981
396.277	5.0659
396.487	4.74089
396.697	4.76223
396.908	4.88866
397.118	4.89965
397.328	4.61639
397.538	5.16508
397.749	4.2084
397.959	5.0378
398.169	5.03844
398.379	3.94292
398.589	5.07042
398.8	4.74811
399.01	4.78334
399.22	4.54143
399.43	5.96212
399.64	4.68347
399.85	5.17759
400.06	4.81831
400.27	4.27248
400.48	4.64404
400.69	5.52657
400.9	4.42538
401.11	4.22303
401.32	5.15503
401.53	4.51788
401.74	5.67388
401.95	5.04903
402.16	4.42745
402.37	4.99865
402.58	4.5346
402.79	5.24827
403	5.56271
403.209	4.61254
403.419	5.62587
403.629	4.56822
403.839	5.63755
404.049	5.46072
404.258	4.80533
404.468	4.63885
404.678	5.47732
404.888	5.76218
405.097	4.82129
405.307	5.01833
405.517	5.52043
405.727	5.39169
405.936	5.01668
406.146	5.33847
406.356	5.98649
406.565	5.14138
406.775	4.9531
406.984	4.85712
407.194	6.24177
407.404	5.16171
407.613	5.68991
407.823	5.67261
408.032	5.85642
408.242	5.69311
408.451	4.95796
408.661	5.15263
408.87	6.3757
409.08	4.87634
409.289	5.57005
409.499	5.55692
409.708	5.51715
409.918	4.38115
410.127	5.66659
410.336	6.47192
410.546	5.95583
410.755	5.33733
410.964	5.47747
411.174	5.1013
411.383	5.87269
411.592	5.86793
411.802	5.13424
412.011	6.06218
412.22	5.45682
412.429	6.67724
412.639	6.48535
412.848	6.28515
413.057	6.52513
413.266	6.40572
413.475	5.86748
413.685	6.07847
413.894	6.37761
414.103	6.44584
414.312	6.32887
414.521	5.6616
414.73	5.97836
414.939	7.13864
415.148	6.23865
415.357	6.1572
415.566	5.91345
415.776	5.90871
415.985	5.89559
416.194	6.60414
416.403	7.27325
416.611	5.59035
416.82	6.0995
417.029	6.41461
417.238	6.08845
417.447	5.99171
417.656	6.34558
417.865	6.1355
418.074	6.52239
418.283	6.57848
418.492	7.16675
418.7	7.00429
418.909	7.89347
419.118	7.0777
419.327	7.40561
419.536	7.33454
419.744	7.35612
419.953	8.40314
420.162	8.66115
420.371	8.09979
420.579	8.51526
420.788	9.30691
420.997	9.3938
421.205	9.696
421.414	9.49258
421.623	9.60472
421.831	9.31681
422.04	9.74434
422.249	9.01138
422.457	9.42874
422.666	8.62672
422.874	9.4538
423.083	9.53576
423.291	9.48912
423.5	9.40306
423.708	9.72537
423.917	10.15454
424.125	9.7716
424.334	9.75215
424.542	11.12236
424.751	10.71019
424.959	10.40279
425.167	10.64243
425.376	10.36673
425.584	9.31984
425.793	9.34438
426.001	8.57537
426.209	8.64864
426.418	7.79883
426.626	7.52699
426.834	7.42604
427.042	7.74522
427.251	7.48026
427.459	8.10778
427.667	7.77006
427.875	7.07817
428.084	7.42564
428.292	8.32396
428.5	8.05376
428.708	7.13059
428.916	7.29695
429.124	7.81425
429.333	7.4923
429.541	7.5435
429.749	7.76563
429.957	7.78164
430.165	9.26691
430.373	7.02637
430.581	7.89881
430.789	8.54974
430.997	7.6754
431.205	7.4548
431.413	8.03509
431.621	7.77144
431.829	8.33428
432.037	7.82803
432.245	8.25063
432.453	8.23437
432.661	8.01021
432.869	9.13454
433.076	7.82584
433.284	8.15175
433.492	8.59639
433.7	8.81575
433.908	8.1874
434.116	8.39116
434.323	8.51356
434.531	8.37221
434.739	8.68715
434.947	8.86319
435.154	8.84803
435.362	8.35776
435.57	8.27506
435.778	8.04149
435.985	8.58298
436.193	8.13668
436.401	9.05922
436.608	8.39426
436.816	8.25031
437.023	9.16733
437.231	9.30487
437.439	8.64487
437.646	8.80934
437.854	8.69451
438.061	8.92809
438.269	8.49047
438.476	9.05346
438.684	8.64611
438.891	8.66818
439.099	8.39443
439.306	8.31517
439.514	8.33592
439.721	9.31881
439.929	8.98029
440.136	9.77207
440.343	9.89633
440.551	9.91897
440.758	11.31995
440.965	10.206
441.173	10.02649
441.38	9.76782
441.587	9.60178
441.795	9.42044
442.002	9.21115
442.209	9.13885
442.416	9.33004
442.624	9.32965
442.831	9.11297
443.038	8.74203
443.245	8.46663
443.452	8.84421
443.66	9.21811
443.867	8.78186
444.074	8.76673
444.281	8.7088
444.488	9.00097
444.695	9.1903
444.902	9.02337
445.109	10.01046
445.316	9.82775
445.523	10.26578
445.73	10.45338
445.937	11.30404
446.144	11.75368
446.351	12.15881
446.558	11.28949
446.765	13.01663
446.972	12.42183
447.179	12.04736
447.386	12.52201
447.593	11.07952
447.8	11.87222
448.007	10.59177
448.214	10.14319
448.42	9.57471
448.627	9.91597
448.834	9.47074
449.041	9.32818
449.248	9.29877
449.454	9.79063
449.661	10.26692
449.868	9.20399
450.075	9.26167
450.281	8.42844
450.488	8.93213
450.695	8.9263
450.901	9.13409
451.108	9.1508
451.315	9.99439
451.521	9.29361
451.728	10.02475
451.935	9.11571
452.141	9.50648
452.348	9.49858
452.554	9.47778
452.761	9.36125
452.967	10.29356
453.174	9.68459
453.38	9.85298
453.587	9.07416
453.793	9.80618
454	10.07954
454.206	10.72938
454.413	10.21727
454.619	9.99838
454.825	9.36851
455.032	10.0583
455.238	10.15643
455.445	9.28801
455.651	9.74276
455.857	9.03001
456.064	9.61387
456.27	9.49478
456.476	9.61095
456.682	9.1301
456.889	10.03943
457.095	10.07454
457.301	10.99209
457.507	9.89103
457.714	9.84263
457.92	10.07156
458.126	9.65057
458.332	9.95162
458.538	9.80681
458.744	9.96285
458.951	10.01071
459.157	11.9489
459.363	11.40337
459.569	11.90538
459.775	12.56525
459.981	12.40887
460.187	12.78547
460.393	13.04177
460.599	13.30382
460.805	12.38562
461.011	11.50121
461.217	11.37891
461.423	11.03533
461.629	10.46395
461.835	10.72445
462.041	10.35051
462.247	11.21398
462.453	10.28995
462.658	10.37379
462.864	10.66182
463.07	10.5293
463.276	10.55185
463.482	10.4139
463.688	11.14731
463.893	10.14369
464.099	10.4608
464.305	11.22243
464.511	10.28469
464.716	10.41243
464.922	10.97211
465.128	10.22809
465.333	11.45398
465.539	11.01199
465.745	10.69934
465.95	10.893
466.156	12.16608
466.362	11.31348
466.567	10.74606
466.773	10.52479
466.978	11.45372
467.184	10.41976
467.389	10.00809
467.595	11.06325
467.8	10.55871
468.006	11.74255
468.211	11.40803
468.417	10.25945
468.622	11.15521
468.828	11.24727
469.033	11.12661
469.239	12.07742
469.444	10.79621
469.649	11.45968
469.855	11.02336
470.06	11.0565
470.266	10.47343
470.471	11.34234
470.676	11.26297
470.881	10.24029
471.087	11.8352
471.292	12.50174
471.497	10.45476
471.703	11.03208
471.908	10.88365
472.113	11.24279
472.318	11.60123
472.523	10.6854
472.729	11.3421
472.934	11.46432
473.139	11.00209
473.344	11.42198
473.549	11.80464
473.754	10.84961
473.959	12.58393
474.164	10.85268
474.369	11.24043
474.575	11.67071
474.78	11.23974
474.985	11.00358
475.19	10.3497
475.395	11.05636
475.6	11.35965
475.804	12.14724
476.009	11.21322
476.214	11.41597
476.419	11.2952
476.624	10.7273
476.829	10.99877
477.034	11.79594
477.239	11.23847
477.444	11.76881
477.648	11.88526
477.853	11.82238
478.058	11.50358
478.263	11.25977
478.468	11.16226
478.672	11.13208
478.877	12.43302
479.082	12.41433
479.287	11.90884
479.491	11.6607
479.696	11.28888
479.901	12.02168
480.105	12.1198
480.31	11.45392
480.515	11.8265
480.719	12.86456
480.924	11.66742
481.128	11.41989
481.333	12.07873
481.538	11.99417
481.742	12.40407
481.947	13.48905
482.151	14.71014
482.356	15.71702
482.56	18.22924
482.765	20.2231
482.969	23.94613
483.174	27.17924
483.378	31.44963
483.582	33.16082
483.787	35.73861
483.991	37.0335
484.196	37.86099
484.4	37.54155
484.604	38.04789
484.809	35.26868
485.013	33.31239
485.217	30.31035
485.422	27.02381
485.626	24.35381
485.83	22.63709
486.034	21.64907
486.239	21.86987
486.443	22.21166
486.647	22.7547
486.851	24.07052
487.055	25.87894
487.26	26.32224
487.464	27.51997
487.668	27.50373
487.872	28.40007
488.076	28.51568
488.28	27.79661
488.484	26.32904
488.688	25.60562
488.892	24.23841
489.096	22.46716
489.3	20.81431
489.504	19.40963
489.708	18.19151
489.912	17.61289
490.116	17.07379
490.32	16.64211
490.524	17.92505
490.728	19.04974
490.932	20.11253
491.136	21.46328
491.34	22.99842
491.544	23.63437
491.748	23.93674
491.951	24.14239
492.155	23.75
492.359	23.16372
492.563	21.62505
492.767	20.39868
492.97	18.53496
493.174	16.44663
493.378	15.0042
493.582	13.32456
493.785	12.68614
493.989	12.76543
494.193	12.66897
494.396	12.52818
494.6	13.05168
494.804	12.62365
495.007	12.19635
495.211	12.47757
495.414	12.5125
495.618	12.76824
495.822	13.31271
496.025	12.74348
496.229	13.02632
496.432	12.4431
496.636	12.95826
496.839	12.72165
497.043	13.52882
497.246	13.1194
497.45	12.84952
497.653	13.05864
497.856	13.08742
498.06	12.61391
498.263	12.93875
498.467	12.80941
498.67	13.33403
498.873	13.1465
499.077	12.78299
499.28	12.86204
499.483	13.05584
499.686	13.31498
499.89	13.12229
500.093	13.45655
500.296	12.72549
500.499	13.76124
500.703	12.94968
500.906	13.19627
501.109	13.74827
501.312	13.03657
501.515	12.92245
501.719	13.20594
501.922	13.58193
502.125	13.06561
502.328	12.90362
502.531	12.6346
502.734	13.07323
502.937	12.3131
503.14	13.16523
503.343	12.79339
503.546	12.94991
503.749	12.77961
503.952	13.42275
504.155	12.83364
504.358	13.29558
504.561	13.19986
504.764	12.65397
504.967	13.28868
505.17	13.17556
505.373	13.93316
505.576	13.26845
505.778	13.62955
505.981	12.82149
506.184	13.7571
506.387	12.45376
506.59	14.19334
506.793	13.67835
506.995	13.48084
507.198	12.46189
507.401	13.57753
507.604	13.44247
507.806	12.99888
508.009	12.98537
508.212	13.87279
508.414	13.08128
508.617	13.18159
508.82	13.41425
509.022	14.09124
509.225	13.66448
509.427	12.92716
509.63	14.07251
509.833	13.55721
510.035	13.39115
510.238	12.87905
510.44	14.14688
510.643	12.74
510.845	14.30993
511.048	13.73724
511.25	13.28161
511.453	13.4495
511.655	13.71319
511.858	13.55605
512.06	13.8574
512.262	13.7333
512.465	13.99184
512.667	13.39004
512.869	13.08146
513.072	13.88668
513.274	14.01001
513.476	13.94202
513.679	14.026
513.881	13.2858
514.083	14.31108
514.286	13.37841
514.488	13.37774
514.69	13.25478
514.892	13.0553
515.094	13.91113
515.297	13.41947
515.499	13.76448
515.701	13.28531
515.903	14.48158
516.105	14.47563
516.307	14.13909
516.509	12.91609
516.711	13.17269
516.913	13.8553
517.116	13.87981
517.318	13.5856
517.52	14.43794
517.722	14.15355
517.924	13.4539
518.126	14.15994
518.328	13.94953
518.529	14.71749
518.731	15.5218
518.933	14.29726
519.135	14.43754
519.337	14.95888
519.539	14.39543
519.741	13.48705
519.943	13.95032
520.145	13.99728
520.346	14.48867
520.548	13.90672
520.75	14.15684
520.952	13.87188
521.153	14.25587
521.355	14.13834
521.557	13.60124
521.759	14.15792
521.96	13.96473
522.162	13.51734
522.364	14.58408
522.565	13.79048
522.767	14.39548
522.969	14.47584
523.17	14.37638
523.372	14.3341
523.573	13.80997
523.775	13.96226
523.977	13.66855
524.178	15.07652
524.38	14.03737
524.581	14.46679
524.783	14.10942
524.984	14.48582
525.186	14.44268
525.387	15.23853
525.589	15.34658
525.79	15.65816
525.991	15.87724
526.193	16.5244
526.394	16.16208
526.596	17.04764
526.797	17.38352
526.998	17.10916
527.2	18.06444
527.401	20.24988
527.602	22.04242
527.803	25.19909
528.005	27.25024
528.206	29.51513
528.407	31.38665
528.608	32.18324
528.81	33.00953
529.011	32.76476
529.212	33.66625
529.413	32.04495
529.614	30.20742
529.815	28.33849
530.017	25.93468
530.218	23.03564
530.419	20.591
530.62	19.5365
530.821	18.35317
531.022	16.85115
531.223	17.21211
531.424	16.75361
531.625	16.76427
531.826	16.5177
532.027	17.15997
532.228	18.75406
532.429	19.38217
532.63	20.17904
532.831	21.60849
533.032	22.16307
533.233	23.1122
533.433	22.95448
533.634	23.32704
533.835	22.53945
534.036	21.83525
534.237	21.02559
534.438	19.68738
534.638	17.86042
534.839	16.78738
535.04	16.11488
535.241	15.23504
535.441	15.83232
535.642	15.50088
535.843	15.17712
536.043	15.55259
536.244	15.974
536.445	16.24403
536.645	17.03797
536.846	16.97022
537.047	17.33399
537.247	16.30382
537.448	15.86413
537.648	15.37718
537.849	14.98657
538.049	14.93836
538.25	15.15677
538.451	15.07969
538.651	14.43486
538.851	15.17113
539.052	15.39564
539.252	15.29862
539.453	14.94465
539.653	15.0153
539.854	14.9377
540.054	15.06384
540.254	17.28173
540.455	19.10503
540.655	19.97071
540.855	22.31627
541.056	23.82559
541.256	24.42251
541.456	25.62739
541.657	25.81045
541.857	26.36259
542.057	25.14193
542.257	24.31259
542.458	24.01106
542.658	23.04722
542.858	20.70231
543.058	19.87888
543.258	18.88549
543.458	17.23741
543.659	16.47327
543.859	16.67947
544.059	16.12199
544.259	15.44271
544.459	15.92064
544.659	15.19618
544.859	15.62477
545.059	15.19905
545.259	15.71611
545.459	15.42467
545.659	15.75077
545.859	15.35459
546.059	15.55203
546.259	15.10783
546.459	14.79203
546.659	15.00107
546.859	15.84824
547.059	15.54969
547.258	15.6886
547.458	15.69034
547.658	15.04593
547.858	14.96894
548.058	15.44754
548.258	15.21583
548.457	14.95961
548.657	16.47927
548.857	15.23175
549.057	15.87448
549.256	15.54075
549.456	14.86573
549.656	14.33761
549.855	16.30292
550.055	14.99984
550.255	16.10443
550.454	15.38139
550.654	15.582
550.853	16.12215
551.053	15.73981
551.253	15.52238
551.452	15.6514
551.652	14.71533
551.851	14.63608
552.051	15.10239
552.25	15.15548
552.45	15.00494
552.649	15.18162
552.849	15.02395
553.048	15.5899
553.248	15.8505
553.447	14.86968
553.646	15.83875
553.846	16.90674
554.045	16.16197
554.244	14.6418
554.444	16.13756
554.643	14.89453
554.842	16.13684
555.042	16.4917
555.241	15.02135
555.44	14.7175
555.64	15.78517
555.839	16.25205
556.038	15.57673
556.237	14.99334
556.436	15.43071
556.636	15.52791
556.835	14.92859
557.034	16.26427
557.233	15.14931
557.432	14.43173
557.631	15.99199
557.83	15.12547
558.029	15.06722
558.228	14.91079
558.427	14.76196
558.626	15.4948
558.825	14.82228
559.024	15.17506
559.223	16.51301
559.422	15.15555
559.621	15.54946
559.82	13.92602
560.019	15.26135
560.218	15.01597
560.417	14.03545
560.616	15.08942
560.815	17.41958
561.014	14.57699
561.212	16.35033
561.411	15.42166
561.61	14.84502
561.809	15.24293
562.008	16.65287
562.206	15.2663
562.405	15.85276
562.604	15.38219
562.803	15.60444
563.001	15.32611
563.2	14.75537
563.399	15.78418
563.597	14.90159
563.796	15.23975
563.995	14.83474
564.193	15.88633
564.392	15.33294
564.59	16.72921
564.789	14.41899
564.988	15.27735
565.186	15.72604
565.385	15.48021
565.583	15.50317
565.782	15.57038
565.98	15.49036
566.179	15.5138
566.377	15.20125
566.575	15.2282
566.774	16.54334
566.972	16.21792
567.171	17.02517
567.369	16.54039
567.567	15.87979
567.766	15.83001
567.964	14.56953
568.162	16.04765
568.361	16.41734
568.559	15.51155
568.757	15.7475
568.956	15.63151
569.154	15.65054
569.352	15.94171
569.55	15.72555
569.748	15.68194
569.947	15.27059
570.145	15.0571
570.343	15.09601
570.541	16.72299
570.739	15.02971
570.937	15.91925
571.135	16.11931
571.333	17.23114
571.532	17.12544
571.73	16.08979
571.928	16.522
572.126	16.32159
572.324	15.67947
572.522	16.56097
572.72	17.60992
572.918	15.93752
573.116	16.23137
573.313	15.78215
573.511	15.89941
573.709	15.53539
573.907	16.44207
574.105	15.61761
574.303	15.04457
574.501	14.87036
574.699	16.40097
574.896	16.15988
575.094	16.39899
575.292	15.02384
575.49	16.50216
575.688	15.85814
575.885	16.85059
576.083	17.44138
576.281	16.39369
576.478	15.35196
576.676	16.36286
576.874	15.07807
577.071	15.92476
577.269	17.30048
577.467	15.82022
577.664	15.87562
577.862	16.60202
578.059	15.1361
578.257	16.50523
578.455	15.60321
578.652	15.83871
578.85	14.49474
579.047	16.11392
579.245	15.72543
579.442	15.7075
579.64	15.48833
579.837	14.58588
580.034	17.56008
580.232	15.72648
580.429	15.06564
580.627	16.19148
580.824	16.67387
581.021	16.28809
581.219	15.44952
581.416	15.26965
581.613	16.77476
581.811	16.7014
582.008	15.29972
582.205	16.67465
582.402	16.12309
582.6	17.40725
582.797	15.93006
582.994	16.11747
583.191	16.61049
583.388	15.64104
583.586	16.40806
583.783	16.71157
583.98	15.02026
584.177	15.92577
584.374	13.96323
584.571	15.70568
584.768	15.72021
584.965	15.42241
585.162	16.53771
585.359	17.12549
585.556	15.89344
585.753	16.23019
585.95	14.90194
586.147	15.05429
586.344	16.26014
586.541	15.81229
586.738	14.93633
586.935	15.77161
587.132	15.61562
587.329	16.69348
587.526	16.02671
587.722	19.75508
587.919	14.9218
588.116	16.41271
588.313	16.99221
588.51	17.70344
588.706	15.8013
588.903	16.5436
589.1	16.90858
589.297	18.18818
589.493	16.21135
589.69	16.40896
589.887	15.70166
590.083	15.16627
590.28	15.58146
590.477	16.7666
590.673	16.59659
590.87	17.20826
591.067	15.55044
591.263	16.35738
591.46	16.25288
591.656	15.81973
591.853	17.27693
592.049	15.45208
592.246	15.62825
592.442	16.82242
592.639	17.32667
592.835	15.19524
593.032	16.41536
593.228	14.93482
593.425	15.21257
593.621	14.89905
593.817	16.36746
594.014	15.43012
594.21	16.34633
594.406	16.99411
594.603	16.64388
594.799	15.75031
594.995	14.57956
595.192	17.19599
595.388	15.96691
595.584	15.88473
595.78	15.27084
595.977	18.37566
596.173	17.60168
596.369	16.15101
596.565	15.66979
596.761	15.50444
596.957	17.33365
597.154	15.98254
597.35	16.13207
597.546	16.05335
597.742	16.83235
597.938	16.6471
598.134	15.88625
598.33	16.56503
598.526	17.2474
598.722	16.46507
598.918	17.66423
599.114	16.69841
599.31	15.16339
599.506	15.88241
599.702	15.53285
599.898	16.19565
600.094	16.78178
600.29	16.86102
600.485	16.97992
600.681	15.54799
600.877	17.63098
601.073	16.25805
601.269	17.91787
601.465	17.39788
601.66	15.4202
601.856	14.83087
602.052	18.14345
602.248	16.07954
602.443	14.84417
602.639	15.40297
602.835	15.74419
603.03	15.71966
603.226	17.20213
603.422	15.67206
603.617	16.38426
603.813	16.51203
604.009	16.20505
604.204	17.45139
604.4	15.6856
604.595	17.53652
604.791	15.96442
604.986	17.11603
605.182	16.07989
605.377	16.53279
605.573	16.46765
605.768	16.66681
605.964	17.08652
606.159	16.98405
606.355	17.23941
606.55	16.19137
606.746	17.20967
606.941	16.26712
607.136	17.94337
607.332	18.7827
607.527	15.47617
607.722	16.71835
607.918	16.16268
608.113	15.68275
608.308	17.27511
608.503	17.02411
608.699	17.01642
608.894	17.18911
609.089	16.26445
609.284	17.1197
609.479	16.70032
609.675	17.41725
609.87	16.75935
610.065	17.56475
610.26	17.66783
610.455	17.69376
610.65	16.84706
610.845	17.23171
611.04	17.75769
611.235	16.8654
611.43	16.89818
611.625	15.98456
611.82	18.25498
612.015	16.1577
612.21	18.35755
612.405	15.59077
612.6	18.335
612.795	18.34813
612.99	17.32899
613.185	15.85574
613.38	16.19692
613.575	16.62396
613.77	19.67464
613.965	15.15118
614.159	15.97885
614.354	17.82355
614.549	17.63792
614.744	17.25515
614.938	15.60572
615.133	15.28745
615.328	18.05119
615.523	17.94491
615.717	19.68149
615.912	16.09085
616.107	16.68158
616.301	16.47109
616.496	16.03908
616.691	18.19659
616.885	17.22095
617.08	19.869
617.274	17.69406
617.469	18.65129
617.664	17.60519
617.858	16.21477
618.053	17.09545
618.247	16.45592
618.442	14.56532
618.636	18.28829
618.831	16.10178
619.025	16.06199
619.219	19.73083
619.414	13.71872
619.608	16.30702
619.803	16.24627
619.997	19.10888
620.191	17.9316
620.386	16.89374
620.58	16.72009
620.774	14.73292
620.969	15.30085
621.163	16.77336
621.357	15.56683
621.551	16.6238
621.746	16.9729
621.94	16.3146
622.134	20.16829
622.328	18.79872
622.522	15.38283
622.716	17.96921
622.911	17.6287
623.105	17.89689
623.299	17.09348
623.493	19.97684
623.687	15.92109
623.881	16.22891
624.075	17.35131
624.269	18.28174
624.463	14.82433
624.657	15.25434
624.851	17.41369
625.045	17.54654
625.239	17.98841
625.433	16.68874
625.627	18.88072
625.821	16.44308
626.015	16.20499
626.209	17.20469
626.403	15.67166
626.596	17.60091
626.79	18.0345
626.984	16.176
627.178	17.81952
627.372	17.92302
627.565	18.14788
627.759	16.22356
627.953	16.35431
628.147	17.47391
628.34	17.97264
628.534	19.64839
628.728	17.0183
628.921	17.92092
629.115	17.71072
629.309	18.15389
629.502	18.41438
629.696	17.24452
629.89	17.12143
630.083	17.39059
630.277	17.29443
630.47	18.90326
630.664	16.66272
630.857	15.57306
631.051	18.13152
631.244	18.05025
631.438	18.02171
631.631	16.21537
631.825	18.53242
632.018	17.6771
632.212	19.21375
632.405	18.39241
632.598	16.07662
632.792	17.13256
632.985	14.7502
633.178	17.13559
633.372	16.78478
633.565	16.87592
633.758	18.535
633.952	16.27862
634.145	16.33594
634.338	16.64569
634.531	16.58299
634.724	16.24417
634.918	17.32963
635.111	16.75437
635.304	16.83332
635.497	19.90175
635.69	17.66184
635.883	18.56931
636.077	15.9504
636.27	17.60598
636.463	17.48967
636.656	17.27186
636.849	16.88663
637.042	17.79051
637.235	19.46155
637.428	18.01232
637.621	17.89104
637.814	19.11558
638.007	18.8791
638.2	18.70488
638.393	19.62368
638.586	15.50876
638.778	16.65192
638.971	16.89977
639.164	19.24565
639.357	17.67747
639.55	19.38221
639.743	18.28343
639.935	17.83386
640.128	20.35424
640.321	18.30682
640.514	17.44931
640.707	20.24105
640.899	18.25571
641.092	15.03428
641.285	32.58113
641.477	14.62885
641.67	20.95008
641.863	19.16006
642.055	17.69505
642.248	17.22682
642.441	17.17231
642.633	18.35209
642.826	19.07279
643.018	19.42625
643.211	20.40697
643.403	20.40713
643.596	20.73975
643.788	20.63456
643.981	17.18828
644.173	19.08325
644.366	16.94314
644.558	15.17287
644.751	19.19714
644.943	15.98314
645.135	19.91594
645.328	20.22508
645.52	18.57675
645.712	19.32352
645.905	22.07008
646.097	16.15152
646.289	17.95026
646.482	20.87811
646.674	16.69289
646.866	19.87585
647.058	18.70687
647.251	16.38425
647.443	16.83718
647.635	17.31139
647.827	16.27716
648.019	16.55847
648.211	17.471
648.404	17.85606
648.596	20.19452
648.788	18.466
648.98	18.14691
649.172	18.67119
649.364	18.28905
649.556	15.65239
649.748	22.13477
649.94	16.58921
650.132	19.21483
650.324	17.02811
650.516	16.96858
650.708	19.70585
650.9	16.0855
651.092	17.41834
651.284	15.85793
651.476	16.44624
651.667	19.28128
651.859	20.27383
652.051	18.07619
652.243	18.33235
652.435	17.67847
652.627	18.93835
652.818	19.05113
653.01	16.13649
653.202	16.86814
653.394	17.45373
653.585	18.79783
653.777	25.01571
653.969	20.5511
654.16	20.34389
654.352	16.63092
654.544	17.99178
654.735	19.99277
654.927	18.3182
655.118	20.68546
655.31	19.32901
655.502	20.00299
655.693	17.97098
655.885	18.89153
656.076	20.43999
656.268	18.67069
656.459	20.94352
656.651	20.54806
656.842	17.89705
657.034	17.13654
657.225	19.98603
657.416	20.80386
657.608	20.69101
657.799	18.61468
657.99	21.06449
658.182	17.98297
658.373	17.84385
658.564	20.91085
658.756	19.83508
658.947	18.78877
659.138	17.66403
659.33	18.51995
659.521	18.21184
659.712	19.18506
659.903	18.73147
660.094	18.27665
660.286	17.00242
660.477	21.8851
660.668	19.76543
660.859	18.81371
661.05	16.48085
661.241	19.22402
661.432	19.44053
661.623	18.50506
661.814	18.18583
662.006	16.34171
662.197	19.2752
662.388	20.49819
662.579	19.36247
662.77	20.81944
662.96	23.30569
663.151	20.4256
663.342	15.78401
663.533	19.9897
663.724	19.05115
663.915	21.97008
664.106	18.81974
664.297	22.10338
664.488	20.11355
664.678	17.60045
664.869	20.38161
665.06	20.15666
665.251	19.55716
665.442	20.25219
665.632	17.00329
665.823	22.83908
666.014	14.17443
666.204	20.36596
666.395	21.3699
666.586	23.37741
666.776	20.59492
666.967	23.03518
667.158	19.58908
667.348	21.78655
667.539	17.35014
667.729	21.25532
667.92	18.09819
668.111	21.0657
668.301	20.41298
668.492	19.13788
668.682	19.77353
668.873	19.08253
669.063	17.33304
669.253	20.25295
669.444	22.33439
669.634	19.79819
669.825	22.69154
670.015	21.89446
670.206	18.20659
670.396	23.61961
670.586	19.07431
670.777	20.4082
670.967	16.2098
671.157	19.04673
671.347	18.34009
671.538	22.52008
671.728	20.67897
671.918	23.86506
672.108	21.19714
672.299	19.289
672.489	19.93841
672.679	18.16065
672.869	20.5555
673.059	24.66053
673.249	20.3656
673.44	17.90985
673.63	19.34921
673.82	21.66673
674.01	18.01151
674.2	20.48793
674.39	25.47755
674.58	21.18322
674.77	19.9992
674.96	19.15286
675.15	28.1818
675.34	21.91653
675.53	19.94856
675.72	19.20907
675.91	16.89257
676.099	24.32806
676.289	24.90427
676.479	22.38486
676.669	19.06021
676.859	21.03494
677.049	18.46782
677.238	19.84451
677.428	23.46054
677.618	21.29664
677.808	24.57083
677.997	21.68161
678.187	18.2398
678.377	20.19285
678.567	19.35075
678.756	19.49301
678.946	20.44873
679.136	18.09848
679.325	19.49715
679.515	18.97438
679.704	18.31447
679.894	22.63007
680.084	21.49886
680.273	23.05693
680.463	19.29908
680.652	19.20049
680.842	20.60625
681.031	23.041
681.221	19.25072
681.41	22.09911
681.6	20.49031
681.789	22.22726
681.978	23.10462
682.168	21.27664
682.357	20.98734
682.547	21.85213
682.736	21.53915
682.925	23.856
683.115	23.49128
683.304	22.3208
683.493	21.27578
683.682	22.31016
683.872	21.88515
684.061	23.53188
684.25	22.07534
684.439	26.49899
684.629	22.88224
684.818	28.77964
685.007	21.77627
685.196	20.81322
685.385	25.67828
685.574	21.97585
685.763	22.34985
685.952	22.06038
686.142	19.69755
686.331	24.72782
686.52	18.20898
686.709	26.37888
686.898	25.96589
687.087	23.60902
687.276	25.76891
687.465	24.72744
687.654	21.77834
687.842	25.37793
688.031	19.78147
688.22	25.56159
688.409	22.70952
688.598	22.72629
688.787	28.34549
688.976	22.46802
689.165	26.79735
689.353	21.39518
689.542	23.66918
689.731	24.72906
689.92	27.67528
690.108	24.08047
690.297	21.52068
690.486	22.34137
690.675	23.97469
690.863	26.37745
691.052	25.81383
691.241	23.17824
691.429	23.42222
691.618	26.25603
691.806	19.91493
691.995	21.99616
692.184	22.63049
692.372	22.04597
692.561	23.19094
692.749	23.37429
692.938	31.81851
693.126	24.14721
693.315	22.03908
693.503	24.66129
693.692	25.6921
693.88	25.309
694.068	28.20832
694.257	23.93181
694.445	25.22755
694.634	18.2141
694.822	25.20171
695.01	26.93574
695.199	29.04811
695.387	27.27996
695.575	26.57305
695.763	22.55407
695.952	22.4193
696.14	20.08948
696.328	22.03557
696.516	23.27048
696.705	24.62161
696.893	24.19273
697.081	19.34629
697.269	25.74711
697.457	21.04565
697.645	20.51351
697.833	25.51207
698.021	21.56193
698.21	22.67138
698.398	23.11795
698.586	21.2628
698.774	20.89733
698.962	23.51588
699.15	21.28236
699.338	20.10674
699.526	24.74908
699.714	21.89631
699.901	21.85361
700.089	25.25605
700.277	21.8113
700.465	23.3031
700.653	25.02982
700.841	23.78962
701.029	21.5203
701.217	27.7469
701.404	23.59531
701.592	27.71672
701.78	29.97927
701.968	23.3891
702.155	23.30494
702.343	20.18012
702.531	27.86807
702.718	24.60369
702.906	22.25178
703.094	22.54207
703.281	27.292
703.469	24.20722
703.657	27.02132
703.844	33.82362
704.032	29.981
704.219	23.27693
704.407	25.75022
704.595	28.59178
704.782	25.95373
704.97	24.42344
705.157	24.53787
705.345	30.98801
705.532	36.07738
705.719	28.18507
705.907	31.43767
706.094	28.258
706.282	34.36046
706.469	28.06073
706.656	29.6475
706.844	28.08746
707.031	32.52695
707.218	31.15668
707.406	34.88352
707.593	32.2994
707.78	32.61217
707.968	30.62372
708.155	28.9208
708.342	32.58699
708.529	33.62285
708.716	32.07912
708.904	35.65238
709.091	32.88859
709.278	28.08818
709.465	37.75777
709.652	35.62548
709.839	34.98443
710.026	30.46023
710.213	25.16217
710.4	31.34952
710.587	31.84964
710.774	33.49296
710.961	34.10411
711.148	30.88957
711.335	33.15398
711.522	29.33144
711.709	32.09914
711.896	37.04998
712.083	33.944
712.27	27.79202
712.457	31.68453
712.644	25.91214
712.831	37.83805
713.017	31.09541
713.204	33.26775
713.391	28.19866
713.578	33.43332
713.765	34.7638
713.951	31.21911
714.138	39.95292
714.325	29.72907
714.512	28.7101
714.698	25.64098
714.885	32.93973
715.072	28.39797
715.258	28.0616
715.445	25.89981
715.631	31.7371
715.818	18.97026
716.005	25.56259
716.191	29.61969
716.378	26.4638
716.564	30.12538
716.751	24.11913
716.937	25.9078
717.124	30.3213
717.31	24.49067
717.497	34.66188
717.683	24.9269
717.869	34.90598
718.056	25.36663
718.242	28.88939
718.429	26.42622
718.615	23.59604
718.801	27.44852
718.988	31.45004
719.174	28.8319
719.36	26.17987
719.547	31.70545
719.733	28.2856
719.919	29.2099
720.105	29.33649
720.291	27.61938
720.478	28.53902
720.664	27.84048
720.85	25.69998
721.036	38.54393
721.222	33.78304
721.408	27.93893
721.595	34.53746
721.781	33.59823
721.967	32.30931
722.153	34.37118
722.339	29.60217
722.525	29.3545
722.711	23.69897
722.897	23.08858
723.083	26.91587
723.269	32.68318
723.455	39.99966
723.641	45.91007
723.827	28.41651
724.012	30.27558
724.198	28.29572
724.384	34.68145
724.57	30.00038
724.756	22.47209
724.942	21.87111
725.127	33.65313
725.313	33.89025
725.499	33.04483
725.685	36.69792
725.87	29.93204
726.056	25.32783
726.242	34.44547
726.428	22.73506
726.613	32.57005
726.799	27.00578
726.985	24.48819
727.17	22.33205
727.356	37.78529
727.541	25.23719
727.727	28.25139
727.913	31.52522
728.098	26.84927
728.284	31.92601
728.469	24.52786
728.655	26.27176
728.84	33.27329
729.026	32.35474
729.211	32.01472
729.397	30.90798
729.582	32.17352
729.767	28.83305
729.953	30.61231
730.138	34.75725
730.323	20.33847
730.509	24.56368
730.694	37.24029
730.879	31.69641
731.065	30.67778
731.25	39.54064
731.435	31.86492
731.621	24.03805
731.806	26.73781
731.991	30.32922
732.176	23.98501
732.361	36.75966
732.547	30.80826
732.732	23.74359
732.917	39.41308
733.102	24.02402
733.287	27.1542
733.472	28.94997
733.657	28.63574
733.842	23.73089
734.027	25.88188
734.212	28.35383
734.397	26.76138
734.582	29.56368
734.767	33.41244
734.952	36.40875
735.137	18.91704
735.322	35.4899
735.507	32.03166
735.692	30.52664
735.877	39.35502
736.062	38.26187
736.247	32.18368
736.431	29.8531
736.616	35.14598
736.801	31.62275
736.986	30.11765
737.171	25.5275
737.355	24.85476
737.54	36.65782
737.725	30.75766
737.909	42.76423
738.094	27.39486
738.279	34.0921
738.463	28.94538
738.648	32.04522
738.833	31.68037
739.017	40.21968
739.202	28.46192
739.386	28.5528
739.571	25.9506
739.756	34.37626
739.94	30.38907
740.125	32.18936
740.309	26.39393
740.494	33.69734
740.678	31.00181
740.863	33.60385
741.047	30.49859
741.231	37.41365
741.416	27.61464
741.6	38.32242
741.785	26.14197
741.969	34.66345
742.153	37.82823
742.338	21.55602
742.522	30.18477
742.706	34.24226
742.89	24.16672
743.075	31.10684
743.259	36.89198
743.443	36.97262
743.627	37.37782
743.812	41.98687
743.996	23.12068
744.18	28.95332
744.364	28.17947
744.548	43.29304
744.732	29.32166
744.916	36.28132
745.1	34.20796
745.285	29.92854
745.469	34.25837
745.653	38.55246
745.837	25.35839
746.021	43.81878
746.205	38.09783
746.389	31.61431
746.573	30.40201
746.757	39.3101
746.94	29.44554
747.124	37.93139
747.308	25.39743
747.492	37.3038
747.676	26.79378
747.86	45.6488
748.044	29.2261
748.227	23.3848
748.411	53.329
748.595	31.46232
748.779	27.36053
748.963	33.59357
749.146	32.59256
749.33	27.90319
749.514	26.37761
749.697	37.97748
749.881	26.94625
750.065	26.34647
750.248	32.62897
750.432	45.05653
750.616	31.28022
750.799	25.64896
750.983	45.95926
751.166	45.77742
751.35	24.00088
751.533	38.42869
751.717	41.05752
751.9	40.43619
752.084	30.16948
752.267	27.65238
752.451	28.38115
752.634	32.02132
752.818	34.20412
753.001	36.32555
753.184	38.70302
753.368	35.43333
753.551	15.12026
753.734	26.7625
753.918	45.53799
754.101	28.82165
754.284	35.70034
754.467	29.67716
754.651	28.66678
754.834	27.7976
755.017	38.73774
755.2	38.85576
755.384	26.44897
755.567	37.09244
755.75	37.81391
755.933	30.41257
756.116	37.73407
756.299	28.88676
756.482	27.77924
756.665	35.94728
756.848	31.47412
757.032	34.38572
757.215	24.90702
757.398	26.63152
757.581	27.01259
757.764	50.10299
757.947	32.58595
758.129	37.1018
758.312	17.12912
758.495	30.89029
758.678	31.88711
758.861	30.02072
759.044	43.33794
759.227	26.13378
759.41	27.19605
759.592	36.34441
759.775	31.33083
759.958	37.67191
760.141	25.32629
760.324	47.31077
760.506	41.74137
760.689	37.73837
760.872	46.06249
761.054	34.82515
761.237	32.44036
761.42	33.57247
761.602	37.85271
761.785	33.18908
761.968	41.08456
762.15	44.10026
762.333	33.4561
762.515	35.36064
762.698	29.82687
762.88	37.65579
763.063	35.46104
763.245	39.68965
763.428	28.78835
763.61	30.60813
763.793	27.03785
763.975	34.83376
764.158	31.31377
764.34	29.40553
764.522	28.18402
764.705	32.16859
764.887	41.91455
765.069	24.1852
765.252	36.16245
765.434	37.92434
765.616	33.44914
765.799	28.49091
765.981	37.22769
766.163	28.49235
766.345	41.95748
766.528	28.46342
766.71	20.87092
766.892	34.702
767.074	41.05179
767.256	31.56256
767.438	43.88333
767.62	34.86202
767.802	47.98006
767.985	38.2137
768.167	45.18674
768.349	29.93489
768.531	36.28591
768.713	35.0185
768.895	38.55551
769.077	36.57094
769.259	50.33145
769.441	66.80662
769.623	39.54832
769.804	43.72222
769.986	40.47028
770.168	49.22842
770.35	60.11303
770.532	46.40027
770.714	49.11547
770.896	48.48756
771.077	24.90709
771.259	52.84332
771.441	45.01967
771.623	55.21781
771.804	64.09727
771.986	28.59838
772.168	37.64896
772.35	50.62531
772.531	68.15072
772.713	45.0189
772.894	57.45589
773.076	42.68731
773.258	39.06748
773.439	58.03583
773.621	63.98432
773.802	35.26621
773.984	39.46443
774.166	46.3906
774.347	59.77465
774.529	55.73999
774.71	27.57934
774.891	43.44982
775.073	38.76121
775.254	59.16783
775.436	37.91206
775.617	67.10602
775.799	39.6648
775.98	56.61521
776.161	64.43929
776.343	65.96476
776.524	43.72608
776.705	41.76177
776.886	27.05286
777.068	48.64052
777.249	92.22155
777.43	67.37344
777.611	32.19494
777.793	41.50724
777.974	63.76311
778.155	38.41631
778.336	36.00902
778.517	73.06173
778.698	36.11665
778.879	26.11723
779.061	18.64035
779.242	48.89551
779.423	50.66648
779.604	40.67478
779.785	41.39913
779.966	47.85236
780.147	57.63526
780.328	57.68998
780.509	76.00033
780.69	55.26994
780.871	38.37165
781.051	30.93348
781.232	46.98359
781.413	45.40526
781.594	39.9169
781.775	40.5101
781.956	37.11103
782.137	24.56887
782.317	38.94232
782.498	46.1608
782.679	46.69301
782.86	48.15724
783.04	37.33431
783.221	47.80999
783.402	67.55647
783.583	45.85868
783.763	54.40946
783.944	41.4035
784.124	31.62401
784.305	65.76384
784.486	52.07708
784.666	45.37499
784.847	30.95537
785.027	86.84564
785.208	38.04825
785.388	37.17293
785.569	37.144
785.749	42.73827
785.93	39.68751
786.11	30.51831
786.291	51.85221
786.471	47.867
786.652	55.29223
786.832	42.54396
787.012	48.13888
787.193	32.54333
787.373	46.43857
787.553	41.37914
787.734	46.61066
787.914	40.68424
788.094	57.00576
788.275	48.83241
788.455	41.66699
788.635	32.96532
788.815	47.55144
788.995	33.84127
789.176	29.01743
789.356	36.76902
789.536	42.72399
789.716	50.29536
789.896	36.97842
790.076	38.39016
790.256	49.5368
790.436	23.64933
790.616	35.29603
790.796	47.88279
790.976	40.49416
791.156	37.28436
791.336	51.15833
791.516	48.56546
791.696	41.80094
791.876	30.88885
792.056	46.7214
792.236	55.84678
792.416	53.61453
792.596	48.50649
792.776	48.50939
792.956	54.79532
793.135	64.94018
793.315	33.86325
793.495	57.40777
793.675	53.30181
793.854	52.57446
794.034	57.11544
794.214	34.38496
794.394	54.7597
794.573	59.08697
794.753	46.69934
794.933	35.52257
795.112	46.64736
795.292	57.27967
795.472	65.6786
795.651	31.87795
795.831	43.43996
796.01	41.55893
796.19	42.79706
796.369	45.27968
796.549	50.38193
796.728	43.71498
796.908	30.92929
797.087	33.51516
797.267	41.74951
797.446	34.22357
797.626	51.55062
797.805	49.87233
797.984	35.7649
798.164	55.1428
798.343	37.70026
798.522	47.9395
798.702	47.04259
798.881	31.95728
799.06	42.30235
799.239	25.75479
799.419	34.84561
799.598	65.62874
799.777	49.26068
799.956	58.46546
800.136	41.21738
800.315	35.53293
800.494	49.11441
800.673	57.75248
800.852	53.98793
801.031	58.40465
801.21	52.21965
801.389	41.69469
801.568	46.66475
801.747	68.55982
801.926	45.42457
802.105	63.06822
802.284	39.93214
802.463	64.80259
802.642	49.23989
802.821	48.20305
803	62.77293
803.179	56.11395
803.358	56.87256
803.537	39.58495
803.716	44.92434
803.895	39.00904
804.073	43.91411
804.252	37.10487
804.431	49.66006
804.61	43.29221
804.789	54.99812
804.967	39.85732
805.146	40.26673
805.325	74.73415
805.503	50.25896
805.682	30.72791
805.861	89.2021
806.039	62.79578
806.218	41.39558
806.397	49.02453
806.575	45.12004
806.754	50.05619
806.932	34.5005
807.111	56.95861
807.289	56.62844
807.468	47.23564
807.646	58.01957
807.825	55.02713
808.003	46.03757
808.182	59.61386
808.36	46.19132
808.539	37.39351
808.717	65.47942
808.895	38.43763
809.074	50.09298
809.252	45.51024
809.43	54.10303
809.609	61.97397
809.787	63.88298
809.965	41.52653
810.144	47.41155
810.322	45.44979
810.5	51.80854
810.678	40.53866
810.856	75.26317
811.035	60.17413
811.213	56.03046
811.391	64.44629
811.569	53.04181
811.747	97.45496
811.925	61.04788
812.103	38.12979
812.281	48.42036
812.459	71.28909
812.637	69.29343
812.816	60.40323
812.994	75.91785
813.171	67.08518
813.349	53.66729
813.527	59.6879
813.705	64.42668
813.883	82.43069
814.061	59.35496
814.239	70.31464
814.417	76.34997
814.595	54.96722
814.773	53.01898
814.95	50.2502
815.128	53.00505
815.306	51.38532
815.484	48.42476
815.662	37.60488
815.839	35.42121
816.017	41.72508
816.195	62.3946
816.372	41.81235
816.55	59.92846
816.728	72.72397
816.905	44.29665
817.083	69.17969
817.261	48.84674
817.438	92.5143
817.616	73.07333
817.793	42.24599
817.971	60.36785
818.148	59.01764
818.326	64.84443
818.503	51.63164
818.681	71.16727
818.858	44.6515
819.036	48.10507
819.213	53.00207
819.391	41.72623
819.568	41.99559
819.745	37.22832
819.923	58.40947
820.1	45.94316
820.277	39.33755
820.455	45.10445
820.632	47.3894
820.809	50.37433
820.986	36.70646
821.164	32.23193
821.341	30.09547
821.518	41.00299
821.695	32.42185
821.872	31.55384
822.05	28.85156
822.227	26.35586
822.404	27.36476
822.581	29.73481
822.758	27.47604
822.935	27.73005
823.112	29.38265
823.289	27.07604
823.466	29.68792
823.643	28.44303
823.82	31.83876
823.997	29.6432
824.174	32.35427
824.351	37.86672
824.528	36.04368
824.705	34.20108
824.882	36.42031
825.059	42.88208
825.236	34.083
825.412	35.27352
825.589	39.44784
825.766	50.9892
825.943	36.83037
826.12	39.86411
826.296	32.06814
826.473	37.84812
826.65	39.10726
826.827	42.55556
827.003	33.31708
827.18	35.35168
827.357	38.22386
827.533	34.86548
827.71	25.18058
827.887	32.0067
828.063	34.75033
828.24	31.41083
828.416	37.96268
828.593	33.06304
828.769	41.05018
828.946	42.55414
829.122	43.13326
829.299	42.24716
829.475	31.63164
829.652	41.59693
829.828	61.47378
830.005	42.11233
830.181	55.38457
830.357	43.37121
830.534	55.88764
830.71	44.98335
830.886	55.00758
831.063	56.30308
831.239	64.45618
831.415	36.81852
831.592	67.36505
831.768	46.19633
831.944	40.95636
832.12	71.70719
832.296	69.4966
832.473	56.87963
832.649	43.64732
832.825	58.32235
833.001	39.9097
833.177	52.68437
833.353	48.7738
833.529	33.46598
833.705	45.32571
833.881	33.84745
834.058	33.48236
834.234	35.8635
834.41	35.94319
834.586	30.16
834.761	33.93048
834.937	36.57425
835.113	37.35809
835.289	32.61772
835.465	37.93792
835.641	35.26113
835.817	37.34247
835.993	55.92905
836.169	36.64929
836.344	46.66152
836.52	51.96501
836.696	47.79785
836.872	41.8296
837.048	92.70082
837.223	45.79443
837.399	73.39758
837.575	62.2169
837.75	57.05053
837.926	78.45482
838.102	105.27485
838.277	87.38905
838.453	117.82923
838.628	116.80085
838.804	52.54175
838.98	103.71991
839.155	61.01051
839.331	77.35087
839.506	56.27761
839.682	59.06232
839.857	78.54639
840.033	88.35868
840.208	46.91423
840.384	32.1635
840.559	50.55091
840.734	66.13118
840.91	83.71137
841.085	55.10516
841.26	55.43323
841.436	52.58968
841.611	50.08436
841.786	71.61275
841.962	89.9311
842.137	59.55059
842.312	40.68947
842.487	54.24196
842.663	48.10513
842.838	59.84596
843.013	153.65245
843.188	82.27087
843.363	82.31187
843.538	128.31742
843.714	130.8655
843.889	134.86937
844.064	147.96067
844.239	117.71865
844.414	131.73151
844.589	92.77036
844.764	161.13664
844.939	160.20196
845.114	173.74338
845.289	168.41428
845.464	220.72998
845.639	154.80499
845.814	78.35145
845.989	94.64726
846.163	119.5977
846.338	119.1667
846.513	158.9435
846.688	106.68832
846.863	112.34088
847.038	99.98822
847.212	113.85049
847.387	116.94036
847.562	121.60156
847.737	151.12943
847.911	61.08463
848.086	72.6465
848.261	235.84881
848.435	104.4777
848.61	151.45464
848.785	85.75627
848.959	159.556
849.134	213.00139
849.308	219.62786
849.483	121.45582
849.658	185.61632
849.832	101.03679
850.007	94.21524
850.181	242.71605
850.356	107.73578
850.53	232.71156
850.705	82.508
850.879	54.1174
851.053	115.98099
851.228	104.6772
851.402	130.62168
851.577	170.57828
851.751	185.38108
851.925	128.31859
852.099	65.48134
852.274	91.15426
852.448	116.71627
852.622	147.95534
852.797	117.71684
852.971	112.56711
853.145	129.36738
853.319	349.85492
853.493	179.04897
853.668	104.7502
853.842	213.04737
854.016	173.2645
854.19	200.90679
854.364	130.33604
854.538	140.14335
854.712	180.07497
854.886	114.6832
855.06	106.45779
855.234	53.41224
855.408	195.89176
855.582	161.24483
855.756	166.22156
855.93	210.19607
856.104	148.67242
856.278	169.13139
856.452	125.01419
856.626	161.47409
856.8	260.08257
856.973	149.86066
857.147	145.48079
857.321	149.2151
857.495	179.4663
857.669	117.33841
857.842	110.22612
858.016	177.02116
858.19	100.0621
858.364	274.29477
858.537	108.28493
858.711	129.18222
858.885	119.94508
859.058	103.94658
859.232	65.03255
859.405	75.87893
859.579	166.53635
859.753	143.14645
859.926	100.05236
860.1	73.14372
860.273	129.41556
860.447	202.12248
860.62	120.23254
860.794	244.74676
860.967	143.77858
861.141	183.54861
861.314	251.50991
861.487	154.82757
861.661	204.93794
861.834	200.49588
862.008	167.95027
862.181	132.0302
862.354	134.06837
862.528	158.4876
862.701	106.64261
862.874	79.4637
863.047	115.23698
863.221	118.94211
863.394	64.45476
863.567	208.40693
863.74	55.193
863.913	167.30971
864.087	146.08824
864.26	168.77674
864.433	132.0173
864.606	222.91173
864.779	137.14534
864.952	72.53325
865.125	110.30111
865.298	121.11451
865.471	131.36311
865.644	255.21213
865.817	205.79242
865.99	170.29769
866.163	189.93694
866.336	111.94574
866.509	130.32575
866.682	109.95282
866.855	187.5301
867.028	85.20857
867.2	159.72845
867.373	63.45043
867.546	140.87293
867.719	258.53295
867.892	167.98557
868.064	93.38684
868.237	150.18492
868.41	132.84892
868.583	78.02974
868.755	81.61487
868.928	131.73625
869.101	262.6713
869.273	190.0832
869.446	154.73843
869.619	189.73323
869.791	129.88382
869.964	179.79558
870.136	171.34634
870.309	139.34669
870.481	144.93148
870.654	76.60353
870.826	147.19305
870.999	116.27172
871.171	176.06794
871.344	109.83213
871.516	123.35546
871.689	101.21821
871.861	136.36121
872.033	100.61032
872.206	118.74573
872.378	188.2629
872.55	116.84933
872.723	85.87232
872.895	119.04686
873.067	189.61434
873.24	204.20791
873.412	112.52683
873.584	118.84426
873.756	115.64846
873.928	158.11546
874.101	157.19095
874.273	164.26642
874.445	59.60435
874.617	77.95766
874.789	147.1955
874.961	115.51898
875.133	157.79436
875.305	140.25413
875.477	92.75812
875.649	80.1277
875.821	99.99846
875.993	227.11214
876.165	96.57337
876.337	150.35695
876.509	120.57963
876.681	146.17186
876.853	145.63823
877.025	147.52788
877.197	98.20714
877.369	94.23685
877.541	179.64408
877.712	59.1001
877.884	91.08728
878.056	165.78534
878.228	91.59848
878.4	153.28621
878.571	92.76666
878.743	71.76406
878.915	146.9297
879.086	88.25938
879.258	112.02301
879.43	99.67603
879.601	89.26598
879.773	92.06273
879.945	32.08437
880.116	46.56468
880.288	34.62142
880.459	36.0101
880.631	30.47672
880.802	34.87424
880.974	34.11084
881.145	27.73666
881.317	33.07822
881.488	28.5825
881.66	30.75335
881.831	29.11715
882.002	36.00898
882.174	29.8286
882.345	34.10692
882.517	24.86006
882.688	37.12397
882.859	34.18925
883.03	46.04339
883.202	44.23622
883.373	39.59172
883.544	39.81961
883.715	59.82095
883.887	52.52067
884.058	46.01391
884.229	62.30357
884.4	61.52749
884.571	68.8387
884.742	63.37784
884.914	64.84036
885.085	86.24627
885.256	105.65237
885.427	88.94914
885.598	103.18619
885.769	107.8951
885.94	104.51648
886.111	73.18636
886.282	119.81684
886.453	98.70298
886.624	75.00389
886.795	115.87273
886.966	98.81859
887.136	129.60326
887.307	91.68655
887.478	159.97443
887.649	141.30755
887.82	143.90085
887.991	114.90462
888.161	158.13145
888.332	148.14826
888.503	87.32897
888.674	200.94834
888.844	207.31942
889.015	164.11517
889.186	87.19203
889.356	199.20419
889.527	81.57298
889.698	344.68341
889.868	119.55409
890.039	145.65042
890.209	132.71211
890.38	179.1658
890.551	142.94286
890.721	206.83391
890.892	170.22787
891.062	125.45945
891.233	156.17301
891.403	122.31594
891.574	95.63033
891.744	125.9794
891.914	157.01079
892.085	133.70187
892.255	47.26213
892.425	201.87062
892.596	157.50453
892.766	155.75874
892.936	200.30141
893.107	175.68619
893.277	102.89164
893.447	82.90582
893.618	62.74905
893.788	119.65449
893.958	71.91352
894.128	69.65599
894.298	75.20218
894.468	103.04449
894.639	53.49907
894.809	40.16521
894.979	56.95669
895.149	67.3836
895.319	54.98183
895.489	70.92529
895.659	86.28209
895.829	63.51523
895.999	67.71307
896.169	51.21567
896.339	63.18941
896.509	116.25866
896.679	133.05762
896.849	126.40645
897.019	165.56396
897.189	139.40065
897.358	116.27994
897.528	171.48238
897.698	66.72868
897.868	160.63162
898.038	268.82538
898.208	241.56806
898.377	87.38913
898.547	246.84834
898.717	393.46992
898.886	168.45261
899.056	253.96016
899.226	361.39148
899.395	232.26404
899.565	289.89973
899.735	186.71456
899.904	316.75366
900.074	264.70649
900.244	132.1245
900.413	465.90051
900.583	111.70414
900.752	181.074
900.922	291.04681
901.091	43.91616
901.261	247.05397
901.43	243.83882
901.599	240.12887
901.769	523.61213
901.938	281.88948
902.108	277.58668
902.277	349.55128
902.446	101.77244
902.616	113.26377
902.785	170.76453
902.954	274.24335
903.124	191.96368
903.293	158.27916
903.462	94.67987
903.631	119.12882
903.801	91.59375
903.97	50.56799
904.139	85.08901
904.308	63.32051
904.477	56.85307
904.646	37.96017
904.816	54.41233
904.985	71.21412
905.154	102.8678
