Data from WindowProjectSample3_Transmission__28__00028.txt Node

Date: Sun May 04 10:27:56 EDT 2025
User: jessi
Spectrometer: SR400872
Trigger mode: 0
Integration Time (sec): 5.000050E-1
Scans to average: 20
Electric dark correction enabled: true
Nonlinearity correction enabled: true
Boxcar width: 0
XAxis mode: Wavelengths
Number of Pixels in Spectrum: 3648
>>>>>Begin Spectral Data<<<<<
184.909	-1611.22932
185.132	-1269.85623
185.355	-1280.45898
185.578	-1075.84982
185.801	-3581.43222
186.024	-1056.38929
186.247	-1491.11776
186.47	-2747.2163
186.693	-221.53539
186.916	-296.61085
187.139	-1006.25696
187.362	-1786.64903
187.585	-967.20135
187.808	-827.12001
188.031	-173498.1609
188.254	-1258.52367
188.476	-1056.91175
188.699	-1095.63596
188.922	527.82099
189.145	-1219.74164
189.368	-1075.55727
189.591	-3313.09121
189.813	-712.74756
190.036	-1272.84808
190.259	-3063.77972
190.482	-1618.72392
190.705	-1709.13363
190.927	-994.27895
191.15	-1662.94935
191.373	-2196.91454
191.595	-2472.97894
191.818	-1215.6399
192.041	-17190.9364
192.263	-1523.99598
192.486	-454.68409
192.709	-1704.31467
192.931	-4114.45813
193.154	-1191.92484
193.377	-1183.92795
193.599	12705.47849
193.822	-799.31584
194.044	-3897.52103
194.267	-4292.86288
194.489	79.03481
194.712	-1705.89198
194.934	-1625.43965
195.157	-1024.62733
195.379	-790.29478
195.602	-804.36491
195.824	-989.59537
196.047	-868.31201
196.269	-1058.64223
196.492	-1046.19645
196.714	-1019.42574
196.936	-1501.93998
197.159	-928.92141
197.381	-870.01309
197.604	-1220.45146
197.826	-1872.9426
198.048	-1565.64592
198.271	-1251.99345
198.493	-1035.92525
198.715	-840.01428
198.938	-6165.73303
199.16	-1159.60522
199.382	-916.47945
199.604	-10024.39228
199.827	-1600.83363
200.049	-941.09128
200.271	-926.71537
200.493	-2252.52499
200.715	-913.80324
200.938	-767.82873
201.16	-1301.75214
201.382	-2626.74715
201.604	-1253.24185
201.826	-1170.71595
202.048	-570.6387
202.27	-869.56343
202.492	-1971.40689
202.715	-1911.2263
202.937	-2378.81216
203.159	-1164.02115
203.381	-1668.73912
203.603	-1338.87351
203.825	4463.49459
204.047	-1121.30096
204.269	-3188.31335
204.491	-1456.31863
204.713	-769.40177
204.935	-1259.71508
205.156	-1290.8067
205.378	-3895.74792
205.6	-876.41586
205.822	-1111.71523
206.044	2777.35167
206.266	-1286.5805
206.488	-775.07543
206.71	-1891.69966
206.932	-2392.9847
207.153	-1176.12809
207.375	-901.55512
207.597	-1097.86383
207.819	-874.95163
208.041	-1299.44541
208.262	-1120.00091
208.484	-1907.76148
208.706	-896.9527
208.927	-830.79511
209.149	-2312.70761
209.371	-816.40661
209.593	-652.9582
209.814	-628.1478
210.036	-790.08617
210.258	-559.45329
210.479	-1354.02101
210.701	11709.49922
210.922	-862.59681
211.144	-829.70541
211.366	-1963.4343
211.587	10282.00138
211.809	-990.3269
212.03	-3186.26774
212.252	1648.43331
212.473	-1147.79805
212.695	-4586.63746
212.916	-2962.28091
213.138	-6088.57764
213.359	-998.2391
213.581	-1579.31469
213.802	-1061.16672
214.024	-1320.11893
214.245	-11398.16496
214.466	-543.41771
214.688	-1312.9112
214.909	-1575.00595
215.131	-1961.15388
215.352	-1009.56895
215.573	-1201.19352
215.795	-3127.42622
216.016	-1166.1389
216.237	-4520.40245
216.459	-14189.51707
216.68	-1689.21831
216.901	-1421.36474
217.122	-3386.47951
217.344	-1207.40807
217.565	-1572.72486
217.786	-1478.94215
218.007	-1351.0267
218.228	-4997.33956
218.45	-1099.8474
218.671	-1428.00281
218.892	-1696.29847
219.113	-2458.34654
219.334	-110.3028
219.555	-1188.40066
219.776	-857.88031
219.997	-1406.02093
220.219	-2847.31694
220.44	-1044.95299
220.661	-857.14449
220.882	-984.42265
221.103	-2962.58493
221.324	5940.10212
221.545	-1912.82382
221.766	-1368.20729
221.987	-2311.77713
222.208	-2853.29824
222.429	-934.74613
222.65	-1847.38897
222.87	5232.93046
223.091	-8596.62568
223.312	4161.45129
223.533	-1685.30572
223.754	-1658.47964
223.975	-2454.33227
224.196	155256.69369
224.417	-10180.93456
224.637	2229.89692
224.858	219.97619
225.079	-7194.40007
225.3	2398.39848
225.521	-865.70299
225.741	8376.53614
225.962	6558.17609
226.183	298.44341
226.404	9094.76511
226.624	1690.09832
226.845	7850.92256
227.066	1716.78672
227.286	741.69208
227.507	253.88869
227.728	276.7772
227.948	500.08068
228.169	148.76345
228.389	155.50184
228.61	83.95348
228.831	117.31542
229.051	9.77086
229.272	69.8958
229.492	106.54213
229.713	28.43179
229.933	72.91221
230.154	62.61945
230.374	105.79556
230.595	73.89884
230.815	46.75599
231.036	77.28989
231.256	-15.82782
231.477	142.80867
231.697	87.94465
231.917	85.64159
232.138	118.3234
232.358	257.63167
232.579	207.23226
232.799	34.5911
233.019	197.26499
233.24	234.31953
233.46	77.21548
233.68	133.54373
233.901	79.14153
234.121	58.21071
234.341	18.49485
234.561	-10.94289
234.782	36.11727
235.002	136.34681
235.222	0.41624
235.442	127.51217
235.662	59.22042
235.883	119.84161
236.103	91.77128
236.323	71.46053
236.543	55.01045
236.763	84.59849
236.983	80.07023
237.203	78.17721
237.423	120.34873
237.643	187.08402
237.864	146.46077
238.084	37.06158
238.304	47.66167
238.524	89.32639
238.744	73.99182
238.964	134.85572
239.184	116.31785
239.404	119.19945
239.624	62.8059
239.843	104.55849
240.063	64.17586
240.283	40.80896
240.503	44.98728
240.723	43.89259
240.943	26.70357
241.163	33.3847
241.383	23.7033
241.603	12.19754
241.822	14.19545
242.042	11.03677
242.262	13.85179
242.482	15.20239
242.702	17.28021
242.921	5.54477
243.141	11.7483
243.361	10.82695
243.581	16.39189
243.8	13.97138
244.02	8.75674
244.24	16.50933
244.459	15.59404
244.679	32.77657
244.899	19.71521
245.118	24.0923
245.338	21.9282
245.558	23.44907
245.777	13.18428
245.997	16.27252
246.216	16.08556
246.436	9.6294
246.655	7.06583
246.875	5.36755
247.094	10.26135
247.314	3.79412
247.533	6.42235
247.753	7.31039
247.972	5.73543
248.192	2.42639
248.411	3.48293
248.631	5.99744
248.85	7.69036
249.07	7.49217
249.289	10.78313
249.508	7.68205
249.728	13.02333
249.947	12.5093
250.166	15.87167
250.386	8.07889
250.605	12.2432
250.824	20.33727
251.044	13.19032
251.263	39.3686
251.482	21.90895
251.701	18.05762
251.921	0.18338
252.14	6.23596
252.359	7.71981
252.578	16.52398
252.798	6.15128
253.017	14.1827
253.236	7.55281
253.455	9.98892
253.674	19.49596
253.893	9.34913
254.112	14.3909
254.331	21.25202
254.551	16.05199
254.77	8.36333
254.989	23.47146
255.208	17.98075
255.427	27.19111
255.646	22.50579
255.865	33.47103
256.084	15.00691
256.303	18.3822
256.522	22.54758
256.741	6.01245
256.96	6.28465
257.179	14.26128
257.397	18.56881
257.616	9.42277
257.835	10.37671
258.054	24.613
258.273	17.26342
258.492	16.78794
258.711	10.50705
258.93	4.87235
259.148	7.31672
259.367	6.64849
259.586	8.30843
259.805	4.10907
260.023	7.39872
260.242	5.61195
260.461	4.43463
260.68	2.15498
260.898	6.69038
261.117	2.47115
261.336	1.58537
261.554	5.74821
261.773	6.11916
261.992	1.60219
262.21	5.50153
262.429	6.48965
262.648	11.37181
262.866	13.04242
263.085	9.2226
263.303	7.76693
263.522	14.61495
263.74	13.59296
263.959	23.77633
264.178	12.91208
264.396	11.30742
264.615	7.65707
264.833	17.65951
265.051	15.17841
265.27	17.54713
265.488	17.50469
265.707	10.43429
265.925	16.67984
266.144	7.95631
266.362	9.14998
266.58	9.69617
266.799	7.90244
267.017	9.37582
267.235	8.14364
267.454	5.92817
267.672	3.17002
267.89	6.64337
268.109	7.57785
268.327	7.04736
268.545	1.63916
268.763	6.59818
268.982	3.30258
269.2	7.41134
269.418	5.11258
269.636	4.28846
269.854	7.3009
270.073	5.04665
270.291	3.26981
270.509	3.27413
270.727	6.67442
270.945	11.06538
271.163	10.92219
271.381	2.69563
271.599	4.9732
271.817	7.95356
272.036	2.98235
272.254	5.44908
272.472	3.75216
272.69	3.91941
272.908	3.96097
273.126	6.34934
273.344	8.1952
273.562	2.89979
273.779	4.36854
273.997	6.71513
274.215	6.54025
274.433	4.58418
274.651	7.13824
274.869	7.10088
275.087	4.21558
275.305	6.25958
275.523	4.21603
275.74	4.46611
275.958	8.58692
276.176	12.1427
276.394	3.91884
276.612	5.41162
276.829	5.12936
277.047	4.39996
277.265	4.61086
277.483	5.37916
277.7	6.44517
277.918	5.25695
278.136	9.74462
278.353	4.75903
278.571	2.9906
278.789	7.34806
279.006	1.66593
279.224	4.74948
279.442	7.63695
279.659	5.51498
279.877	3.64622
280.094	8.05476
280.312	1.81292
280.529	5.34701
280.747	1.74249
280.964	4.58867
281.182	8.31368
281.399	4.52318
281.617	5.25953
281.834	3.94568
282.052	2.92374
282.269	5.128
282.487	3.85511
282.704	3.64304
282.921	3.23901
283.139	5.1444
283.356	6.56499
283.574	6.03606
283.791	2.94819
284.008	7.96442
284.226	4.83853
284.443	5.16553
284.66	6.21872
284.877	5.53887
285.095	3.51393
285.312	2.54351
285.529	1.67447
285.746	1.43896
285.964	3.18664
286.181	2.19288
286.398	2.95739
286.615	4.38541
286.832	3.96686
287.05	1.02179
287.267	2.9958
287.484	2.93184
287.701	4.12989
287.918	3.94295
288.135	4.13193
288.352	1.84423
288.569	2.45904
288.786	4.08076
289.003	2.93631
289.22	4.57551
289.437	2.78603
289.654	4.30682
289.871	4.49035
290.088	4.39799
290.305	3.46276
290.522	3.03752
290.739	3.06328
290.956	4.69925
291.173	5.47238
291.39	5.17181
291.607	3.53602
291.824	3.1174
292.04	2.03885
292.257	4.67654
292.474	4.9315
292.691	3.21161
292.908	1.58473
293.125	2.79818
293.341	1.66346
293.558	7.53356
293.775	3.32713
293.992	3.21672
294.208	1.25512
294.425	2.10524
294.642	2.93909
294.858	3.91941
295.075	1.16437
295.292	3.1456
295.508	3.66015
295.725	5.22607
295.942	2.60061
296.158	2.06097
296.375	3.1956
296.591	2.46499
296.808	2.3916
297.024	2.95634
297.241	3.22194
297.458	3.4939
297.674	0.58582
297.891	2.75613
298.107	2.42353
298.323	1.76833
298.54	4.1853
298.756	2.25617
298.973	1.18128
299.189	4.52488
299.406	2.17455
299.622	4.34224
299.838	4.53656
300.055	3.92328
300.271	1.21566
300.487	1.9395
300.704	2.07851
300.92	1.39785
301.136	5.95832
301.353	4.71695
301.569	3.36648
301.785	3.52455
302.001	4.10989
302.218	3.62122
302.434	4.07771
302.65	1.70566
302.866	2.56661
303.083	6.36035
303.299	6.09093
303.515	3.54405
303.731	3.78598
303.947	1.6833
304.163	2.63751
304.379	3.5397
304.595	3.96805
304.812	2.54333
305.028	2.27339
305.244	3.03825
305.46	4.30474
305.676	4.62503
305.892	5.3935
306.108	4.22391
306.324	3.21229
306.54	5.99869
306.756	4.1397
306.972	4.16166
307.187	3.26793
307.403	5.54631
307.619	2.73297
307.835	5.02604
308.051	5.18434
308.267	2.30038
308.483	5.07917
308.699	4.11176
308.914	3.52378
309.13	3.61428
309.346	1.56783
309.562	2.20062
309.778	1.55682
309.993	4.13087
310.209	3.52944
310.425	2.00538
310.641	3.19868
310.856	2.32716
311.072	2.1234
311.288	3.22507
311.503	3.59167
311.719	1.45633
311.935	1.44319
312.15	3.95543
312.366	3.74607
312.581	4.23108
312.797	3.47447
313.013	4.55574
313.228	2.84427
313.444	3.63286
313.659	2.54602
313.875	4.13472
314.09	3.61522
314.306	5.67748
314.521	4.66223
314.737	4.57876
314.952	4.03442
315.168	3.85088
315.383	4.20101
315.599	3.50697
315.814	3.42231
316.029	4.89284
316.245	2.29284
316.46	1.53883
316.675	5.38376
316.891	6.37073
317.106	7.59646
317.321	4.44616
317.537	4.58244
317.752	4.89744
317.967	5.01416
318.183	3.01945
318.398	3.45517
318.613	5.25356
318.828	5.75625
319.043	5.18155
319.259	3.55065
319.474	4.15256
319.689	5.33628
319.904	1.76599
320.119	5.09269
320.334	4.48108
320.549	3.5746
320.765	5.61789
320.98	4.53786
321.195	5.07758
321.41	3.99495
321.625	5.18946
321.84	6.27312
322.055	6.28243
322.27	3.25494
322.485	2.6557
322.7	4.39063
322.915	5.39117
323.13	3.23898
323.345	6.1884
323.56	4.36711
323.775	5.03082
323.989	4.67537
324.204	4.31232
324.419	5.3257
324.634	2.66147
324.849	4.13416
325.064	6.75953
325.279	5.47739
325.493	4.88566
325.708	5.44485
325.923	3.32944
326.138	3.55993
326.352	6.23196
326.567	5.26299
326.782	3.82824
326.997	3.51016
327.211	5.21921
327.426	4.67915
327.641	4.02581
327.855	2.21561
328.07	5.13154
328.285	6.7
328.499	4.02963
328.714	4.73111
328.928	5.32269
329.143	4.39479
329.358	5.91333
329.572	5.57736
329.787	6.28751
330.001	7.91495
330.216	2.80724
330.43	6.88193
330.645	6.52441
330.859	5.5919
331.074	3.32692
331.288	4.56901
331.503	6.67218
331.717	3.18335
331.931	4.49428
332.146	4.8936
332.36	7.28329
332.575	5.06286
332.789	4.87486
333.003	4.51224
333.218	5.38546
333.432	3.82044
333.646	5.72329
333.86	6.76469
334.075	6.99961
334.289	3.89012
334.503	3.10739
334.717	5.39537
334.932	5.18068
335.146	5.84213
335.36	4.03688
335.574	5.43169
335.788	5.50889
336.003	6.07203
336.217	6.08583
336.431	5.2711
336.645	4.42818
336.859	3.54307
337.073	4.92565
337.287	5.05182
337.501	3.37883
337.715	5.23643
337.929	5.48341
338.143	3.28185
338.357	4.58562
338.571	3.97756
338.785	5.63435
338.999	4.18923
339.213	4.18728
339.427	3.38095
339.641	6.55272
339.855	4.39779
340.069	3.87347
340.283	6.18487
340.497	6.69357
340.711	5.56513
340.924	4.83992
341.138	3.71937
341.352	3.30359
341.566	4.92625
341.78	2.98759
341.993	4.14391
342.207	3.94926
342.421	5.2935
342.635	4.84202
342.848	4.17214
343.062	2.15402
343.276	4.17847
343.49	7.44479
343.703	4.21099
343.917	6.09404
344.131	6.21512
344.344	4.18654
344.558	4.45076
344.771	3.6508
344.985	6.22261
345.199	7.08516
345.412	5.36759
345.626	5.48484
345.839	3.11396
346.053	3.85489
346.266	3.9375
346.48	5.73751
346.693	5.62746
346.907	5.54246
347.12	4.06401
347.334	5.05966
347.547	5.4781
347.76	4.84115
347.974	6.3271
348.187	5.45765
348.401	4.79898
348.614	4.19286
348.827	4.86614
349.041	5.52512
349.254	3.21836
349.467	4.75248
349.681	4.00092
349.894	4.27939
350.107	6.53367
350.32	7.40881
350.534	3.467
350.747	4.9073
350.96	4.16173
351.173	4.42337
351.386	4.66634
351.6	4.47583
351.813	4.52019
352.026	4.99943
352.239	3.94085
352.452	4.80954
352.665	6.46085
352.878	4.91787
353.092	7.656
353.305	6.09942
353.518	5.24801
353.731	4.14439
353.944	6.21023
354.157	4.68617
354.37	4.58044
354.583	4.0486
354.796	3.68542
355.009	6.53185
355.222	5.44222
355.435	5.41175
355.647	6.50091
355.86	4.47853
356.073	5.33619
356.286	4.85146
356.499	6.20434
356.712	6.01147
356.925	5.77363
357.138	6.4892
357.35	4.40001
357.563	4.91572
357.776	5.51329
357.989	5.45161
358.201	6.1683
358.414	5.78365
358.627	6.71586
358.84	5.30298
359.052	4.25147
359.265	4.51204
359.478	6.4824
359.69	2.97537
359.903	6.62386
360.116	6.54036
360.328	3.95775
360.541	6.34391
360.753	4.84613
360.966	5.21563
361.179	5.30942
361.391	5.22294
361.604	4.74141
361.816	5.2857
362.029	5.27174
362.241	4.87599
362.454	5.47099
362.666	4.92741
362.879	6.11517
363.091	5.28068
363.304	5.00128
363.516	5.38628
363.728	4.48165
363.941	6.17176
364.153	5.56271
364.366	3.41669
364.578	4.40036
364.79	5.90694
365.003	5.7317
365.215	5.06792
365.427	6.10276
365.639	6.70756
365.852	5.68159
366.064	7.16063
366.276	5.19883
366.488	5.88062
366.701	5.40233
366.913	5.2644
367.125	5.47777
367.337	4.79722
367.549	5.0265
367.762	5.57762
367.974	5.4128
368.186	5.3074
368.398	6.63578
368.61	6.06403
368.822	6.31391
369.034	5.29471
369.246	6.37143
369.458	8.24553
369.67	4.73396
369.882	7.38447
370.094	3.6574
370.306	7.14591
370.518	5.21805
370.73	5.24301
370.942	4.9997
371.154	5.70292
371.366	5.36061
371.578	6.30729
371.79	5.38641
372.002	6.89762
372.214	7.8494
372.425	5.81415
372.637	7.34444
372.849	6.22129
373.061	3.68981
373.273	6.33225
373.484	6.40199
373.696	6.62077
373.908	3.5333
374.12	6.89467
374.331	6.39082
374.543	5.15707
374.755	4.84487
374.967	5.87041
375.178	7.00753
375.39	5.58398
375.602	5.98925
375.813	4.52477
376.025	4.89508
376.236	6.10391
376.448	6.21282
376.66	5.9034
376.871	5.73796
377.083	6.84068
377.294	7.51555
377.506	5.62974
377.717	7.51837
377.929	6.36694
378.14	5.62599
378.352	6.71371
378.563	6.75576
378.775	7.45204
378.986	5.34387
379.197	6.48481
379.409	5.36748
379.62	6.77265
379.832	6.3032
380.043	5.90128
380.254	6.51485
380.466	4.94921
380.677	8.79285
380.888	8.28498
381.1	9.09051
381.311	8.91526
381.522	6.49254
381.733	9.01749
381.945	6.09973
382.156	6.06041
382.367	5.83017
382.578	9.03346
382.789	9.01561
383.001	5.61036
383.212	8.10542
383.423	8.01758
383.634	7.4057
383.845	7.0167
384.056	6.03049
384.267	6.45483
384.478	6.47301
384.69	5.36468
384.901	6.97925
385.112	6.73727
385.323	8.20128
385.534	6.84493
385.745	6.78243
385.956	6.97497
386.167	5.6638
386.378	7.11941
386.588	5.80749
386.799	5.66277
387.01	5.163
387.221	7.52659
387.432	6.58424
387.643	8.26369
387.854	6.24252
388.065	6.23423
388.275	6.3837
388.486	6.10946
388.697	6.62239
388.908	6.32335
389.119	7.78615
389.329	8.03251
389.54	6.75938
389.751	6.88932
389.962	7.84687
390.172	6.7936
390.383	6.53818
390.594	6.06428
390.804	6.14923
391.015	6.21876
391.226	6.84173
391.436	7.40656
391.647	7.06396
391.858	7.44121
392.068	5.37312
392.279	5.96034
392.489	7.14331
392.7	7.7176
392.91	6.06331
393.121	6.15311
393.331	7.24057
393.542	7.96743
393.752	7.65867
393.963	7.27288
394.173	7.23481
394.384	7.69043
394.594	6.96972
394.804	5.93074
395.015	7.08259
395.225	7.64876
395.436	5.94553
395.646	7.42024
395.856	6.5377
396.067	5.73318
396.277	7.77578
396.487	7.41571
396.697	7.29722
396.908	7.68692
397.118	7.52186
397.328	6.92769
397.538	7.76143
397.749	6.47708
397.959	7.80311
398.169	7.47543
398.379	5.78355
398.589	7.53134
398.8	7.19957
399.01	7.39376
399.22	6.79099
399.43	8.98197
399.64	6.95603
399.85	7.44391
400.06	7.05419
400.27	6.53101
400.48	7.08014
400.69	8.10896
400.9	6.5986
401.11	6.29972
401.32	7.76308
401.53	6.57845
401.74	8.32316
401.95	7.64718
402.16	6.52815
402.37	7.58739
402.58	6.67809
402.79	7.56409
403	7.90185
403.209	6.62165
403.419	7.99369
403.629	6.69095
403.839	8.10891
404.049	8.06015
404.258	6.91307
404.468	6.47334
404.678	7.79035
404.888	8.19978
405.097	7.04454
405.307	7.21761
405.517	7.76725
405.727	7.62605
405.936	7.00456
406.146	7.64796
406.356	8.43415
406.565	7.42651
406.775	7.01156
406.984	7.11939
407.194	8.94629
407.404	7.34592
407.613	7.77957
407.823	7.99854
408.032	8.62478
408.242	8.26761
408.451	7.03582
408.661	7.23844
408.87	8.95166
409.08	6.90985
409.289	7.67849
409.499	7.63273
409.708	7.47981
409.918	5.78698
410.127	7.58517
410.336	8.73182
410.546	8.02873
410.755	7.17482
410.964	7.0006
411.174	6.9076
411.383	7.9675
411.592	7.86295
411.802	6.81325
412.011	8.29581
412.22	7.46044
412.429	8.98997
412.639	8.69144
412.848	8.50504
413.057	9.08821
413.266	8.57938
413.475	7.5825
413.685	8.30142
413.894	8.50842
414.103	8.61998
414.312	8.25089
414.521	7.54799
414.73	8.11019
414.939	9.36056
415.148	8.18556
415.357	8.10601
415.566	7.6979
415.776	7.54688
415.985	7.54446
416.194	8.64249
416.403	9.47538
416.611	7.02961
416.82	7.58664
417.029	8.1525
417.238	7.52735
417.447	7.40821
417.656	7.81605
417.865	7.5642
418.074	8.03295
418.283	8.11897
418.492	8.94091
418.7	8.70552
418.909	9.50889
419.118	8.2718
419.327	8.70824
419.536	8.4636
419.744	8.0035
419.953	9.0795
420.162	9.20488
420.371	8.4456
420.579	8.78137
420.788	9.77966
420.997	9.82297
421.205	9.97731
421.414	9.62325
421.623	9.73683
421.831	9.30252
422.04	9.98456
422.249	8.96592
422.457	9.41178
422.666	8.64791
422.874	9.74213
423.083	9.69521
423.291	9.66632
423.5	9.60273
423.708	9.92104
423.917	10.39346
424.125	9.82398
424.334	9.61339
424.542	11.47041
424.751	10.68852
424.959	10.3023
425.167	10.43998
425.376	10.24151
425.584	9.20556
425.793	9.41697
426.001	8.66486
426.209	9.63102
426.418	8.65443
426.626	8.76159
426.834	8.59265
427.042	9.11039
427.251	8.65549
427.459	9.59156
427.667	9.24834
427.875	8.03882
428.084	8.62796
428.292	9.86151
428.5	9.31521
428.708	8.23181
428.916	8.13369
429.124	9.04823
429.333	8.71164
429.541	8.82467
429.749	9.05653
429.957	8.94324
430.165	10.6879
430.373	7.85887
430.581	8.9789
430.789	10.1428
430.997	8.5595
431.205	8.41621
431.413	9.13864
431.621	8.83395
431.829	9.49391
432.037	8.85603
432.245	9.42548
432.453	9.36881
432.661	8.9992
432.869	10.52337
433.076	8.44408
433.284	9.08185
433.492	9.6919
433.7	10.08895
433.908	8.93921
434.116	9.25
434.323	9.50289
434.531	9.21895
434.739	9.73513
434.947	9.88007
435.154	9.87439
435.362	9.36076
435.57	9.07612
435.778	8.97135
435.985	9.59538
436.193	8.88996
436.401	10.28205
436.608	9.34207
436.816	9.02773
437.023	10.518
437.231	10.64605
437.439	9.50325
437.646	9.76426
437.854	9.73842
438.061	9.88383
438.269	9.20779
438.476	9.91547
438.684	9.52622
438.891	9.23915
439.099	9.02718
439.306	8.53608
439.514	8.81609
439.721	9.79404
439.929	9.06338
440.136	9.81881
440.343	9.74071
440.551	9.32985
440.758	10.76273
440.965	10.05154
441.173	9.70588
441.38	9.2905
441.587	9.98852
441.795	9.51711
442.002	9.84588
442.209	9.9422
442.416	10.14706
442.624	10.17489
442.831	10.06345
443.038	9.30327
443.245	8.94931
443.452	9.47895
443.66	10.26324
443.867	9.21458
444.074	9.30303
444.281	9.23516
444.488	9.46543
444.695	9.61589
444.902	9.26063
445.109	9.98626
445.316	9.47696
445.523	9.47236
445.73	9.38275
445.937	10.31233
446.144	10.66188
446.351	10.909
446.558	9.87751
446.765	11.61986
446.972	11.14852
447.179	10.46334
447.386	11.32725
447.593	9.71671
447.8	10.68701
448.007	9.82642
448.214	9.85361
448.42	9.57684
448.627	10.83146
448.834	9.88143
449.041	9.65113
449.248	9.73623
449.454	10.51524
449.661	11.22542
449.868	9.60871
450.075	9.50602
450.281	8.40378
450.488	9.1564
450.695	9.25152
450.901	9.10533
451.108	9.57512
451.315	10.52663
451.521	9.55385
451.728	10.44998
451.935	9.34246
452.141	9.73395
452.348	9.68622
452.554	9.84961
452.761	9.60592
452.967	11.02452
453.174	9.98769
453.38	10.02762
453.587	8.95339
453.793	9.89675
454	10.39855
454.206	11.36835
454.413	10.79891
454.619	10.26079
454.825	9.3935
455.032	10.26176
455.238	10.5117
455.445	9.00605
455.651	9.93139
455.857	8.58752
456.064	9.72067
456.27	9.70521
456.476	9.6235
456.682	8.95099
456.889	10.06118
457.095	10.31751
457.301	11.50851
457.507	9.88349
457.714	9.97372
457.92	9.99351
458.126	9.31199
458.332	9.83328
458.538	9.4565
458.744	9.53632
458.951	9.53326
459.157	10.9233
459.363	10.02388
459.569	10.08155
459.775	10.86216
459.981	10.17969
460.187	10.60728
460.393	10.90489
460.599	10.95523
460.805	10.32987
461.011	10.34767
461.217	10.99511
461.423	11.10588
461.629	10.22495
461.835	10.78567
462.041	10.075
462.247	11.47283
462.453	10.1378
462.658	10.07831
462.864	10.75557
463.07	10.32377
463.276	10.3142
463.482	10.27929
463.688	11.10489
463.893	9.6742
464.099	9.87949
464.305	11.3576
464.511	9.81638
464.716	10.1431
464.922	10.76684
465.128	9.63163
465.333	11.60015
465.539	10.64399
465.745	10.16526
465.95	10.30086
466.156	12.30192
466.362	11.21118
466.567	10.17664
466.773	9.93756
466.978	11.51098
467.184	9.59461
467.389	8.83318
467.595	10.63397
467.8	9.69228
468.006	11.35326
468.211	11.24199
468.417	9.54274
468.622	10.82856
468.828	10.72124
469.033	10.67241
469.239	12.32549
469.444	9.87236
469.649	10.9927
469.855	10.3472
470.06	10.58224
470.266	9.69643
470.471	10.77251
470.676	10.72933
470.881	9.16088
471.087	11.11518
471.292	11.59379
471.497	9.42887
471.703	10.33607
471.908	10.03942
472.113	10.54703
472.318	10.9041
472.523	9.63809
472.729	10.75832
472.934	10.59997
473.139	10.06598
473.344	10.68238
473.549	11.29862
473.754	9.78675
473.959	11.88572
474.164	9.87104
474.369	10.19758
474.575	11.07696
474.78	10.53619
474.985	10.20361
475.19	9.26245
475.395	9.89863
475.6	10.31665
475.804	11.45405
476.009	10.52684
476.214	10.428
476.419	10.16704
476.624	9.33118
476.829	9.96399
477.034	10.83302
477.239	9.94894
477.444	10.6674
477.648	10.9043
477.853	10.9703
478.058	10.36644
478.263	9.97917
478.468	9.79879
478.672	9.93144
478.877	11.50071
479.082	11.9575
479.287	10.81353
479.491	10.59214
479.696	9.90887
479.901	11.27162
480.105	11.06618
480.31	10.00471
480.515	10.40392
480.719	12.11902
480.924	10.06639
481.128	9.72498
481.333	10.56917
481.538	10.66489
481.742	10.20851
481.947	10.82846
482.151	11.6876
482.356	12.42594
482.56	14.73365
482.765	16.40549
482.969	19.42421
483.174	21.95574
483.378	25.09867
483.582	25.80178
483.787	27.43336
483.991	27.83997
484.196	27.92423
484.4	27.29471
484.604	27.03966
484.809	24.42468
485.013	22.82051
485.217	20.55174
485.422	18.34309
485.626	16.79279
485.83	15.97038
486.034	15.662
486.239	16.12659
486.443	16.58253
486.647	16.99321
486.851	18.3895
487.055	19.70067
487.26	19.60535
487.464	20.54003
487.668	20.03081
487.872	20.34904
488.076	20.69203
488.28	19.62171
488.484	18.18169
488.688	17.5839
488.892	16.78946
489.096	15.49403
489.3	14.24439
489.504	13.37028
489.708	12.96231
489.912	12.70015
490.116	12.49197
490.32	12.24193
490.524	13.64365
490.728	14.50996
490.932	15.3364
491.136	16.0585
491.34	17.43827
491.544	17.67027
491.748	17.39392
491.951	17.35009
492.155	16.82231
492.359	16.19157
492.563	14.54917
492.767	13.4586
492.97	12.19277
493.174	10.8579
493.378	11.1163
493.582	10.66801
493.785	11.15236
493.989	11.28084
494.193	11.18273
494.396	10.8143
494.6	11.48351
494.804	10.86978
495.007	10.4936
495.211	10.54991
495.414	10.60361
495.618	10.88891
495.822	11.6062
496.025	10.7379
496.229	11.42229
496.432	10.37307
496.636	10.76397
496.839	10.71576
497.043	11.86169
497.246	11.05459
497.45	10.69989
497.653	10.87373
497.856	11.05491
498.06	10.42984
498.263	10.75323
498.467	10.71372
498.67	11.62107
498.873	11.33717
499.077	10.70608
499.28	10.83472
499.483	11.32009
499.686	11.57504
499.89	11.15209
500.093	11.4599
500.296	10.50124
500.499	12.09816
500.703	10.96705
500.906	11.03994
501.109	12.13746
501.312	11.00658
501.515	10.91242
501.719	11.29221
501.922	11.81433
502.125	11.18038
502.328	10.75573
502.531	10.19203
502.734	10.84628
502.937	9.63747
503.14	11.01759
503.343	10.18648
503.546	10.66601
503.749	10.49737
503.952	11.28671
504.155	10.35007
504.358	11.37131
504.561	10.97445
504.764	10.1025
504.967	11.00107
505.17	10.86353
505.373	12.02226
505.576	10.9034
505.778	11.4103
505.981	10.5168
506.184	11.87592
506.387	9.80591
506.59	12.15713
506.793	11.77281
506.995	11.38976
507.198	9.55945
507.401	11.24624
507.604	11.19054
507.806	10.20398
508.009	10.32672
508.212	11.23153
508.414	10.5993
508.617	10.60286
508.82	10.95929
509.022	11.88153
509.225	11.27738
509.427	9.89349
509.63	11.93925
509.833	11.0366
510.035	10.83101
510.238	10.04765
510.44	11.78645
510.643	9.57656
510.845	12.53434
511.048	11.32034
511.25	10.65858
511.453	10.90945
511.655	11.28254
511.858	10.85213
512.06	11.71008
512.262	11.00559
512.465	11.69482
512.667	10.69089
512.869	10.33121
513.072	11.30006
513.274	11.62829
513.476	11.49792
513.679	11.69348
513.881	10.38224
514.083	12.22135
514.286	10.63531
514.488	10.5707
514.69	10.19353
514.892	10.06286
515.094	11.58422
515.297	10.53601
515.499	11.01354
515.701	10.42775
515.903	12.17944
516.105	12.07515
516.307	11.50787
516.509	9.60034
516.711	10.10083
516.913	10.94628
517.116	10.96301
517.318	10.67077
517.52	11.70991
517.722	11.36535
517.924	10.12029
518.126	11.30315
518.328	10.49535
518.529	11.23627
518.731	12.08542
518.933	10.63922
519.135	10.98088
519.337	11.82449
519.539	11.45162
519.741	10.03029
519.943	10.98815
520.145	11.04891
520.346	11.57085
520.548	10.94299
520.75	11.35878
520.952	10.85096
521.153	11.215
521.355	11.46479
521.557	10.30821
521.759	11.17554
521.96	11.10827
522.162	10.21197
522.364	11.8724
522.565	10.49214
522.767	11.53381
522.969	11.885
523.17	11.37996
523.372	11.29941
523.573	10.63177
523.775	11.01862
523.977	10.36358
524.178	11.98262
524.38	10.52508
524.581	11.40612
524.783	10.66906
524.984	11.38082
525.186	10.88165
525.387	11.32135
525.589	11.05417
525.79	10.76952
525.991	10.63222
526.193	11.20292
526.394	10.37108
526.596	11.30517
526.797	11.58625
526.998	11.36562
527.2	11.74734
527.401	14.11103
527.602	15.25417
527.803	17.98615
528.005	18.89033
528.206	20.37558
528.407	21.32958
528.608	21.21635
528.81	21.36709
529.011	20.58499
529.212	21.28354
529.413	19.68663
529.614	18.24907
529.815	16.93536
530.017	15.53707
530.218	13.84618
530.419	12.37719
530.62	11.97325
530.821	11.58617
531.022	10.61693
531.223	11.67435
531.424	11.60754
531.625	11.38139
531.826	11.30756
532.027	11.59394
532.228	13.06261
532.429	13.11691
532.63	13.52752
532.831	14.45206
533.032	14.60056
533.233	15.24192
533.433	14.82165
533.634	15.01985
533.835	13.99237
534.036	13.34876
534.237	12.79149
534.438	11.83777
534.638	10.89678
534.839	11.10811
535.04	11.74649
535.241	11.11196
535.441	12.45108
535.642	11.56003
535.843	10.58964
536.043	10.64823
536.244	10.75975
536.445	10.74806
536.645	11.72793
536.846	11.32628
537.047	11.93519
537.247	10.76742
537.448	11.16234
537.648	11.47056
537.849	11.26649
538.049	11.35134
538.25	11.98267
538.451	11.7023
538.651	10.80846
538.851	11.66455
539.052	12.26552
539.252	11.90677
539.453	11.19295
539.653	11.30468
539.854	11.05591
540.054	11.02526
540.254	12.06891
540.455	13.20732
540.655	13.29804
540.855	14.94789
541.056	15.95633
541.256	15.71961
541.456	16.70467
541.657	16.03393
541.857	16.6429
542.057	14.94446
542.257	14.36504
542.458	14.51507
542.658	13.72252
542.858	11.88174
543.058	12.3453
543.258	11.94151
543.458	10.78524
543.659	10.67452
543.859	11.99663
544.059	11.85757
544.259	11.32495
544.459	11.99246
544.659	11.00877
544.859	11.76278
545.059	11.08538
545.259	11.79275
545.459	11.49023
545.659	11.95103
545.859	11.31292
546.059	11.40033
546.259	10.81129
546.459	10.25869
546.659	10.7024
546.859	11.94102
547.059	11.62666
547.258	11.85211
547.458	11.71401
547.658	10.7186
547.858	10.73234
548.058	11.69844
548.258	11.33745
548.457	10.69235
548.657	13.38162
548.857	11.32483
549.057	12.11744
549.256	11.92011
549.456	11.10813
549.656	9.72492
549.855	12.79862
550.055	11.03265
550.255	12.99405
550.454	11.64595
550.654	12.02275
550.853	12.56415
551.053	12.08939
551.253	11.53737
551.452	11.61184
551.652	10.42999
551.851	10.02855
552.051	11.03978
552.25	10.91794
552.45	10.77063
552.649	11.17053
552.849	10.49882
553.048	11.24226
553.248	11.9732
553.447	10.76255
553.646	12.28838
553.846	12.74552
554.045	12.32484
554.244	10.32583
554.444	13.20593
554.643	10.58697
554.842	12.62745
555.042	13.28193
555.241	10.88389
555.44	10.52641
555.64	12.08404
555.839	13.33843
556.038	11.95457
556.237	10.7465
556.436	11.41848
556.636	11.80595
556.835	10.73123
557.034	13.05834
557.233	11.41375
557.432	10.30339
557.631	12.65396
557.83	11.40186
558.029	10.87679
558.228	10.99498
558.427	10.67731
558.626	11.88815
558.825	10.68292
559.024	11.41324
559.223	13.06679
559.422	11.23772
559.621	11.84058
559.82	9.04521
560.019	11.49172
560.218	11.19498
560.417	9.00055
560.616	10.91115
560.815	14.75933
561.014	10.07472
561.212	12.83799
561.411	11.67842
561.61	10.09867
561.809	11.08311
562.008	12.92294
562.206	11.71899
562.405	12.14702
562.604	11.49017
562.803	11.63213
563.001	11.11901
563.2	10.1231
563.399	11.84484
563.597	10.44363
563.796	11.38296
563.995	10.43839
564.193	12.0637
564.392	11.06613
564.59	13.54273
564.789	9.86285
564.988	11.13578
565.186	11.70202
565.385	11.41214
565.583	11.00626
565.782	11.41552
565.98	11.28124
566.179	11.46634
566.377	10.46723
566.575	11.01172
566.774	12.82787
566.972	12.2824
567.171	13.68016
567.369	12.77425
567.567	11.79531
567.766	11.85586
567.964	9.74912
568.162	12.23616
568.361	12.59315
568.559	11.53805
568.757	11.94079
568.956	11.74162
569.154	11.44428
569.352	12.29488
569.55	11.61226
569.748	11.72189
569.947	10.89644
570.145	10.76836
570.343	10.60204
570.541	12.64017
570.739	10.47608
570.937	11.7059
571.135	12.05961
571.333	13.21461
571.532	13.04439
571.73	11.89943
571.928	12.81141
572.126	12.06583
572.324	11.41448
572.522	12.92814
572.72	14.4159
572.918	11.72879
573.116	12.13001
573.313	11.94806
573.511	11.72519
573.709	11.29977
573.907	12.50125
574.105	11.40973
574.303	10.29751
574.501	10.39567
574.699	12.12826
574.896	12.12789
575.094	12.36968
575.292	10.57427
575.49	12.82148
575.688	11.69258
575.885	13.2641
576.083	13.82322
576.281	12.45671
576.478	11.30231
576.676	12.45781
576.874	10.81257
577.071	11.68085
577.269	14.40468
577.467	11.7984
577.664	11.97808
577.862	12.85062
578.059	10.98505
578.257	12.98491
578.455	11.30401
578.652	11.80297
578.85	9.97814
579.047	11.95271
579.245	11.95099
579.442	11.67315
579.64	11.91997
579.837	10.03575
580.034	14.74825
580.232	11.48452
580.429	10.49569
580.627	12.43223
580.824	13.59906
581.021	12.78264
581.219	11.52037
581.416	10.88722
581.613	13.5494
581.811	13.39544
582.008	11.00003
582.205	12.91748
582.402	12.20346
582.6	14.2151
582.797	12.17091
582.994	12.45216
583.191	12.75762
583.388	12.00362
583.586	13.13476
583.783	13.03317
583.98	11.18201
584.177	12.25748
584.374	8.95999
584.571	11.89732
584.768	11.62464
584.965	11.43133
585.162	12.97164
585.359	14.09486
585.556	12.01943
585.753	12.45558
585.95	10.68172
586.147	10.97868
586.344	12.52652
586.541	11.5801
586.738	10.52121
586.935	11.84843
587.132	11.18006
587.329	13.28871
587.526	12.0887
587.722	17.83033
587.919	10.41442
588.116	12.64363
588.313	13.60869
588.51	14.92386
588.706	11.86456
588.903	12.86075
589.1	13.22185
589.297	15.59544
589.493	12.16376
589.69	12.87429
589.887	11.66287
590.083	10.64884
590.28	11.26332
590.477	13.37077
590.673	13.29957
590.87	13.83669
591.067	11.89009
591.263	13.01585
591.46	12.77184
591.656	11.92995
591.853	14.00831
592.049	11.06379
592.246	11.64844
592.442	13.82393
592.639	12.83644
592.835	10.70666
593.032	12.74951
593.228	10.53924
593.425	10.46592
593.621	10.3403
593.817	12.43121
594.014	11.33789
594.21	12.41515
594.406	13.17432
594.603	12.86749
594.799	11.48117
594.995	9.5043
595.192	13.60239
595.388	11.86091
595.584	11.81704
595.78	10.30141
595.977	14.55014
596.173	14.19531
596.369	11.8964
596.565	11.03593
596.761	10.4609
596.957	13.66928
597.154	11.23475
597.35	11.74679
597.546	11.39071
597.742	12.97202
597.938	12.64599
598.134	11.42145
598.33	12.55242
598.526	14.37687
598.722	12.96622
598.918	14.95732
599.114	12.9221
599.31	11.31141
599.506	12.54777
599.702	11.25823
599.898	12.78842
600.094	13.59643
600.29	13.47653
600.485	13.50996
600.681	11.59056
600.877	14.4694
601.073	12.60977
601.269	14.70728
601.465	14.04514
601.66	11.17817
601.856	9.92017
602.052	14.20855
602.248	11.72792
602.443	9.93372
602.639	10.63656
602.835	10.84952
603.03	11.19757
603.226	13.35475
603.422	11.09744
603.617	11.68281
603.813	11.54027
604.009	11.77165
604.204	13.46004
604.4	10.55951
604.595	13.48496
604.791	11.15633
604.986	12.57452
605.182	11.5705
605.377	11.90018
605.573	11.81588
605.768	12.52276
605.964	13.29772
606.159	13.17555
606.355	14.29758
606.55	11.93538
606.746	14.2294
606.941	12.51914
607.136	15.29131
607.332	16.43804
607.527	10.65624
607.722	12.82784
607.918	12.32768
608.113	11.59116
608.308	13.18844
608.503	13.05645
608.699	12.87343
608.894	13.11325
609.089	11.37503
609.284	12.75054
609.479	11.9897
609.675	13.41452
609.87	12.021
610.065	13.55719
610.26	13.8591
610.455	13.76943
610.65	12.46441
610.845	12.80345
611.04	14.2392
611.235	12.71848
611.43	12.26523
611.625	11.09997
611.82	14.97221
612.015	11.65885
612.21	14.96643
612.405	10.72497
612.6	15.66774
612.795	14.65669
612.99	13.73449
613.185	11.31742
613.38	11.66612
613.575	13.05128
613.77	17.0684
613.965	10.6643
614.159	11.62461
614.354	14.67358
614.549	14.47197
614.744	14.1403
614.938	11.48086
615.133	10.55376
615.328	14.9537
615.523	14.82377
615.717	17.48187
615.912	11.93944
616.107	13.37818
616.301	12.55011
616.496	12.1382
616.691	15.67503
616.885	14.23571
617.08	17.66748
617.274	14.88941
617.469	16.40019
617.664	14.16287
617.858	12.29096
618.053	13.6085
618.247	12.76113
618.442	9.79903
618.636	15.13438
618.831	12.15298
619.025	12.25491
619.219	17.09957
619.414	8.01155
619.608	13.27593
619.803	12.092
619.997	17.06535
620.191	15.35
620.386	13.9003
620.58	13.39509
620.774	10.29475
620.969	10.92599
621.163	13.83922
621.357	11.39999
621.551	12.62471
621.746	13.19394
621.94	13.20625
622.134	19.04225
622.328	16.79721
622.522	10.56085
622.716	14.97017
622.911	14.98045
623.105	15.12367
623.299	14.20503
623.493	18.92352
623.687	12.4236
623.881	12.64892
624.075	14.35877
624.269	15.41896
624.463	10.1622
624.657	10.89438
624.851	14.2358
625.045	15.04991
625.239	15.11646
625.433	12.84601
625.627	15.89072
625.821	12.7346
626.015	11.93477
626.209	13.70962
626.403	11.25733
626.596	13.92232
626.79	14.58683
626.984	11.27168
627.178	14.12309
627.372	14.0486
627.565	14.8251
627.759	11.03862
627.953	11.47878
628.147	14.0132
628.34	14.56476
628.534	17.0908
628.728	12.97802
628.921	15.23729
629.115	14.85146
629.309	15.40797
629.502	15.18271
629.696	14.25469
629.89	13.31517
630.083	14.40325
630.277	14.64042
630.47	16.83831
630.664	13.12503
630.857	11.09436
631.051	15.12534
631.244	15.84779
631.438	15.68173
631.631	12.48172
631.825	16.45085
632.018	15.35583
632.212	17.42271
632.405	15.79317
632.598	12.64962
632.792	14.18094
632.985	9.94056
633.178	13.4764
633.372	13.74475
633.565	13.96685
633.758	16.43981
633.952	12.63508
634.145	12.29909
634.338	13.02555
634.531	12.93017
634.724	12.89351
634.918	14.0694
635.111	13.61871
635.304	12.98829
635.497	18.49638
635.69	14.76383
635.883	16.39292
636.077	12.31365
636.27	15.2299
636.463	14.18787
636.656	14.8724
636.849	13.66153
637.042	15.13497
637.235	17.27572
637.428	15.70503
637.621	15.46196
637.814	17.11203
638.007	17.35243
638.2	17.54596
638.393	18.81236
638.586	11.67857
638.778	13.39371
638.971	14.85318
639.164	18.4268
639.357	15.47565
639.55	17.77401
639.743	16.63055
639.935	16.39424
640.128	19.08324
640.321	16.13725
640.514	15.32841
640.707	20.33408
640.899	16.54572
641.092	11.36659
641.285	30.36991
641.477	10.39089
641.67	20.36932
641.863	18.11937
642.055	15.88027
642.248	15.1188
642.441	14.50055
642.633	15.82863
642.826	18.83778
643.018	18.17453
643.211	19.5395
643.403	18.79595
643.596	20.35261
643.788	19.68556
643.981	15.21815
644.173	18.09594
644.366	14.97282
644.558	11.5884
644.751	17.68671
644.943	12.31338
645.135	19.48885
645.328	19.84649
645.52	17.10723
645.712	17.86738
645.905	23.24779
646.097	13.21509
646.289	16.03322
646.482	20.62004
646.674	14.34772
646.866	18.86068
647.058	17.23434
647.251	13.03588
647.443	14.61803
647.635	15.62738
647.827	13.61397
648.019	13.69923
648.211	15.72941
648.404	16.01211
648.596	19.81577
648.788	16.38882
648.98	16.64408
649.172	16.89517
649.364	16.81754
649.556	11.90537
649.748	22.89718
649.94	13.05901
650.132	17.00718
650.324	13.61412
650.516	14.46653
650.708	19.02823
650.9	12.5522
651.092	12.24685
651.284	12.55737
651.476	13.37962
651.667	17.63286
651.859	19.25417
652.051	16.19662
652.243	16.532
652.435	14.85648
652.627	17.47541
652.818	17.54194
653.01	12.29492
653.202	14.08699
653.394	15.35622
653.585	18.0575
653.777	28.1501
653.969	19.51426
654.16	19.74895
654.352	13.99563
654.544	16.50588
654.735	19.21683
654.927	17.3488
655.118	20.66913
655.31	18.57914
655.502	19.18406
655.693	15.41726
655.885	18.52128
656.076	20.63977
656.268	17.13192
656.459	20.42781
656.651	20.43806
656.842	15.24662
657.034	14.49347
657.225	18.78501
657.416	20.38196
657.608	20.48572
657.799	16.0581
657.99	19.63163
658.182	14.77242
658.373	14.91975
658.564	17.96271
658.756	16.64366
658.947	16.05092
659.138	14.32297
659.33	15.08977
659.521	14.45649
659.712	16.19084
659.903	15.7997
660.094	14.8977
660.286	12.59508
660.477	21.46704
660.668	18.26428
660.859	17.03122
661.05	13.22966
661.241	19.08763
661.432	18.73329
661.623	16.28151
661.814	15.8056
662.006	12.77858
662.197	18.13587
662.388	20.57138
662.579	17.93425
662.77	21.39472
662.96	25.58978
663.151	19.85783
663.342	12.86356
663.533	19.07973
663.724	17.50311
663.915	22.3896
664.106	17.67284
664.297	23.3553
664.488	20.23596
664.678	16.48187
664.869	19.92756
665.06	20.51671
665.251	19.03679
665.442	19.61666
665.632	14.67667
665.823	23.64636
666.014	9.40384
666.204	19.78789
666.395	21.73655
666.586	26.54354
666.776	20.77322
666.967	23.27138
667.158	18.6757
667.348	22.8803
667.539	14.83056
667.729	21.11952
667.92	16.07357
668.111	21.55823
668.301	19.90391
668.492	17.46678
668.682	18.23434
668.873	17.72274
669.063	14.89354
669.253	19.07624
669.444	20.65129
669.634	18.05219
669.825	23.72356
670.015	22.11465
670.206	16.1225
670.396	25.11179
670.586	18.10586
670.777	20.3112
670.967	12.43223
671.157	18.41706
671.347	16.74931
671.538	23.535
671.728	20.67213
671.918	24.94333
672.108	23.17319
672.299	18.90239
672.489	20.48954
672.679	17.02819
672.869	20.76137
673.059	25.5929
673.249	20.96781
673.44	16.29509
673.63	18.5875
673.82	22.11757
674.01	16.98361
674.2	20.66123
674.39	29.03405
674.58	21.11373
674.77	19.83998
674.96	19.26802
675.15	33.51647
675.34	23.58473
675.53	19.80246
675.72	19.50162
675.91	15.39398
676.099	25.73063
676.289	26.4686
676.479	23.48765
676.669	18.53526
676.859	21.94811
677.049	16.56491
677.238	19.89507
677.428	26.08704
677.618	20.51353
677.808	23.41553
677.997	21.61527
678.187	15.75027
678.377	20.21461
678.567	18.10475
678.756	17.75979
678.946	18.99147
679.136	15.09121
679.325	16.54243
679.515	16.24932
679.704	15.25426
679.894	20.83628
680.084	19.42379
680.273	23.0848
680.463	16.74485
680.652	16.54199
680.842	19.09645
681.031	22.22777
681.221	17.00072
681.41	21.88776
681.6	18.74167
681.789	22.39851
681.978	24.49827
682.168	20.73022
682.357	20.4935
682.547	22.06066
682.736	20.6949
682.925	24.44311
683.115	24.46847
683.304	24.39354
683.493	22.0507
683.682	22.36926
683.872	22.24001
684.061	26.62311
684.25	23.06148
684.439	27.7346
684.629	23.79389
684.818	34.01466
685.007	21.0257
685.196	19.97298
685.385	26.66191
685.574	23.32938
685.763	23.26525
685.952	22.18995
686.142	17.06687
686.331	27.04451
686.52	15.74326
686.709	27.13365
686.898	27.07145
687.087	24.12791
687.276	28.66619
687.465	25.26767
687.654	21.19158
687.842	27.76002
688.031	17.84913
688.22	26.84983
688.409	22.78999
688.598	22.9654
688.787	32.1053
688.976	22.86305
689.165	29.21217
689.353	21.11159
689.542	24.35303
689.731	25.21914
689.92	30.39269
690.108	26.46281
690.297	21.48528
690.486	23.75862
690.675	26.44461
690.863	30.5668
691.052	30.25394
691.241	24.89193
691.429	25.23073
691.618	29.50736
691.806	18.70997
691.995	22.77734
692.184	23.34958
692.372	22.37337
692.561	24.48313
692.749	23.7131
692.938	33.7777
693.126	26.71229
693.315	22.09482
693.503	27.25813
693.692	26.40295
693.88	29.35054
694.068	34.24886
694.257	24.4366
694.445	26.16576
694.634	16.0358
694.822	29.20329
695.01	30.91712
695.199	30.16778
695.387	32.42647
695.575	30.87376
695.763	24.48149
695.952	23.1282
696.14	18.4052
696.328	22.42167
696.516	24.98903
696.705	25.6654
696.893	24.93497
697.081	17.38002
697.269	26.23259
697.457	19.28575
697.645	18.43917
697.833	26.28955
698.021	19.90825
698.21	20.86292
698.398	21.7268
698.586	18.55931
698.774	16.82714
698.962	20.99246
699.15	18.90257
699.338	16.90067
699.526	24.27611
699.714	20.39601
699.901	21.57327
700.089	27.43491
700.277	20.9815
700.465	23.18947
700.653	28.12604
700.841	27.13675
701.029	21.37358
701.217	29.81382
701.404	25.98337
701.592	31.78449
701.78	33.93612
701.968	24.05509
702.155	24.66358
702.343	20.19343
702.531	32.27859
702.718	28.35064
702.906	25.21127
703.094	23.86466
703.281	31.87846
703.469	25.80744
703.657	32.2855
703.844	42.9455
704.032	35.37716
704.219	23.82962
704.407	29.60808
704.595	33.29256
704.782	28.07712
704.97	25.32858
705.157	25.37357
705.345	35.06767
705.532	40.24722
705.719	29.55518
705.907	34.6703
706.094	28.96005
706.282	37.21369
706.469	26.11162
706.656	28.38661
706.844	26.89613
707.031	32.47573
707.218	29.67468
707.406	36.58733
707.593	30.71618
707.78	31.26322
707.968	27.23539
708.155	24.02521
708.342	31.41075
708.529	30.61724
708.716	29.2222
708.904	37.37146
709.091	31.90187
709.278	22.90376
709.465	39.44782
709.652	37.79119
709.839	36.24977
710.026	29.94653
710.213	20.35326
710.4	30.89338
710.587	33.23633
710.774	34.14831
710.961	34.14408
711.148	29.2611
711.335	35.38196
711.522	28.06604
711.709	30.56741
711.896	41.65363
712.083	34.89867
712.27	24.86487
712.457	30.53121
712.644	22.63878
712.831	40.82107
713.017	30.81103
713.204	33.38075
713.391	27.31078
713.578	37.24592
713.765	37.40638
713.951	33.22741
714.138	48.66911
714.325	33.86841
714.512	30.52934
714.698	26.64507
714.885	39.92784
715.072	32.41457
715.258	31.88468
715.445	27.38669
715.631	38.32163
715.818	17.51704
716.005	27.17943
716.191	34.83275
716.378	30.05953
716.564	37.22377
716.751	26.21793
716.937	28.57325
717.124	38.8733
717.31	27.26133
717.497	40.85236
717.683	28.33735
717.869	47.25097
718.056	29.4089
718.242	35.06581
718.429	32.19546
718.615	26.6322
718.801	34.12771
718.988	38.85732
719.174	36.79388
719.36	33.3909
719.547	41.68506
719.733	36.07294
719.919	35.78194
720.105	39.21362
720.291	34.14368
720.478	34.96648
720.664	33.83988
720.85	32.05903
721.036	52.61667
721.222	43.39179
721.408	33.36488
721.595	48.54192
721.781	45.28933
721.967	41.36883
722.153	46.3518
722.339	39.65084
722.525	38.55123
722.711	28.80194
722.897	26.93305
723.083	32.06758
723.269	42.73149
723.455	52.56194
723.641	55.46612
723.827	37.14198
724.012	39.62779
724.198	33.15406
724.384	44.53691
724.57	39.49666
724.756	26.18908
724.942	24.12703
725.127	42.16528
725.313	45.48602
725.499	45.89403
725.685	49.17834
725.87	39.83609
726.056	30.52665
726.242	45.85832
726.428	25.46211
726.613	42.4263
726.799	33.63003
726.985	28.87145
727.17	26.10014
727.356	47.72346
727.541	30.11911
727.727	34.42666
727.913	40.86567
728.098	32.97715
728.284	41.338
728.469	26.97187
728.655	30.4413
728.84	40.82554
729.026	42.21854
729.211	42.98106
729.397	38.25999
729.582	41.07143
729.767	36.10374
729.953	38.95516
730.138	44.08506
730.323	21.71304
730.509	28.73734
730.694	47.95971
730.879	39.3777
731.065	37.97221
731.25	52.64292
731.435	41.94411
731.621	25.82964
731.806	30.56748
731.991	38.17043
732.176	26.35951
732.361	46.68625
732.547	37.26419
732.732	25.46214
732.917	53.73548
733.102	28.38677
733.287	31.7506
733.472	36.43381
733.657	37.75092
733.842	25.80762
734.027	35.27541
734.212	36.05281
734.397	31.87283
734.582	37.9247
734.767	44.58949
734.952	49.19032
735.137	19.39029
735.322	49.09807
735.507	41.2796
735.692	40.62595
735.877	56.08637
736.062	52.64383
736.247	42.63008
736.431	37.52063
736.616	49.19253
736.801	41.47099
736.986	39.03395
737.171	33.01056
737.355	30.12819
737.54	49.37498
737.725	38.93913
737.909	62.33363
738.094	33.76165
738.279	46.38439
738.463	36.75151
738.648	44.62112
738.833	42.1315
739.017	53.9785
739.202	36.07615
739.386	38.70801
739.571	31.72555
739.756	44.05211
739.94	38.80879
740.125	47.74894
740.309	32.31153
740.494	46.38813
740.678	39.58507
740.863	44.3585
741.047	42.50738
741.231	51.5984
741.416	32.60732
741.6	55.2655
741.785	35.62214
741.969	47.852
742.153	51.36459
742.338	23.82098
742.522	41.03271
742.706	47.43929
742.89	31.10344
743.075	42.54541
743.259	54.90749
743.443	48.19542
743.627	52.81778
743.812	62.10527
743.996	26.49047
744.18	40.30195
744.364	36.56489
744.548	66.80902
744.732	40.74048
744.916	48.7812
745.1	47.12643
745.285	40.39298
745.469	47.81531
745.653	58.77834
745.837	30.80984
746.021	66.43642
746.205	53.5766
746.389	43.62773
746.573	39.51765
746.757	57.70721
746.94	38.51086
747.124	53.56492
747.308	31.45302
747.492	54.21871
747.676	34.34592
747.86	66.52417
748.044	37.27253
748.227	26.59801
748.411	78.10336
748.595	44.96767
748.779	33.38231
748.963	46.42006
749.146	44.87632
749.33	36.02919
749.514	32.79664
749.697	54.90767
749.881	38.00263
750.065	33.96913
750.248	42.97801
750.432	67.26841
750.616	42.13516
750.799	31.74669
750.983	63.32876
751.166	71.74244
751.35	29.87929
751.533	55.18466
751.717	54.61343
751.9	59.71311
752.084	39.23896
752.267	34.15237
752.451	36.90964
752.634	45.65201
752.818	49.7773
753.001	52.90278
753.184	53.64303
753.368	48.11551
753.551	13.76937
753.734	35.79278
753.918	63.45501
754.101	36.75932
754.284	51.89449
754.467	38.78991
754.651	37.31355
754.834	35.98814
755.017	55.89984
755.2	54.05628
755.384	32.88443
755.567	52.77346
755.75	55.87643
755.933	41.8156
756.116	48.44242
756.299	39.21035
756.482	36.01384
756.665	50.52491
756.848	42.31575
757.032	47.99742
757.215	31.84873
757.398	35.74429
757.581	37.67337
757.764	73.76077
757.947	42.65085
758.129	56.24849
758.312	18.86941
758.495	42.33331
758.678	43.63439
758.861	40.10813
759.044	61.56831
759.227	37.7333
759.41	37.54138
759.592	50.06953
759.775	43.60646
759.958	53.96892
760.141	31.95042
760.324	70.87781
760.506	59.50064
760.689	53.69344
760.872	71.29371
761.054	50.39215
761.237	41.88889
761.42	47.64558
761.602	53.6794
761.785	48.20129
761.968	55.03998
762.15	62.6958
762.333	39.37195
762.515	46.26336
762.698	37.64799
762.88	49.03179
763.063	43.98713
763.245	48.8256
763.428	32.10337
763.61	35.2003
763.793	28.73031
763.975	42.28898
764.158	35.61686
764.34	34.55085
764.522	31.29417
764.705	37.86181
764.887	53.23124
765.069	27.56205
765.252	49.62639
765.434	49.53954
765.616	43.31551
765.799	38.01939
765.981	52.57284
766.163	35.65189
766.345	54.98032
766.528	39.62656
766.71	22.20954
766.892	46.70229
767.074	58.9907
767.256	43.09424
767.438	67.69646
767.62	48.65645
767.802	73.18588
767.985	54.4945
768.167	70.92001
768.349	41.53531
768.531	53.1217
768.713	52.3313
768.895	60.08178
769.077	54.55377
769.259	79.37212
769.441	117.13634
769.623	59.85504
769.804	72.21766
769.986	68.32792
770.168	81.53717
770.35	98.7326
770.532	70.76808
770.714	78.67801
770.896	81.496
771.077	39.63447
771.259	84.76303
771.441	68.31467
771.623	87.22067
771.804	108.48267
771.986	36.84025
772.168	54.48647
772.35	83.97062
772.531	112.77156
772.713	67.06656
772.894	92.00611
773.076	68.64749
773.258	58.75456
773.439	87.27672
773.621	99.83601
773.802	49.57841
773.984	58.69839
774.166	72.0565
774.347	97.74344
774.529	86.09685
774.71	35.8644
774.891	65.59605
775.073	60.36426
775.254	96.98643
775.436	53.38487
775.617	107.72165
775.799	58.10294
775.98	95.52014
776.161	100.29856
776.343	104.84883
776.524	68.45458
776.705	60.61868
776.886	36.47155
777.068	71.5745
777.249	125.52937
777.43	110.04219
777.611	47.20564
777.793	60.50002
777.974	100.32274
778.155	58.87104
778.336	52.8422
778.517	116.53257
778.698	52.17113
778.879	35.91704
779.061	22.35189
779.242	78.25591
779.423	78.57701
779.604	59.03737
779.785	65.25252
779.966	72.19677
780.147	88.96261
780.328	94.17783
780.509	128.54796
780.69	80.0559
780.871	54.6881
781.051	42.78312
781.232	73.36428
781.413	70.2145
781.594	65.27093
781.775	59.01881
781.956	56.36705
782.137	34.84398
782.317	55.75013
782.498	78.88592
782.679	67.85218
782.86	73.29189
783.04	55.53184
783.221	77.80108
783.402	109.9783
783.583	69.69811
783.763	85.78439
783.944	61.12344
784.124	42.63465
784.305	101.03981
784.486	83.84197
784.666	68.72725
784.847	40.03329
785.027	126.59055
785.208	55.4025
785.388	56.91988
785.569	56.84875
785.749	63.44824
785.93	59.71804
786.11	41.4402
786.291	79.20826
786.471	74.58513
786.652	88.18691
786.832	68.54679
787.012	75.64543
787.193	48.78441
787.373	70.99032
787.553	63.67568
787.734	72.95242
787.914	60.05307
788.094	77.65419
788.275	73.64506
788.455	61.86181
788.635	44.1347
788.815	71.41436
788.995	47.76383
789.176	39.23906
789.356	54.83204
789.536	61.17608
789.716	79.63543
789.896	54.49146
790.076	57.80448
790.256	72.02771
790.436	28.05656
790.616	51.36961
790.796	71.52175
790.976	62.7912
791.156	52.04099
791.336	85.71388
791.516	77.61187
791.696	62.00652
791.876	42.72628
792.056	72.26815
792.236	85.82416
792.416	85.41528
792.596	76.51642
792.776	77.18444
792.956	83.04655
793.135	103.2594
793.315	46.84578
793.495	95.67604
793.675	84.57539
793.854	83.28367
794.034	89.20301
794.214	48.08053
794.394	86.25122
794.573	91.09466
794.753	71.54985
794.933	51.15434
795.112	72.43874
795.292	86.41031
795.472	110.31392
795.651	44.53643
795.831	67.39167
796.01	62.24341
796.19	63.05077
796.369	66.58925
796.549	78.88692
796.728	62.37806
796.908	44.68136
797.087	48.79105
797.267	60.10448
797.446	45.78227
797.626	80.38508
797.805	79.06275
797.984	53.23671
798.164	83.73372
798.343	51.0212
798.522	70.99836
798.702	69.54245
798.881	46.72298
799.06	63.83756
799.239	34.45782
799.419	52.89842
799.598	100.98852
799.777	79.29081
799.956	95.96446
800.136	59.24025
800.315	56.06217
800.494	76.89546
800.673	91.46385
800.852	83.05184
801.031	89.40906
801.21	81.55249
801.389	62.27403
801.568	72.84247
801.747	110.38658
801.926	69.96486
802.105	102.30237
802.284	61.16842
802.463	105.94922
802.642	74.14463
802.821	73.83441
803	98.57819
803.179	88.19438
803.358	99.05583
803.537	59.99506
803.716	70.78788
803.895	56.72488
804.073	67.2514
804.252	57.01877
804.431	79.26348
804.61	67.57968
804.789	94.81095
804.967	60.13058
805.146	59.78152
805.325	112.74494
805.503	82.58569
805.682	41.01724
805.861	128.93377
806.039	95.70562
806.218	59.53028
806.397	75.80342
806.575	71.55289
806.754	74.71188
806.932	53.28625
807.111	106.64309
807.289	86.77566
807.468	73.34173
807.646	94.83356
807.825	84.50861
808.003	76.1406
808.182	92.37336
808.36	75.02912
808.539	53.76095
808.717	108.02318
808.895	57.91061
809.074	83.26773
809.252	72.83637
809.43	86.53518
809.609	98.32698
809.787	110.82343
809.965	68.21768
810.144	74.83213
810.322	69.78151
810.5	82.37046
810.678	70.10542
810.856	129.10261
811.035	101.91578
811.213	91.65984
811.391	105.78513
811.569	82.49444
811.747	154.42985
811.925	102.02146
812.103	57.31308
812.281	72.33384
812.459	118.96159
812.637	124.08132
812.816	94.59945
812.994	125.42697
813.171	104.49899
813.349	88.16242
813.527	106.33025
813.705	110.67561
813.883	137.10397
814.061	102.48971
814.239	127.87626
814.417	128.89116
814.595	85.78826
814.773	83.89485
814.95	78.19994
815.128	86.46191
815.306	80.26925
815.484	73.08048
815.662	61.22987
815.839	52.87015
816.017	62.61071
816.195	109.99344
816.372	67.24973
816.55	94.42627
816.728	113.68722
816.905	75.57885
817.083	120.75802
817.261	75.69362
817.438	132.36631
817.616	122.58179
817.793	63.14915
817.971	102.06425
818.148	97.16642
818.326	110.0489
818.503	82.87733
818.681	111.76584
818.858	66.87474
819.036	74.84794
819.213	79.21335
819.391	59.86286
819.568	59.83645
819.745	54.10395
819.923	89.73654
820.1	60.5966
820.277	53.67123
820.455	64.36835
820.632	64.26018
820.809	65.28209
820.986	45.40423
821.164	36.64255
821.341	32.98037
821.518	42.27725
821.695	31.19
821.872	30.35
822.05	27.03005
822.227	22.34274
822.404	23.46018
822.581	26.4904
822.758	23.16142
822.935	23.48055
823.112	26.46344
823.289	22.52588
823.466	27.3659
823.643	25.98569
823.82	30.69751
823.997	28.88925
824.174	34.41444
824.351	43.68904
824.528	42.445
824.705	39.89563
824.882	43.39422
825.059	54.72465
825.236	39.03484
825.412	41.06422
825.589	50.07892
825.766	64.94949
825.943	43.73006
826.12	51.6848
826.296	35.68681
826.473	42.41304
826.65	42.6483
826.827	51.18455
827.003	35.7018
827.18	38.11827
827.357	42.78866
827.533	38.62979
827.71	24.27839
827.887	34.90207
828.063	39.72632
828.24	36.2826
828.416	47.04701
828.593	40.08905
828.769	54.82942
828.946	63.45205
829.122	64.39044
829.299	60.87238
829.475	41.16097
829.652	63.00896
829.828	101.16402
830.005	64.63676
830.181	88.78449
830.357	61.11545
830.534	92.0446
830.71	70.2794
830.886	87.41167
831.063	87.63993
831.239	108.48538
831.415	52.77937
831.592	110.16506
831.768	71.21221
831.944	59.90289
832.12	104.15143
832.296	93.90953
832.473	84.70999
832.649	62.10442
832.825	78.3848
833.001	49.08824
833.177	71.53829
833.353	62.08648
833.529	37.13269
833.705	51.3493
833.881	39.974
834.058	39.47129
834.234	43.29045
834.41	42.61606
834.586	34.55738
834.761	42.3356
834.937	44.99314
835.113	47.72054
835.289	44.79709
835.465	53.57366
835.641	47.13821
835.817	54.23758
835.993	95.27593
836.169	49.94308
836.344	72.91513
836.52	81.78289
836.696	80.20741
836.872	62.26547
837.048	154.21909
837.223	69.09969
837.399	129.16236
837.575	104.94035
837.75	97.04391
837.926	128.16509
838.102	207.61853
838.277	155.72589
838.453	198.12626
838.628	204.99078
838.804	88.3425
838.98	191.00111
839.155	100.48144
839.331	127.75697
839.506	82.8604
839.682	90.53527
839.857	110.78603
840.033	132.30451
840.208	67.59601
840.384	37.78932
840.559	72.72844
840.734	99.00193
840.91	147.10354
841.085	89.69043
841.26	92.22211
841.436	81.33544
841.611	82.10304
841.786	122.48557
841.962	172.53189
842.137	103.1678
842.312	66.72048
842.487	92.86935
842.663	78.41815
842.838	83.33565
843.013	289.72456
843.188	147.13136
843.363	137.65468
843.538	247.51059
843.714	248.08692
843.889	255.84907
844.064	262.51006
844.239	229.55479
844.414	271.73765
844.589	175.03912
844.764	343.59897
844.939	315.63926
845.114	390.22554
845.289	380.26768
845.464	392.50222
845.639	314.35781
845.814	152.29611
845.989	188.94494
846.163	209.22351
846.338	245.20157
846.513	359.01983
846.688	207.57896
846.863	211.06793
847.038	195.98725
847.212	224.05398
847.387	263.136
847.562	273.41565
847.737	306.02035
847.911	119.27021
848.086	146.99532
848.261	476.39418
848.435	191.40458
848.61	313.31242
848.785	153.26315
848.959	329.83597
849.134	450.10387
849.308	541.05731
849.483	236.89509
849.658	359.2671
849.832	193.07376
850.007	167.27746
850.181	648.51073
850.356	187.31327
850.53	540.85641
850.705	139.30973
850.879	95.00955
851.053	211.87485
851.228	185.70471
851.402	310.33037
851.577	342.91827
851.751	447.33768
851.925	256.24356
852.099	118.21029
852.274	170.91677
852.448	214.52756
852.622	315.39015
852.797	240.09701
852.971	252.99364
853.145	255.90686
853.319	676.54571
853.493	368.00084
853.668	209.60104
853.842	431.54605
854.016	336.67482
854.19	404.06677
854.364	249.32824
854.538	268.39773
854.712	351.25993
854.886	236.41688
855.06	212.12048
855.234	87.54729
855.408	450.30378
855.582	364.71911
855.756	366.99056
855.93	469.74072
856.104	250.21364
856.278	355.49208
856.452	221.2854
856.626	319.48987
856.8	559.31538
856.973	296.04037
857.147	285.3613
857.321	307.12268
857.495	359.56288
857.669	250.2327
857.842	207.40419
858.016	350.09039
858.19	161.20637
858.364	846.63237
858.537	198.38541
858.711	240.22715
858.885	226.27566
859.058	213.44727
859.232	117.14881
859.405	139.34677
859.579	360.13502
859.753	300.63376
859.926	165.62261
860.1	111.52693
860.273	234.58604
860.447	470.01238
860.62	238.77544
860.794	477.6002
860.967	278.78688
861.141	379.65401
861.314	691.19439
861.487	306.11853
861.661	414.06003
861.834	530.65061
862.008	362.17635
862.181	249.89822
862.354	248.55944
862.528	332.16348
862.701	199.87809
862.874	145.31105
863.047	213.29333
863.221	202.83363
863.394	118.42085
863.567	372.73949
863.74	93.7627
863.913	364.19506
864.087	299.49552
864.26	344.63991
864.433	198.56565
864.606	557.86567
864.779	246.25988
864.952	126.2518
865.125	198.89553
865.298	236.91488
865.471	233.67201
865.644	508.29652
865.817	376.18927
865.99	332.63659
866.163	482.99484
866.336	208.68704
866.509	240.01632
866.682	196.57135
866.855	414.14878
867.028	146.571
867.2	284.76865
867.373	97.06842
867.546	242.0569
867.719	595.66648
867.892	295.13152
868.064	153.09808
868.237	279.91919
868.41	266.01576
868.583	139.14173
868.755	158.31355
868.928	218.87568
869.101	600.66834
869.273	350.00256
869.446	290.06867
869.619	399.33383
869.791	230.19125
869.964	372.08783
870.136	360.0264
870.309	265.43981
870.481	254.54841
870.654	119.50988
870.826	279.16273
870.999	192.49279
871.171	287.71537
871.344	184.05135
871.516	220.61135
871.689	154.66082
871.861	235.42408
872.033	163.44913
872.206	195.9675
872.378	336.98729
872.55	189.15706
872.723	142.83061
872.895	205.18199
873.067	343.81281
873.24	350.63519
873.412	193.84634
873.584	207.42366
873.756	197.63636
873.928	250.89943
874.101	273.26433
874.273	283.89657
874.445	104.29795
874.617	143.86741
874.789	246.82496
874.961	212.91817
875.133	281.48391
875.305	220.80848
875.477	152.56793
875.649	118.84635
875.821	146.45797
875.993	414.68917
876.165	150.9712
876.337	239.7618
876.509	225.77696
876.681	251.12193
876.853	251.20962
877.025	248.42126
877.197	160.87078
877.369	139.9036
877.541	297.16234
877.712	83.29811
877.884	137.04983
878.056	268.37125
878.228	134.68287
878.4	255.5673
878.571	133.75954
878.743	97.18041
878.915	199.50203
879.086	129.18365
879.258	159.46228
879.43	139.58511
879.601	115.98624
879.773	127.5289
879.945	38.06652
880.116	54.16146
880.288	36.41078
880.459	38.96751
880.631	30.94415
880.802	35.66434
880.974	33.60119
881.145	25.11538
881.317	32.54675
881.488	25.0175
881.66	28.31598
881.831	26.10731
882.002	33.63548
882.174	26.30341
882.345	33.03213
882.517	20.92827
882.688	41.16253
882.859	34.01731
883.03	52.12224
883.202	52.80983
883.373	46.32711
883.544	46.36008
883.715	74.05897
883.887	65.19721
884.058	55.44828
884.229	80.65905
884.4	79.76578
884.571	93.62716
884.742	77.74125
884.914	81.86011
885.085	114.0727
885.256	149.0861
885.427	123.23271
885.598	153.19353
885.769	152.13309
885.94	158.51563
886.111	102.54536
886.282	175.63016
886.453	133.45321
886.624	106.70458
886.795	195.88329
886.966	155.01096
887.136	200.23147
887.307	130.89099
887.478	267.49552
887.649	207.28748
887.82	244.84221
887.991	187.95308
888.161	257.09737
888.332	240.38805
888.503	126.5678
888.674	335.55479
888.844	411.20598
889.015	297.10035
889.186	133.5665
889.356	348.89245
889.527	122.59074
889.698	606.00687
889.868	174.31531
890.039	252.00263
890.209	216.93569
890.38	292.75097
890.551	255.7205
890.721	334.33215
890.892	300.56808
891.062	201.22105
891.233	267.10441
891.403	181.72053
891.574	152.74071
891.744	200.48842
891.914	224.08587
892.085	242.48606
892.255	83.34018
892.425	377.84551
892.596	239.76308
892.766	249.14835
892.936	301.46677
893.107	268.92161
893.277	155.97831
893.447	110.35022
893.618	81.29322
893.788	166.33492
893.958	90.20744
894.128	83.2675
894.298	99.91185
894.468	130.24487
894.639	62.22478
894.809	47.57568
894.979	68.56679
895.149	77.65911
895.319	65.37482
895.489	87.3344
895.659	117.32211
895.829	79.76247
895.999	85.12891
896.169	69.29692
896.339	87.9666
896.509	177.42155
896.679	199.06341
896.849	200.91721
897.019	276.73895
897.189	213.44621
897.358	189.89645
897.528	272.97332
897.698	105.36294
897.868	245.25814
898.038	480.6565
898.208	480.37617
898.377	115.77743
898.547	471.34711
898.717	674.2601
898.886	253.69194
899.056	438.06229
899.226	681.96319
899.395	356.18755
899.565	578.30101
899.735	333.74442
899.904	558.39037
900.074	594.67998
900.244	199.17048
900.413	816.60752
900.583	166.34938
900.752	313.7216
900.922	791.01466
901.091	52.84617
901.261	483.38007
901.43	416.68904
901.599	360.44928
901.769	1410.4996
901.938	598.84024
902.108	465.13299
902.277	794.64595
902.446	149.00507
902.616	163.12125
902.785	212.19649
902.954	401.10338
903.124	252.59183
903.293	197.63805
903.462	97.24685
903.631	145.67409
903.801	109.66107
903.97	59.13933
904.139	94.42305
904.308	75.92515
904.477	62.94303
904.646	39.14296
904.816	59.7259
904.985	90.69968
905.154	138.0309
