Data from WindowProjectSample3_Transmission__25__00025.txt Node

Date: Sun May 04 10:22:37 EDT 2025
User: jessi
Spectrometer: SR400872
Trigger mode: 0
Integration Time (sec): 5.000050E-1
Scans to average: 20
Electric dark correction enabled: true
Nonlinearity correction enabled: true
Boxcar width: 0
XAxis mode: Wavelengths
Number of Pixels in Spectrum: 3648
>>>>>Begin Spectral Data<<<<<
184.909	-1590.75966
185.132	-1250.88807
185.355	-1312.15673
185.578	-1078.13276
185.801	-3477.25079
186.024	-1055.70018
186.247	-1347.1422
186.47	-2741.10388
186.693	-331.40673
186.916	-330.73667
187.139	-1025.81832
187.362	-1717.94573
187.585	-992.6942
187.808	-832.65672
188.031	-253485.5312
188.254	-1236.62213
188.476	-917.88268
188.699	-1058.87764
188.922	531.83292
189.145	-1226.25067
189.368	-1129.89208
189.591	-3577.99875
189.813	-717.75156
190.036	-1243.33844
190.259	-3228.49586
190.482	-1658.37203
190.705	-1694.23877
190.927	-947.74574
191.15	-1656.39796
191.373	-2230.93912
191.595	-2481.48673
191.818	-1253.57023
192.041	-14438.16566
192.263	-1517.39193
192.486	-415.03647
192.709	-1672.57743
192.931	-4256.81956
193.154	-1172.64665
193.377	-1253.44174
193.599	11870.25729
193.822	-793.04244
194.044	-3765.20226
194.267	-4940.77592
194.489	-595.8058
194.712	-1723.06096
194.934	-1624.84779
195.157	-907.88529
195.379	-758.21597
195.602	-791.5378
195.824	-1012.14889
196.047	-913.97115
196.269	-1041.91196
196.492	-1058.37316
196.714	-1082.11697
196.936	-1546.47656
197.159	-900.93926
197.381	-873.85457
197.604	-1127.94825
197.826	-1937.16459
198.048	-1528.73674
198.271	-1231.4501
198.493	-1024.14737
198.715	-841.79564
198.938	-6200.64291
199.16	-1170.47345
199.382	-907.26056
199.604	-9562.09858
199.827	-1624.78078
200.049	-921.94771
200.271	-865.36607
200.493	-2202.38686
200.715	-926.73249
200.938	-745.47709
201.16	-1302.41435
201.382	-2525.75894
201.604	-1281.42077
201.826	-1207.40761
202.048	-549.89744
202.27	-808.63706
202.492	-1980.47878
202.715	-2043.72354
202.937	-2289.49879
203.159	-1145.08012
203.381	-1674.67859
203.603	-1327.23631
203.825	4134.90411
204.047	-1111.30416
204.269	-3030.79497
204.491	-1557.55879
204.713	-764.5387
204.935	-1242.32853
205.156	-1321.88582
205.378	-3872.57229
205.6	-961.04372
205.822	-1090.11945
206.044	2846.06436
206.266	-1315.76256
206.488	-803.33077
206.71	-1838.89027
206.932	-2376.85895
207.153	-1195.14581
207.375	-883.81153
207.597	-1110.82096
207.819	-860.24367
208.041	-1295.84518
208.262	-1170.87823
208.484	-1898.85467
208.706	-833.18126
208.927	-856.05785
209.149	-2280.36534
209.371	-785.20187
209.593	-618.66112
209.814	-608.29545
210.036	-807.41679
210.258	-572.99597
210.479	-1393.90467
210.701	11691.31911
210.922	-804.40274
211.144	-925.44156
211.366	-1999.98086
211.587	10520.33818
211.809	-970.93735
212.03	-3157.25993
212.252	1788.40733
212.473	-1127.18008
212.695	-4619.50499
212.916	-2942.25312
213.138	-5605.60382
213.359	-978.7909
213.581	-1600.93799
213.802	-930.84083
214.024	-1296.51284
214.245	-11473.57086
214.466	-701.77583
214.688	-1289.15706
214.909	-1509.51507
215.131	-1978.94668
215.352	-975.53958
215.573	-1238.44696
215.795	-3195.24331
216.016	-1127.81685
216.237	-4342.59534
216.459	-13111.18568
216.68	-1584.72787
216.901	-1431.0208
217.122	-3301.49743
217.344	-1222.41351
217.565	-1539.32672
217.786	-1473.03105
218.007	-1146.87411
218.228	-5313.85037
218.45	-1135.63353
218.671	-1476.72302
218.892	-1688.96513
219.113	-2294.94279
219.334	-56.6194
219.555	-1370.4981
219.776	-826.84182
219.997	-1372.72848
220.219	-2754.29746
220.44	-1009.08601
220.661	-807.00141
220.882	-986.9808
221.103	-2981.17337
221.324	5782.16134
221.545	-1929.43925
221.766	-1325.15411
221.987	-2307.04133
222.208	-2706.44017
222.429	-934.13608
222.65	-1610.67608
222.87	5529.60273
223.091	-8124.73287
223.312	4112.03669
223.533	-1679.74095
223.754	-1663.67293
223.975	-2465.33207
224.196	144973.39434
224.417	-10127.61055
224.637	1951.50274
224.858	236.19551
225.079	-6982.99431
225.3	2377.12771
225.521	-870.1394
225.741	8171.42497
225.962	6726.88413
226.183	300.62655
226.404	8780.67744
226.624	1710.58562
226.845	7757.58829
227.066	1761.15758
227.286	727.45277
227.507	236.34555
227.728	278.69284
227.948	497.60529
228.169	146.43986
228.389	153.87652
228.61	80.84065
228.831	116.2962
229.051	9.06351
229.272	70.15231
229.492	103.04443
229.713	31.40907
229.933	70.80378
230.154	62.28601
230.374	108.67101
230.595	75.62708
230.815	43.80014
231.036	78.83461
231.256	-8.73719
231.477	140.05814
231.697	80.02871
231.917	81.70705
232.138	120.08197
232.358	235.65195
232.579	205.29266
232.799	31.45488
233.019	198.90979
233.24	231.42291
233.46	78.63325
233.68	128.05274
233.901	80.61855
234.121	55.03159
234.341	16.50083
234.561	-5.99476
234.782	70.70394
235.002	135.35051
235.222	-0.41436
235.442	124.9418
235.662	61.60504
235.883	118.10334
236.103	92.52762
236.323	71.54758
236.543	52.44106
236.763	76.86094
236.983	80.44643
237.203	77.40302
237.423	121.44934
237.643	183.29738
237.864	145.04679
238.084	37.82508
238.304	48.27255
238.524	86.31132
238.744	77.97784
238.964	134.69809
239.184	118.6548
239.404	121.59093
239.624	62.63006
239.843	111.04408
240.063	59.12869
240.283	39.32449
240.503	44.64776
240.723	42.38248
240.943	27.38874
241.163	33.69729
241.383	23.20177
241.603	12.79877
241.822	14.54941
242.042	10.61475
242.262	13.8103
242.482	15.31166
242.702	16.95184
242.921	5.50676
243.141	11.14632
243.361	10.96975
243.581	16.09671
243.8	13.75004
244.02	9.1024
244.24	17.18731
244.459	15.12311
244.679	31.85475
244.899	20.64048
245.118	23.05583
245.338	21.68203
245.558	23.65035
245.777	13.47967
245.997	16.26832
246.216	15.8084
246.436	9.48265
246.655	6.6534
246.875	5.46682
247.094	9.86584
247.314	3.65445
247.533	6.25271
247.753	6.94058
247.972	5.6821
248.192	2.03067
248.411	3.51871
248.631	5.96992
248.85	7.4261
249.07	7.30231
249.289	10.47963
249.508	7.6729
249.728	12.92574
249.947	12.50802
250.166	15.58898
250.386	8.55022
250.605	11.72953
250.824	19.67244
251.044	12.66276
251.263	39.15516
251.482	21.47718
251.701	18.74326
251.921	0.35726
252.14	6.39955
252.359	7.09641
252.578	16.63564
252.798	6.57748
253.017	14.27211
253.236	7.42167
253.455	9.65652
253.674	19.3398
253.893	9.1109
254.112	14.66167
254.331	20.04047
254.551	16.78455
254.77	7.23501
254.989	23.49059
255.208	17.57138
255.427	25.26326
255.646	22.47696
255.865	33.63954
256.084	15.24854
256.303	18.80663
256.522	22.00916
256.741	5.56467
256.96	5.23253
257.179	13.36185
257.397	17.66385
257.616	9.59512
257.835	10.40217
258.054	24.29025
258.273	16.55102
258.492	16.7001
258.711	10.19902
258.93	4.92704
259.148	7.15671
259.367	6.74927
259.586	8.43807
259.805	3.83887
260.023	7.49641
260.242	5.62582
260.461	4.38158
260.68	2.22619
260.898	6.61704
261.117	2.43439
261.336	1.78508
261.554	5.7347
261.773	5.98664
261.992	1.60324
262.21	5.69903
262.429	6.58915
262.648	11.0568
262.866	12.69856
263.085	9.54629
263.303	7.95588
263.522	14.02043
263.74	13.59464
263.959	23.53982
264.178	12.66363
264.396	10.78012
264.615	7.63421
264.833	17.44323
265.051	15.23955
265.27	17.09988
265.488	16.99201
265.707	10.1354
265.925	16.3685
266.144	8.11936
266.362	8.66124
266.58	8.90752
266.799	7.68959
267.017	9.22154
267.235	8.39887
267.454	5.62546
267.672	2.93496
267.89	6.92371
268.109	7.28394
268.327	7.29425
268.545	1.42355
268.763	6.53733
268.982	2.89654
269.2	7.63267
269.418	5.17264
269.636	3.87613
269.854	7.26893
270.073	5.28472
270.291	2.85775
270.509	3.01447
270.727	7.05451
270.945	11.25705
271.163	10.91086
271.381	2.95868
271.599	4.73728
271.817	7.70805
272.036	2.9651
272.254	5.42598
272.472	3.59159
272.69	3.91329
272.908	3.93568
273.126	6.28646
273.344	8.12394
273.562	2.88859
273.779	4.18246
273.997	6.66612
274.215	6.42012
274.433	4.84264
274.651	6.94265
274.869	7.10133
275.087	4.05897
275.305	6.50814
275.523	4.08495
275.74	4.76078
275.958	8.55514
276.176	12.24065
276.394	3.83842
276.612	5.01272
276.829	4.99766
277.047	4.71665
277.265	4.69381
277.483	5.53263
277.7	6.25186
277.918	5.26649
278.136	9.46883
278.353	4.76606
278.571	2.80302
278.789	7.45068
279.006	1.51675
279.224	4.50193
279.442	7.67717
279.659	5.43893
279.877	3.5824
280.094	8.21782
280.312	1.75577
280.529	5.36965
280.747	1.94184
280.964	4.41854
281.182	8.70664
281.399	4.58803
281.617	5.32378
281.834	3.81228
282.052	3.03653
282.269	5.08965
282.487	4.03828
282.704	3.58689
282.921	3.32038
283.139	5.24353
283.356	6.43588
283.574	5.95845
283.791	2.8751
284.008	7.98403
284.226	4.76766
284.443	5.16824
284.66	6.1405
284.877	5.41664
285.095	3.31744
285.312	2.5463
285.529	1.3984
285.746	1.34929
285.964	3.26944
286.181	2.11322
286.398	2.98475
286.615	4.21448
286.832	4.09521
287.05	1.08593
287.267	2.87143
287.484	4.10639
287.701	4.27724
287.918	3.98321
288.135	4.08161
288.352	1.8127
288.569	2.30976
288.786	3.90474
289.003	2.95331
289.22	4.69485
289.437	2.66436
289.654	4.27212
289.871	4.27837
290.088	4.32481
290.305	3.39225
290.522	2.94214
290.739	3.05847
290.956	4.69788
291.173	5.50837
291.39	5.17178
291.607	3.5491
291.824	3.04168
292.04	2.17096
292.257	4.43831
292.474	5.01047
292.691	3.28294
292.908	1.43217
293.125	2.7131
293.341	1.70039
293.558	7.47771
293.775	3.24788
293.992	3.23398
294.208	1.2939
294.425	2.17456
294.642	2.79506
294.858	4.01856
295.075	1.15966
295.292	3.18555
295.508	3.58288
295.725	5.25004
295.942	2.62168
296.158	1.77691
296.375	3.07625
296.591	2.40143
296.808	2.40523
297.024	2.96746
297.241	3.20279
297.458	3.37423
297.674	0.37263
297.891	2.70752
298.107	2.12173
298.323	1.69972
298.54	4.04979
298.756	2.02085
298.973	0.94176
299.189	4.30523
299.406	2.06523
299.622	4.2852
299.838	4.20051
300.055	3.9346
300.271	0.92958
300.487	1.53989
300.704	1.7596
300.92	1.03053
301.136	5.55455
301.353	4.26656
301.569	2.98512
301.785	3.1642
302.001	3.87812
302.218	3.48143
302.434	3.55102
302.65	1.3077
302.866	2.19194
303.083	5.85559
303.299	5.52257
303.515	2.93042
303.731	3.16845
303.947	1.0619
304.163	2.01436
304.379	3.2216
304.595	3.55048
304.812	2.12737
305.028	1.68463
305.244	2.52082
305.46	3.89595
305.676	3.81479
305.892	4.8038
306.108	3.48849
306.324	2.45121
306.54	5.3672
306.756	3.70162
306.972	3.49683
307.187	2.52307
307.403	4.97299
307.619	2.13181
307.835	4.44874
308.051	4.5543
308.267	1.53604
308.483	4.25267
308.699	3.49934
308.914	2.79518
309.13	2.90078
309.346	0.75525
309.562	1.43462
309.778	0.77996
309.993	3.56809
310.209	2.74144
310.425	1.24555
310.641	2.32888
310.856	1.41559
311.072	1.46113
311.288	2.58562
311.503	2.78704
311.719	0.58362
311.935	0.40821
312.15	3.05732
312.366	2.74329
312.581	3.40265
312.797	2.69076
313.013	3.63951
313.228	1.98876
313.444	2.79687
313.659	1.69713
313.875	3.224
314.09	2.68486
314.306	4.52289
314.521	3.80373
314.737	3.69978
314.952	3.07933
315.168	2.82102
315.383	3.37806
315.599	2.57552
315.814	2.339
316.029	4.01518
316.245	1.15731
316.46	0.8523
316.675	4.61772
316.891	5.30798
317.106	6.75667
317.321	3.7009
317.537	3.41004
317.752	3.75589
317.967	3.9113
318.183	1.93717
318.398	2.54828
318.613	3.91375
318.828	4.66031
319.043	4.08553
319.259	2.66694
319.474	3.0938
319.689	4.3687
319.904	0.72166
320.119	3.81874
320.334	3.21887
320.549	2.59663
320.765	4.63979
320.98	3.34036
321.195	4.09527
321.41	2.75872
321.625	3.97077
321.84	5.26849
322.055	5.30534
322.27	1.96162
322.485	1.45247
322.7	3.24483
322.915	4.24138
323.13	1.86261
323.345	4.92874
323.56	3.86643
323.775	3.76053
323.989	3.65683
324.204	3.19875
324.419	3.90717
324.634	1.08
324.849	2.73409
325.064	5.37321
325.279	4.02254
325.493	3.55472
325.708	4.26415
325.923	1.93645
326.138	2.01223
326.352	5.04243
326.567	3.98927
326.782	2.51299
326.997	1.91832
327.211	3.61094
327.426	3.46935
327.641	2.51621
327.855	0.93489
328.07	3.62447
328.285	4.98756
328.499	2.62493
328.714	3.32721
328.928	4.00829
329.143	2.8718
329.358	4.4445
329.572	4.43605
329.787	4.49522
330.001	6.18761
330.216	1.31533
330.43	5.08355
330.645	5.26149
330.859	4.07552
331.074	2.04857
331.288	3.22173
331.503	4.78407
331.717	1.64686
331.931	2.91523
332.146	3.19199
332.36	5.46693
332.575	3.63177
332.789	3.28919
333.003	2.79366
333.218	3.67589
333.432	2.03523
333.646	3.72079
333.86	4.89759
334.075	5.06417
334.289	2.43604
334.503	1.72023
334.717	3.5733
334.932	3.60685
335.146	4.18133
335.36	2.41018
335.574	3.97645
335.788	3.78133
336.003	4.53296
336.217	4.05479
336.431	3.7186
336.645	2.42008
336.859	1.59503
337.073	2.91423
337.287	3.12506
337.501	1.66628
337.715	3.06707
337.929	3.5802
338.143	1.5389
338.357	2.80722
338.571	1.78371
338.785	3.54282
338.999	2.32773
339.213	2.23791
339.427	1.31108
339.641	4.39032
339.855	2.65152
340.069	2.21271
340.283	4.2729
340.497	4.85986
340.711	3.43254
340.924	2.57827
341.138	1.62533
341.352	1.36587
341.566	2.98436
341.78	0.59616
341.993	2.13456
342.207	1.66927
342.421	3.11453
342.635	2.79637
342.848	2.07914
343.062	0.30053
343.276	1.97517
343.49	5.41171
343.703	1.9885
343.917	3.79626
344.131	3.86451
344.344	1.86429
344.558	2.06254
344.771	1.7004
344.985	4.06263
345.199	4.66595
345.412	3.0519
345.626	2.97414
345.839	0.88985
346.053	1.50406
346.266	1.44437
346.48	3.43813
346.693	3.04735
346.907	3.29037
347.12	1.59955
347.334	3.0047
347.547	3.08341
347.76	2.37467
347.974	4.03411
348.187	3.09087
348.401	2.25553
348.614	1.87795
348.827	2.36052
349.041	3.29614
349.254	0.68435
349.467	2.37733
349.681	1.22225
349.894	2.08445
350.107	3.83725
350.32	4.66885
350.534	0.92292
350.747	2.22156
350.96	1.62555
351.173	1.72934
351.386	2.0633
351.6	2.10711
351.813	1.76072
352.026	2.72825
352.239	1.19815
352.452	2.34324
352.665	3.5737
352.878	2.22359
353.092	4.98533
353.305	3.28363
353.518	2.70103
353.731	1.6749
353.944	3.6429
354.157	1.77676
354.37	1.60349
354.583	1.38287
354.796	0.73158
355.009	3.87613
355.222	2.59767
355.435	2.5492
355.647	3.67684
355.86	1.27719
356.073	2.34147
356.286	1.90024
356.499	3.24589
356.712	2.82631
356.925	2.81116
357.138	3.4489
357.35	1.24984
357.563	1.95375
357.776	2.32172
357.989	1.99635
358.201	2.93983
358.414	2.46727
358.627	3.47316
358.84	2.09016
359.052	1.26662
359.265	1.10007
359.478	3.32576
359.69	-0.40914
359.903	3.04145
360.116	2.99769
360.328	0.66519
360.541	3.04145
360.753	1.18923
360.966	1.54477
361.179	1.68453
361.391	1.59227
361.604	1.13322
361.816	1.63577
362.029	1.36261
362.241	1.18601
362.454	1.48766
362.666	1.25391
362.879	2.05195
363.091	1.73672
363.304	1.30744
363.516	2.0087
363.728	0.86979
363.941	2.73728
364.153	1.455
364.366	-0.10442
364.578	1.0595
364.79	2.54308
365.003	1.96315
365.215	1.57601
365.427	2.49916
365.639	3.28576
365.852	2.22334
366.064	3.883
366.276	1.52561
366.488	2.58337
366.701	1.604
366.913	1.88212
367.125	1.92812
367.337	1.42378
367.549	1.49288
367.762	2.16546
367.974	2.08302
368.186	1.38881
368.398	3.00034
368.61	2.76914
368.822	2.76673
369.034	2.08
369.246	2.64399
369.458	4.4159
369.67	1.03305
369.882	3.84867
370.094	0.09472
370.306	3.58066
370.518	1.68596
370.73	1.39746
370.942	1.24526
371.154	1.80637
371.366	1.35904
371.578	2.28608
371.79	1.20404
372.002	3.1127
372.214	3.7029
372.425	2.24828
372.637	3.31447
372.849	2.30605
373.061	-0.0182
373.273	2.5715
373.484	2.51369
373.696	2.76665
373.908	-0.09692
374.12	3.13035
374.331	2.40503
374.543	1.33251
374.755	1.05923
374.967	2.15076
375.178	2.76547
375.39	1.74503
375.602	1.9893
375.813	0.8108
376.025	0.78728
376.236	1.81708
376.448	2.12601
376.66	1.54168
376.871	1.40723
377.083	2.67617
377.294	2.84506
377.506	1.476
377.717	3.25427
377.929	2.08083
378.14	1.08693
378.352	2.49259
378.563	2.31974
378.775	3.1303
378.986	1.34452
379.197	2.17704
379.409	1.43359
379.62	2.79569
379.832	2.12923
380.043	1.59734
380.254	2.18146
380.466	0.77437
380.677	4.48107
380.888	4.13675
381.1	4.47316
381.311	4.16107
381.522	1.87831
381.733	4.88034
381.945	1.5884
382.156	2.10117
382.367	1.42493
382.578	4.46188
382.789	4.50735
383.001	1.55646
383.212	3.15113
383.423	3.31481
383.634	3.13624
383.845	2.29062
384.056	1.51835
384.267	1.8711
384.478	1.79751
384.69	0.86858
384.901	2.4631
385.112	2.31824
385.323	3.47078
385.534	2.38426
385.745	2.19903
385.956	2.42758
386.167	1.01236
386.378	2.45017
386.588	0.86373
386.799	1.28529
387.01	0.4642
387.221	2.75396
387.432	1.91788
387.643	3.75061
387.854	1.81298
388.065	1.5931
388.275	1.76092
388.486	1.60619
388.697	1.78329
388.908	1.66898
389.119	2.96358
389.329	3.63154
389.54	2.06846
389.751	2.28615
389.962	3.1555
390.172	2.2197
390.383	1.50314
390.594	1.41585
390.804	1.36005
391.015	1.31701
391.226	2.00628
391.436	2.5013
391.647	2.26147
391.858	2.55113
392.068	0.53538
392.279	0.87915
392.489	1.96884
392.7	2.90439
392.91	0.93797
393.121	1.26962
393.331	2.37531
393.542	3.00388
393.752	2.54718
393.963	2.02653
394.173	1.96522
394.384	2.6328
394.594	1.94622
394.804	1.00106
395.015	2.08919
395.225	2.6318
395.436	1.02572
395.646	2.57243
395.856	1.30745
396.067	0.99022
396.277	3.00416
396.487	2.45314
396.697	2.14656
396.908	2.86968
397.118	2.81945
397.328	2.44856
397.538	3.11021
397.749	1.53045
397.959	3.01598
398.169	2.84216
398.379	0.99018
398.589	2.88674
398.8	2.2643
399.01	2.22714
399.22	1.92391
399.43	4.23746
399.64	1.82178
399.85	2.88606
400.06	2.17507
400.27	1.78276
400.48	2.27832
400.69	3.57704
400.9	1.76978
401.11	1.70072
401.32	3.1448
401.53	1.88046
401.74	3.8814
401.95	3.00277
402.16	1.53058
402.37	2.79114
402.58	1.8564
402.79	2.9475
403	3.24899
403.209	1.92653
403.419	3.07918
403.629	2.05762
403.839	3.10291
404.049	3.13777
404.258	1.72259
404.468	1.60882
404.678	2.94909
404.888	3.00651
405.097	1.73974
405.307	2.4353
405.517	2.91217
405.727	2.63522
405.936	2.25605
406.146	2.71777
406.356	3.70586
406.565	2.61797
406.775	2.1779
406.984	2.30866
407.194	4.07798
407.404	2.73512
407.613	2.93519
407.823	3.4395
408.032	3.8462
408.242	3.55613
408.451	2.31307
408.661	2.59908
408.87	4.37655
409.08	2.30945
409.289	3.16929
409.499	3.03737
409.708	3.00506
409.918	1.20004
410.127	2.81743
410.336	4.21787
410.546	3.41804
410.755	2.54109
410.964	2.47638
411.174	2.35421
411.383	3.45804
411.592	3.44589
411.802	2.14098
412.011	3.91998
412.22	3.07902
412.429	4.45224
412.639	4.2265
412.848	4.27454
413.057	4.49375
413.266	4.13114
413.475	3.15285
413.685	3.96918
413.894	3.96346
414.103	4.27727
414.312	3.74899
414.521	3.1776
414.73	3.2709
414.939	4.8491
415.148	3.69323
415.357	3.51825
415.566	2.99624
415.776	3.02878
415.985	2.89131
416.194	4.00504
416.403	4.6519
416.611	2.29899
416.82	2.81582
417.029	3.29193
417.238	2.72129
417.447	2.53934
417.656	2.85754
417.865	2.70897
418.074	2.85046
418.283	3.15806
418.492	3.79481
418.7	3.68289
418.909	4.35313
419.118	3.30977
419.327	3.5436
419.536	3.34963
419.744	2.83341
419.953	3.9405
420.162	3.9465
420.371	2.96639
420.579	2.97422
420.788	4.04292
420.997	3.98192
421.205	4.12696
421.414	3.72644
421.623	3.80169
421.831	3.35368
422.04	4.20584
422.249	3.21031
422.457	3.86375
422.666	3.19241
422.874	4.19782
423.083	4.22055
423.291	4.1697
423.5	3.86175
423.708	4.08541
423.917	4.51152
424.125	4.03935
424.334	3.68548
424.542	5.53532
424.751	4.77675
424.959	4.51012
425.167	4.84209
425.376	4.72881
425.584	3.83657
425.793	4.16501
426.001	3.40086
426.209	4.50635
426.418	3.40923
426.626	3.64493
426.834	3.29424
427.042	3.91286
427.251	3.53019
427.459	4.55788
427.667	4.16928
427.875	3.07466
428.084	3.58161
428.292	4.92825
428.5	4.27135
428.708	3.39041
428.916	3.33051
429.124	4.05966
429.333	3.66992
429.541	3.78353
429.749	3.96017
429.957	3.92075
430.165	5.67881
430.373	3.12032
430.581	4.11663
430.789	5.0452
430.997	3.81374
431.205	3.61659
431.413	4.13365
431.621	3.75362
431.829	4.57774
432.037	3.69718
432.245	4.50206
432.453	4.29146
432.661	3.8033
432.869	5.45581
433.076	3.3382
433.284	3.99498
433.492	4.40811
433.7	4.93695
433.908	3.80702
434.116	4.11194
434.323	4.26839
434.531	4.08362
434.739	4.44542
434.947	4.77844
435.154	4.70675
435.362	4.3432
435.57	3.98522
435.778	3.90168
435.985	4.4937
436.193	3.76526
436.401	5.03353
436.608	4.21563
436.816	3.92501
437.023	5.43691
437.231	5.52068
437.439	4.41849
437.646	4.58306
437.854	4.60552
438.061	4.7322
438.269	4.10774
438.476	4.73128
438.684	4.38044
438.891	4.04306
439.099	3.74652
439.306	3.2636
439.514	3.58737
439.721	4.49033
439.929	3.9191
440.136	4.5561
440.343	4.43224
440.551	4.0053
440.758	5.45161
440.965	4.69622
441.173	4.44253
441.38	3.93591
441.587	4.54374
441.795	4.04577
442.002	4.52275
442.209	4.63519
442.416	4.89279
442.624	4.74839
442.831	4.68934
443.038	4.04966
443.245	3.68664
443.452	4.10018
443.66	4.99894
443.867	3.83068
444.074	4.03109
444.281	3.85035
444.488	4.20182
444.695	4.29476
444.902	3.95417
445.109	4.67924
445.316	4.06099
445.523	4.03817
445.73	3.86366
445.937	4.57603
446.144	4.94649
446.351	4.98674
446.558	4.11812
446.765	5.37929
446.972	5.23192
447.179	4.58241
447.386	5.53507
447.593	4.12105
447.8	5.16868
448.007	4.27107
448.214	4.4667
448.42	4.04274
448.627	5.31109
448.834	4.32062
449.041	4.22294
449.248	4.32265
449.454	5.11202
449.661	5.86853
449.868	4.29892
450.075	3.98835
450.281	3.06812
450.488	3.7541
450.695	3.94301
450.901	3.80347
451.108	4.27788
451.315	5.13639
451.521	4.27003
451.728	5.09632
451.935	3.90321
452.141	4.42855
452.348	4.38257
452.554	4.41639
452.761	4.16335
452.967	5.57676
453.174	4.50256
453.38	4.63176
453.587	3.57905
453.793	4.492
454	5.12798
454.206	6.00265
454.413	5.42356
454.619	4.75708
454.825	3.94294
455.032	4.89972
455.238	5.31346
455.445	3.67105
455.651	4.63411
455.857	3.15164
456.064	4.32253
456.27	4.32585
456.476	4.32414
456.682	3.45438
456.889	4.67205
457.095	4.82521
457.301	6.1403
457.507	4.49174
457.714	4.56419
457.92	4.489
458.126	3.89242
458.332	4.19508
458.538	3.88261
458.744	4.03625
458.951	3.98139
459.157	5.28527
459.363	4.40927
459.569	4.3398
459.775	5.07451
459.981	4.08567
460.187	4.6183
460.393	4.98024
460.599	5.32492
460.805	4.58984
461.011	4.61824
461.217	5.51546
461.423	5.42418
461.629	4.40401
461.835	5.11561
462.041	4.41942
462.247	5.86272
462.453	4.44887
462.658	4.63971
462.864	5.14416
463.07	4.78538
463.276	4.7764
463.482	4.85561
463.688	5.54403
463.893	4.27024
464.099	4.43764
464.305	5.77797
464.511	4.2128
464.716	4.61397
464.922	5.159
465.128	4.13945
465.333	5.9744
465.539	5.08748
465.745	4.49127
465.95	4.86735
466.156	6.64524
466.362	5.48829
466.567	4.48142
466.773	4.34
466.978	5.76245
467.184	3.92263
467.389	3.15613
467.595	5.08109
467.8	3.96941
468.006	5.63657
468.211	5.50065
468.417	3.9905
468.622	5.13282
468.828	5.12417
469.033	4.88293
469.239	6.77069
469.444	4.37003
469.649	5.42342
469.855	4.58215
470.06	4.87519
470.266	3.99452
470.471	5.21029
470.676	5.01542
470.881	3.51896
471.087	5.79464
471.292	6.03527
471.497	3.85507
471.703	4.60204
471.908	4.31464
472.113	4.85041
472.318	5.30487
472.523	3.95639
472.729	4.96719
472.934	5.09058
473.139	4.45946
473.344	5.20284
473.549	5.58868
473.754	4.15222
473.959	6.23812
474.164	4.19681
474.369	4.64211
474.575	5.42868
474.78	4.7512
474.985	4.49488
475.19	3.51737
475.395	4.1221
475.6	4.52709
475.804	5.62925
476.009	4.70474
476.214	4.73373
476.419	4.39452
476.624	3.46711
476.829	4.09485
477.034	4.89224
477.239	4.08167
477.444	4.77598
477.648	5.01289
477.853	4.99014
478.058	4.25203
478.263	4.18315
478.468	3.76432
478.672	3.90024
478.877	5.43936
479.082	5.87699
479.287	4.78546
479.491	4.58096
479.696	3.76407
479.901	5.16215
480.105	4.9566
480.31	4.1008
480.515	4.2722
480.719	6.01068
480.924	3.93932
481.128	3.61323
481.333	4.40647
481.538	4.46626
481.742	4.04574
481.947	4.40859
482.151	4.83106
482.356	4.89513
482.56	5.96667
482.765	6.4856
482.969	7.95774
483.174	8.96506
483.378	10.49287
483.582	10.45641
483.787	11.37563
483.991	11.45969
484.196	11.4563
484.4	11.15316
484.604	11.42111
484.809	9.90187
485.013	9.52229
485.217	8.42798
485.422	7.43113
485.626	6.78506
485.83	6.40208
486.034	6.20894
486.239	6.51093
486.443	6.59295
486.647	6.59657
486.851	7.47344
487.055	8.13199
487.26	7.59786
487.464	8.17346
487.668	7.70587
487.872	7.66904
488.076	8.14657
488.28	7.64072
488.484	6.99134
488.688	6.79394
488.892	6.78181
489.096	6.36716
489.3	5.56742
489.504	5.32935
489.708	5.34733
489.912	5.33058
490.116	5.0422
490.32	4.51663
490.524	5.46849
490.728	5.68195
490.932	5.78835
491.136	5.9411
491.34	6.98215
491.544	7.07533
491.748	6.67396
491.951	6.74306
492.155	6.3942
492.359	6.39078
492.563	5.41617
492.767	5.0635
492.97	4.68674
493.174	4.05577
493.378	4.24414
493.582	3.89653
493.785	4.36343
493.989	4.53288
494.193	4.53377
494.396	4.14634
494.6	4.88841
494.804	4.31731
495.007	3.99166
495.211	3.90764
495.414	4.22768
495.618	4.30231
495.822	4.91442
496.025	4.17904
496.229	4.80894
496.432	3.65648
496.636	4.20506
496.839	4.01237
497.043	5.22206
497.246	4.2551
497.45	3.88233
497.653	4.0429
497.856	4.35609
498.06	3.52904
498.263	3.97321
498.467	3.77127
498.67	4.9082
498.873	4.55296
499.077	3.97939
499.28	3.89603
499.483	4.46889
499.686	4.69006
499.89	4.54721
500.093	4.66774
500.296	3.7264
500.499	5.26074
500.703	4.21114
500.906	4.33037
501.109	5.53542
501.312	4.28533
501.515	4.06189
501.719	4.50368
501.922	5.27602
502.125	4.49322
502.328	4.11224
502.531	3.4705
502.734	4.23971
502.937	2.88621
503.14	4.16593
503.343	3.35672
503.546	3.81779
503.749	3.72743
503.952	4.37115
504.155	3.40367
504.358	4.53948
504.561	4.08537
504.764	3.28616
504.967	4.00272
505.17	4.1044
505.373	5.2536
505.576	4.09747
505.778	4.59506
505.981	3.69294
506.184	4.9875
506.387	2.92997
506.59	5.36009
506.793	4.90853
506.995	4.46729
507.198	2.81185
507.401	4.1071
507.604	4.35504
507.806	3.35947
508.009	3.4928
508.212	4.30594
508.414	3.56118
508.617	3.34863
508.82	3.82421
509.022	4.62848
509.225	4.13804
509.427	2.87161
509.63	4.85906
509.833	3.88193
510.035	3.73951
510.238	2.91526
510.44	4.68287
510.643	2.44557
510.845	5.46024
511.048	4.21265
511.25	3.57656
511.453	3.86304
511.655	4.18401
511.858	3.59479
512.06	4.40843
512.262	3.87353
512.465	4.38172
512.667	3.38731
512.869	3.24615
513.072	4.18421
513.274	4.50815
513.476	4.21092
513.679	4.51558
513.881	3.17915
514.083	5.1068
514.286	3.44596
514.488	3.60853
514.69	3.24866
514.892	3.11234
515.094	4.25051
515.297	3.56029
515.499	3.94928
515.701	3.33061
515.903	4.97438
516.105	4.9358
516.307	4.32277
516.509	2.55756
516.711	2.87358
516.913	3.81437
517.116	3.6096
517.318	3.3745
517.52	4.41082
517.722	4.00246
517.924	2.76368
518.126	3.83569
518.328	3.07333
518.529	3.79678
518.731	4.52267
518.933	3.18034
519.135	3.52422
519.337	4.24248
519.539	3.84642
519.741	2.60732
519.943	3.56803
520.145	3.4681
520.346	3.9278
520.548	3.42645
520.75	3.96277
520.952	3.44425
521.153	3.78893
521.355	4.0173
521.557	2.97735
521.759	3.94997
521.96	3.79692
522.162	3.08023
522.364	4.48291
522.565	3.17327
522.767	4.1771
522.969	4.63963
523.17	4.01815
523.372	4.04779
523.573	3.12667
523.775	3.54575
523.977	2.97819
524.178	4.63941
524.38	3.04812
524.581	4.02153
524.783	3.21772
524.984	3.75063
525.186	3.37845
525.387	3.75685
525.589	3.36319
525.79	3.18973
525.991	2.88995
526.193	3.57463
526.394	2.54209
526.596	3.46243
526.797	3.36973
526.998	3.16034
527.2	2.77186
527.401	4.29305
527.602	4.26089
527.803	5.6968
528.005	5.437
528.206	6.03651
528.407	6.31075
528.608	5.95185
528.81	6.11361
529.011	5.45367
529.212	6.42111
529.413	5.63861
529.614	5.23081
529.815	5.13097
530.017	4.7268
530.218	4.19058
530.419	3.45843
530.62	3.60756
530.821	3.53329
531.022	2.74063
531.223	3.81432
531.424	3.75379
531.625	3.60059
531.826	3.42764
532.027	3.44301
532.228	4.3604
532.429	3.84036
532.63	3.79446
532.831	4.21226
533.032	4.19009
533.233	4.6474
533.433	4.39046
533.634	4.61206
533.835	3.89881
534.036	3.59105
534.237	3.6828
534.438	3.28676
534.638	2.88236
534.839	2.99918
535.04	3.70148
535.241	3.08138
535.441	4.32414
535.642	3.66851
535.843	2.72174
536.043	2.65871
536.244	2.93579
536.445	2.88625
536.645	3.84005
536.846	3.31692
537.047	4.05916
537.247	2.89751
537.448	3.28312
537.648	3.40444
537.849	3.39596
538.049	3.43153
538.25	4.08066
538.451	3.80697
538.651	3.08426
538.851	3.86409
539.052	4.33842
539.252	4.00594
539.453	3.45061
539.653	3.5107
539.854	3.37344
540.054	3.16846
540.254	3.88913
540.455	4.13437
540.655	3.55629
540.855	4.31917
541.056	4.78768
541.256	4.28994
541.456	5.12962
541.657	4.24573
541.857	5.27613
542.057	3.7873
542.257	3.71809
542.458	4.38916
542.658	4.37532
542.858	3.01424
543.058	4.06724
543.258	3.72872
543.458	2.80514
543.659	2.58278
543.859	3.85484
544.059	3.83581
544.259	3.38805
544.459	3.99717
544.659	3.05762
544.859	3.9036
545.059	3.24058
545.259	3.87968
545.459	3.59819
545.659	4.01777
545.859	3.48222
546.059	3.69359
546.259	2.90787
546.459	2.46543
546.659	2.86425
546.859	3.93237
547.059	3.80951
547.258	3.95488
547.458	3.83187
547.658	2.80316
547.858	3.03954
548.058	3.94926
548.258	3.64318
548.457	3.14963
548.657	5.86846
548.857	3.73541
549.057	4.54806
549.256	4.19075
549.456	3.78152
549.656	2.45337
549.855	5.61557
550.055	3.92323
550.255	5.6976
550.454	4.45396
550.654	5.09902
550.853	5.31136
551.053	5.01964
551.253	4.47006
551.452	4.48018
551.652	3.12702
551.851	2.59522
552.051	3.7171
552.25	3.6387
552.45	3.33943
552.649	3.73989
552.849	3.18921
553.048	3.9981
553.248	4.45008
553.447	3.35129
553.646	4.89492
553.846	5.47748
554.045	5.12184
554.244	3.33037
554.444	5.95362
554.643	3.47727
554.842	5.51938
555.042	6.34114
555.241	4.03746
555.44	3.5742
555.64	4.64394
555.839	5.95303
556.038	4.98352
556.237	4.00629
556.436	4.26441
556.636	4.65516
556.835	3.71469
557.034	5.88627
557.233	4.45919
557.432	3.46004
557.631	5.58428
557.83	4.43126
558.029	4.0682
558.228	4.24556
558.427	3.57646
558.626	4.92574
558.825	3.91257
559.024	4.87176
559.223	6.20979
559.422	4.4947
559.621	5.02639
559.82	2.54498
560.019	4.63146
560.218	4.20454
560.417	2.04654
560.616	4.33789
560.815	7.56085
561.014	3.1593
561.212	5.50838
561.411	4.75857
561.61	3.14293
561.809	4.23587
562.008	6.03127
562.206	4.75962
562.405	5.18951
562.604	4.65005
562.803	4.63027
563.001	4.44228
563.2	3.24387
563.399	5.06546
563.597	3.57242
563.796	4.78007
563.995	3.29031
564.193	5.24206
564.392	4.03186
564.59	6.63523
564.789	2.77493
564.988	4.10886
565.186	4.59029
565.385	4.53148
565.583	3.92647
565.782	4.28866
565.98	3.99219
566.179	4.28201
566.377	3.21139
566.575	3.62368
566.774	5.34964
566.972	5.18551
567.171	6.34619
567.369	5.71236
567.567	4.56326
567.766	4.99364
567.964	2.706
568.162	5.24085
568.361	5.61455
568.559	4.56916
568.757	5.30633
568.956	4.97458
569.154	4.62051
569.352	5.58993
569.55	4.64683
569.748	4.70511
569.947	3.90098
570.145	4.02706
570.343	3.63592
570.541	5.71301
570.739	3.28614
570.937	4.63068
571.135	4.97651
571.333	6.17613
571.532	5.92477
571.73	4.80425
571.928	5.64622
572.126	4.99
572.324	4.08104
572.522	5.76277
572.72	7.13524
572.918	4.63252
573.116	4.88469
573.313	4.79123
573.511	4.61147
573.709	4.53974
573.907	5.33793
574.105	4.41667
574.303	3.2796
574.501	3.46179
574.699	4.92279
574.896	5.06317
575.094	5.36304
575.292	3.73849
575.49	5.65072
575.688	4.78501
575.885	6.21963
576.083	6.86836
576.281	5.34581
576.478	4.76366
576.676	5.61718
576.874	4.05835
577.071	4.85134
577.269	7.60291
577.467	5.13194
577.664	5.42295
577.862	6.16596
578.059	4.59941
578.257	6.24038
578.455	4.94038
578.652	5.37115
578.85	3.58099
579.047	5.69883
579.245	5.45699
579.442	5.48134
579.64	5.49505
579.837	3.63769
580.034	8.13528
580.232	5.07407
580.429	4.43978
580.627	6.3608
580.824	7.14879
581.021	6.26924
581.219	5.49714
581.416	4.94223
581.613	7.30308
581.811	7.07607
582.008	4.85195
582.205	6.88811
582.402	6.00209
582.6	8.39626
582.797	6.39238
582.994	6.61863
583.191	6.72909
583.388	6.12949
583.586	6.98577
583.783	7.42804
583.98	4.83131
584.177	6.24368
584.374	2.92668
584.571	5.90226
584.768	5.86983
584.965	5.92371
585.162	7.04959
585.359	7.9689
585.556	6.11122
585.753	6.64192
585.95	4.79602
586.147	5.2329
586.344	6.83839
586.541	5.75731
586.738	4.97245
586.935	6.06354
587.132	5.48176
587.329	7.41509
587.526	6.01121
587.722	11.9091
587.919	4.61791
588.116	6.58585
588.313	8.09704
588.51	8.85918
588.706	6.03143
588.903	6.78965
589.1	7.46413
589.297	9.60666
589.493	6.05985
589.69	6.85194
589.887	5.73394
590.083	4.9294
590.28	5.4938
590.477	7.6155
590.673	7.0529
590.87	7.9933
591.067	5.93919
591.263	7.25637
591.46	7.15438
591.656	6.32053
591.853	8.26328
592.049	5.51107
592.246	5.98804
592.442	8.18769
592.639	7.58866
592.835	5.07633
593.032	7.03897
593.228	4.98791
593.425	4.96902
593.621	4.67552
593.817	6.64606
594.014	5.59334
594.21	6.68776
594.406	7.56552
594.603	6.93563
594.799	5.86437
594.995	3.80603
595.192	7.82854
595.388	5.93057
595.584	5.7368
595.78	4.52924
595.977	8.71322
596.173	8.2949
596.369	6.02604
596.565	5.36707
596.761	4.59237
596.957	7.66117
597.154	5.23982
597.35	5.74047
597.546	5.39489
597.742	7.06654
597.938	6.68122
598.134	5.58592
598.33	6.70819
598.526	8.65119
598.722	7.3685
598.918	9.06049
599.114	7.63473
599.31	5.97989
599.506	7.25581
599.702	5.9454
599.898	7.46792
600.094	8.60539
600.29	8.16941
600.485	8.21477
600.681	6.60614
600.877	9.09819
601.073	7.2679
601.269	9.5356
601.465	8.74168
601.66	6.17115
601.856	4.99024
602.052	8.93882
602.248	6.52766
602.443	4.52913
602.639	5.30698
602.835	5.63935
603.03	5.639
603.226	7.7874
603.422	5.54835
603.617	6.29671
603.813	5.77146
604.009	5.91089
604.204	7.84417
604.4	4.50343
604.595	7.63424
604.791	5.42371
604.986	6.91443
605.182	5.69308
605.377	6.05434
605.573	6.09631
605.768	6.85251
605.964	7.48649
606.159	7.82983
606.355	8.8697
606.55	6.79469
606.746	8.74798
606.941	7.23212
607.136	10.05748
607.332	11.19061
607.527	5.72752
607.722	7.73126
607.918	7.1496
608.113	6.13123
608.308	8.0424
608.503	7.77727
608.699	7.48374
608.894	7.58058
609.089	6.00239
609.284	7.25307
609.479	6.36747
609.675	7.72888
609.87	6.44871
610.065	7.74588
610.26	8.51423
610.455	8.37065
610.65	7.0658
610.845	7.77847
611.04	8.81342
611.235	7.40369
611.43	7.09134
611.625	5.85609
611.82	9.69767
612.015	6.65693
612.21	10.00414
612.405	5.58358
612.6	10.59629
612.795	9.72777
612.99	8.99864
613.185	6.29776
613.38	6.70495
613.575	8.44738
613.77	12.18513
613.965	6.15698
614.159	6.78402
614.354	9.8423
614.549	9.64234
614.744	9.10291
614.938	6.65107
615.133	5.76181
615.328	9.91726
615.523	10.02974
615.717	12.69561
615.912	7.32997
616.107	8.35844
616.301	7.76282
616.496	7.20069
616.691	11.00745
616.885	9.30317
617.08	12.20423
617.274	10.22088
617.469	12.00966
617.664	9.41556
617.858	7.44439
618.053	8.4781
618.247	7.88767
618.442	5.24943
618.636	10.49995
618.831	7.49997
619.025	7.43574
619.219	12.63864
619.414	3.28436
619.608	8.51887
619.803	7.14357
619.997	12.02447
620.191	10.52298
620.386	9.23649
620.58	8.60536
620.774	5.74187
620.969	6.12516
621.163	8.97848
621.357	6.43354
621.551	8.22322
621.746	8.69368
621.94	8.74001
622.134	14.51369
622.328	11.82972
622.522	6.15954
622.716	10.3187
622.911	10.23741
623.105	9.91234
623.299	9.40376
623.493	14.17402
623.687	7.53996
623.881	8.21985
624.075	10.06447
624.269	10.95277
624.463	5.95445
624.657	6.23861
624.851	9.61759
625.045	10.44717
625.239	10.30083
625.433	7.48276
625.627	11.06165
625.821	7.82363
626.015	7.32974
626.209	8.53788
626.403	6.34074
626.596	9.20555
626.79	9.59392
626.984	6.60014
627.178	9.34256
627.372	9.21822
627.565	9.87047
627.759	6.01394
627.953	6.69561
628.147	9.34561
628.34	9.72523
628.534	12.13468
628.728	8.32589
628.921	10.67555
629.115	10.289
629.309	10.61324
629.502	10.70607
629.696	9.54727
629.89	9.06813
630.083	9.54157
630.277	10.22623
630.47	12.42718
630.664	8.96596
630.857	6.82365
631.051	10.54601
631.244	11.19076
631.438	11.0641
631.631	8.06888
631.825	11.65374
632.018	10.75348
632.212	12.80492
632.405	11.56159
632.598	8.13538
632.792	9.8749
632.985	5.22775
633.178	8.75494
633.372	9.15833
633.565	9.33427
633.758	11.79626
633.952	7.71809
634.145	7.97663
634.338	8.2971
634.531	8.63325
634.724	8.13395
634.918	9.76525
635.111	8.96796
635.304	9.35534
635.497	13.42398
635.69	9.97659
635.883	11.83658
636.077	7.46916
636.27	10.52547
636.463	10.0699
636.656	10.70722
636.849	8.88978
637.042	10.56595
637.235	13.14698
637.428	11.36692
637.621	10.73212
637.814	12.76267
638.007	13.13316
638.2	13.57106
638.393	14.57653
638.586	7.83765
638.778	9.09335
638.971	10.38354
639.164	13.73865
639.357	11.27955
639.55	12.97584
639.743	12.05652
639.935	11.87687
640.128	14.28627
640.321	11.96217
640.514	10.98443
640.707	16.03085
640.899	11.88872
641.092	7.69823
641.285	26.18255
641.477	6.25545
641.67	15.95213
641.863	13.40953
642.055	11.21915
642.248	11.02378
642.441	10.52738
642.633	11.68926
642.826	13.4661
643.018	14.23564
643.211	15.72685
643.403	14.45754
643.596	16.22453
643.788	16.2874
643.981	10.42626
644.173	13.12921
644.366	10.73939
644.558	7.53665
644.751	13.30654
644.943	8.16556
645.135	15.35894
645.328	15.92393
645.52	13.46041
645.712	13.66593
645.905	19.02926
646.097	8.75634
646.289	12.16806
646.482	16.12657
646.674	10.22151
646.866	13.93862
647.058	13.12343
647.251	9.05303
647.443	10.31593
647.635	11.44457
647.827	9.35097
648.019	9.12947
648.211	11.68308
648.404	12.10262
648.596	15.54179
648.788	12.4039
648.98	12.44785
649.172	12.73431
649.364	12.67413
649.556	7.73366
649.748	17.99848
649.94	9.52328
650.132	13.34442
650.324	9.78403
650.516	9.97881
650.708	14.96274
650.9	8.2444
651.092	8.06176
651.284	8.03651
651.476	9.38429
651.667	13.25014
651.859	14.98082
652.051	11.75259
652.243	12.16307
652.435	10.63568
652.627	12.8241
652.818	13.01522
653.01	8.15691
653.202	10.08859
653.394	11.31638
653.585	13.49342
653.777	23.63529
653.969	15.71271
654.16	15.21998
654.352	9.7698
654.544	12.62267
654.735	15.36911
654.927	12.52271
655.118	16.36707
655.31	14.50373
655.502	14.77753
655.693	11.40194
655.885	14.02764
656.076	16.57542
656.268	12.66043
656.459	15.85975
656.651	16.22863
656.842	10.95412
657.034	10.02851
657.225	14.24142
657.416	15.8327
657.608	16.13486
657.799	11.75369
657.99	14.2638
658.182	10.01964
658.373	10.37453
658.564	13.91418
658.756	11.99495
658.947	11.15407
659.138	9.26963
659.33	10.21507
659.521	9.6858
659.712	11.51745
659.903	11.25771
660.094	10.06904
660.286	8.2145
660.477	16.94158
660.668	13.45295
660.859	12.13659
661.05	8.78582
661.241	14.14546
661.432	14.07055
661.623	11.61173
661.814	11.02257
662.006	8.13
662.197	14.22192
662.388	16.12778
662.579	13.57432
662.77	17.51535
662.96	21.17183
663.151	15.7621
663.342	7.9409
663.533	14.7739
663.724	13.10432
663.915	18.04987
664.106	12.95784
664.297	18.76603
664.488	15.4703
664.678	12.37935
664.869	15.9639
665.06	15.80469
665.251	14.54742
665.442	15.00881
665.632	11.10166
665.823	19.59093
666.014	5.5089
666.204	15.31983
666.395	17.53792
666.586	22.70415
666.776	15.99371
666.967	19.19712
667.158	14.18004
667.348	18.46811
667.539	10.71856
667.729	16.79452
667.92	11.42082
668.111	16.94129
668.301	15.72582
668.492	13.09489
668.682	13.3941
668.873	13.16302
669.063	10.45017
669.253	14.35451
669.444	16.57087
669.634	13.35909
669.825	19.2375
670.015	17.25144
670.206	12.04677
670.396	20.63563
670.586	13.76919
670.777	15.53967
670.967	8.00057
671.157	14.31824
671.347	12.64185
671.538	19.35446
671.728	15.77817
671.918	20.4672
672.108	17.97372
672.299	14.38632
672.489	15.7922
672.679	12.97373
672.869	17.34045
673.059	20.25455
673.249	17.03602
673.44	12.18999
673.63	14.47233
673.82	17.97542
674.01	12.16548
674.2	16.60003
674.39	24.7572
674.58	16.82782
674.77	15.74569
674.96	15.1223
675.15	28.6915
675.34	19.00482
675.53	15.23463
675.72	13.8387
675.91	10.89033
676.099	21.18662
676.289	22.21932
676.479	18.62488
676.669	14.10596
676.859	17.47048
677.049	11.9542
677.238	15.66354
677.428	21.76773
677.618	15.70118
677.808	18.60064
677.997	17.22716
678.187	11.44084
678.377	15.27004
678.567	13.59417
678.756	13.67722
678.946	14.00973
679.136	10.57644
679.325	12.20268
679.515	11.88904
679.704	10.33155
679.894	15.97624
680.084	14.55295
680.273	18.24569
680.463	11.22754
680.652	11.51615
680.842	14.05017
681.031	17.20795
681.221	12.17464
681.41	16.4117
681.6	14.28288
681.789	17.61877
681.978	19.30718
682.168	15.51066
682.357	16.52551
682.547	17.93776
682.736	15.75428
682.925	20.04722
683.115	19.59453
683.304	19.17973
683.493	17.43635
683.682	17.91856
683.872	17.17282
684.061	21.15867
684.25	19.00843
684.439	23.23046
684.629	19.22183
684.818	29.11602
685.007	15.99191
685.196	15.59195
685.385	21.80126
685.574	18.67781
685.763	18.22559
685.952	17.3108
686.142	12.59208
686.331	22.27045
686.52	10.64845
686.709	22.48603
686.898	22.36427
687.087	19.61688
687.276	23.85321
687.465	20.71455
687.654	16.23908
687.842	23.06064
688.031	12.72907
688.22	21.8867
688.409	18.33775
688.598	18.40573
688.787	26.76507
688.976	17.54703
689.165	24.1141
689.353	16.4277
689.542	19.07134
689.731	20.31853
689.92	25.43919
690.108	21.7176
690.297	16.53913
690.486	18.41993
690.675	21.60471
690.863	25.58309
691.052	25.28594
691.241	20.66984
691.429	20.00971
691.618	24.55047
691.806	14.2104
691.995	17.67674
692.184	18.80308
692.372	16.71572
692.561	18.9895
692.749	19.60566
692.938	28.86425
693.126	21.68079
693.315	17.79662
693.503	21.78174
693.692	22.19562
693.88	23.77594
694.068	29.04508
694.257	18.90521
694.445	21.24712
694.634	11.93991
694.822	24.49704
695.01	25.64246
695.199	25.67973
695.387	27.63791
695.575	25.50729
695.763	20.47466
695.952	17.77145
696.14	13.1472
696.328	17.21842
696.516	20.05258
696.705	20.62768
696.893	20.82199
697.081	12.29732
697.269	20.80093
697.457	14.12104
697.645	13.11815
697.833	21.30057
698.021	14.52633
698.21	14.95244
698.398	16.52922
698.586	12.93565
698.774	12.30711
698.962	15.87034
699.15	13.12805
699.338	11.53135
699.526	18.99317
699.714	14.85319
699.901	15.68523
700.089	21.44942
700.277	15.02042
700.465	17.79994
700.653	22.62989
700.841	21.90366
701.029	16.02285
701.217	24.60492
701.404	20.27639
701.592	26.71023
701.78	28.70469
701.968	18.09071
702.155	19.67707
702.343	14.37676
702.531	26.90484
702.718	22.40792
702.906	19.54807
703.094	17.97519
703.281	26.30095
703.469	19.91485
703.657	26.6434
703.844	38.0153
704.032	28.8631
704.219	18.94592
704.407	24.30399
704.595	28.64146
704.782	23.03263
704.97	20.20218
705.157	20.35198
705.345	30.36118
705.532	35.5865
705.719	23.91987
705.907	29.94375
706.094	23.56102
706.282	31.41762
706.469	20.66354
706.656	22.7969
706.844	21.58862
707.031	27.6491
707.218	23.8517
707.406	30.88092
707.593	26.09092
707.78	26.26575
707.968	21.70771
708.155	18.96272
708.342	26.02755
708.529	25.43835
708.716	23.72368
708.904	31.32906
709.091	26.1978
709.278	17.69189
709.465	32.67329
709.652	31.93351
709.839	30.50603
710.026	24.94816
710.213	14.82683
710.4	25.80167
710.587	27.81404
710.774	30.21427
710.961	28.63403
711.148	24.44496
711.335	29.99698
711.522	23.16892
711.709	25.34943
711.896	35.11594
712.083	29.33141
712.27	19.3338
712.457	25.20986
712.644	16.62168
712.831	35.41586
713.017	25.15409
713.204	28.24929
713.391	21.0132
713.578	31.99326
713.765	31.82085
713.951	27.86268
714.138	43.16405
714.325	28.74762
714.512	25.52713
714.698	21.61715
714.885	34.19915
715.072	26.81385
715.258	26.50998
715.445	22.00213
715.631	33.11696
715.818	12.09119
716.005	22.0786
716.191	28.9698
716.378	23.51673
716.564	30.72609
716.751	21.21303
716.937	22.83309
717.124	33.22896
717.31	22.60555
717.497	35.94481
717.683	23.1109
717.869	41.55298
718.056	23.61521
718.242	29.93089
718.429	27.5444
718.615	21.23787
718.801	28.37828
718.988	33.75959
719.174	30.97871
719.36	27.24459
719.547	36.19855
719.733	30.65503
719.919	30.37506
720.105	32.82417
720.291	27.60048
720.478	29.78798
720.664	27.63559
720.85	25.70159
721.036	48.21594
721.222	38.38754
721.408	28.40998
721.595	42.19532
721.781	40.52942
721.967	36.54416
722.153	40.50429
722.339	33.90729
722.525	33.59308
722.711	23.06642
722.897	21.22073
723.083	27.16262
723.269	37.46774
723.455	46.73582
723.641	49.41607
723.827	30.76473
724.012	32.38085
724.198	27.58011
724.384	38.98561
724.57	33.42492
724.756	21.0172
724.942	18.1431
725.127	36.76705
725.313	40.97164
725.499	40.41317
725.685	43.01824
725.87	33.72941
726.056	24.2034
726.242	39.8
726.428	20.27627
726.613	37.3888
726.799	27.92572
726.985	22.97627
727.17	20.94583
727.356	41.52146
727.541	24.47261
727.727	29.02241
727.913	35.91779
728.098	26.6236
728.284	34.96964
728.469	21.02317
728.655	23.83401
728.84	35.07782
729.026	36.56844
729.211	37.28598
729.397	32.21279
729.582	34.66854
729.767	30.17228
729.953	32.84114
730.138	37.67278
730.323	15.75974
730.509	23.15205
730.694	41.03798
730.879	33.6668
731.065	31.57144
731.25	47.7692
731.435	35.05711
731.621	20.19984
731.806	25.8544
731.991	32.24024
732.176	21.1196
732.361	39.58924
732.547	31.17137
732.732	20.03861
732.917	48.78781
733.102	23.22932
733.287	26.26797
733.472	31.21974
733.657	32.65383
733.842	21.01998
734.027	29.7683
734.212	30.34583
734.397	26.13197
734.582	32.325
734.767	38.44993
734.952	42.72372
735.137	14.76703
735.322	42.88548
735.507	35.4655
735.692	36.15364
735.877	49.67719
736.062	46.8694
736.247	35.71565
736.431	32.72435
736.616	43.58954
736.801	34.26355
736.986	33.3368
737.171	27.29923
737.355	24.34734
737.54	42.1218
737.725	32.65917
737.909	56.77365
738.094	27.68115
738.279	39.85589
738.463	31.23977
738.648	38.82135
738.833	35.43924
739.017	49.05735
739.202	31.39024
739.386	32.44173
739.571	25.65085
739.756	38.50012
739.94	34.17458
740.125	42.82253
740.309	26.89203
740.494	40.56351
740.678	34.36155
740.863	38.42048
741.047	35.50975
741.231	46.06586
741.416	27.66326
741.6	49.72387
741.785	28.96689
741.969	41.07307
742.153	44.47818
742.338	17.79155
742.522	35.32428
742.706	42.05691
742.89	25.32376
743.075	36.09494
743.259	47.76847
743.443	43.25574
743.627	47.4663
743.812	55.91484
743.996	22.16453
744.18	35.14453
744.364	31.784
744.548	59.81099
744.732	34.94012
744.916	44.47454
745.1	39.77728
745.285	33.2499
745.469	40.68859
745.653	53.27737
745.837	21.99162
746.021	59.82917
746.205	48.40284
746.389	39.29501
746.573	33.04094
746.757	51.00357
746.94	32.1882
747.124	48.30132
747.308	25.25593
747.492	47.22914
747.676	31.23687
747.86	59.3673
748.044	32.29843
748.227	21.35516
748.411	72.7037
748.595	39.18462
748.779	27.83806
748.963	41.40365
749.146	39.10485
749.33	29.76723
749.514	26.7093
749.697	49.62986
749.881	31.92467
750.065	28.96127
750.248	37.83411
750.432	61.85505
750.616	36.69533
750.799	25.10854
750.983	58.00715
751.166	66.20379
751.35	24.20626
751.533	43.75024
751.717	48.01431
751.9	54.26751
752.084	34.09528
752.267	27.28221
752.451	31.26989
752.634	38.11429
752.818	43.33216
753.001	47.31346
753.184	48.57254
753.368	40.47322
753.551	9.10661
753.734	30.32575
753.918	58.74895
754.101	31.36798
754.284	46.24957
754.467	34.12118
754.651	31.9104
754.834	31.12514
755.017	51.583
755.2	47.92142
755.384	27.751
755.567	46.18217
755.75	49.52274
755.933	36.13305
756.116	40.80136
756.299	33.72504
756.482	31.43901
756.665	44.36046
756.848	37.11359
757.032	42.61818
757.215	24.63682
757.398	30.74995
757.581	31.26499
757.764	66.94127
757.947	37.07592
758.129	51.13304
758.312	13.53854
758.495	36.97671
758.678	37.24164
758.861	36.42256
759.044	58.56924
759.227	30.96908
759.41	32.85522
759.592	44.0894
759.775	37.45824
759.958	47.89346
760.141	26.37794
760.324	63.70713
760.506	53.7237
760.689	46.23084
760.872	63.93821
761.054	43.86888
761.237	36.28163
761.42	42.17511
761.602	47.51024
761.785	41.58588
761.968	48.74222
762.15	58.60072
762.333	34.71007
762.515	40.64208
762.698	31.19914
762.88	42.7495
763.063	38.1884
763.245	42.45188
763.428	26.04964
763.61	29.76811
763.793	23.1086
763.975	36.21304
764.158	30.48755
764.34	28.43179
764.522	24.32744
764.705	31.68295
764.887	46.92934
765.069	21.7609
765.252	44.11965
765.434	43.29225
765.616	37.14863
765.799	30.78483
765.981	47.41278
766.163	29.43833
766.345	48.99352
766.528	33.96519
766.71	16.63577
766.892	40.82884
767.074	53.77678
767.256	36.42815
767.438	59.68937
767.62	44.48811
767.802	66.25869
767.985	48.04194
768.167	63.79393
768.349	32.84009
768.531	48.19447
768.713	46.27122
768.895	52.59256
769.077	47.07142
769.259	73.2773
769.441	106.36922
769.623	55.66102
769.804	64.8475
769.986	60.99157
770.168	75.47575
770.35	93.08082
770.532	64.44493
770.714	73.26937
770.896	74.35874
771.077	31.82492
771.259	74.9168
771.441	62.26152
771.623	80.71724
771.804	102.27332
771.986	30.70304
772.168	48.91212
772.35	76.44362
772.531	101.58994
772.713	60.77667
772.894	83.56671
773.076	58.95645
773.258	52.11097
773.439	79.93087
773.621	91.68966
773.802	42.76707
773.984	52.34517
774.166	67.20431
774.347	92.2018
774.529	79.36836
774.71	28.82797
774.891	59.94234
775.073	54.71679
775.254	90.43135
775.436	49.62574
775.617	99.88248
775.799	51.96742
775.98	91.19338
776.161	97.16704
776.343	97.83757
776.524	61.53722
776.705	55.23916
776.886	32.27737
777.068	69.96474
777.249	120.78053
777.43	105.98499
777.611	41.67713
777.793	55.4872
777.974	95.1877
778.155	51.46501
778.336	48.98446
778.517	108.47597
778.698	48.34247
778.879	29.48245
779.061	17.84696
779.242	70.09984
779.423	72.03853
779.604	53.09037
779.785	60.22159
779.966	69.70324
780.147	82.10122
780.328	87.53229
780.509	121.6024
780.69	73.61962
780.871	49.09718
781.051	34.39492
781.232	68.14912
781.413	64.33441
781.594	56.46181
781.775	51.71071
781.956	49.23345
782.137	29.55279
782.317	49.38781
782.498	68.68098
782.679	62.11383
782.86	65.08468
783.04	49.46379
783.221	70.15479
783.402	105.09315
783.583	61.63549
783.763	75.33433
783.944	55.52799
784.124	37.17912
784.305	96.33488
784.486	76.99409
784.666	61.52618
784.847	33.83705
785.027	119.30632
785.208	48.9001
785.388	44.47639
785.569	50.66384
785.749	56.58121
785.93	51.4302
786.11	36.65441
786.291	72.88918
786.471	67.70605
786.652	81.50444
786.832	59.56704
787.012	66.7781
787.193	43.25689
787.373	64.36947
787.553	56.6876
787.734	66.90274
787.914	53.60883
788.094	69.85074
788.275	67.51596
788.455	55.71626
788.635	37.73932
788.815	64.4254
788.995	41.5467
789.176	33.90995
789.356	47.64504
789.536	55.94531
789.716	72.57248
789.896	47.13362
790.076	53.38708
790.256	66.13556
790.436	23.40517
790.616	45.94196
790.796	67.61594
790.976	53.52002
791.156	47.65373
791.336	77.33022
791.516	71.5563
791.696	55.26812
791.876	35.22895
792.056	62.9886
792.236	80.12204
792.416	77.75355
792.596	71.49463
792.776	69.4305
792.956	76.55733
793.135	93.33776
793.315	44.19723
793.495	89.43124
793.675	76.50025
793.854	78.22974
794.034	83.3645
794.214	42.41144
794.394	79.25091
794.573	84.97678
794.753	62.76175
794.933	45.81343
795.112	66.80351
795.292	78.40386
795.472	101.50211
795.651	37.93928
795.831	59.79548
796.01	54.55994
796.19	57.62932
796.369	58.58129
796.549	71.17218
796.728	55.73206
796.908	36.92762
797.087	42.98944
797.267	55.13731
797.446	40.31825
797.626	72.59811
797.805	73.44295
797.984	45.65053
798.164	77.0289
798.343	44.0356
798.522	68.62309
798.702	62.039
798.881	40.48195
799.06	56.85127
799.239	27.90648
799.419	43.0406
799.598	92.52134
799.777	74.93516
799.956	86.5683
800.136	52.90483
800.315	50.70599
800.494	71.02995
800.673	84.6852
800.852	76.88569
801.031	84.12585
801.21	72.05185
801.389	54.10147
801.568	67.35786
801.747	103.3823
801.926	65.91232
802.105	97.04293
802.284	55.41458
802.463	95.85149
802.642	68.47572
802.821	68.23724
803	88.81307
803.179	81.02317
803.358	88.28373
803.537	50.56778
803.716	65.80039
803.895	47.52555
804.073	61.36507
804.252	51.3893
804.431	71.79193
804.61	58.06425
804.789	87.96236
804.967	54.36219
805.146	50.62209
805.325	105.81211
805.503	73.13082
805.682	34.90028
805.861	121.68363
806.039	89.59521
806.218	48.25019
806.397	68.38196
806.575	62.93704
806.754	67.70048
806.932	44.94557
807.111	97.75879
807.289	80.79876
807.468	66.68527
807.646	87.63111
807.825	74.14376
808.003	70.77331
808.182	84.4217
808.36	64.8412
808.539	46.50796
808.717	99.19782
808.895	47.02401
809.074	75.75187
809.252	64.08909
809.43	80.42858
809.609	92.1011
809.787	110.18203
809.965	59.11925
810.144	68.58376
810.322	60.13212
810.5	76.10521
810.678	63.22771
810.856	119.1796
811.035	95.26064
811.213	85.56333
811.391	98.58909
811.569	72.43813
811.747	144.01713
811.925	94.15804
812.103	48.62037
812.281	62.20736
812.459	110.6733
812.637	113.84684
812.816	89.76243
812.994	116.81349
813.171	94.59435
813.349	81.00189
813.527	101.2411
813.705	105.62299
813.883	128.85075
814.061	96.46019
814.239	123.85994
814.417	122.10032
814.595	75.98665
814.773	78.42975
814.95	74.26948
815.128	79.15669
815.306	69.82834
815.484	64.17216
815.662	55.84877
815.839	48.11621
816.017	56.59372
816.195	99.75915
816.372	62.33774
816.55	84.57763
816.728	108.969
816.905	67.45762
817.083	110.15514
817.261	69.38276
817.438	123.56491
817.616	115.81041
817.793	57.76421
817.971	92.28693
818.148	90.45795
818.326	104.26433
818.503	74.55003
818.681	104.55146
818.858	59.65852
819.036	67.9935
819.213	71.4314
819.391	52.05719
819.568	53.8317
819.745	47.2277
819.923	82.76945
820.1	52.61448
820.277	48.6688
820.455	56.77683
820.632	57.8045
820.809	58.47101
820.986	37.33051
821.164	30.39371
821.341	25.48463
821.518	35.35377
821.695	24.60694
821.872	22.75566
822.05	19.40104
822.227	14.97022
822.404	15.89916
822.581	19.2796
822.758	15.43318
822.935	15.88731
823.112	18.45888
823.289	14.03022
823.466	18.78959
823.643	17.45835
823.82	22.15747
823.997	20.15818
824.174	25.03763
824.351	33.69892
824.528	32.0201
824.705	29.22459
824.882	33.49901
825.059	43.79985
825.236	30.00801
825.412	32.63418
825.589	41.38829
825.766	57.12179
825.943	35.52829
826.12	41.22526
826.296	26.16509
826.473	33.8562
826.65	34.60654
826.827	43.02089
827.003	27.75426
827.18	30.52996
827.357	35.37281
827.533	31.40811
827.71	17.16483
827.887	27.38462
828.063	31.72549
828.24	27.83248
828.416	39.17339
828.593	31.88869
828.769	46.61607
828.946	53.75333
829.122	55.68698
829.299	52.60782
829.475	32.88409
829.652	52.41333
829.828	90.843
830.005	56.97904
830.181	77.60875
830.357	51.89662
830.534	80.48225
830.71	61.82065
830.886	77.57905
831.063	75.88154
831.239	99.63746
831.415	43.63787
831.592	99.72548
831.768	63.11445
831.944	51.62429
832.12	95.80229
832.296	88.3664
832.473	77.14568
832.649	56.81345
832.825	71.69475
833.001	41.05909
833.177	62.81889
833.353	55.97432
833.529	29.89941
833.705	45.36247
833.881	33.23019
834.058	32.89605
834.234	34.81042
834.41	35.27163
834.586	27.12384
834.761	34.14448
834.937	38.81148
835.113	40.77435
835.289	36.30511
835.465	45.38485
835.641	39.16024
835.817	47.4262
835.993	85.10185
836.169	44.22377
836.344	63.42239
836.52	72.03734
836.696	72.68714
836.872	51.25657
837.048	144.45479
837.223	58.08738
837.399	118.75386
837.575	91.79693
837.75	91.07637
837.926	116.81666
838.102	197.50089
838.277	141.7467
838.453	184.53183
838.628	191.03152
838.804	79.41352
838.98	179.05634
839.155	89.09257
839.331	118.23903
839.506	77.52538
839.682	81.52155
839.857	100.53928
840.033	121.50685
840.208	59.63814
840.384	31.31976
840.559	62.29094
840.734	93.34519
840.91	138.53916
841.085	81.65011
841.26	86.98115
841.436	78.02719
841.611	73.90405
841.786	111.26934
841.962	159.61737
842.137	94.61868
842.312	53.2224
842.487	87.36661
842.663	69.25158
842.838	79.83816
843.013	271.76721
843.188	140.49642
843.363	125.76581
843.538	235.09109
843.714	236.05398
843.889	245.23147
844.064	249.5705
844.239	213.84044
844.414	266.78021
844.589	163.36663
844.764	326.52476
844.939	304.96695
845.114	371.72905
845.289	379.04755
845.464	379.87243
845.639	300.03902
845.814	144.33321
845.989	182.87631
846.163	188.88811
846.338	235.57344
846.513	348.00015
846.688	210.76694
846.863	199.68464
847.038	180.96128
847.212	219.17387
847.387	249.31264
847.562	251.99978
847.737	284.55699
847.911	106.7435
848.086	130.80602
848.261	446.43009
848.435	186.27036
848.61	294.93204
848.785	139.52877
848.959	305.2996
849.134	424.44145
849.308	521.3399
849.483	218.92158
849.658	339.27046
849.832	193.38112
850.007	154.6187
850.181	633.9997
850.356	176.44704
850.53	522.96449
850.705	131.86055
850.879	75.18875
851.053	201.43926
851.228	180.10453
851.402	293.94147
851.577	333.27637
851.751	421.67692
851.925	245.87291
852.099	110.19906
852.274	155.30291
852.448	206.51876
852.622	267.2337
852.797	224.81707
852.971	239.94009
853.145	231.86447
853.319	651.90457
853.493	350.61711
853.668	196.69963
853.842	415.83756
854.016	331.78778
854.19	399.56965
854.364	234.38239
854.538	256.74852
854.712	335.75851
854.886	222.76934
855.06	202.41402
855.234	75.78605
855.408	430.97206
855.582	346.1818
855.756	354.2008
855.93	432.3131
856.104	241.84532
856.278	330.24774
856.452	204.5262
856.626	295.41112
856.8	542.92191
856.973	285.52197
857.147	281.92485
857.321	294.60921
857.495	340.81469
857.669	247.51133
857.842	198.3193
858.016	339.29487
858.19	151.01322
858.364	827.79299
858.537	193.10418
858.711	240.2962
858.885	214.89294
859.058	190.38473
859.232	107.16796
859.405	117.66054
859.579	334.26614
859.753	290.35753
859.926	158.58291
860.1	112.00207
860.273	230.71447
860.447	454.76398
860.62	220.72646
860.794	463.63519
860.967	260.56784
861.141	349.64043
861.314	676.99801
861.487	291.1819
861.661	384.57292
861.834	511.74406
862.008	344.29894
862.181	229.43408
862.354	237.11083
862.528	303.5022
862.701	197.1254
862.874	126.36973
863.047	195.60117
863.221	195.02462
863.394	100.73264
863.567	375.1749
863.74	83.14211
863.913	349.05481
864.087	290.82846
864.26	324.92809
864.433	194.02789
864.606	545.09293
864.779	235.81069
864.952	111.53215
865.125	188.81075
865.298	235.80942
865.471	222.52195
865.644	490.39078
865.817	363.77369
865.99	318.56017
866.163	471.5917
866.336	194.03371
866.509	226.13167
866.682	189.19743
866.855	391.99109
867.028	140.87495
867.2	273.88397
867.373	82.92307
867.546	235.35181
867.719	575.50121
867.892	277.09195
868.064	151.57071
868.237	262.85236
868.41	259.93959
868.583	113.64911
868.755	137.73477
868.928	200.89265
869.101	583.849
869.273	342.38699
869.446	281.88036
869.619	385.6226
869.791	223.90716
869.964	364.61574
870.136	341.38411
870.309	246.71174
870.481	240.06007
870.654	113.01571
870.826	273.00147
870.999	175.07619
871.171	282.51876
871.344	164.24601
871.516	210.8493
871.689	144.10645
871.861	208.41349
872.033	156.92206
872.206	194.79675
872.378	332.85588
872.55	186.66287
872.723	133.75836
872.895	193.75093
873.067	338.2221
873.24	337.48477
873.412	174.597
873.584	198.63816
873.756	191.79153
873.928	239.41105
874.101	249.55714
874.273	272.82621
874.445	95.99543
874.617	125.53288
874.789	224.72619
874.961	197.42898
875.133	265.17246
875.305	212.0108
875.477	139.35096
875.649	119.3519
875.821	136.10699
875.993	399.11122
876.165	143.59216
876.337	225.16531
876.509	213.56662
876.681	237.88382
876.853	241.88912
877.025	233.8143
877.197	148.2396
877.369	130.7716
877.541	285.48887
877.712	70.94157
877.884	124.2723
878.056	252.30151
878.228	128.30798
878.4	250.40399
878.571	131.09923
878.743	84.82543
878.915	195.2218
879.086	120.57901
879.258	151.63685
879.43	130.85577
879.601	111.54175
879.773	120.08197
879.945	29.8903
880.116	46.32134
880.288	28.20095
880.459	33.01642
880.631	24.61994
880.802	29.02412
880.974	26.46011
881.145	18.66347
881.317	24.59187
881.488	17.79567
881.66	20.54356
881.831	18.63711
882.002	26.33041
882.174	18.62369
882.345	24.93974
882.517	13.0554
882.688	32.26231
882.859	24.7969
883.03	42.69808
883.202	42.841
883.373	35.43416
883.544	35.94285
883.715	62.28996
883.887	52.77994
884.058	46.08351
884.229	66.92084
884.4	66.32923
884.571	77.47886
884.742	65.19664
884.914	68.90204
885.085	99.08924
885.256	134.51289
885.427	106.71929
885.598	136.88845
885.769	131.77045
885.94	128.9943
886.111	86.51417
886.282	159.5823
886.453	120.43476
886.624	97.09053
886.795	176.75684
886.966	135.00971
887.136	183.51822
887.307	146.23018
887.478	247.22922
887.649	191.06407
887.82	222.14338
887.991	168.07605
888.161	238.51978
888.332	226.82576
888.503	112.56839
888.674	319.01472
888.844	384.84157
889.015	276.79225
889.186	117.48159
889.356	336.09319
889.527	105.18313
889.698	583.93694
889.868	169.23126
890.039	238.53991
890.209	203.55728
890.38	284.15551
890.551	245.19283
890.721	307.94844
890.892	276.4047
891.062	191.03598
891.233	254.81803
891.403	176.25905
891.574	131.1448
891.744	184.99809
891.914	216.82473
892.085	213.07221
892.255	64.52965
892.425	364.41912
892.596	222.52844
892.766	235.52296
892.936	304.00967
893.107	257.48728
893.277	135.36111
893.447	103.37411
893.618	72.93205
893.788	154.30411
893.958	84.4491
894.128	72.4004
894.298	93.00201
894.468	119.27074
894.639	56.2832
894.809	39.13456
894.979	62.09748
895.149	72.89198
895.319	57.46299
895.489	81.8627
895.659	110.4734
895.829	73.6986
895.999	73.18342
896.169	60.12079
896.339	78.11378
896.509	162.65959
896.679	184.96124
896.849	182.90446
897.019	260.47198
897.189	207.01498
897.358	169.54185
897.528	261.14919
897.698	90.54063
897.868	225.76209
898.038	461.03252
898.208	467.37042
898.377	98.4877
898.547	451.02317
898.717	650.30411
898.886	224.65787
899.056	407.62115
899.226	662.62702
899.395	321.08499
899.565	553.41383
899.735	301.50155
899.904	526.58889
900.074	553.10071
900.244	189.15318
900.413	801.34144
900.583	140.81377
900.752	293.16492
900.922	766.18107
901.091	34.34386
901.261	456.59455
901.43	389.78274
901.599	350.22474
901.769	1380.87865
901.938	549.16394
902.108	446.88035
902.277	779.89771
902.446	134.69475
902.616	151.9857
902.785	194.96982
902.954	390.43721
903.124	242.58023
903.293	185.95293
903.462	92.67341
903.631	136.46792
903.801	103.0267
903.97	50.83161
904.139	86.50705
904.308	68.35099
904.477	54.43272
904.646	31.19177
904.816	53.71671
904.985	83.28041
905.154	127.93319
