Data from WindowProjectSample_Transmission__92__00092.txt Node

Date: Sat May 03 18:25:01 EDT 2025
User: jessi
Spectrometer: SR400872
Trigger mode: 0
Integration Time (sec): 5.000050E-1
Scans to average: 10
Electric dark correction enabled: true
Nonlinearity correction enabled: true
Boxcar width: 0
XAxis mode: Wavelengths
Number of Pixels in Spectrum: 3648
>>>>>Begin Spectral Data<<<<<
184.909	-5493.69112
185.132	11929.25969
185.355	-13350.20759
185.578	78309.2001
185.801	-1334.89777
186.024	5999.74231
186.247	-9486.89118
186.47	-6794.70156
186.693	2491.34365
186.916	-1060.60863
187.139	31991.62537
187.362	12586.23703
187.585	-3203.80835
187.808	-4074.98141
188.031	32.42462
188.254	10847.04045
188.476	-652.80142
188.699	-4948.8247
188.922	460.38408
189.145	5629.30189
189.368	2939.06669
189.591	989.04368
189.813	10997.78206
190.036	-69915.95835
190.259	1743.85971
190.482	2511.66193
190.705	6074.65534
190.927	4563.12129
191.15	3687.16065
191.373	6451.39106
191.595	1491.36284
191.818	3028.94956
192.041	549.86657
192.263	3559.68924
192.486	1256.01839
192.709	7740.1344
192.931	36317.08009
193.154	3462.90368
193.377	2290.45571
193.599	1946.25764
193.822	908.40644
194.044	1647.98643
194.267	1518.12788
194.489	-33.91046
194.712	2902.58239
194.934	7579.88707
195.157	-11068.93553
195.379	1936.20999
195.602	17748.54852
195.824	4051.54097
196.047	1109.55124
196.269	4893.38602
196.492	27413.10665
196.714	2909.97841
196.936	3353.50612
197.159	5706.48764
197.381	3250.24582
197.604	569.41071
197.826	1809.32702
198.048	1049.36653
198.271	3122.83435
198.493	3982.23629
198.715	5789.94198
198.938	564.98045
199.16	1580.85504
199.382	4954.99552
199.604	-30749.61436
199.827	2782.73483
200.049	1122.88621
200.271	2618.34548
200.493	8167.31437
200.715	3187.76127
200.938	73558.78541
201.16	1873.65637
201.382	2572.31104
201.604	1947.32801
201.826	5411.53979
202.048	1282.65045
202.27	4609.45524
202.492	1707.4815
202.715	1411.07565
202.937	-30480.10957
203.159	4918.28159
203.381	2087.93379
203.603	8704.36584
203.825	1466.44884
204.047	1767.38179
204.269	2158.65257
204.491	1751.3836
204.713	1349.98128
204.935	2145.80328
205.156	1296.83925
205.378	2018.44423
205.6	1437.12866
205.822	8290.52083
206.044	927.84211
206.266	1322.78078
206.488	2596.02326
206.71	5223.38991
206.932	1787.93497
207.153	4993.58783
207.375	1226.83894
207.597	4506.23078
207.819	1382.93652
208.041	3305.02432
208.262	1007.73301
208.484	3315.26293
208.706	1148.5263
208.927	2418.29136
209.149	1661.73891
209.371	2368.26522
209.593	283.08775
209.814	5517.65216
210.036	13659.0597
210.258	712.57538
210.479	1350.06546
210.701	2161.96546
210.922	2307.52
211.144	1600.27895
211.366	2814.48996
211.587	686.48855
211.809	2783.43804
212.03	2067.89276
212.252	609.81916
212.473	1290.63872
212.695	739.95248
212.916	1406.1342
213.138	539.07071
213.359	3493.09462
213.581	1656.56896
213.802	-3637.07503
214.024	2936.45518
214.245	1291.64721
214.466	664.84999
214.688	1526.69866
214.909	2113.84673
215.131	2828.35433
215.352	1005.15838
215.573	3797.49021
215.795	2362.39574
216.016	3066.55573
216.237	817.84271
216.459	2996.63401
216.68	12785.87835
216.901	1422.2672
217.122	1043.09756
217.344	1585.80858
217.565	4033.71984
217.786	2134.24157
218.007	830.48306
218.228	2666.91901
218.45	2111.79052
218.671	797.46337
218.892	1398.75678
219.113	909.21024
219.334	-283.48503
219.555	1396.25463
219.776	1516.87673
219.997	4019.16285
220.219	1935.40637
220.44	799.36943
220.661	582.41048
220.882	1141.27814
221.103	747.44775
221.324	800.59972
221.545	1206.81505
221.766	1584.19448
221.987	540.35101
222.208	669.51694
222.429	1315.88928
222.65	202.41019
222.87	344.44353
223.091	528.09277
223.312	487.40648
223.533	595.98721
223.754	1853.67204
223.975	1123.74078
224.196	573.59276
224.417	677.7173
224.637	344.11343
224.858	84.71256
225.079	447.495
225.3	459.89269
225.521	1255.66191
225.741	321.29374
225.962	368.09564
226.183	106.81584
226.404	511.1624
226.624	349.07857
226.845	332.05357
227.066	280.63842
227.286	198.40357
227.507	109.86652
227.728	92.47457
227.948	181.96326
228.169	62.83332
228.389	69.36286
228.61	41.74551
228.831	57.39727
229.051	6.16217
229.272	32.09991
229.492	46.9569
229.713	15.81687
229.933	36.25432
230.154	28.85403
230.374	49.38622
230.595	34.83284
230.815	22.48325
231.036	35.30939
231.256	-4.36139
231.477	60.47025
231.697	34.85465
231.917	35.24957
232.138	50.21766
232.358	96.10879
232.579	88.88012
232.799	17.01917
233.019	85.89758
233.24	96.36364
233.46	37.99728
233.68	55.64853
233.901	42.77172
234.121	24.43526
234.341	12.26039
234.561	-5.31544
234.782	21.42737
235.002	65.36447
235.222	-4.63006
235.442	54.58487
235.662	28.73973
235.883	57.17794
236.103	50.26496
236.323	34.63345
236.543	28.60442
236.763	39.93293
236.983	39.16398
237.203	40.80253
237.423	57.66834
237.643	85.40337
237.864	69.92688
238.084	22.58194
238.304	27.30326
238.524	45.10014
238.744	40.3627
238.964	64.85404
239.184	59.15872
239.404	61.49851
239.624	34.46937
239.843	57.29416
240.063	34.36242
240.283	22.05702
240.503	25.89708
240.723	23.47184
240.943	14.29502
241.163	19.61045
241.383	15.54367
241.603	8.64142
241.822	9.87548
242.042	7.03528
242.262	9.4525
242.482	10.15155
242.702	10.95819
242.921	3.71366
243.141	7.66821
243.361	7.26514
243.581	10.37595
243.8	9.07878
244.02	5.80761
244.24	9.83478
244.459	9.64118
244.679	19.45089
244.899	9.62405
245.118	14.56599
245.338	12.66296
245.558	14.75615
245.777	8.73486
245.997	10.30048
246.216	10.96913
246.436	6.51652
246.655	5.13729
246.875	3.63398
247.094	6.74581
247.314	2.46691
247.533	4.13567
247.753	4.89611
247.972	3.85467
248.192	1.27898
248.411	2.57142
248.631	3.94096
248.85	5.29695
249.07	4.44728
249.289	6.9192
249.508	4.97677
249.728	8.21648
249.947	8.31036
250.166	9.53885
250.386	5.20728
250.605	6.06348
250.824	12.35989
251.044	9.16164
251.263	25.46656
251.482	14.81521
251.701	12.65234
251.921	0.48272
252.14	4.15787
252.359	4.77736
252.578	11.25069
252.798	4.15764
253.017	10.03047
253.236	5.44588
253.455	6.63868
253.674	12.30481
253.893	6.03648
254.112	8.65701
254.331	13.02661
254.551	10.69423
254.77	4.70277
254.989	15.04123
255.208	11.82241
255.427	15.87071
255.646	13.81895
255.865	22.93002
256.084	8.83781
256.303	11.06655
256.522	14.71554
256.741	4.93994
256.96	3.72536
257.179	8.76927
257.397	11.35667
257.616	5.78661
257.835	7.10074
258.054	16.09656
258.273	10.8744
258.492	11.58174
258.711	7.01675
258.93	3.24718
259.148	4.80579
259.367	5.13176
259.586	6.24524
259.805	2.89776
260.023	5.57471
260.242	4.19368
260.461	3.12134
260.68	1.75246
260.898	4.87742
261.117	1.70163
261.336	1.19733
261.554	4.07038
261.773	4.35902
261.992	1.09367
262.21	4.14731
262.429	4.16
262.648	7.75302
262.866	8.83064
263.085	6.5609
263.303	6.0871
263.522	9.87587
263.74	10.24735
263.959	16.06096
264.178	8.77078
264.396	7.72228
264.615	5.79939
264.833	12.01995
265.051	10.20177
265.27	10.65128
265.488	12.16979
265.707	7.27107
265.925	12.10523
266.144	5.20606
266.362	6.57656
266.58	6.69924
266.799	5.70954
267.017	6.69885
267.235	5.75873
267.454	4.01096
267.672	2.32181
267.89	4.79609
268.109	4.89202
268.327	5.27587
268.545	1.35601
268.763	4.86184
268.982	2.29411
269.2	5.32196
269.418	3.70623
269.636	2.78115
269.854	4.87574
270.073	3.68122
270.291	2.19428
270.509	2.567
270.727	5.06266
270.945	8.1806
271.163	8.00463
271.381	1.81223
271.599	3.40705
271.817	5.74472
272.036	1.9598
272.254	3.55155
272.472	2.79907
272.69	2.76167
272.908	2.93257
273.126	4.57638
273.344	5.93737
273.562	2.13694
273.779	3.1022
273.997	4.7258
274.215	4.53944
274.433	3.62727
274.651	5.05617
274.869	5.21138
275.087	3.19151
275.305	4.87809
275.523	2.74357
275.74	3.48264
275.958	6.07818
276.176	9.22778
276.394	2.97141
276.612	3.74965
276.829	3.52545
277.047	3.33854
277.265	3.28474
277.483	4.25165
277.7	4.68427
277.918	3.87895
278.136	7.00135
278.353	3.56425
278.571	2.16254
278.789	5.75783
279.006	1.10694
279.224	3.44564
279.442	5.42401
279.659	3.98509
279.877	2.60962
280.094	6.0343
280.312	1.32311
280.529	4.10416
280.747	1.4087
280.964	3.05285
281.182	6.65317
281.399	3.3761
281.617	4.20923
281.834	3.14627
282.052	2.47427
282.269	3.47596
282.487	2.98443
282.704	2.37686
282.921	2.42117
283.139	3.68512
283.356	4.65064
283.574	4.29631
283.791	2.30491
284.008	6.03304
284.226	3.39597
284.443	3.88461
284.66	4.91169
284.877	3.7291
285.095	2.49859
285.312	2.02188
285.529	1.11951
285.746	1.02975
285.964	2.47203
286.181	1.70591
286.398	2.24519
286.615	3.07878
286.832	3.02888
287.05	0.8032
287.267	2.26864
287.484	1.89894
287.701	3.12959
287.918	2.99594
288.135	3.04806
288.352	1.41985
288.569	1.77646
288.786	2.76258
289.003	2.15654
289.22	3.39842
289.437	1.82911
289.654	3.35694
289.871	3.46615
290.088	3.30258
290.305	2.6088
290.522	2.10049
290.739	2.37117
290.956	3.34675
291.173	4.10402
291.39	3.93113
291.607	2.70219
291.824	2.31226
292.04	1.45083
292.257	3.38232
292.474	3.74352
292.691	2.16303
292.908	1.07755
293.125	1.90285
293.341	1.33047
293.558	5.60853
293.775	2.46896
293.992	2.2601
294.208	1.00544
294.425	1.57055
294.642	2.23309
294.858	2.94606
295.075	0.83214
295.292	2.27456
295.508	2.88072
295.725	4.06806
295.942	2.04381
296.158	1.64611
296.375	2.36854
296.591	1.87345
296.808	2.1465
297.024	2.50084
297.241	2.6637
297.458	2.9066
297.674	0.6683
297.891	2.32009
298.107	2.23266
298.323	1.56537
298.54	3.56803
298.756	2.16185
298.973	1.38297
299.189	4.02065
299.406	2.21014
299.622	3.93289
299.838	3.99581
300.055	3.50122
300.271	1.69232
300.487	2.01213
300.704	2.57807
300.92	2.07148
301.136	5.65851
301.353	4.28488
301.569	3.40434
301.785	3.57003
302.001	4.22173
302.218	3.88935
302.434	4.27062
302.65	2.28954
302.866	3.0042
303.083	6.10045
303.299	6.0392
303.515	3.81654
303.731	4.36216
303.947	2.70862
304.163	3.43336
304.379	4.16569
304.595	4.5236
304.812	3.48807
305.028	3.3409
305.244	3.71848
305.46	4.66903
305.676	5.01252
305.892	5.56811
306.108	4.96349
306.324	3.94529
306.54	6.15836
306.756	4.54557
306.972	4.73444
307.187	4.53098
307.403	5.70699
307.619	3.99106
307.835	5.37336
308.051	5.80841
308.267	3.56297
308.483	5.94595
308.699	5.03797
308.914	4.78831
309.13	4.73492
309.346	3.41992
309.562	3.83579
309.778	3.45989
309.993	5.22732
310.209	5.02769
310.425	3.76184
310.641	4.7679
310.856	3.96436
311.072	4.10261
311.288	4.88633
311.503	5.45772
311.719	3.53614
311.935	3.61973
312.15	5.60341
312.366	5.39411
312.581	5.69832
312.797	5.39689
313.013	5.82899
313.228	4.53339
313.444	4.83846
313.659	4.33148
313.875	5.43591
314.09	5.06299
314.306	6.39999
314.521	5.722
314.737	5.94405
314.952	5.42525
315.168	5.34911
315.383	5.599
315.599	4.68378
315.814	4.92421
316.029	6.01454
316.245	4.26884
316.46	3.38826
316.675	6.40295
316.891	6.90034
317.106	8.18818
317.321	5.50553
317.537	5.91102
317.752	6.07249
317.967	6.37725
318.183	4.50015
318.398	4.81991
318.613	6.35872
318.828	6.74081
319.043	6.09504
319.259	5.08014
319.474	5.62011
319.689	6.70907
319.904	3.80073
320.119	6.38633
320.334	5.23597
320.549	5.32647
320.765	6.6051
320.98	5.79862
321.195	5.77314
321.41	5.5315
321.625	6.32054
321.84	7.21135
322.055	7.19211
322.27	4.87192
322.485	4.27772
322.7	6.08702
322.915	6.44675
323.13	5.15867
323.345	7.30084
323.56	6.64598
323.775	6.5346
323.989	6.31156
324.204	5.92473
324.419	6.86577
324.634	4.5266
324.849	5.80162
325.064	8.26725
325.279	7.02763
325.493	6.36614
325.708	6.88867
325.923	5.07676
326.138	5.71193
326.352	7.46916
326.567	6.83196
326.782	5.44233
326.997	5.50748
327.211	6.73125
327.426	6.3135
327.641	5.81288
327.855	4.68182
328.07	6.69101
328.285	8.01871
328.499	5.7554
328.714	6.35225
328.928	6.49544
329.143	6.06164
329.358	7.38147
329.572	7.09617
329.787	7.73756
330.001	8.63026
330.216	4.77957
330.43	8.24507
330.645	7.47804
330.859	7.13712
331.074	5.26737
331.288	6.406
331.503	8.15757
331.717	5.23939
331.931	6.16133
332.146	6.84743
332.36	8.62098
332.575	6.67323
332.789	6.7164
333.003	6.773
333.218	7.07796
333.432	6.56938
333.646	7.6192
333.86	8.54099
334.075	8.4128
334.289	6.12469
334.503	5.05254
334.717	7.51404
334.932	6.89316
335.146	7.16105
335.36	5.6254
335.574	7.21135
335.788	6.71628
336.003	7.24396
336.217	7.45009
336.431	6.78382
336.645	6.10693
336.859	5.62354
337.073	6.71917
337.287	7.17406
337.501	5.61942
337.715	7.7784
337.929	7.60218
338.143	6.04035
338.357	7.0856
338.571	6.76593
338.785	7.94496
338.999	6.60068
339.213	6.66877
339.427	5.97733
339.641	8.27166
339.855	6.48762
340.069	6.27708
340.283	7.9725
340.497	8.45347
340.711	7.59705
340.924	7.26559
341.138	6.30765
341.352	6.09464
341.566	7.30594
341.78	5.8181
341.993	6.61079
342.207	6.7616
342.421	7.67431
342.635	7.26138
342.848	7.03463
343.062	5.14123
343.276	6.69018
343.49	8.98425
343.703	6.62425
343.917	8.30549
344.131	8.63861
344.344	6.58162
344.558	7.08509
344.771	6.38917
344.985	8.55876
345.199	9.13193
345.412	8.0033
345.626	8.20787
345.839	6.12622
346.053	6.54844
346.266	6.89495
346.48	8.00635
346.693	8.02798
346.907	7.95118
347.12	6.81528
347.334	7.76787
347.547	8.07377
347.76	7.48642
347.974	8.79993
348.187	8.02815
348.401	7.41572
348.614	6.71561
348.827	7.50787
349.041	8.03682
349.254	6.18543
349.467	7.47688
349.681	7.08579
349.894	7.10504
350.107	8.90199
350.32	9.71539
350.534	6.6334
350.747	7.63919
350.96	7.11497
351.173	7.06497
351.386	7.35446
351.6	7.25988
351.813	7.65777
352.026	7.73986
352.239	6.99131
352.452	7.68817
352.665	9.11711
352.878	7.60653
353.092	9.96971
353.305	8.61922
353.518	8.22732
353.731	7.0773
353.944	9.22115
354.157	7.88605
354.37	7.89436
354.583	6.97047
354.796	7.33541
355.009	9.16531
355.222	8.49044
355.435	8.24945
355.647	9.5912
355.86	7.93758
356.073	8.61398
356.286	7.95831
356.499	9.21776
356.712	9.24136
356.925	9.03382
357.138	9.4444
357.35	8.05066
357.563	8.2952
357.776	8.92439
357.989	8.74111
358.201	9.34697
358.414	9.12972
358.627	10.01857
358.84	8.77665
359.052	8.02262
359.265	8.16645
359.478	9.72397
359.69	6.95104
359.903	9.6808
360.116	9.97774
360.328	7.93055
360.541	9.72735
360.753	8.81617
360.966	9.16863
361.179	9.21709
361.391	8.96824
361.604	8.85351
361.816	9.14019
362.029	9.21098
362.241	8.72976
362.454	9.20834
362.666	8.81527
362.879	9.90696
363.091	9.13162
363.304	9.05074
363.516	9.06834
363.728	8.40748
363.941	9.71088
364.153	9.79277
364.366	7.74911
364.578	8.60774
364.79	9.70326
365.003	9.77912
365.215	8.98056
365.427	9.99095
365.639	10.26329
365.852	9.64963
366.064	10.6512
366.276	9.35866
366.488	9.75871
366.701	9.4396
366.913	9.20536
367.125	9.55726
367.337	9.13269
367.549	9.21602
367.762	9.5183
367.974	9.64895
368.186	9.46433
368.398	10.39996
368.61	10.04238
368.822	10.25444
369.034	9.19491
369.246	10.58837
369.458	11.82561
369.67	9.22863
369.882	11.15934
370.094	8.17828
370.306	10.79491
370.518	9.66505
370.73	9.72588
370.942	9.60497
371.154	10.05081
371.366	10.0466
371.578	10.70111
371.79	10.18835
372.002	10.94267
372.214	12.07215
372.425	9.98606
372.637	11.48918
372.849	10.64632
373.061	8.6815
373.273	10.59467
373.484	10.66572
373.696	10.98273
373.908	8.42484
374.12	10.95549
374.331	10.84852
374.543	9.73544
374.755	9.55197
374.967	10.55493
375.178	11.39599
375.39	10.20919
375.602	10.61724
375.813	9.26499
376.025	9.92213
376.236	10.77862
376.448	10.97168
376.66	10.69462
376.871	10.79247
377.083	11.41659
377.294	12.24802
377.506	10.54572
377.717	11.94797
377.929	11.08347
378.14	10.7188
378.352	11.31398
378.563	11.6196
378.775	11.93439
378.986	10.33054
379.197	11.20727
379.409	10.52387
379.62	11.46257
379.832	11.51523
380.043	10.88412
380.254	11.59318
380.466	10.2486
380.677	13.17285
380.888	12.92828
381.1	13.34968
381.311	13.4488
381.522	11.56572
381.733	13.65642
381.945	11.43599
382.156	11.18605
382.367	11.00418
382.578	13.65489
382.789	13.72978
383.001	10.75207
383.212	13.08498
383.423	12.95336
383.634	12.52135
383.845	12.33009
384.056	11.64826
384.267	11.96308
384.478	11.92774
384.69	10.99074
384.901	12.41649
385.112	12.02844
385.323	13.36525
385.534	12.11976
385.745	12.33474
385.956	12.21022
386.167	11.37911
386.378	12.46119
386.588	11.5828
386.799	11.30968
387.01	10.90825
387.221	12.75287
387.432	12.19182
387.643	13.47466
387.854	11.96424
388.065	11.8462
388.275	12.05854
388.486	11.78347
388.697	12.22053
388.908	12.00072
389.119	13.17227
389.329	13.29554
389.54	12.42197
389.751	12.67006
389.962	13.41084
390.172	12.40193
390.383	12.41396
390.594	11.93495
390.804	12.02337
391.015	12.23505
391.226	12.67739
391.436	13.19705
391.647	12.93418
391.858	13.0296
392.068	11.67308
392.279	12.13552
392.489	12.966
392.7	13.23886
392.91	12.19789
393.121	12.17557
393.331	13.08388
393.542	13.67689
393.752	13.53241
393.963	13.10216
394.173	13.05794
394.384	13.34647
394.594	12.95839
394.804	12.05482
395.015	12.9064
395.225	13.37615
395.436	12.236
395.646	13.2893
395.856	12.68847
396.067	12.07165
396.277	13.62506
396.487	13.16081
396.697	13.42461
396.908	13.60682
397.118	13.66688
397.328	13.08115
397.538	13.70993
397.749	12.68735
397.959	13.76111
398.169	13.38369
398.379	12.22441
398.589	13.38106
398.8	13.46128
399.01	13.40646
399.22	12.94443
399.43	14.59404
399.64	13.29882
399.85	13.60969
400.06	13.41746
400.27	12.55591
400.48	13.15338
400.69	14.12006
400.9	13.1059
401.11	12.44435
401.32	13.68023
401.53	12.86657
401.74	14.43683
401.95	13.70197
402.16	13.21603
402.37	13.67664
402.58	13.15623
402.79	13.78317
403	13.85796
403.209	12.95895
403.419	14.13115
403.629	12.96456
403.839	14.36998
404.049	14.31878
404.258	13.48397
404.468	13.15504
404.678	14.1025
404.888	14.55535
405.097	13.63111
405.307	13.54357
405.517	14.11517
405.727	13.95449
405.936	13.42542
406.146	13.88399
406.356	14.72839
406.565	13.61774
406.775	13.32858
406.984	13.5151
407.194	15.11906
407.404	13.81117
407.613	14.0892
407.823	14.18249
408.032	14.61812
408.242	14.39402
408.451	13.54352
408.661	13.87641
408.87	14.92185
409.08	13.44504
409.289	14.25678
409.499	14.07411
409.708	13.84315
409.918	12.50289
410.127	14.14129
410.336	14.95277
410.546	14.46616
410.755	13.91606
410.964	13.75666
411.174	13.30846
411.383	14.36605
411.592	14.22189
411.802	13.42907
412.011	14.52905
412.22	13.97511
412.429	14.72475
412.639	14.91868
412.848	14.78808
413.057	15.16476
413.266	14.76394
413.475	14.25541
413.685	14.51231
413.894	14.7038
414.103	14.78125
414.312	14.686
414.521	13.95521
414.73	14.31972
414.939	15.43702
415.148	14.51877
415.357	14.53343
415.566	14.3592
415.776	14.19174
415.985	14.24414
416.194	14.95435
416.403	15.66942
416.611	13.73499
416.82	14.2647
417.029	14.85224
417.238	14.31172
417.447	14.23318
417.656	14.94732
417.865	15.08362
418.074	15.63261
418.283	16.69406
418.492	18.16305
418.7	17.78828
418.909	19.91146
419.118	18.69867
419.327	19.27778
419.536	19.33961
419.744	19.65804
419.953	21.42917
420.162	21.81981
420.371	21.40956
420.579	22.40165
420.788	23.35065
420.997	23.67783
421.205	24.34032
421.414	23.90035
421.623	24.1503
421.831	23.47287
422.04	24.1558
422.249	22.6077
422.457	23.04751
422.666	21.86258
422.874	22.87212
423.083	23.01909
423.291	23.0084
423.5	23.36034
423.708	23.94709
423.917	24.65617
424.125	23.87956
424.334	23.92621
424.542	26.09267
424.751	25.08165
424.959	24.58046
425.167	24.47058
425.376	24.25797
425.584	22.26984
425.793	21.82574
426.001	20.50903
426.209	20.28559
426.418	18.78667
426.626	17.64574
426.834	17.00888
427.042	16.77785
427.251	16.03807
427.459	16.81541
427.667	15.54359
427.875	14.7849
428.084	15.11366
428.292	16.19381
428.5	16.07274
428.708	14.81096
428.916	14.84629
429.124	15.52334
429.333	15.37426
429.541	15.49948
429.749	15.61939
429.957	15.46437
430.165	17.00911
430.373	14.67039
430.581	15.65417
430.789	16.33591
430.997	15.51411
431.205	15.17571
431.413	15.90218
431.621	15.54477
431.829	16.05206
432.037	15.71206
432.245	15.79358
432.453	16.37127
432.661	16.36822
432.869	18.099
433.076	17.08826
433.284	17.72702
433.492	18.73506
433.7	18.96987
433.908	17.9971
434.116	18.43183
434.323	17.76038
434.531	17.63464
434.739	17.53293
434.947	17.09667
435.154	16.88459
435.362	16.0608
435.57	15.90116
435.778	15.82655
435.985	16.24631
436.193	15.66703
436.401	16.90915
436.608	16.08691
436.816	15.93066
437.023	17.02472
437.231	17.26585
437.439	16.57818
437.646	16.87477
437.854	16.47971
438.061	16.85228
438.269	17.1803
438.476	17.48446
438.684	17.66967
438.891	18.45222
439.099	18.30413
439.306	18.42705
439.514	18.67745
439.721	20.72868
439.929	20.32454
440.136	21.68707
440.343	21.91993
440.551	21.76558
440.758	23.66022
440.965	21.9987
441.173	21.8073
441.38	21.40743
441.587	20.89261
441.795	20.45974
442.002	19.77685
442.209	19.25397
442.416	18.69691
442.624	18.33165
442.831	17.822
443.038	17.09215
443.245	16.62126
443.452	16.48671
443.66	17.6201
443.867	17.0869
444.074	17.0488
444.281	17.91316
444.488	18.3784
444.695	19.036
444.902	19.70569
445.109	21.58379
445.316	21.56114
445.523	22.44043
445.73	23.06517
445.937	24.16405
446.144	25.05005
446.351	25.84036
446.558	24.29618
446.765	26.93618
446.972	25.70132
447.179	25.3431
447.386	25.57159
447.593	23.46515
447.8	24.43821
448.007	22.26985
448.214	20.98804
448.42	20.24197
448.627	20.29822
448.834	19.21029
449.041	18.53892
449.248	17.89837
449.454	17.80013
449.661	17.83822
449.868	16.44679
450.075	16.49782
450.281	15.80173
450.488	16.1429
450.695	16.27131
450.901	16.48062
451.108	16.38031
451.315	17.42759
451.521	16.71152
451.728	17.38182
451.935	16.46727
452.141	16.78828
452.348	16.74341
452.554	16.81945
452.761	16.73246
452.967	17.80944
453.174	17.0413
453.38	17.06714
453.587	16.20422
453.793	17.06856
454	17.2251
454.206	17.98304
454.413	17.34373
454.619	17.16573
454.825	16.37255
455.032	17.31659
455.238	17.44111
455.445	16.28709
455.651	16.96627
455.857	15.90375
456.064	16.8682
456.27	16.8249
456.476	16.66814
456.682	16.18893
456.889	17.11606
457.095	17.32054
457.301	18.34246
457.507	17.00787
457.714	17.2095
457.92	17.02149
458.126	16.55296
458.332	17.44721
458.538	18.11549
458.744	19.30526
458.951	20.49701
459.157	23.44517
459.363	23.41975
459.569	23.9628
459.775	24.66731
459.981	24.78029
460.187	25.45673
460.393	25.19077
460.599	25.12651
460.805	23.6426
461.011	22.18833
461.217	21.29308
461.423	19.6327
461.629	18.37127
461.835	17.76605
462.041	17.24244
462.247	18.23998
462.453	17.22173
462.658	17.13671
462.864	17.72069
463.07	17.5499
463.276	17.3316
463.482	17.39199
463.688	18.20192
463.893	16.92639
464.099	17.27177
464.305	18.21691
464.511	17.17705
464.716	17.37505
464.922	17.89911
465.128	16.86466
465.333	18.33269
465.539	17.85604
465.745	17.51675
465.95	17.42166
466.156	18.97911
466.362	18.07581
466.567	17.44042
466.773	17.40892
466.978	18.58411
467.184	17.00658
467.389	16.50918
467.595	17.75383
467.8	17.00617
468.006	18.26011
468.211	18.24591
468.417	16.9783
468.622	17.85208
468.828	17.89614
469.033	17.58613
469.239	19.28783
469.444	17.30028
469.649	18.08545
469.855	17.62865
470.06	17.79289
470.266	16.90455
470.471	18.23549
470.676	17.93168
470.881	16.62895
471.087	18.66453
471.292	18.78808
471.497	16.93415
471.703	17.63651
471.908	17.39508
472.113	17.82202
472.318	18.15831
472.523	17.14716
472.729	17.83362
472.934	17.93622
473.139	17.4476
473.344	17.97582
473.549	18.67557
473.754	17.28782
473.959	18.99266
474.164	17.41275
474.369	17.74303
474.575	18.27077
474.78	17.72975
474.985	17.51301
475.19	16.77553
475.395	17.57247
475.6	17.72537
475.804	18.75728
476.009	17.91999
476.214	17.76978
476.419	17.58205
476.624	16.99904
476.829	17.52725
477.034	18.36648
477.239	17.66545
477.444	18.11841
477.648	18.32869
477.853	18.38214
478.058	17.96846
478.263	17.6714
478.468	17.53493
478.672	17.52239
478.877	18.84096
479.082	19.15556
479.287	18.33208
479.491	18.12501
479.696	17.60348
479.901	18.50672
480.105	18.51248
480.31	17.70377
480.515	18.27523
480.719	20.22206
480.924	19.17309
481.128	19.6722
481.333	21.06668
481.538	21.57281
481.742	22.77782
481.947	24.99047
482.151	26.93623
482.356	29.1424
482.56	33.9392
482.765	38.19885
482.969	45.06287
483.174	50.47135
483.378	57.74576
483.582	60.39802
483.787	63.9505
483.991	65.52121
484.196	65.76801
484.4	64.38285
484.604	63.80826
484.809	58.8392
485.013	54.87291
485.217	49.45671
485.422	44.21892
485.626	40.12418
485.83	38.0322
486.034	36.88638
486.239	37.66358
486.443	39.07621
486.647	40.44593
486.851	42.86543
487.055	45.92255
487.26	46.65862
487.464	48.84411
487.668	48.35224
487.872	49.48322
488.076	49.1369
488.28	47.37827
488.484	44.31784
488.688	42.80644
488.892	40.17739
489.096	37.04536
489.3	34.4945
489.504	32.05154
489.708	30.36028
489.912	29.63239
490.116	29.04794
490.32	29.11196
490.524	31.55343
490.728	33.41505
490.932	35.81177
491.136	38.15624
491.34	40.41242
491.544	41.39727
491.748	41.57659
491.951	41.34107
492.155	40.31919
492.359	38.75906
492.563	35.66537
492.767	33.05366
492.97	29.79371
493.174	26.68331
493.378	24.32281
493.582	21.9312
493.785	20.80684
493.989	20.27526
494.193	19.22752
494.396	18.34675
494.6	18.60414
494.804	18.01046
495.007	17.77093
495.211	18.10829
495.414	18.31928
495.618	19.35724
495.822	20.23373
496.025	20.06844
496.229	21.00651
496.432	20.87565
496.636	21.53615
496.839	21.74357
497.043	22.77033
497.246	22.08825
497.45	21.57007
497.653	21.96499
497.856	21.58572
498.06	20.73518
498.263	20.48385
498.467	19.96412
498.67	20.58027
498.873	19.8387
499.077	18.94714
499.28	18.87965
499.483	18.90074
499.686	19.01954
499.89	18.60876
500.093	18.89495
500.296	18.08829
500.499	19.65856
500.703	18.59757
500.906	18.77526
501.109	19.60198
501.312	18.6903
501.515	18.45641
501.719	18.87695
501.922	19.24032
502.125	18.81169
502.328	18.56911
502.531	18.10893
502.734	18.66758
502.937	17.74823
503.14	18.7952
503.343	18.35018
503.546	18.61371
503.749	18.33552
503.952	19.07791
504.155	18.3598
504.358	19.17415
504.561	18.96897
504.764	18.04543
504.967	18.94439
505.17	18.77668
505.373	19.53207
505.576	18.75021
505.778	19.13843
505.981	18.32919
506.184	19.53321
506.387	17.91795
506.59	19.75983
506.793	19.6407
506.995	19.0316
507.198	17.90873
507.401	19.13922
507.604	19.12692
507.806	18.2229
508.009	18.47894
508.212	19.27298
508.414	18.61398
508.617	18.80039
508.82	19.19449
509.022	20.26113
509.225	19.5673
509.427	18.76568
509.63	19.77173
509.833	19.05105
510.035	18.94217
510.238	18.2035
510.44	19.55033
510.643	17.87155
510.845	20.11386
511.048	19.15435
511.25	18.62433
511.453	18.96876
511.655	19.15939
511.858	18.91614
512.06	19.44548
512.262	18.97554
512.465	19.57359
512.667	18.78252
512.869	18.52311
513.072	19.21006
513.274	19.42201
513.476	19.38135
513.679	19.52425
513.881	18.57919
514.083	19.88748
514.286	18.62606
514.488	18.50561
514.69	18.51225
514.892	18.37175
515.094	19.31029
515.297	18.71635
515.499	19.04082
515.701	18.5198
515.903	20.05525
516.105	20.20054
516.307	19.45998
516.509	18.11656
516.711	18.37389
516.913	19.20934
517.116	19.17834
517.318	19.14353
517.52	20.85976
517.722	21.49628
517.924	21.35063
518.126	23.06479
518.328	22.93713
518.529	24.08417
518.731	24.96903
518.933	23.14972
519.135	23.33545
519.337	23.86222
519.539	22.41993
519.741	20.65242
519.943	20.302
520.145	19.40218
520.346	19.87243
520.548	18.96166
520.75	19.23553
520.952	19.01938
521.153	19.5353
521.355	19.43667
521.557	18.46424
521.759	19.21751
521.96	19.35787
522.162	18.52583
522.364	19.87038
522.565	18.77566
522.767	19.50066
522.969	19.9293
523.17	19.46058
523.372	19.37527
523.573	18.99363
523.775	19.34264
523.977	18.69456
524.178	20.18384
524.38	18.9768
524.581	20.7406
524.783	21.19751
524.984	22.9803
525.186	23.53655
525.387	24.94366
525.589	25.08927
525.79	25.53131
525.991	25.6024
526.193	26.59718
526.394	25.84844
526.596	27.05227
526.797	27.89827
526.998	27.84873
527.2	29.50473
527.401	33.43001
527.602	36.39544
527.803	41.73996
528.005	45.21976
528.206	48.6406
528.407	50.80695
528.608	51.69478
528.81	52.02611
529.011	51.03494
529.212	51.65887
529.413	48.29346
529.614	45.24778
529.815	42.15083
530.017	38.18837
530.218	33.94829
530.419	30.71803
530.62	29.07559
530.821	27.5902
531.022	25.52316
531.223	26.4028
531.424	25.833
531.625	26.38309
531.826	26.26343
532.027	27.71765
532.228	29.94822
532.429	31.08022
532.63	32.72721
532.831	34.44552
533.032	35.27859
533.233	36.50459
533.433	35.9555
533.634	36.06002
533.835	34.86163
534.036	33.16318
534.237	31.58959
534.438	29.40555
534.638	26.67851
534.839	25.23682
535.04	24.49691
535.241	23.26812
535.441	24.4006
535.642	23.90771
535.843	23.98584
536.043	24.72768
536.244	25.27704
536.445	26.00345
536.645	26.88572
536.846	26.41481
537.047	26.43137
537.247	25.02366
537.448	24.07019
537.648	23.38266
537.849	21.71179
538.049	20.75772
538.25	20.09438
538.451	19.73703
538.651	19.16802
538.851	19.76033
539.052	20.33867
539.252	20.25096
539.453	19.71557
539.653	20.79448
539.854	22.2765
540.054	24.40983
540.254	27.86612
540.455	30.88654
540.655	32.37404
540.855	35.93714
541.056	37.98332
541.256	38.21788
541.456	39.73202
541.657	39.36074
541.857	39.90257
542.057	37.49381
542.257	35.92354
542.458	35.56492
542.658	33.25728
542.858	30.11184
543.058	29.34376
543.258	27.76326
543.458	25.30072
543.659	24.30623
543.859	24.61125
544.059	23.80288
544.259	22.38614
544.459	22.37315
544.659	20.9244
544.859	20.89911
545.059	20.20215
545.259	20.94036
545.459	20.42521
545.659	21.43194
545.859	20.95499
546.059	21.66213
546.259	20.99332
546.459	21.19749
546.659	21.15191
546.859	21.55667
547.059	21.34155
547.258	21.12119
547.458	20.31291
547.658	19.17341
547.858	19.00707
548.058	19.6622
548.258	19.33045
548.457	18.93594
548.657	21.13015
548.857	19.56629
549.057	19.88907
549.256	19.92262
549.456	19.06455
549.656	18.31934
549.855	20.75211
550.055	19.18535
550.255	20.82135
550.454	19.85866
550.654	20.10139
550.853	20.57856
551.053	20.22592
551.253	19.84021
551.452	19.88695
551.652	18.96837
551.851	18.70024
552.051	19.52991
552.25	19.25707
552.45	19.16635
552.649	19.55198
552.849	19.15101
553.048	19.57222
553.248	20.31856
553.447	19.12937
553.646	20.26992
553.846	20.61238
554.045	20.4355
554.244	18.66169
554.444	20.786
554.643	19.14466
554.842	20.62164
555.042	21.05114
555.241	19.13479
555.44	18.95904
555.64	20.13247
555.839	20.9918
556.038	20.38004
556.237	19.02297
556.436	19.72428
556.636	19.92706
556.835	19.0476
557.034	20.73268
557.233	19.67867
557.432	18.5107
557.631	20.43479
557.83	19.42615
558.029	19.32993
558.228	18.83721
558.427	19.11798
558.626	19.79438
558.825	18.87339
559.024	19.64345
559.223	20.83436
559.422	19.38125
559.621	19.79288
559.82	17.82451
560.019	19.72074
560.218	19.37518
560.417	17.82712
560.616	19.22311
560.815	22.11978
561.014	18.76654
561.212	20.99399
561.411	19.85609
561.61	18.71628
561.809	19.51423
562.008	20.55991
562.206	19.46429
562.405	20.00488
562.604	19.51717
562.803	19.88818
563.001	19.46407
563.2	18.63132
563.399	19.90309
563.597	18.67518
563.796	19.53827
563.995	18.83915
564.193	20.15981
564.392	19.27787
564.59	21.3834
564.789	18.31787
564.988	19.30702
565.186	19.99082
565.385	19.53087
565.583	19.56499
565.782	19.71208
565.98	19.47595
566.179	19.63755
566.377	18.97683
566.575	19.31924
566.774	20.82103
566.972	20.32135
567.171	21.4669
567.369	20.59633
567.567	19.78887
567.766	20.06636
567.964	18.30965
568.162	20.1361
568.361	20.34305
568.559	19.35851
568.757	19.99266
568.956	19.66715
569.154	19.74862
569.352	20.18525
569.55	19.65607
569.748	19.70111
569.947	19.32278
570.145	19.06873
570.343	19.03537
570.541	20.51374
570.739	19.04562
570.937	20.03991
571.135	20.11824
571.333	21.21406
571.532	21.03605
571.73	19.93869
571.928	20.66391
572.126	20.15826
572.324	19.56784
572.522	20.9072
572.72	22.09597
572.918	19.84141
573.116	20.40689
573.313	19.87588
573.511	19.95369
573.709	19.22704
573.907	20.58363
574.105	19.68627
574.303	18.65004
574.501	18.76096
574.699	20.52674
574.896	20.23681
575.094	20.23883
575.292	18.77067
575.49	20.5819
575.688	19.857
575.885	20.78776
576.083	21.5899
576.281	20.33229
576.478	19.27418
576.676	20.3485
576.874	18.73768
577.071	19.54785
577.269	21.67477
577.467	19.832
577.664	19.51
577.862	20.56279
578.059	18.77664
578.257	20.79994
578.455	19.21787
578.652	19.85887
578.85	17.95334
579.047	19.74988
579.245	19.74024
579.442	19.54865
579.64	19.72307
579.837	18.35647
580.034	21.9988
580.232	19.52936
580.429	18.67881
580.627	20.00616
580.824	20.76981
581.021	20.44953
581.219	19.46063
581.416	18.93899
581.613	21.01673
581.811	21.19248
582.008	18.60232
582.205	20.42428
582.402	19.96587
582.6	21.67465
582.797	19.79907
582.994	19.92362
583.191	20.39803
583.388	19.69572
583.586	20.86734
583.783	20.54364
583.98	19.33013
584.177	19.82185
584.374	17.10917
584.571	19.74572
584.768	19.86008
584.965	19.62809
585.162	20.24846
585.359	21.51477
585.556	19.77561
585.753	20.23447
585.95	18.76179
586.147	18.97541
586.344	20.46694
586.541	19.8577
586.738	18.79855
586.935	19.64928
587.132	19.08008
587.329	20.96482
587.526	19.61246
587.722	24.51027
587.919	18.71278
588.116	20.28113
588.313	21.26396
588.51	22.05228
588.706	19.77663
588.903	20.41303
589.1	20.77523
589.297	22.29211
589.493	19.86857
589.69	20.1466
589.887	19.4683
590.083	19.02078
590.28	19.37975
590.477	20.95569
590.673	20.95897
590.87	21.26901
591.067	19.38331
591.263	20.22346
591.46	20.0967
591.656	19.59793
591.853	21.31499
592.049	19.01058
592.246	19.72815
592.442	21.14383
592.639	21.10863
592.835	19.04105
593.032	20.18337
593.228	18.54829
593.425	18.77027
593.621	18.33062
593.817	20.28752
594.014	19.29906
594.21	20.01579
594.406	20.86688
594.603	20.54229
594.799	19.43352
594.995	17.73023
595.192	21.25649
595.388	19.93007
595.584	19.76739
595.78	18.80721
595.977	22.22394
596.173	21.81156
596.369	19.86164
596.565	19.2275
596.761	18.99286
596.957	21.30419
597.154	19.67961
597.35	19.75298
597.546	19.44327
597.742	20.76359
597.938	20.25153
598.134	19.27615
598.33	20.14601
598.526	21.37454
598.722	20.13133
598.918	21.84733
599.114	20.60203
599.31	18.95533
599.506	19.849
599.702	19.22744
599.898	20.27322
600.094	20.5868
600.29	20.91769
600.485	20.97614
600.681	19.34851
600.877	21.67798
601.073	19.84663
601.269	21.80438
601.465	21.29664
601.66	19.08575
601.856	18.34984
602.052	21.61628
602.248	19.90016
602.443	18.55296
602.639	19.16814
602.835	19.28451
603.03	19.39079
603.226	21.35561
603.422	19.53013
603.617	20.07299
603.813	19.85081
604.009	20.0754
604.204	21.34226
604.4	19.08831
604.595	21.20571
604.791	19.23576
604.986	20.57456
605.182	19.5464
605.377	19.91992
605.573	19.72914
605.768	20.19591
605.964	20.75859
606.159	20.77115
606.355	21.32428
606.55	19.89171
606.746	21.29245
606.941	19.90129
607.136	22.50891
607.332	23.35113
607.527	18.7447
607.722	20.50439
607.918	20.07664
608.113	19.69022
608.308	21.08754
608.503	20.93932
608.699	20.73276
608.894	21.15238
609.089	19.57987
609.284	20.5946
609.479	19.79618
609.675	21.15424
609.87	19.98866
610.065	21.07909
610.26	21.09367
610.455	21.06475
610.65	20.17612
610.845	20.16625
611.04	21.23572
611.235	20.32739
611.43	19.8826
611.625	18.75675
611.82	21.93993
612.015	19.42764
612.21	21.91685
612.405	18.35403
612.6	22.29554
612.795	21.66583
612.99	20.69531
613.185	19.02681
613.38	19.37084
613.575	20.3431
613.77	23.36685
613.965	18.03049
614.159	19.37656
614.354	21.76178
614.549	21.37468
614.744	20.76787
614.938	18.94926
615.133	18.16583
615.328	21.62732
615.523	21.20918
615.717	24.03117
615.912	19.39313
616.107	20.42958
616.301	20.11306
616.496	19.51282
616.691	21.73031
616.885	21.30664
617.08	23.88298
617.274	21.4445
617.469	22.56974
617.664	21.2011
617.858	19.96362
618.053	20.76713
618.247	20.1832
618.442	17.5016
618.636	22.05754
618.831	19.55477
619.025	19.53526
619.219	23.44646
619.414	16.63464
619.608	19.97489
619.803	19.40307
619.997	22.91091
620.191	21.95895
620.386	20.75453
620.58	20.18983
620.774	18.09479
620.969	18.57884
621.163	20.62428
621.357	19.07477
621.551	19.74825
621.746	20.24164
621.94	19.50603
622.134	24.78717
622.328	23.00305
622.522	18.07528
622.716	21.49884
622.911	21.95379
623.105	21.70463
623.299	21.311
623.493	24.23414
623.687	19.34798
623.881	19.74258
624.075	21.01031
624.269	21.98403
624.463	17.86543
624.657	18.49714
624.851	21.15792
625.045	21.93384
625.239	22.03845
625.433	20.42846
625.627	22.55953
625.821	20.32687
626.015	19.94635
626.209	21.00936
626.403	18.99412
626.596	21.38896
626.79	21.68681
626.984	19.27086
627.178	21.50837
627.372	21.46672
627.565	21.88516
627.759	18.84517
627.953	19.0894
628.147	21.3085
628.34	21.29684
628.534	23.58769
628.728	20.30969
628.921	21.72019
629.115	21.40798
629.309	21.87843
629.502	21.58331
629.696	20.45841
629.89	20.76727
630.083	21.15009
630.277	21.31678
630.47	23.37229
630.664	20.53854
630.857	18.37676
631.051	21.75674
631.244	22.16127
631.438	21.85507
631.631	19.69386
631.825	23.06649
632.018	21.49114
632.212	23.46818
632.405	22.41601
632.598	19.8182
632.792	21.20566
632.985	17.57646
633.178	20.62281
633.372	20.68099
633.565	20.51242
633.758	22.79888
633.952	19.55004
634.145	19.39087
634.338	20.29854
634.531	20.0001
634.724	19.90056
634.918	20.82136
635.111	20.69067
635.304	20.2738
635.497	24.24933
635.69	21.35949
635.883	22.80334
636.077	19.27904
636.27	21.69681
636.463	21.02787
636.656	20.70437
636.849	20.41257
637.042	21.9041
637.235	22.5767
637.428	22.08193
637.621	22.32001
637.814	22.98878
638.007	22.95238
638.2	22.90551
638.393	23.82041
638.586	18.51988
638.778	20.49831
638.971	20.43015
639.164	23.50882
639.357	21.13345
639.55	23.17419
639.743	22.30224
639.935	21.89831
640.128	24.13939
640.321	22.03596
640.514	21.31052
640.707	24.93792
640.899	22.77052
641.092	18.56272
641.285	32.87555
641.477	17.29156
641.67	24.97583
641.863	23.12655
642.055	21.23433
642.248	20.55325
642.441	20.16805
642.633	21.85866
642.826	23.01825
643.018	22.96934
643.211	24.72242
643.403	24.54175
643.596	25.12131
643.788	24.40364
643.981	20.73345
644.173	22.96125
644.366	21.21501
644.558	18.21502
644.751	22.87321
644.943	18.72052
645.135	23.86726
645.328	23.52254
645.52	21.79969
645.712	23.46364
645.905	26.20648
646.097	19.10589
646.289	21.23896
646.482	25.27905
646.674	20.39564
646.866	24.16603
647.058	22.54015
647.251	19.43739
647.443	20.2403
647.635	21.41886
647.827	19.21174
648.019	19.89997
648.211	20.76479
648.404	21.20582
648.596	24.89562
648.788	21.85441
648.98	21.85003
649.172	21.87626
649.364	21.99337
649.556	18.46591
649.748	26.94047
649.94	19.80947
650.132	22.69861
650.324	19.9734
650.516	20.70348
650.708	23.94301
650.9	19.20176
651.092	20.79549
651.284	19.33185
651.476	19.54589
651.667	23.08649
651.859	24.09325
652.051	21.42978
652.243	21.62995
652.435	20.67426
652.627	22.85348
652.818	22.80883
653.01	18.70472
653.202	19.96862
653.394	20.629
653.585	22.51168
653.777	30.00515
653.969	24.05042
654.16	23.58898
654.352	18.92877
654.544	21.36741
654.735	23.06777
654.927	22.13217
655.118	24.87562
655.31	22.59692
655.502	24.42078
655.693	20.88961
655.885	23.33783
656.076	24.26466
656.268	22.79387
656.459	24.98373
656.651	24.51337
656.842	21.10509
657.034	20.38006
657.225	23.45412
657.416	24.83072
657.608	24.69356
657.799	21.77069
657.99	25.12086
658.182	22.08528
658.373	21.79954
658.564	23.98965
658.756	23.1316
658.947	22.30296
659.138	21.09414
659.33	21.72184
659.521	21.30017
659.712	22.71176
659.903	22.23318
660.094	21.43007
660.286	19.57543
660.477	26.33925
660.668	24.07513
660.859	22.47214
661.05	19.94803
661.241	23.50441
661.432	23.48601
661.623	21.93023
661.814	21.69848
662.006	19.18402
662.197	22.58873
662.388	24.77363
662.579	23.0456
662.77	24.97822
662.96	28.16071
663.151	24.14545
663.342	18.56053
663.533	23.69094
663.724	22.33148
663.915	26.29868
664.106	22.0667
664.297	25.77953
664.488	23.71175
664.678	20.85507
664.869	24.44495
665.06	23.95915
665.251	23.10786
665.442	23.57303
665.632	20.18188
665.823	26.44282
666.014	16.3094
666.204	24.39678
666.395	25.85295
666.586	28.61136
666.776	24.67421
666.967	26.51178
667.158	22.94525
667.348	25.92241
667.539	20.87145
667.729	24.91843
667.92	21.25479
668.111	25.33158
668.301	23.81252
668.492	22.91455
668.682	23.63146
668.873	23.03361
669.063	20.64927
669.253	24.1561
669.444	25.40932
669.634	23.27225
669.825	27.57639
670.015	25.66208
670.206	20.46148
670.396	27.68992
670.586	23.03029
670.777	24.44541
670.967	18.80584
671.157	23.01733
671.347	21.09725
671.538	26.47534
671.728	24.40677
671.918	28.11465
672.108	26.01679
672.299	23.01478
672.489	24.05506
672.679	21.64841
672.869	24.39224
673.059	28.05346
673.249	24.22926
673.44	20.91466
673.63	22.92862
673.82	25.40874
674.01	21.09724
674.2	24.08411
674.39	31.43269
674.58	25.2451
674.77	23.61704
674.96	22.95779
675.15	33.28804
675.34	26.52807
675.53	23.49129
675.72	22.68811
675.91	19.98986
676.099	28.135
676.289	28.43541
676.479	26.09858
676.669	22.6839
676.859	24.19282
677.049	21.23354
677.238	23.21776
677.428	28.65223
677.618	24.95173
677.808	26.59693
677.997	25.28115
678.187	21.42518
678.377	23.50457
678.567	22.78179
678.756	22.66556
678.946	23.95175
679.136	21.08043
679.325	22.47556
679.515	21.82141
679.704	21.82639
679.894	25.8455
680.084	25.39465
680.273	27.33891
680.463	22.89373
680.652	22.48756
680.842	23.98707
681.031	26.95193
681.221	22.80933
681.41	25.89242
681.6	23.76967
681.789	25.95097
681.978	27.84087
682.168	24.11454
682.357	24.15082
682.547	26.15197
682.736	24.14801
682.925	27.49295
683.115	27.0678
683.304	25.95721
683.493	25.42348
683.682	25.22722
683.872	25.5063
684.061	27.85932
684.25	25.69745
684.439	28.87269
684.629	26.60592
684.818	33.40285
685.007	24.50822
685.196	24.10365
685.385	29.3393
685.574	25.53085
685.763	26.22784
685.952	25.7094
686.142	21.85617
686.331	28.90368
686.52	20.64839
686.709	29.08221
686.898	28.41569
687.087	26.6679
687.276	30.17215
687.465	27.88695
687.654	25.17525
687.842	28.95876
688.031	22.80435
688.22	29.28681
688.409	25.65826
688.598	25.87661
688.787	33.01248
688.976	26.11724
689.165	30.57096
689.353	24.44007
689.542	26.55005
689.731	27.75329
689.92	30.96482
690.108	27.49159
690.297	24.75622
690.486	25.74295
690.675	28.41178
690.863	31.46495
691.052	30.57104
691.241	27.35314
691.429	26.53459
691.618	30.91549
691.806	22.6532
691.995	24.98582
692.184	25.914
692.372	24.79074
692.561	27.41021
692.749	25.34597
692.938	32.68809
693.126	28.10973
693.315	25.88317
693.503	28.35834
693.692	27.87426
693.88	30.27316
694.068	32.91477
694.257	26.3877
694.445	28.39117
694.634	19.88582
694.822	29.26151
695.01	30.40053
695.199	30.69627
695.387	31.14237
695.575	30.63043
695.763	26.2172
695.952	24.87829
696.14	23.00829
696.328	26.23927
696.516	27.26765
696.705	28.21364
696.893	28.50644
697.081	22.52078
697.269	29.58087
697.457	24.14842
697.645	23.56105
697.833	29.89872
698.021	25.1303
698.21	26.0589
698.398	26.84208
698.586	24.31126
698.774	23.745
698.962	26.67048
699.15	24.58595
699.338	22.42709
699.526	28.23087
699.714	25.13468
699.901	25.08876
700.089	29.82861
700.277	25.0525
700.465	25.98241
700.653	29.16791
700.841	27.98545
701.029	24.13761
701.217	31.00993
701.404	27.50201
701.592	32.16894
701.78	33.1774
701.968	26.64017
702.155	25.42544
702.343	22.76127
702.531	31.41232
702.718	28.55566
702.906	26.17755
703.094	25.86752
703.281	30.62346
703.469	28.18044
703.657	30.66306
703.844	37.57953
704.032	32.91828
704.219	25.33827
704.407	28.25526
704.595	30.74267
704.782	27.86563
704.97	25.6816
705.157	24.84566
705.345	32.8671
705.532	36.46222
705.719	28.50635
705.907	32.76136
706.094	28.13298
706.282	34.09645
706.469	27.09263
706.656	28.79558
706.844	26.31796
707.031	31.59982
707.218	28.70896
707.406	34.4656
707.593	31.59383
707.78	31.00153
707.968	28.58671
708.155	25.87088
708.342	30.07302
708.529	29.22639
708.716	28.81938
708.904	35.14578
709.091	30.94435
709.278	24.66877
709.465	37.97619
709.652	36.00751
709.839	34.62858
710.026	29.89029
710.213	23.39838
710.4	31.18703
710.587	31.79503
710.774	33.93112
710.961	33.43134
711.148	28.95755
711.335	33.12151
711.522	28.29902
711.709	31.13903
711.896	37.8884
712.083	32.85056
712.27	27.08339
712.457	30.79289
712.644	24.14596
712.831	37.87625
713.017	31.01244
713.204	33.00294
713.391	28.38082
713.578	35.06409
713.765	35.11272
713.951	32.04071
714.138	42.90709
714.325	33.36008
714.512	31.5419
714.698	27.70204
714.885	37.42705
715.072	31.88893
715.258	30.62031
715.445	28.51807
715.631	36.0687
715.818	20.64243
716.005	28.10084
716.191	32.91108
716.378	29.53089
716.564	35.52383
716.751	27.39909
716.937	28.62883
717.124	35.27641
717.31	27.28288
717.497	36.36012
717.683	28.66433
717.869	40.53537
718.056	29.37121
718.242	32.64281
718.429	30.56585
718.615	26.65146
718.801	30.92626
718.988	34.777
719.174	33.24378
719.36	31.16689
719.547	35.49271
719.733	32.13544
719.919	33.56902
720.105	34.8384
720.291	30.16611
720.478	31.27233
720.664	31.1841
720.85	29.12378
721.036	44.46028
721.222	37.88755
721.408	32.07299
721.595	39.94131
721.781	39.90271
721.967	35.99368
722.153	39.86242
722.339	35.08668
722.525	33.3696
722.711	28.16966
722.897	26.15638
723.083	29.93088
723.269	37.31394
723.455	43.53312
723.641	45.87654
723.827	32.5354
724.012	34.32532
724.198	29.69464
724.384	39.7816
724.57	34.21672
724.756	26.2076
724.942	24.25461
725.127	36.17766
725.313	39.02524
725.499	38.22705
725.685	41.61255
725.87	34.51993
726.056	28.47899
726.242	40.64761
726.428	25.43379
726.613	37.53021
726.799	31.66416
726.985	27.76756
727.17	25.19991
727.356	40.14392
727.541	28.54927
727.727	32.29296
727.913	36.80154
728.098	30.7908
728.284	37.57428
728.469	28.01887
728.655	29.89884
728.84	36.16855
729.026	37.16616
729.211	37.47707
729.397	35.64665
729.582	36.2797
729.767	33.521
729.953	35.25807
730.138	37.73747
730.323	23.63549
730.509	28.76239
730.694	42.54471
730.879	36.41693
731.065	33.75889
731.25	44.22294
731.435	37.61401
731.621	25.64739
731.806	30.64893
731.991	34.52377
732.176	27.39115
732.361	40.27348
732.547	36.67015
732.732	26.69125
732.917	45.07913
733.102	27.08863
733.287	29.97133
733.472	32.87665
733.657	34.49666
733.842	25.8526
734.027	31.50953
734.212	34.11975
734.397	29.77351
734.582	34.58806
734.767	39.04111
734.952	40.73476
735.137	20.5936
735.322	40.3397
735.507	36.00716
735.692	34.06256
735.877	44.77903
736.062	41.5596
736.247	36.49228
736.431	32.44474
736.616	36.71206
736.801	35.02978
736.986	32.53705
737.171	28.88038
737.355	25.3064
737.54	39.96703
737.725	33.06303
737.909	49.1394
738.094	30.14573
738.279	39.66096
738.463	32.39038
738.648	38.03849
738.833	36.74523
739.017	43.42831
739.202	32.3819
739.386	33.48916
739.571	29.05325
739.756	37.06005
739.94	33.71438
740.125	37.67391
740.309	29.33593
740.494	38.2254
740.678	34.54616
740.863	37.12402
741.047	35.03872
741.231	41.57302
741.416	29.22887
741.6	44.31135
741.785	29.85465
741.969	38.45898
742.153	40.8204
742.338	23.93289
742.522	33.16172
742.706	39.15788
742.89	26.42676
743.075	35.37108
743.259	42.53406
743.443	39.28034
743.627	42.30105
743.812	47.78773
743.996	19.744
744.18	31.93897
744.364	31.51679
744.548	50.38025
744.732	31.98539
744.916	39.54136
745.1	38.25306
745.285	34.21372
745.469	38.11273
745.653	44.50649
745.837	26.57727
746.021	50.65751
746.205	43.91983
746.389	34.35098
746.573	33.65567
746.757	44.97182
746.94	33.28464
747.124	42.66183
747.308	27.11047
747.492	42.69649
747.676	30.78648
747.86	50.58042
748.044	31.4936
748.227	24.15698
748.411	58.11589
748.595	34.88075
748.779	29.73009
748.963	38.4358
749.146	35.48046
749.33	30.70138
749.514	28.50428
749.697	41.55272
749.881	32.39848
750.065	29.30133
750.248	35.89484
750.432	50.78534
750.616	34.55404
750.799	28.16981
750.983	48.79814
751.166	53.15945
751.35	26.0827
751.533	43.1449
751.717	43.16134
751.9	46.23804
752.084	33.0024
752.267	29.69675
752.451	31.45773
752.634	36.68362
752.818	39.98476
753.001	40.93615
753.184	42.51346
753.368	38.82766
753.551	15.43629
753.734	30.87985
753.918	46.16122
754.101	31.01361
754.284	40.33281
754.467	33.46936
754.651	30.95482
754.834	27.57018
755.017	41.80877
755.2	44.84575
755.384	28.3354
755.567	41.44202
755.75	41.90401
755.933	33.22865
756.116	36.53075
756.299	32.83078
756.482	29.49372
756.665	38.36492
756.848	34.75429
757.032	38.26657
757.215	26.10235
757.398	32.19231
757.581	28.90419
757.764	53.95117
757.947	34.23739
758.129	41.0759
758.312	18.01688
758.495	34.53897
758.678	36.06166
758.861	31.56755
759.044	47.66687
759.227	29.46047
759.41	31.55579
759.592	39.53476
759.775	34.42434
759.958	42.78667
760.141	28.43404
760.324	52.91589
760.506	45.69106
760.689	43.77768
760.872	52.40058
761.054	39.99961
761.237	34.3236
761.42	38.11258
761.602	42.31864
761.785	38.4159
761.968	43.03578
762.15	48.17773
762.333	34.6871
762.515	40.02221
762.698	34.09854
762.88	43.73723
763.063	38.60267
763.245	41.72902
763.428	30.50196
763.61	31.61409
763.793	28.33681
763.975	38.59063
764.158	33.74811
764.34	33.04252
764.522	30.42851
764.705	36.19824
764.887	43.80599
765.069	25.54812
765.252	39.40935
765.434	38.74271
765.616	34.68647
765.799	32.19524
765.981	40.96134
766.163	31.04717
766.345	43.51268
766.528	30.84396
766.71	20.06207
766.892	36.39117
767.074	45.1244
767.256	34.1483
767.438	49.15785
767.62	37.69478
767.802	51.16949
767.985	40.58968
768.167	52.062
768.349	29.93835
768.531	39.93383
768.713	38.55122
768.895	41.1137
769.077	39.05618
769.259	54.75059
769.441	75.07064
769.623	42.70095
769.804	49.59737
769.986	47.98499
770.168	54.96179
770.35	64.11466
770.532	49.99493
770.714	54.59658
770.896	54.29507
771.077	29.31812
771.259	57.89781
771.441	46.33272
771.623	61.64069
771.804	68.66809
771.986	27.81302
772.168	39.34663
772.35	58.90078
772.531	71.0291
772.713	45.96134
772.894	60.23638
773.076	45.79862
773.258	42.81116
773.439	60.27702
773.621	67.95997
773.802	38.13932
773.984	41.54908
774.166	49.64466
774.347	62.54096
774.529	60.48088
774.71	28.33101
774.891	45.20434
775.073	44.42847
775.254	61.84477
775.436	40.64513
775.617	71.19023
775.799	41.14774
775.98	64.06505
776.161	65.5799
776.343	67.11138
776.524	45.93884
776.705	41.98449
776.886	26.87184
777.068	51.63084
777.249	79.37613
777.43	72.50144
777.611	35.90988
777.793	46.15327
777.974	65.79415
778.155	41.21919
778.336	37.6919
778.517	76.56738
778.698	38.83876
778.879	25.4145
779.061	17.26773
779.242	51.75632
779.423	52.89734
779.604	41.04942
779.785	45.70187
779.966	49.83627
780.147	61.03905
780.328	63.37757
780.509	83.57416
780.69	59.66305
780.871	39.03967
781.051	31.6401
781.232	51.79026
781.413	46.97502
781.594	44.9744
781.775	42.82413
781.956	38.85503
782.137	24.13742
782.317	39.57897
782.498	51.75928
782.679	51.80063
782.86	47.60855
783.04	43.12152
783.221	52.14862
783.402	71.80727
783.583	48.28548
783.763	55.18421
783.944	41.51293
784.124	31.12236
784.305	67.10948
784.486	54.5385
784.666	47.17936
784.847	28.70872
785.027	80.77996
785.208	40.27338
785.388	42.68512
785.569	42.26034
785.749	45.7442
785.93	41.40815
786.11	29.65493
786.291	57.25425
786.471	48.23124
786.652	59.09778
786.832	46.85861
787.012	51.26403
787.193	35.07244
787.373	51.904
787.553	43.64068
787.734	54.11767
787.914	44.35355
788.094	55.16083
788.275	53.08951
788.455	46.54677
788.635	34.47405
788.815	49.69515
788.995	36.98216
789.176	32.32944
789.356	39.97499
789.536	44.93991
789.716	55.82121
789.896	38.86231
790.076	41.63457
790.256	50.55945
790.436	23.03283
790.616	37.62152
790.796	49.67995
790.976	43.49671
791.156	37.42902
791.336	58.08111
791.516	52.34463
791.696	45.9979
791.876	31.65111
792.056	50.20119
792.236	56.65884
792.416	55.73354
792.596	52.93589
792.776	55.15434
792.956	53.88279
793.135	65.94517
793.315	34.58318
793.495	61.78966
793.675	55.59575
793.854	56.55847
794.034	59.53599
794.214	34.69863
794.394	56.48055
794.573	63.85833
794.753	49.7008
794.933	36.61213
795.112	50.93716
795.292	57.19233
795.472	73.46475
795.651	33.79784
795.831	46.1987
796.01	45.91805
796.19	44.65562
796.369	49.57401
796.549	53.10799
796.728	45.44207
796.908	35.08403
797.087	35.7316
797.267	43.60088
797.446	33.85584
797.626	56.66804
797.805	52.61838
797.984	36.38395
798.164	58.90401
798.343	36.93745
798.522	50.58703
798.702	49.89157
798.881	31.44709
799.06	44.40696
799.239	26.75168
799.419	36.80559
799.598	66.76748
799.777	54.79273
799.956	64.16355
800.136	41.86085
800.315	37.69534
800.494	52.08188
800.673	60.27489
800.852	53.65148
801.031	62.08391
801.21	54.86998
801.389	43.21398
801.568	47.03863
801.747	71.6172
801.926	47.38518
802.105	66.77339
802.284	42.86
802.463	67.70939
802.642	49.81632
802.821	49.3513
803	65.46815
803.179	56.84845
803.358	64.79593
803.537	40.89564
803.716	51.8532
803.895	39.92979
804.073	45.98902
804.252	36.75427
804.431	54.36668
804.61	45.31024
804.789	60.59356
804.967	42.32744
805.146	42.85412
805.325	70.90312
805.503	55.33653
805.682	32.75523
805.861	79.31503
806.039	62.79519
806.218	45.40719
806.397	49.12566
806.575	46.61774
806.754	52.17644
806.932	33.50863
807.111	67.04038
807.289	59.18086
807.468	47.89506
807.646	61.64645
807.825	58.83307
808.003	52.28687
808.182	58.51296
808.36	53.0449
808.539	37.71858
808.717	66.53195
808.895	35.95078
809.074	54.26095
809.252	49.7749
809.43	55.87727
809.609	61.25298
809.787	69.09282
809.965	48.01318
810.144	48.34876
810.322	47.00229
810.5	50.37625
810.678	42.86596
810.856	78.35498
811.035	62.70328
811.213	55.84226
811.391	66.47841
811.569	51.7281
811.747	89.91861
811.925	65.78117
812.103	36.77618
812.281	48.25869
812.459	72.26217
812.637	73.86811
812.816	61.25322
812.994	75.62947
813.171	66.40586
813.349	55.26114
813.527	64.21452
813.705	68.96918
813.883	86.46453
814.061	65.13251
814.239	75.98729
814.417	79.70892
814.595	56.0869
814.773	54.47995
814.95	52.18986
815.128	57.4096
815.306	52.8599
815.484	48.12134
815.662	37.27109
815.839	36.68705
816.017	40.87498
816.195	69.97349
816.372	46.41659
816.55	56.5189
816.728	75.12958
816.905	49.81999
817.083	75.36433
817.261	47.44427
817.438	81.56018
817.616	77.47772
817.793	42.73923
817.971	64.90193
818.148	61.86928
818.326	70.41727
818.503	56.28999
818.681	72.5761
818.858	44.61799
819.036	52.06089
819.213	54.56749
819.391	45.18267
819.568	43.0723
819.745	41.57382
819.923	65.54373
820.1	45.93798
820.277	42.13069
820.455	47.95457
820.632	50.63625
820.809	51.2051
820.986	38.8689
821.164	33.07715
821.341	32.19602
821.518	39.64761
821.695	33.48362
821.872	33.70576
822.05	30.72302
822.227	27.68057
822.404	28.77599
822.581	30.58931
822.758	28.83398
822.935	28.87367
823.112	30.90563
823.289	27.7059
823.466	31.09392
823.643	29.42492
823.82	32.11626
823.997	30.77711
824.174	33.27085
824.351	38.28674
824.528	36.66501
824.705	34.87604
824.882	36.81715
825.059	44.2952
825.236	33.82985
825.412	35.78729
825.589	41.60546
825.766	50.68683
825.943	37.16634
826.12	42.11111
826.296	32.20146
826.473	38.76541
826.65	39.68273
826.827	46.03144
827.003	35.40281
827.18	37.48243
827.357	41.45508
827.533	37.44652
827.71	27.28162
827.887	34.27915
828.063	36.86926
828.24	33.69631
828.416	39.68347
828.593	34.29443
828.769	43.59058
828.946	44.68054
829.122	47.51443
829.299	44.69183
829.475	30.79986
829.652	43.80625
829.828	65.02222
830.005	43.15507
830.181	57.1864
830.357	42.45314
830.534	61.18125
830.71	49.01619
830.886	56.07114
831.063	56.99813
831.239	66.52917
831.415	37.94958
831.592	69.26355
831.768	49.0631
831.944	42.1916
832.12	69.58638
832.296	65.72783
832.473	57.41298
832.649	45.99663
832.825	58.50879
833.001	39.99969
833.177	58.48198
833.353	51.06662
833.529	33.91155
833.705	45.45222
833.881	35.93916
834.058	36.80088
834.234	38.71019
834.41	37.73947
834.586	32.51807
834.761	36.10264
834.937	38.34002
835.113	39.88124
835.289	35.31407
835.465	39.92848
835.641	35.63404
835.817	38.17374
835.993	62.17165
836.169	36.12843
836.344	47.62696
836.52	52.83354
836.696	51.26702
836.872	40.27123
837.048	91.19083
837.223	45.1368
837.399	75.0958
837.575	64.5581
837.75	60.15492
837.926	73.74783
838.102	114.37723
838.277	91.40562
838.453	109.89989
838.628	108.53951
838.804	53.31432
838.98	110.35426
839.155	58.4469
839.331	78.90053
839.506	59.04034
839.682	58.80755
839.857	75.32514
840.033	83.7115
840.208	48.89926
840.384	26.999
840.559	47.60337
840.734	67.24026
840.91	89.82748
841.085	57.03312
841.26	55.2936
841.436	50.98103
841.611	51.06411
841.786	73.69788
841.962	89.38358
842.137	60.43431
842.312	42.69979
842.487	55.50344
842.663	46.17981
842.838	49.16341
843.013	151.0216
843.188	82.97352
843.363	88.78982
843.538	129.00531
843.714	140.84727
843.889	132.22742
844.064	136.08899
844.239	125.63792
844.414	142.03174
844.589	97.32926
844.764	151.15062
844.939	153.53035
845.114	188.19042
845.289	164.46756
845.464	189.55032
845.639	159.09623
845.814	87.5014
845.989	102.17399
846.163	107.67474
846.338	124.87489
846.513	175.00907
846.688	113.87987
846.863	107.60533
847.038	107.22314
847.212	105.57059
847.387	126.41588
847.562	133.17124
847.737	143.4649
847.911	63.28931
848.086	89.65244
848.261	258.06696
848.435	101.87728
848.61	161.04088
848.785	86.65083
848.959	159.32632
849.134	195.73623
849.308	239.22134
849.483	121.41583
849.658	184.05359
849.832	103.86268
850.007	97.44844
850.181	248.77742
850.356	99.53702
850.53	200.85201
850.705	72.23989
850.879	51.80971
851.053	115.24673
851.228	96.68655
851.402	130.75213
851.577	170.32212
851.751	183.92804
851.925	126.12125
852.099	61.7695
852.274	89.91628
852.448	109.77692
852.622	139.86474
852.797	124.34143
852.971	127.07424
853.145	132.17183
853.319	234.60841
853.493	187.68591
853.668	98.37227
853.842	213.141
854.016	160.37865
854.19	201.85608
854.364	128.25324
854.538	133.34154
854.712	165.88461
854.886	125.62457
855.06	106.60446
855.234	44.02171
855.408	187.09765
855.582	176.25786
855.756	181.99054
855.93	213.88965
856.104	128.5615
856.278	174.20842
856.452	118.6663
856.626	152.53234
856.8	220.22452
856.973	142.45848
857.147	141.95086
857.321	151.99082
857.495	156.85296
857.669	122.66742
857.842	108.27093
858.016	184.3073
858.19	88.98052
858.364	290.57227
858.537	121.07343
858.711	132.63306
858.885	109.32594
859.058	109.03647
859.232	62.17863
859.405	74.17344
859.579	173.81252
859.753	142.97076
859.926	93.38722
860.1	79.16087
860.273	108.455
860.447	207.41832
860.62	110.18565
860.794	211.22052
860.967	144.95911
861.141	188.00062
861.314	243.76481
861.487	134.62145
861.661	193.47973
861.834	196.35968
862.008	194.05065
862.181	118.97944
862.354	134.99917
862.528	152.84453
862.701	105.57975
862.874	75.00961
863.047	112.66182
863.221	102.07355
863.394	55.79666
863.567	193.31805
863.74	53.53319
863.913	168.1008
864.087	145.93822
864.26	164.98938
864.433	118.66587
864.606	228.10539
864.779	124.43715
864.952	71.83166
865.125	113.18798
865.298	121.49059
865.471	119.68998
865.644	204.60776
865.817	186.31516
865.99	162.49154
866.163	203.07194
866.336	119.67682
866.509	119.9148
866.682	103.84017
866.855	185.72022
867.028	77.92382
867.2	153.47209
867.373	62.25718
867.546	136.89576
867.719	227.8575
867.892	148.60936
868.064	97.07186
868.237	149.95442
868.41	125.47461
868.583	87.66899
868.755	85.6746
868.928	123.84962
869.101	254.13735
869.273	182.1728
869.446	153.93405
869.619	186.23761
869.791	119.8423
869.964	180.141
870.136	169.03128
870.309	142.66474
870.481	133.21898
870.654	77.68395
870.826	151.31475
870.999	106.73018
871.171	162.72387
871.344	106.50233
871.516	133.07728
871.689	91.4922
871.861	129.62633
872.033	92.81317
872.206	111.08856
872.378	189.79652
872.55	112.18155
872.723	77.79783
872.895	110.8501
873.067	175.90228
873.24	182.13332
873.412	108.4647
873.584	114.88786
873.756	111.4168
873.928	138.04756
874.101	146.13796
874.273	151.18936
874.445	60.37955
874.617	75.66614
874.789	135.6397
874.961	120.33675
875.133	155.80249
875.305	124.67074
875.477	83.43775
875.649	69.88892
875.821	85.65126
875.993	199.40523
876.165	84.9759
876.337	146.9875
876.509	121.44021
876.681	145.08627
876.853	136.77084
877.025	143.09155
877.197	88.57002
877.369	86.32694
877.541	157.78695
877.712	52.9512
877.884	88.05758
878.056	144.27407
878.228	83.99614
878.4	148.44546
878.571	95.68827
878.743	62.74245
878.915	125.79113
879.086	88.74013
879.258	106.37992
879.43	91.33375
879.601	80.72099
879.773	92.45581
879.945	31.32798
880.116	44.34664
880.288	33.15912
880.459	36.85895
880.631	32.96937
880.802	35.64909
880.974	36.06701
881.145	29.04604
881.317	35.87497
881.488	29.32293
881.66	32.50457
881.831	30.19194
882.002	36.58647
882.174	30.7656
882.345	34.98578
882.517	24.51112
882.688	39.04732
882.859	32.90966
883.03	45.30732
883.202	44.06379
883.373	38.33962
883.544	36.3036
883.715	52.60659
883.887	47.87873
884.058	41.70007
884.229	55.18207
884.4	56.469
884.571	61.7214
884.742	52.61978
884.914	57.17077
885.085	76.71556
885.256	100.18247
885.427	80.74129
885.598	94.68753
885.769	94.09532
885.94	98.85604
886.111	68.77318
886.282	110.89658
886.453	85.18132
886.624	62.56845
886.795	111.99606
886.966	92.71906
887.136	125.54749
887.307	81.95791
887.478	155.17013
887.649	125.62787
887.82	138.41947
887.991	112.02536
888.161	145.11077
888.332	132.7034
888.503	72.79054
888.674	185.78071
888.844	213.37182
889.015	157.60224
889.186	83.96879
889.356	192.97481
889.527	71.84805
889.698	264.6734
889.868	109.66055
890.039	154.12836
890.209	131.17984
890.38	159.75905
890.551	140.70859
890.721	200.2765
890.892	162.17858
891.062	114.45442
891.233	153.21253
891.403	117.79135
891.574	84.27894
891.744	127.6468
891.914	143.2418
892.085	138.77031
892.255	50.38609
892.425	190.75884
892.596	138.03844
892.766	148.21167
892.936	185.4839
893.107	162.25945
893.277	95.09345
893.447	76.99309
893.618	61.69561
893.788	117.25977
893.958	73.94791
894.128	65.76269
894.298	79.25809
894.468	99.74493
894.639	52.35982
894.809	43.24414
894.979	56.80369
895.149	66.51076
895.319	53.99717
895.489	74.18302
895.659	85.55068
895.829	61.73308
895.999	62.01802
896.169	49.45628
896.339	60.44565
896.509	108.62862
896.679	114.30656
896.849	118.94458
897.019	150.2963
897.189	117.14253
897.358	110.90108
897.528	155.50566
897.698	60.1329
897.868	144.71979
898.038	223.83894
898.208	240.82386
898.377	73.83659
898.547	213.40987
898.717	277.84903
898.886	129.8119
899.056	236.86204
899.226	311.15799
899.395	187.44327
899.565	275.88896
899.735	192.26401
899.904	238.09274
900.074	227.4361
900.244	117.95789
900.413	371.98996
900.583	101.01667
900.752	177.17609
900.922	280.55166
901.091	35.11902
901.261	237.95486
901.43	216.40421
901.599	210.64565
901.769	504.06738
901.938	278.6886
902.108	235.75595
902.277	317.9485
902.446	103.93744
902.616	108.31311
902.785	136.1455
902.954	253.62324
903.124	166.14851
903.293	136.38009
903.462	79.89959
903.631	114.37952
903.801	88.66406
903.97	51.15641
904.139	78.38509
904.308	63.07312
904.477	55.12976
904.646	36.78258
904.816	53.63545
904.985	70.35202
905.154	99.3526
