Data from WindowProjectSample_Transmission__4__00004.txt Node

Date: Sat May 03 14:54:48 EDT 2025
User: jessi
Spectrometer: SR400872
Trigger mode: 0
Integration Time (sec): 5.000010E-1
Scans to average: 6
Electric dark correction enabled: true
Nonlinearity correction enabled: true
Boxcar width: 0
XAxis mode: Wavelengths
Number of Pixels in Spectrum: 3648
>>>>>Begin Spectral Data<<<<<
184.909	17895.64524
185.132	2473.25608
185.355	23022.68225
185.578	-7938.11789
185.801	313.02716
186.024	-1382.96153
186.247	807.15192
186.47	2335.87087
186.693	-231.60756
186.916	-2171.16384
187.139	-2629.13558
187.362	1586.19293
187.585	2700.39879
187.808	-3163.97925
188.031	-718.38357
188.254	-1238.46825
188.476	-791.21848
188.699	2477.33814
188.922	-1075.18328
189.145	-9876.25533
189.368	-350.53914
189.591	-1176.38784
189.813	-1566.72415
190.036	1198.30387
190.259	1804.77361
190.482	563.12937
190.705	9809.28421
190.927	-1054.03655
191.15	3268.75693
191.373	2350.0668
191.595	-2300.90098
191.818	2603.65789
192.041	-322.22745
192.263	2431.13116
192.486	2279.92996
192.709	-5399.40179
192.931	2723.67419
193.154	-6150.81763
193.377	195708.09152
193.599	1366.21306
193.822	1693.34823
194.044	-2085.08968
194.267	474.26635
194.489	-346.18418
194.712	1408.73738
194.934	3331.02894
195.157	-13000.76149
195.379	868.70923
195.602	2132.29905
195.824	2136.37287
196.047	2477.1612
196.269	3022.07218
196.492	3190.60818
196.714	2657.23245
196.936	1152.68532
197.159	1290.34248
197.381	-2555.78523
197.604	-981.28954
197.826	6460.53763
198.048	3097.37347
198.271	3982.06085
198.493	2160.15697
198.715	-6098.0524
198.938	-731.21767
199.16	1747.60471
199.382	1431.66681
199.604	-647.84248
199.827	9306.23483
200.049	917.5235
200.271	-3006.86536
200.493	-54441.22334
200.715	2392.60778
200.938	6701.9895
201.16	-7002.99203
201.382	-3386.26823
201.604	-1998.81394
201.826	6562.7697
202.048	910.02249
202.27	-15738.59045
202.492	4230.65473
202.715	-1151.28305
202.937	4639.69317
203.159	-2258.5593
203.381	899.6706
203.603	-3593.03783
203.825	-2799.5678
204.047	3268.32094
204.269	-1910.82129
204.491	2344.59062
204.713	1826.4734
204.935	15591.66489
205.156	1569.84269
205.378	-8016.91795
205.6	-4051.41519
205.822	9271.85811
206.044	-506.14061
206.266	4016.82951
206.488	1212.66116
206.71	28010.87738
206.932	2454.48531
207.153	-4662.30345
207.375	-1679.79787
207.597	8462.65484
207.819	4206.50066
208.041	2087.56582
208.262	-2870.85201
208.484	-1234.54364
208.706	-2507.02994
208.927	29707.18344
209.149	953.07811
209.371	-6108.37219
209.593	1425.09473
209.814	5531.97436
210.036	-2874.95594
210.258	-5740.04408
210.479	-1264.79668
210.701	979.24095
210.922	6650.42759
211.144	-1196.15878
211.366	-5941.24116
211.587	-621.36857
211.809	10002.3409
212.03	-1225.9086
212.252	-1664.15334
212.473	809.06621
212.695	-2134.50218
212.916	2924.03346
213.138	3923.09918
213.359	-1767.31584
213.581	6539.42162
213.802	-1781.03671
214.024	17120.52196
214.245	-3408.3065
214.466	-353.93666
214.688	1598.17653
214.909	846.84787
215.131	-92741.66478
215.352	1496.09606
215.573	2477.60049
215.795	2872.71941
216.016	4234.3112
216.237	-689.19034
216.459	6947.44963
216.68	101413.17357
216.901	-77773.92968
217.122	1908.39621
217.344	5936.30606
217.565	-57626.34324
217.786	1542.58132
218.007	1705.75248
218.228	-1275.96325
218.45	-1202.16295
218.671	-1260.65707
218.892	1152.83345
219.113	-18855.50008
219.334	-400.20178
219.555	-5305.71296
219.776	1506.19234
219.997	3345.56079
220.219	1061.39232
220.44	2299.70117
220.661	-3092.9849
220.882	3465.97001
221.103	-1240.05374
221.324	992.64736
221.545	2247.17266
221.766	-6123.289
221.987	3803.85924
222.208	-1772.82537
222.429	3401.37815
222.65	-207.70766
222.87	-578.03107
223.091	7876.35693
223.312	2593.31696
223.533	5820.77382
223.754	1831.32655
223.975	1411.72286
224.196	-11364.97428
224.417	1044.77391
224.637	837.08302
224.858	-895.7015
225.079	7373.50844
225.3	556.95932
225.521	2058.55773
225.741	1547.83513
225.962	761.99789
226.183	284.81269
226.404	629.73961
226.624	567.56618
226.845	374.91818
227.066	417.5072
227.286	196.95034
227.507	92.0554
227.728	76.27569
227.948	128.11629
228.169	41.19084
228.389	42.48366
228.61	26.00794
228.831	33.2721
229.051	3.63021
229.272	20.89635
229.492	30.00533
229.713	7.5813
229.933	21.74251
230.154	19.20275
230.374	31.38881
230.595	24.29457
230.815	15.76157
231.036	23.82813
231.256	-4.40124
231.477	43.98694
231.697	23.99093
231.917	23.97422
232.138	37.38462
232.358	78.48449
232.579	61.82179
232.799	10.31676
233.019	64.56985
233.24	75.3239
233.46	26.67416
233.68	36.69503
233.901	29.49765
234.121	17.54846
234.341	5.85178
234.561	-0.75504
234.782	16.27095
235.002	48.17019
235.222	-1.7853
235.442	43.58462
235.662	18.42158
235.883	41.50851
236.103	34.68514
236.323	23.61481
236.543	19.6934
236.763	27.28401
236.983	26.70069
237.203	32.38096
237.423	41.07942
237.643	61.11466
237.864	51.75259
238.084	10.40535
238.304	23.36166
238.524	32.49841
238.744	27.59743
238.964	46.06046
239.184	45.12843
239.404	45.75925
239.624	22.7899
239.843	40.07922
240.063	22.92055
240.283	18.25383
240.503	17.94759
240.723	16.13385
240.943	10.07948
241.163	13.25501
241.383	10.92259
241.603	4.93751
241.822	6.18843
242.042	4.52378
242.262	5.90885
242.482	6.79145
242.702	8.30584
242.921	2.52743
243.141	5.60044
243.361	5.07235
243.581	7.38452
243.8	5.64781
244.02	4.19849
244.24	7.78875
244.459	6.6245
244.679	13.75001
244.899	9.8136
245.118	10.10095
245.338	8.79833
245.558	11.01199
245.777	6.69101
245.997	7.34872
246.216	8.04194
246.436	4.34216
246.655	2.97482
246.875	2.45997
247.094	4.63334
247.314	1.44753
247.533	2.69523
247.753	3.53177
247.972	2.75809
248.192	1.0212
248.411	1.75453
248.631	3.19103
248.85	4.0713
249.07	3.07802
249.289	5.23319
249.508	3.61388
249.728	6.23405
249.947	6.393
250.166	6.4853
250.386	3.50974
250.605	6.08669
250.824	8.19922
251.044	6.44222
251.263	20.71457
251.482	10.06992
251.701	9.658
251.921	0.12312
252.14	2.92424
252.359	3.64627
252.578	7.93211
252.798	2.51198
253.017	7.42268
253.236	4.11621
253.455	5.14559
253.674	9.84206
253.893	4.29298
254.112	5.97806
254.331	9.21734
254.551	7.24571
254.77	3.2456
254.989	11.49515
255.208	10.07897
255.427	11.37889
255.646	11.0102
255.865	18.04083
256.084	8.02827
256.303	7.92838
256.522	11.49691
256.741	2.31643
256.96	2.43952
257.179	8.00316
257.397	8.54937
257.616	4.76375
257.835	4.59618
258.054	11.43451
258.273	7.27391
258.492	8.48968
258.711	5.15241
258.93	2.53319
259.148	3.36212
259.367	3.54275
259.586	4.26435
259.805	2.04381
260.023	4.06583
260.242	3.18597
260.461	2.20127
260.68	1.35622
260.898	3.81159
261.117	1.25443
261.336	0.9574
261.554	2.99723
261.773	3.33941
261.992	0.54958
262.21	3.15664
262.429	3.6812
262.648	6.2283
262.866	7.01366
263.085	4.67716
263.303	4.56818
263.522	7.1797
263.74	7.8433
263.959	12.59878
264.178	6.72905
264.396	5.98933
264.615	4.22515
264.833	9.6528
265.051	8.02988
265.27	8.6056
265.488	9.12185
265.707	5.73029
265.925	9.26901
266.144	3.87058
266.362	5.39178
266.58	5.22783
266.799	3.91776
267.017	5.15125
267.235	4.89587
267.454	2.7427
267.672	1.644
267.89	3.79255
268.109	3.81988
268.327	3.70366
268.545	0.93332
268.763	3.48791
268.982	1.46119
269.2	4.31485
269.418	2.58739
269.636	1.93704
269.854	3.31452
270.073	2.66442
270.291	1.3598
270.509	1.60627
270.727	3.65944
270.945	6.056
271.163	5.72997
271.381	1.68349
271.599	2.51919
271.817	4.25627
272.036	1.66697
272.254	2.60139
272.472	2.18995
272.69	2.13346
272.908	2.12843
273.126	3.69066
273.344	4.8155
273.562	1.89869
273.779	2.13696
273.997	3.23211
274.215	3.70959
274.433	2.72613
274.651	3.95306
274.869	3.88272
275.087	2.40155
275.305	3.60573
275.523	2.09027
275.74	3.07007
275.958	5.04149
276.176	6.94919
276.394	2.41085
276.612	2.75085
276.829	2.56544
277.047	2.37927
277.265	2.79768
277.483	2.93815
277.7	3.95556
277.918	3.03458
278.136	5.32083
278.353	2.54507
278.571	1.40343
278.789	4.4746
279.006	0.7749
279.224	2.69103
279.442	4.64656
279.659	2.80754
279.877	1.9698
280.094	4.77663
280.312	1.2801
280.529	2.77397
280.747	0.69158
280.964	2.30201
281.182	5.32856
281.399	2.42289
281.617	3.31376
281.834	2.33824
282.052	1.84843
282.269	2.37785
282.487	2.16387
282.704	1.84334
282.921	2.0748
283.139	2.90292
283.356	3.676
283.574	3.13351
283.791	1.72043
284.008	4.44612
284.226	2.48625
284.443	2.77481
284.66	3.61715
284.877	2.73808
285.095	2.09803
285.312	1.31379
285.529	1.01021
285.746	1.02474
285.964	1.85484
286.181	1.1448
286.398	1.77612
286.615	2.33367
286.832	2.36592
287.05	0.71511
287.267	1.60123
287.484	1.82515
287.701	2.61934
287.918	2.16716
288.135	2.52779
288.352	1.24782
288.569	1.21392
288.786	2.02737
289.003	1.73415
289.22	2.53264
289.437	1.55278
289.654	2.61883
289.871	2.77655
290.088	2.7313
290.305	2.00663
290.522	1.66537
290.739	2.00465
290.956	2.73143
291.173	3.32713
291.39	3.18123
291.607	2.21986
291.824	1.65729
292.04	1.02122
292.257	2.49609
292.474	2.95576
292.691	1.84544
292.908	0.90234
293.125	1.65249
293.341	1.05019
293.558	4.55497
293.775	1.76067
293.992	2.01037
294.208	0.75151
294.425	1.03275
294.642	1.64359
294.858	2.49724
295.075	0.60099
295.292	1.8428
295.508	2.18601
295.725	3.38976
295.942	1.62161
296.158	1.19739
296.375	1.97645
296.591	1.39185
296.808	1.59698
297.024	1.79185
297.241	1.97322
297.458	2.18374
297.674	0.28467
297.891	1.78666
298.107	1.2753
298.323	0.99721
298.54	2.60837
298.756	1.12185
298.973	0.56399
299.189	2.6451
299.406	1.0974
299.622	2.66506
299.838	2.6358
300.055	2.49191
300.271	0.76557
300.487	0.94638
300.704	1.12624
300.92	0.73807
301.136	3.75958
301.353	2.42527
301.569	1.78757
301.785	2.06318
302.001	2.43546
302.218	2.10784
302.434	2.09805
302.65	0.76407
302.866	1.44629
303.083	3.59098
303.299	3.32379
303.515	1.82515
303.731	1.88529
303.947	0.76641
304.163	1.07337
304.379	2.0875
304.595	2.35047
304.812	1.24512
305.028	1.19268
305.244	1.44385
305.46	2.33566
305.676	2.58693
305.892	3.01154
306.108	1.79552
306.324	1.45624
306.54	3.27186
306.756	2.41346
306.972	2.19158
307.187	1.58197
307.403	3.09032
307.619	1.35605
307.835	2.60247
308.051	2.98427
308.267	0.64873
308.483	2.63243
308.699	2.24766
308.914	1.9377
309.13	1.56373
309.346	0.45646
309.562	1.03658
309.778	0.5533
309.993	2.17165
310.209	1.68122
310.425	0.72683
310.641	1.50663
310.856	0.78647
311.072	0.90462
311.288	1.6353
311.503	1.86951
311.719	0.36742
311.935	0.23059
312.15	2.07646
312.366	1.74713
312.581	2.26222
312.797	1.79259
313.013	2.33462
313.228	1.44451
313.444	1.91272
313.659	1.28176
313.875	2.17758
314.09	1.64441
314.306	2.88397
314.521	2.45114
314.737	2.43441
314.952	2.05615
315.168	1.67821
315.383	2.36474
315.599	1.49921
315.814	1.69733
316.029	2.33547
316.245	0.56854
316.46	0.64215
316.675	2.943
316.891	3.56177
317.106	4.07763
317.321	2.32397
317.537	2.29437
317.752	2.43055
317.967	2.52741
318.183	1.19197
318.398	1.7203
318.613	2.93809
318.828	3.15405
319.043	2.5268
319.259	1.49678
319.474	2.24386
319.689	2.72128
319.904	0.42687
320.119	2.42692
320.334	2.27525
320.549	1.68067
320.765	3.01389
320.98	2.15858
321.195	2.84307
321.41	1.76337
321.625	2.57486
321.84	3.48963
322.055	3.50427
322.27	1.26485
322.485	0.99596
322.7	1.98288
322.915	2.8437
323.13	1.20007
323.345	3.08186
323.56	2.05999
323.775	2.46275
323.989	2.39868
324.204	2.07296
324.419	2.6562
324.634	0.81548
324.849	1.71957
325.064	4.09176
325.279	2.75511
325.493	2.39427
325.708	2.74951
325.923	1.16721
326.138	1.21803
326.352	3.29337
326.567	2.81266
326.782	1.55377
326.997	1.32113
327.211	2.26219
327.426	2.2095
327.641	1.51158
327.855	0.56321
328.07	2.33375
328.285	3.22239
328.499	1.73172
328.714	2.2638
328.928	2.66488
329.143	2.05716
329.358	2.68889
329.572	2.86531
329.787	3.06287
330.001	4.06588
330.216	0.56083
330.43	3.46033
330.645	3.43224
330.859	2.65775
331.074	1.35034
331.288	2.10354
331.503	3.08423
331.717	0.96743
331.931	2.07507
332.146	2.03288
332.36	3.39891
332.575	2.60534
332.789	2.10625
333.003	1.84003
333.218	2.4548
333.432	1.71036
333.646	2.62741
333.86	3.27081
334.075	3.50893
334.289	1.87658
334.503	1.25347
334.717	2.58465
334.932	2.40929
335.146	3.08506
335.36	1.7199
335.574	2.54907
335.788	2.20928
336.003	2.95994
336.217	2.3847
336.431	2.60621
336.645	1.38822
336.859	1.0551
337.073	1.63245
337.287	2.19992
337.501	1.10302
337.715	2.04504
337.929	2.73576
338.143	1.19014
338.357	1.99146
338.571	1.13581
338.785	2.27155
338.999	1.62001
339.213	1.68173
339.427	0.73508
339.641	2.87725
339.855	1.78208
340.069	1.51248
340.283	2.94871
340.497	3.53545
340.711	2.4035
340.924	1.48237
341.138	1.0305
341.352	0.87754
341.566	2.17073
341.78	0.53806
341.993	1.26532
342.207	1.15534
342.421	2.17931
342.635	2.02551
342.848	1.51791
343.062	0.14004
343.276	1.42973
343.49	3.78693
343.703	1.38063
343.917	2.60023
344.131	2.58989
344.344	1.39666
344.558	1.39684
344.771	1.25947
344.985	3.23053
345.199	3.22619
345.412	2.05645
345.626	2.21152
345.839	0.65042
346.053	0.98917
346.266	1.01034
346.48	2.48173
346.693	2.21033
346.907	2.33263
347.12	1.11157
347.334	2.05307
347.547	2.18314
347.76	1.74961
347.974	2.87826
348.187	2.24783
348.401	1.55903
348.614	1.51306
348.827	1.54384
349.041	2.51994
349.254	0.68561
349.467	1.67753
349.681	0.64449
349.894	1.37518
350.107	2.94632
350.32	3.13139
350.534	0.60886
350.747	1.54188
350.96	1.26437
351.173	1.36354
351.386	1.67671
351.6	1.4408
351.813	1.20669
352.026	1.80035
352.239	0.86956
352.452	1.67317
352.665	2.13714
352.878	1.49308
353.092	3.53566
353.305	2.19151
353.518	2.077
353.731	1.09508
353.944	2.94643
354.157	1.10098
354.37	1.04199
354.583	0.98878
354.796	0.55024
355.009	2.84518
355.222	1.81449
355.435	1.82646
355.647	2.63542
355.86	0.91088
356.073	1.66731
356.286	1.35418
356.499	2.24698
356.712	1.90665
356.925	2.06924
357.138	2.43713
357.35	0.9069
357.563	1.2793
357.776	1.74537
357.989	1.34575
358.201	2.02779
358.414	1.55285
358.627	2.56294
358.84	1.47988
359.052	1.05194
359.265	0.84665
359.478	2.48018
359.69	-0.34351
359.903	2.00995
360.116	2.19457
360.328	0.44366
360.541	2.26908
360.753	0.81851
360.966	1.12751
361.179	1.16787
361.391	1.09191
361.604	0.66499
361.816	1.06102
362.029	0.91532
362.241	0.88944
362.454	0.90448
362.666	0.78695
362.879	1.40437
363.091	1.32471
363.304	0.92542
363.516	1.33243
363.728	0.62072
363.941	1.78941
364.153	0.77884
364.366	0.01453
364.578	0.71552
364.79	1.80104
365.003	1.27414
365.215	1.07213
365.427	1.75603
365.639	2.42307
365.852	1.65841
366.064	3.06338
366.276	0.94659
366.488	1.7435
366.701	1.02644
366.913	1.38437
367.125	1.52534
367.337	0.90714
367.549	1.1199
367.762	1.57707
367.974	1.56407
368.186	0.70473
368.398	2.20163
368.61	2.01612
368.822	2.00773
369.034	1.52053
369.246	1.93424
369.458	3.14513
369.67	0.71798
369.882	2.84604
370.094	0.14492
370.306	2.67075
370.518	1.18448
370.73	0.73715
370.942	0.95085
371.154	1.16427
371.366	0.99444
371.578	1.59903
371.79	0.63359
372.002	2.50248
372.214	2.64903
372.425	1.56344
372.637	2.39224
372.849	1.41706
373.061	-0.13383
373.273	1.76966
373.484	1.83549
373.696	2.12719
373.908	-0.18596
374.12	2.11387
374.331	1.71534
374.543	0.91451
374.755	0.6986
374.967	1.60339
375.178	1.92029
375.39	1.38908
375.602	1.66549
375.813	0.69404
376.025	0.36896
376.236	1.36054
376.448	1.38325
376.66	0.91032
376.871	0.93444
377.083	2.24475
377.294	2.02854
377.506	1.05615
377.717	2.29437
377.929	1.42385
378.14	0.74668
378.352	1.8788
378.563	1.57786
378.775	2.24836
378.986	0.85995
379.197	1.38117
379.409	1.0373
379.62	1.82856
379.832	1.64177
380.043	1.24162
380.254	1.37649
380.466	0.54812
380.677	3.51558
380.888	3.07673
381.1	3.19522
381.311	2.76272
381.522	1.37606
381.733	3.41734
381.945	1.16183
382.156	1.5173
382.367	1.1014
382.578	3.34114
382.789	3.27555
383.001	1.2126
383.212	2.04948
383.423	2.23862
383.634	1.97243
383.845	1.53946
384.056	0.96751
384.267	1.21631
384.478	1.1696
384.69	0.42859
384.901	1.74716
385.112	1.4936
385.323	2.33499
385.534	1.71705
385.745	1.66489
385.956	1.63568
386.167	0.69455
386.378	1.56527
386.588	0.34805
386.799	0.77609
387.01	0.187
387.221	1.96134
387.432	1.08922
387.643	2.58846
387.854	1.3216
388.065	1.04341
388.275	1.29397
388.486	1.12704
388.697	1.23839
388.908	1.1142
389.119	2.31714
389.329	2.47844
389.54	1.26805
389.751	1.63368
389.962	2.17551
390.172	1.50198
390.383	1.03789
390.594	0.96377
390.804	0.85347
391.015	0.77104
391.226	1.34508
391.436	1.63249
391.647	1.49271
391.858	1.6648
392.068	0.25293
392.279	0.42245
392.489	1.23006
392.7	2.05455
392.91	0.63844
393.121	0.83122
393.331	1.61503
393.542	2.08967
393.752	1.70631
393.963	1.20394
394.173	1.24658
394.384	1.70029
394.594	1.19042
394.804	0.41672
395.015	1.36184
395.225	1.70686
395.436	0.66249
395.646	1.81234
395.856	0.7551
396.067	0.53332
396.277	2.17585
396.487	1.57555
396.697	1.39324
396.908	1.97082
397.118	1.81223
397.328	1.54406
397.538	2.09325
397.749	0.90233
397.959	1.92792
398.169	2.06691
398.379	0.53543
398.589	1.83477
398.8	1.53868
399.01	1.17664
399.22	1.47853
399.43	3.04478
399.64	1.30694
399.85	2.00176
400.06	1.35366
400.27	1.14049
400.48	1.5106
400.69	2.44622
400.9	1.28495
401.11	0.91282
401.32	2.16458
401.53	1.33378
401.74	2.67121
401.95	2.24068
402.16	1.08066
402.37	1.75727
402.58	1.31575
402.79	2.15963
403	2.31417
403.209	1.47977
403.419	2.32341
403.629	1.25384
403.839	2.2321
404.049	2.39188
404.258	1.29556
404.468	1.23353
404.678	2.33167
404.888	2.36421
405.097	1.42553
405.307	1.87445
405.517	2.25115
405.727	2.19874
405.936	1.81577
406.146	2.13101
406.356	2.8343
406.565	2.08281
406.775	1.72438
406.984	1.63401
407.194	3.34983
407.404	2.12689
407.613	2.39416
407.823	2.74136
408.032	3.18926
408.242	2.94473
408.451	1.94869
408.661	2.12085
408.87	3.41964
409.08	1.98755
409.289	2.66049
409.499	2.49639
409.708	2.51384
409.918	1.13406
410.127	2.66813
410.336	3.48853
410.546	3.1502
410.755	2.23636
410.964	2.36333
411.174	2.0642
411.383	2.95303
411.592	2.99104
411.802	2.10231
412.011	3.22857
412.22	2.6343
412.429	3.83825
412.639	3.6937
412.848	3.59325
413.057	3.99085
413.266	3.56361
413.475	2.91179
413.685	3.44368
413.894	3.40119
414.103	3.72369
414.312	3.51984
414.521	2.93933
414.73	3.18658
414.939	4.42668
415.148	3.52365
415.357	3.3901
415.566	3.15772
415.776	3.11383
415.985	3.0411
416.194	3.77376
416.403	4.54217
416.611	2.70379
416.82	3.01811
417.029	3.54819
417.238	3.14284
417.447	2.97735
417.656	3.40392
417.865	3.20213
418.074	3.59431
418.283	4.02006
418.492	4.80536
418.7	4.63839
418.909	5.86199
419.118	4.72129
419.327	5.26587
419.536	4.91768
419.744	4.76848
419.953	6.16235
420.162	6.30153
420.371	5.27292
420.579	5.51217
420.788	6.59531
420.997	6.65276
421.205	6.82425
421.414	6.51528
421.623	6.63558
421.831	6.31434
422.04	6.83533
422.249	6.06241
422.457	6.62591
422.666	5.94451
422.874	6.84211
423.083	6.94077
423.291	6.78909
423.5	6.77974
423.708	7.01148
423.917	7.66147
424.125	6.97375
424.334	6.73873
424.542	8.47098
424.751	7.87176
424.959	7.49659
425.167	7.85629
425.376	7.57713
425.584	6.70299
425.793	6.7746
426.001	5.81986
426.209	6.27408
426.418	5.31839
426.626	5.07227
426.834	4.66886
427.042	4.81802
427.251	4.46054
427.459	5.15679
427.667	4.96959
427.875	4.08012
428.084	4.45619
428.292	5.46413
428.5	5.01694
428.708	4.28367
428.916	4.45218
429.124	4.74716
429.333	4.69531
429.541	4.64461
429.749	4.99966
429.957	4.81781
430.165	6.22446
430.373	4.17296
430.581	5.1176
430.789	5.68877
430.997	4.71184
431.205	4.43315
431.413	5.03969
431.621	4.73333
431.829	5.46868
432.037	4.82182
432.245	5.5451
432.453	5.39299
432.661	4.96734
432.869	6.3842
433.076	5.00323
433.284	5.58726
433.492	6.18373
433.7	6.38259
433.908	5.47474
434.116	5.90148
434.323	5.6521
434.531	5.5192
434.739	5.7169
434.947	5.88116
435.154	5.81107
435.362	5.38285
435.57	5.2522
435.778	4.82704
435.985	5.39699
436.193	5.03268
436.401	5.99062
436.608	5.39744
436.816	5.07487
437.023	6.24702
437.231	6.29102
437.439	5.497
437.646	5.80102
437.854	5.58248
438.061	5.9641
438.269	5.55063
438.476	5.97927
438.684	5.79353
438.891	5.88778
439.099	5.67065
439.306	5.58512
439.514	5.67301
439.721	6.87336
439.929	6.22445
440.136	7.46215
440.343	7.31452
440.551	6.99598
440.758	8.80731
440.965	7.68575
441.173	7.20266
441.38	6.85797
441.587	6.93825
441.795	6.69842
442.002	6.56552
442.209	6.34303
442.416	6.51817
442.624	6.22073
442.831	5.93511
443.038	5.39349
443.245	5.23111
443.452	5.55172
443.66	6.29942
443.867	5.49093
444.074	5.52076
444.281	5.62797
444.488	5.96038
444.695	6.29742
444.902	6.34109
445.109	7.44627
445.316	7.08163
445.523	7.3386
445.73	7.48391
445.937	8.34555
446.144	8.72574
446.351	8.87729
446.558	7.80954
446.765	9.61351
446.972	9.08546
447.179	8.56894
447.386	9.26551
447.593	7.69242
447.8	8.6422
448.007	7.34813
448.214	6.86867
448.42	6.57606
448.627	7.23861
448.834	6.11824
449.041	6.08964
449.248	5.88529
449.454	6.28815
449.661	6.97262
449.868	5.69776
450.075	5.48762
450.281	4.73658
450.488	5.20113
450.695	5.43945
450.901	5.42304
451.108	5.56016
451.315	6.39686
451.521	5.5978
451.728	6.4584
451.935	5.38051
452.141	5.83387
452.348	5.90238
452.554	5.78803
452.761	5.64603
452.967	6.848
453.174	5.98662
453.38	6.02012
453.587	5.3247
453.793	5.94958
454	6.48852
454.206	7.18846
454.413	6.61057
454.619	6.10459
454.825	5.55202
455.032	6.2537
455.238	6.44646
455.445	5.17509
455.651	5.9419
455.857	4.88335
456.064	5.60421
456.27	5.8041
456.476	5.76968
456.682	5.22913
456.889	5.87502
457.095	6.10798
457.301	7.00161
457.507	5.91217
457.714	5.94066
457.92	5.97002
458.126	5.47336
458.332	5.93949
458.538	5.83572
458.744	6.25675
458.951	6.63053
459.157	8.66642
459.363	7.83493
459.569	8.09784
459.775	8.58784
459.981	8.21532
460.187	8.62343
460.393	8.74456
460.599	9.05337
460.805	8.02596
461.011	7.35058
461.217	7.49238
461.423	6.93195
461.629	6.13765
461.835	6.60978
462.041	6.00236
462.247	7.18908
462.453	6.11183
462.658	5.89777
462.864	6.47745
463.07	6.3728
463.276	6.16457
463.482	6.08066
463.688	6.88235
463.893	5.76024
464.099	6.00709
464.305	7.11493
464.511	5.732
464.716	6.02665
464.922	6.54295
465.128	5.70866
465.333	7.04091
465.539	6.34018
465.745	6.16632
465.95	6.20139
466.156	7.895
466.362	6.84253
466.567	6.08273
466.773	6.03177
466.978	7.26887
467.184	5.61608
467.389	5.05996
467.595	6.47136
467.8	5.72611
468.006	6.90341
468.211	7.00449
468.417	5.60291
468.622	6.44583
468.828	6.71573
469.033	6.46163
469.239	8.03621
469.444	5.89936
469.649	6.69307
469.855	6.20764
470.06	6.22296
470.266	5.71221
470.471	6.56177
470.676	6.63732
470.881	5.13591
471.087	7.11288
471.292	7.59012
471.497	5.50308
471.703	5.9978
471.908	5.88138
472.113	6.25392
472.318	6.86802
472.523	5.70515
472.729	6.44188
472.934	6.58923
473.139	5.97208
473.344	6.53919
473.549	7.1184
473.754	5.88572
473.959	7.82915
474.164	6.02102
474.369	6.15973
474.575	6.8235
474.78	6.31913
474.985	5.77652
475.19	5.37909
475.395	5.63505
475.6	6.30145
475.804	7.13028
476.009	6.29702
476.214	6.20191
476.419	5.96145
476.624	5.3467
476.829	5.7867
477.034	6.62977
477.239	5.97615
477.444	6.74197
477.648	6.65238
477.853	6.69974
478.058	6.2745
478.263	5.9758
478.468	5.7052
478.672	5.85681
478.877	7.25103
479.082	7.29715
479.287	6.63327
479.491	6.41053
479.696	5.69687
479.901	6.88103
480.105	6.68432
480.31	6.06963
480.515	6.36709
480.719	7.69591
480.924	6.09904
481.128	6.01819
481.333	7.10949
481.538	7.2182
481.742	7.56178
481.947	8.39585
482.151	9.17459
482.356	9.67225
482.56	11.7154
482.765	13.15783
482.969	15.74813
483.174	18.01633
483.378	20.75582
483.582	21.54238
483.787	23.39159
483.991	23.35033
484.196	23.33533
484.4	22.7583
484.604	23.17507
484.809	20.38731
485.013	19.38404
485.217	17.17725
485.422	15.32721
485.626	13.83568
485.83	13.15886
486.034	12.61156
486.239	13.08638
486.443	13.36842
486.647	13.73331
486.851	15.00573
487.055	16.4522
487.26	15.89083
487.464	16.97386
487.668	16.27468
487.872	16.61635
488.076	17.0552
488.28	16.26224
488.484	14.90809
488.688	14.29569
488.892	13.65195
489.096	12.85662
489.3	11.4732
489.504	10.80548
489.708	10.50149
489.912	10.16221
490.116	9.98631
490.32	9.659
490.524	10.73328
490.728	11.60107
490.932	12.06752
491.136	12.75394
491.34	14.13458
491.544	14.34532
491.748	14.10617
491.951	14.02353
492.155	13.36488
492.359	13.30056
492.563	11.56237
492.767	10.85712
492.97	9.73304
493.174	8.52276
493.378	7.77411
493.582	6.76736
493.785	6.70539
493.989	6.63516
494.193	6.34259
494.396	5.99583
494.6	6.36674
494.804	6.08002
495.007	6.19999
495.211	6.23598
495.414	6.29429
495.618	6.6242
495.822	7.10586
496.025	6.55638
496.229	7.00703
496.432	6.59105
496.636	7.02631
496.839	7.09998
497.043	7.94788
497.246	7.16757
497.45	6.75694
497.653	7.06816
497.856	6.92016
498.06	6.263
498.263	6.51835
498.467	6.36192
498.67	7.03668
498.873	6.68592
499.077	6.23235
499.28	6.51515
499.483	6.60867
499.686	7.03871
499.89	6.59666
500.093	7.19704
500.296	5.96687
500.499	7.42932
500.703	6.38359
500.906	6.67775
501.109	7.58853
501.312	6.2492
501.515	6.24722
501.719	6.61445
501.922	7.18559
502.125	6.44036
502.328	6.32315
502.531	5.67072
502.734	6.5466
502.937	5.50191
503.14	6.5664
503.343	5.93416
503.546	6.13938
503.749	5.98507
503.952	6.70929
504.155	5.98479
504.358	6.64123
504.561	6.53244
504.764	5.72507
504.967	6.35845
505.17	6.30947
505.373	7.49138
505.576	6.27375
505.778	6.90425
505.981	6.03233
506.184	6.90859
506.387	5.35594
506.59	7.56419
506.793	7.08389
506.995	6.78624
507.198	5.38404
507.401	6.63035
507.604	6.61754
507.806	5.93401
508.009	5.9639
508.212	6.82814
508.414	6.06797
508.617	6.05281
508.82	6.3359
509.022	7.22924
509.225	6.7183
509.427	5.60935
509.63	7.08556
509.833	6.37094
510.035	6.25147
510.238	5.61539
510.44	7.18873
510.643	5.41376
510.845	7.56157
511.048	6.56833
511.25	6.21791
511.453	6.30808
511.655	6.57221
511.858	6.26674
512.06	6.77608
512.262	6.53859
512.465	6.90034
512.667	6.1407
512.869	5.76768
513.072	6.68604
513.274	6.92195
513.476	6.75232
513.679	6.98583
513.881	5.69168
514.083	7.31072
514.286	5.92788
514.488	5.97245
514.69	5.7502
514.892	5.5153
515.094	6.643
515.297	5.93555
515.499	6.27163
515.701	5.70728
515.903	7.30826
516.105	7.36831
516.307	6.78254
516.509	5.27876
516.711	5.71032
516.913	6.29864
517.116	6.30941
517.318	6.04942
517.52	6.85372
517.722	6.70408
517.924	6.05373
518.126	7.0799
518.328	6.74975
518.529	7.42373
518.731	8.20273
518.933	6.62377
519.135	6.99077
519.337	7.55008
519.539	6.87557
519.741	5.6182
519.943	6.38548
520.145	6.36819
520.346	6.88832
520.548	6.10557
520.75	6.57921
520.952	6.03803
521.153	6.63676
521.355	6.55609
521.557	5.76513
521.759	6.36662
521.96	6.30359
522.162	5.75105
522.364	6.75955
522.565	5.75506
522.767	6.50715
522.969	7.04983
523.17	6.39386
523.372	6.44668
523.573	5.96087
523.775	6.1969
523.977	5.71338
524.178	7.52846
524.38	5.98437
524.581	6.48276
524.783	6.26235
524.984	7.02221
525.186	6.8586
525.387	7.68506
525.589	7.45375
525.79	7.31469
525.991	7.3244
526.193	7.88291
526.394	7.2773
526.596	8.10051
526.797	8.37115
526.998	8.24242
527.2	8.30816
527.401	10.29715
527.602	11.03484
527.803	13.31818
528.005	13.91048
528.206	15.45899
528.407	16.07034
528.608	15.83515
528.81	16.15525
529.011	15.41442
529.212	16.09731
529.413	14.89067
529.614	13.6956
529.815	12.97906
530.017	11.80631
530.218	10.12406
530.419	9.10255
530.62	8.59712
530.821	8.24196
531.022	7.07439
531.223	8.00751
531.424	7.89902
531.625	7.96196
531.826	7.79393
532.027	8.14271
532.228	9.58668
532.429	9.43013
532.63	9.69588
532.831	10.6186
533.032	10.58096
533.233	11.36712
533.433	10.71969
533.634	11.07174
533.835	10.30808
534.036	9.56481
534.237	9.19294
534.438	8.51989
534.638	7.35402
534.839	7.09292
535.04	7.0136
535.241	6.45263
535.441	7.62018
535.642	7.11601
535.843	6.4381
536.043	6.97052
536.244	7.15996
536.445	7.40393
536.645	8.11333
536.846	7.6086
537.047	8.31412
537.247	6.79847
537.448	6.74402
537.648	6.71854
537.849	6.35617
538.049	6.37969
538.25	6.51093
538.451	6.68695
538.651	5.7923
538.851	6.54755
539.052	6.98385
539.252	6.68906
539.453	6.19896
539.653	6.39323
539.854	6.43759
540.054	7.10689
540.254	8.60235
540.455	9.51929
540.655	9.29654
540.855	10.67907
541.056	11.72137
541.256	11.63138
541.456	12.24981
541.657	11.55025
541.857	12.25664
542.057	10.71412
542.257	10.18119
542.458	10.64441
542.658	10.24137
542.858	8.38154
543.058	8.88167
543.258	8.16113
543.458	6.85085
543.659	6.39164
543.859	7.33059
544.059	7.05935
544.259	6.32463
544.459	6.99522
544.659	6.06766
544.859	6.55969
545.059	6.02286
545.259	6.63321
545.459	6.41039
545.659	6.77981
545.859	6.32069
546.059	6.5277
546.259	5.85791
546.459	5.67378
546.659	5.86869
546.859	6.94134
547.059	6.46208
547.258	6.58707
547.458	6.68484
547.658	5.63647
547.858	5.75685
548.058	6.59666
548.258	6.04405
548.457	5.6879
548.657	7.66496
548.857	6.01059
549.057	6.82176
549.256	6.46856
549.456	5.86867
549.656	4.83157
549.855	7.4577
550.055	6.07524
550.255	7.40801
550.454	6.57996
550.654	6.93829
550.853	7.20918
551.053	6.80746
551.253	6.44904
551.452	6.57861
551.652	5.56805
551.851	5.19684
552.051	6.13869
552.25	6.01166
552.45	5.81943
552.649	5.85792
552.849	5.78633
553.048	6.29981
553.248	6.59833
553.447	5.56561
553.646	6.77743
553.846	7.79873
554.045	7.13346
554.244	5.38804
554.444	7.38086
554.643	5.58975
554.842	7.3503
555.042	7.83542
555.241	5.81619
555.44	5.52905
555.64	6.54207
555.839	7.67768
556.038	6.41772
556.237	5.86429
556.436	6.14335
556.636	6.58714
556.835	5.8307
557.034	7.53301
557.233	6.20651
557.432	5.23833
557.631	7.16855
557.83	5.89225
558.029	5.93907
558.228	5.89633
558.427	5.50516
558.626	6.41272
558.825	5.55603
559.024	6.15648
559.223	7.83729
559.422	6.08317
559.621	6.62481
559.82	4.25016
560.019	6.47835
560.218	6.02535
560.417	3.99509
560.616	5.96757
560.815	8.93018
561.014	5.09394
561.212	7.46483
561.411	6.28022
561.61	5.0893
561.809	6.15118
562.008	7.57609
562.206	5.88787
562.405	6.71422
562.604	5.97981
562.803	6.41945
563.001	5.92151
563.2	5.23806
563.399	6.87413
563.597	5.39078
563.796	6.37426
563.995	5.09253
564.193	6.98796
564.392	6.0573
564.59	8.17046
564.789	4.82543
564.988	6.07468
565.186	6.54977
565.385	6.03398
565.583	6.1161
565.782	6.29872
565.98	6.26676
566.179	6.42162
566.377	5.39294
566.575	5.83414
566.774	7.31867
566.972	6.86831
567.171	8.03321
567.369	7.43569
567.567	6.34848
567.766	6.59624
567.964	5.06719
568.162	6.71899
568.361	7.50334
568.559	6.25789
568.757	6.65926
568.956	6.56068
569.154	6.60782
569.352	7.0328
569.55	6.37699
569.748	6.26293
569.947	5.82002
570.145	5.61187
570.343	5.59149
570.541	7.78312
570.739	5.37612
570.937	6.24271
571.135	6.86425
571.333	8.16653
571.532	7.97246
571.73	6.62577
571.928	7.38533
572.126	7.13984
572.324	6.27286
572.522	7.68058
572.72	8.78762
572.918	6.69971
573.116	6.89866
573.313	6.67054
573.511	6.56483
573.709	6.04192
573.907	7.34246
574.105	6.38976
574.303	5.29924
574.501	5.32294
574.699	6.91857
574.896	6.91955
575.094	7.1522
575.292	5.51597
575.49	7.47406
575.688	6.51075
575.885	7.72166
576.083	8.0489
576.281	6.951
576.478	5.9403
576.676	7.03589
576.874	5.41259
577.071	6.52608
577.269	8.60034
577.467	6.62846
577.664	6.67626
577.862	7.17349
578.059	6.02062
578.257	7.38075
578.455	6.40051
578.652	6.70965
578.85	4.73869
579.047	6.60745
579.245	6.30475
579.442	6.54095
579.64	6.47708
579.837	4.99055
580.034	9.16059
580.232	6.50754
580.429	5.45371
580.627	7.22506
580.824	8.23707
581.021	7.17622
581.219	6.45472
581.416	5.83346
581.613	7.86645
581.811	8.13944
582.008	5.86302
582.205	7.46385
582.402	7.02807
582.6	9.38225
582.797	6.9124
582.994	7.23699
583.191	7.44058
583.388	6.95166
583.586	7.38246
583.783	8.16195
583.98	6.17331
584.177	7.21965
584.374	3.68431
584.571	6.51131
584.768	6.83022
584.965	6.22233
585.162	7.55511
585.359	8.65314
585.556	7.09936
585.753	7.25021
585.95	5.58686
586.147	6.28353
586.344	7.64152
586.541	6.83489
586.738	5.64189
586.935	7.15355
587.132	6.19989
587.329	8.1609
587.526	6.83654
587.722	12.06233
587.919	5.94411
588.116	7.41779
588.313	8.58099
588.51	9.25676
588.706	6.55558
588.903	7.52873
589.1	7.94609
589.297	9.96421
589.493	7.45374
589.69	7.78329
589.887	6.60968
590.083	6.07648
590.28	6.27677
590.477	8.28927
590.673	7.81618
590.87	8.15776
591.067	6.9561
591.263	7.75393
591.46	7.57085
591.656	6.94675
591.853	8.98487
592.049	6.59627
592.246	6.39939
592.442	8.67884
592.639	8.41743
592.835	6.03103
593.032	7.71466
593.228	5.57962
593.425	5.74586
593.621	5.82273
593.817	7.28054
594.014	6.55087
594.21	7.1348
594.406	8.35698
594.603	7.48345
594.799	6.73832
594.995	4.81378
595.192	8.20148
595.388	6.49899
595.584	6.93522
595.78	5.77827
595.977	9.59033
596.173	9.11708
596.369	7.11275
596.565	6.53603
596.761	6.01636
596.957	8.7081
597.154	6.54969
597.35	6.99596
597.546	6.5921
597.742	7.84646
597.938	7.56113
598.134	6.8464
598.33	7.575
598.526	8.80006
598.722	7.70938
598.918	8.95357
599.114	8.01165
599.31	6.638
599.506	7.50499
599.702	6.62055
599.898	7.70851
600.094	8.69172
600.29	8.46384
600.485	8.40794
600.681	6.81958
600.877	9.26297
601.073	7.21643
601.269	9.88459
601.465	8.71951
601.66	6.31408
601.856	5.34524
602.052	9.66412
602.248	6.89408
602.443	5.31155
602.639	6.36456
602.835	6.49397
603.03	6.36423
603.226	8.59223
603.422	6.58941
603.617	6.94955
603.813	7.1005
604.009	6.8797
604.204	8.63546
604.4	6.20135
604.595	8.71668
604.791	6.59467
604.986	7.90375
605.182	6.79609
605.377	7.18273
605.573	7.27941
605.768	7.47928
605.964	8.22624
606.159	8.32416
606.355	8.86269
606.55	6.9441
606.746	8.80075
606.941	7.45221
607.136	9.94846
607.332	10.88748
607.527	6.2213
607.722	7.87509
607.918	7.3873
608.113	6.65856
608.308	8.6774
608.503	8.25983
608.699	8.06601
608.894	8.18323
609.089	6.86132
609.284	7.84756
609.479	7.16217
609.675	8.27504
609.87	7.53379
610.065	8.53637
610.26	8.51342
610.455	8.48303
610.65	7.40341
610.845	8.0536
611.04	8.83923
611.235	7.35613
611.43	6.99365
611.625	6.31719
611.82	9.15739
612.015	6.65516
612.21	9.65427
612.405	6.06839
612.6	10.09271
612.795	9.47289
612.99	9.01356
613.185	6.16045
613.38	6.52774
613.575	8.04002
613.77	11.31197
613.965	5.93657
614.159	6.93497
614.354	9.70776
614.549	9.08555
614.744	8.5814
614.938	6.17229
615.133	6.67703
615.328	9.89618
615.523	9.53851
615.717	11.61549
615.912	7.02848
616.107	7.69343
616.301	7.58192
616.496	6.93169
616.691	10.22633
616.885	8.97606
617.08	11.94295
617.274	9.55331
617.469	11.19532
617.664	8.92091
617.858	7.51163
618.053	8.48436
618.247	7.86679
618.442	5.01656
618.636	9.78888
618.831	7.30493
619.025	7.40928
619.219	11.58994
619.414	3.74878
619.608	8.28133
619.803	7.0067
619.997	11.01169
620.191	10.04818
620.386	8.70091
620.58	8.3485
620.774	5.56087
620.969	5.81638
621.163	8.13459
621.357	6.51928
621.551	7.357
621.746	8.58069
621.94	7.99796
622.134	13.20867
622.328	11.50343
622.522	6.2427
622.716	9.47933
622.911	9.54858
623.105	9.30854
623.299	8.75281
623.493	13.34285
623.687	6.68246
623.881	7.46553
624.075	8.93315
624.269	9.95758
624.463	5.35981
624.657	6.01477
624.851	9.13941
625.045	9.3807
625.239	9.78698
625.433	7.46697
625.627	10.65823
625.821	7.26283
626.015	7.41181
626.209	8.336
626.403	5.98873
626.596	9.00097
626.79	9.62664
626.984	6.70699
627.178	8.88876
627.372	8.67742
627.565	9.3129
627.759	6.27653
627.953	6.32433
628.147	9.1235
628.34	9.41437
628.534	11.20691
628.728	7.95765
628.921	9.71665
629.115	9.51532
629.309	9.57222
629.502	10.33043
629.696	8.63698
629.89	8.28697
630.083	8.45018
630.277	9.45946
630.47	11.12257
630.664	8.46432
630.857	6.45267
631.051	10.51415
631.244	10.6039
631.438	10.43865
631.631	7.23189
631.825	10.91707
632.018	9.72415
632.212	11.14554
632.405	10.49105
632.598	7.85465
632.792	8.34707
632.985	5.24702
633.178	7.62781
633.372	8.3306
633.565	8.43126
633.758	10.70501
633.952	7.01703
634.145	7.42571
634.338	8.2488
634.531	7.49669
634.724	7.62257
634.918	8.83327
635.111	7.55426
635.304	7.57321
635.497	12.76171
635.69	9.37671
635.883	10.67158
636.077	6.63334
636.27	9.23882
636.463	8.95034
636.656	9.82741
636.849	7.96312
637.042	9.66326
637.235	11.85507
637.428	10.06514
637.621	10.40914
637.814	11.34869
638.007	11.62881
638.2	11.90314
638.393	12.32984
638.586	7.37179
638.778	8.47074
638.971	9.52489
639.164	12.24893
639.357	9.49847
639.55	11.61243
639.743	10.62447
639.935	10.15797
640.128	13.02761
640.321	10.02792
640.514	9.29215
640.707	14.04049
640.899	10.75153
641.092	6.24008
641.285	25.7732
641.477	5.13749
641.67	14.20637
641.863	11.85751
642.055	9.92287
642.248	9.49357
642.441	8.91787
642.633	11.24
642.826	12.6342
643.018	12.23005
643.211	13.32882
643.403	13.01546
643.596	14.35367
643.788	13.18384
643.981	8.9139
644.173	11.35375
644.366	9.43023
644.558	5.91322
644.751	11.59206
644.943	6.9512
645.135	13.79671
645.328	13.61247
645.52	11.44202
645.712	11.55944
645.905	17.26119
646.097	8.27423
646.289	10.7464
646.482	14.38108
646.674	8.57998
646.866	12.33194
647.058	11.10861
647.251	7.97176
647.443	8.4396
647.635	9.87244
647.827	8.24561
648.019	8.54355
648.211	9.91003
648.404	10.40812
648.596	13.87958
648.788	10.43606
648.98	10.20146
649.172	11.57175
649.364	11.14313
649.556	6.53933
649.748	15.34441
649.94	8.82975
650.132	11.87472
650.324	8.26214
650.516	9.05323
650.708	12.84915
650.9	7.47224
651.092	9.47194
651.284	6.86662
651.476	7.99333
651.667	11.84788
651.859	13.10643
652.051	10.06766
652.243	10.13909
652.435	8.99367
652.627	11.14735
652.818	11.08819
653.01	7.06235
653.202	8.76955
653.394	10.11834
653.585	11.6713
653.777	20.50209
653.969	14.2228
654.16	12.75552
654.352	8.41274
654.544	8.88868
654.735	13.66599
654.927	11.06781
655.118	14.24625
655.31	12.60407
655.502	13.04934
655.693	8.65529
655.885	12.07461
656.076	13.58268
656.268	10.59595
656.459	14.41969
656.651	13.60998
656.842	9.15171
657.034	9.4532
657.225	12.66557
657.416	14.19358
657.608	13.77733
657.799	10.94045
657.99	12.82652
658.182	8.70579
658.373	9.05306
658.564	12.44614
658.756	10.49605
658.947	9.59983
659.138	8.2604
659.33	9.58984
659.521	8.93506
659.712	9.84368
659.903	9.77235
660.094	8.87183
660.286	7.32242
660.477	14.51337
660.668	11.74286
660.859	10.54134
661.05	7.03751
661.241	11.66973
661.432	12.08682
661.623	9.86886
661.814	10.58845
662.006	7.29296
662.197	11.74015
662.388	13.80493
662.579	11.7753
662.77	14.04102
662.96	18.62941
663.151	13.47903
663.342	7.01795
663.533	11.89905
663.724	10.21482
663.915	15.67998
664.106	10.75958
664.297	15.52402
664.488	12.87141
664.678	10.20939
664.869	12.96968
665.06	14.62446
665.251	12.10782
665.442	12.44178
665.632	8.43989
665.823	16.83778
666.014	4.93871
666.204	13.24462
666.395	14.94877
666.586	20.18568
666.776	13.58291
666.967	16.43289
667.158	11.60726
667.348	16.55257
667.539	9.69994
667.729	13.68883
667.92	9.20071
668.111	14.40711
668.301	13.30509
668.492	10.92498
668.682	11.68667
668.873	11.3517
669.063	7.92151
669.253	11.77544
669.444	14.86962
669.634	10.89128
669.825	16.90327
670.015	14.30047
670.206	9.72656
670.396	18.26582
670.586	11.11631
670.777	13.29049
670.967	6.91396
671.157	10.915
671.347	9.79914
671.538	16.71875
671.728	14.13923
671.918	17.22857
672.108	14.09687
672.299	11.52498
672.489	12.85977
672.679	10.7618
672.869	14.09419
673.059	18.05102
673.249	14.38731
673.44	9.02297
673.63	12.07755
673.82	14.55708
674.01	10.08004
674.2	14.42808
674.39	21.39875
674.58	14.41365
674.77	12.32259
674.96	12.89583
675.15	25.40503
675.34	16.60449
675.53	12.9961
675.72	11.61337
675.91	7.95518
676.099	17.90255
676.289	20.0612
676.479	16.05944
676.669	11.07247
676.859	15.0367
677.049	9.83568
677.238	12.85892
677.428	17.45199
677.618	14.66963
677.808	17.15156
677.997	14.09094
678.187	9.46924
678.377	12.30132
678.567	10.37566
678.756	11.19036
678.946	11.18125
679.136	8.80677
679.325	10.18014
679.515	10.2624
679.704	8.37831
679.894	14.29645
680.084	13.31309
680.273	16.04714
680.463	10.08862
680.652	9.80491
680.842	11.91536
681.031	14.62878
681.221	10.13018
681.41	12.82824
681.6	11.7971
681.789	14.99223
681.978	16.38136
682.168	13.89776
682.357	13.53069
682.547	14.60712
682.736	14.05746
682.925	17.05443
683.115	17.26884
683.304	16.0535
683.493	13.92319
683.682	14.24883
683.872	14.41906
684.061	18.22275
684.25	15.38026
684.439	21.08398
684.629	14.95421
684.818	24.93038
685.007	13.97033
685.196	12.68514
685.385	20.34187
685.574	15.21713
685.763	14.75861
685.952	14.3467
686.142	10.52673
686.331	18.03643
686.52	8.01418
686.709	20.25713
686.898	19.18323
687.087	15.44222
687.276	20.3989
687.465	18.73667
687.654	13.4396
687.842	20.00358
688.031	10.04672
688.22	19.45137
688.409	14.36637
688.598	15.50631
688.787	24.06739
688.976	14.53224
689.165	21.96709
689.353	13.0904
689.542	16.13036
689.731	18.70232
689.92	22.40572
690.108	18.9295
690.297	13.81053
690.486	15.74221
690.675	18.54753
690.863	22.06545
691.052	20.25099
691.241	16.90019
691.429	16.44939
691.618	21.36088
691.806	10.47169
691.995	13.9452
692.184	15.77365
692.372	12.94845
692.561	16.16437
692.749	15.83928
692.938	26.93332
693.126	18.61185
693.315	16.76272
693.503	18.65644
693.692	19.66567
693.88	20.33122
694.068	24.3191
694.257	15.34516
694.445	18.63342
694.634	8.68928
694.822	20.18006
695.01	21.69681
695.199	23.7572
695.387	22.00124
695.575	20.39907
695.763	16.41587
695.952	13.80664
696.14	10.24636
696.328	13.95118
696.516	17.2543
696.705	16.57947
696.893	17.38218
697.081	9.07774
697.269	18.54566
697.457	12.12529
697.645	11.21751
697.833	18.35206
698.021	12.82011
698.21	14.16908
698.398	14.41223
698.586	10.85157
698.774	11.13734
698.962	14.64357
699.15	11.11678
699.338	9.72929
699.526	16.1991
699.714	13.0036
699.901	12.31861
700.089	18.13295
700.277	11.96732
700.465	14.46264
700.653	18.67388
700.841	17.16628
701.029	12.84573
701.217	20.79066
701.404	17.33572
701.592	21.28757
701.78	25.61788
701.968	14.75547
702.155	16.13009
702.343	9.85433
702.531	22.91766
702.718	19.57828
702.906	16.09787
703.094	13.96627
703.281	22.69682
703.469	16.02027
703.657	21.37162
703.844	31.76142
704.032	24.92188
704.219	15.01476
704.407	19.26265
704.595	22.95857
704.782	17.62155
704.97	14.85782
705.157	15.4593
705.345	25.04001
705.532	31.70356
705.719	20.75809
705.907	23.77883
706.094	18.83925
706.282	27.02936
706.469	16.94979
706.656	19.75245
706.844	16.33192
707.031	22.96295
707.218	18.51537
707.406	26.0786
707.593	22.67772
707.78	22.57353
707.968	17.60833
708.155	15.16693
708.342	22.14732
708.529	21.70496
708.716	19.62388
708.904	26.42986
709.091	22.44755
709.278	13.23966
709.465	26.71085
709.652	26.48185
709.839	25.18317
710.026	22.1703
710.213	10.68903
710.4	19.66402
710.587	24.29086
710.774	27.36092
710.961	24.27532
711.148	19.81442
711.335	25.13065
711.522	19.26489
711.709	21.48009
711.896	30.15854
712.083	24.16769
712.27	14.72511
712.457	20.57603
712.644	12.73977
712.831	31.57393
713.017	20.35211
713.204	23.15804
713.391	17.38661
713.578	26.26338
713.765	28.22128
713.951	23.94712
714.138	37.70403
714.325	23.76995
714.512	21.20157
714.698	17.64416
714.885	28.69844
715.072	23.37168
715.258	22.06142
715.445	18.39969
715.631	27.71495
715.818	10.01186
716.005	18.47883
716.191	24.80854
716.378	19.71603
716.564	24.60541
716.751	18.33934
716.937	19.08138
717.124	28.09563
717.31	18.20752
717.497	31.15339
717.683	17.89245
717.869	34.92043
718.056	18.83656
718.242	26.44979
718.429	22.27013
718.615	15.40943
718.801	22.22303
718.988	28.22941
719.174	25.89993
719.36	22.45435
719.547	28.95298
719.733	24.53374
719.919	24.13919
720.105	28.88423
720.291	22.87762
720.478	25.23596
720.664	22.01702
720.85	19.20669
721.036	40.51171
721.222	33.49056
721.408	21.54634
721.595	35.16694
721.781	34.98111
721.967	32.04423
722.153	33.20701
722.339	26.66272
722.525	26.28804
722.711	19.65598
722.897	16.16247
723.083	21.3512
723.269	28.77185
723.455	41.21121
723.641	45.52672
723.827	26.5202
724.012	27.54365
724.198	22.45417
724.384	33.60717
724.57	26.66942
724.756	16.13567
724.942	13.64742
725.127	32.4964
725.313	31.45982
725.499	34.1036
725.685	37.49894
725.87	27.56525
726.056	18.21644
726.242	30.61369
726.428	15.04666
726.613	30.91881
726.799	23.7616
726.985	18.2702
727.17	17.31679
727.356	38.91957
727.541	21.31855
727.727	24.82294
727.913	28.76352
728.098	21.43326
728.284	29.47488
728.469	18.11399
728.655	20.50842
728.84	32.01284
729.026	28.14651
729.211	32.08385
729.397	28.70471
729.582	29.40321
729.767	24.51088
729.953	27.0085
730.138	33.48344
730.323	10.23973
730.509	17.65822
730.694	35.37484
730.879	29.06956
731.065	26.19184
731.25	40.66711
731.435	29.45734
731.621	16.15723
731.806	22.04762
731.991	29.10429
732.176	15.02199
732.361	34.7448
732.547	29.63012
732.732	14.93146
732.917	42.39698
733.102	17.17234
733.287	21.6186
733.472	26.34503
733.657	25.5168
733.842	16.39185
734.027	23.03776
734.212	23.23405
734.397	19.86625
734.582	26.18154
734.767	31.46938
734.952	35.80464
735.137	10.63573
735.322	37.1689
735.507	24.26022
735.692	27.54806
735.877	43.19544
736.062	39.71277
736.247	27.2012
736.431	24.65983
736.616	35.18798
736.801	29.1733
736.986	27.16739
737.171	26.36458
737.355	17.45586
737.54	35.12879
737.725	27.31198
737.909	50.25364
738.094	20.89778
738.279	34.15965
738.463	25.70063
738.648	32.3441
738.833	29.59683
739.017	45.45528
739.202	29.38192
739.386	26.92472
739.571	21.86567
739.756	33.91835
739.94	27.47907
740.125	35.57397
740.309	23.93344
740.494	33.98933
740.678	29.06152
740.863	31.93285
741.047	28.94118
741.231	39.40637
741.416	23.60467
741.6	40.817
741.785	22.4873
741.969	36.0232
742.153	39.52595
742.338	13.17691
742.522	28.00896
742.706	35.67781
742.89	18.80686
743.075	28.7015
743.259	38.50908
743.443	37.08267
743.627	39.10223
743.812	49.36438
743.996	17.42162
744.18	30.07359
744.364	26.41806
744.548	51.86627
744.732	28.31965
744.916	35.93768
745.1	34.43442
745.285	26.52057
745.469	34.02556
745.653	44.41324
745.837	19.45148
746.021	51.06299
746.205	39.3181
746.389	31.39462
746.573	25.84115
746.757	42.26793
746.94	25.94535
747.124	40.1761
747.308	19.8627
747.492	39.90648
747.676	25.6165
747.86	52.08546
748.044	26.88099
748.227	16.40506
748.411	68.65006
748.595	33.9557
748.779	24.26372
748.963	36.32924
749.146	31.81186
749.33	23.25687
749.514	24.01315
749.697	37.88514
749.881	26.08066
750.065	21.60656
750.248	30.29007
750.432	52.08455
750.616	33.91478
750.799	17.16643
750.983	52.39392
751.166	59.24352
751.35	17.22502
751.533	35.3056
751.717	46.72308
751.9	46.96493
752.084	25.90609
752.267	19.15586
752.451	25.28837
752.634	30.19591
752.818	34.53396
753.001	40.19978
753.184	41.56534
753.368	35.12511
753.551	5.21433
753.734	24.2315
753.918	54.12492
754.101	24.30444
754.284	36.30152
754.467	27.52028
754.651	25.58693
754.834	25.95145
755.017	44.6093
755.2	43.54482
755.384	21.76269
755.567	37.9051
755.75	40.21873
755.933	27.98213
756.116	33.60977
756.299	26.26785
756.482	24.28373
756.665	40.02502
756.848	35.07614
757.032	34.78514
757.215	20.48014
757.398	24.40493
757.581	24.82578
757.764	58.25764
757.947	35.53003
758.129	44.60483
758.312	5.52874
758.495	32.5708
758.678	30.43843
758.861	30.62737
759.044	57.02538
759.227	25.94466
759.41	22.76321
759.592	40.45969
759.775	32.08785
759.958	42.5938
760.141	18.74434
760.324	52.46119
760.506	50.34235
760.689	37.49484
760.872	58.87448
761.054	37.83342
761.237	28.0112
761.42	36.15672
761.602	40.88247
761.785	37.59356
761.968	44.18727
762.15	51.36631
762.333	30.72546
762.515	35.84082
762.698	25.20063
762.88	37.36782
763.063	33.78259
763.245	39.63428
763.428	23.14928
763.61	26.13917
763.793	20.62466
763.975	34.15039
764.158	26.44304
764.34	24.51043
764.522	21.84167
764.705	26.55958
764.887	45.06615
765.069	17.20648
765.252	39.36875
765.434	39.23898
765.616	31.24194
765.799	25.12133
765.981	37.58706
766.163	22.3672
766.345	43.71826
766.528	27.75839
766.71	9.43778
766.892	33.47441
767.074	46.29153
767.256	29.77488
767.438	50.6404
767.62	39.87666
767.802	60.65244
767.985	43.53971
768.167	57.26777
768.349	28.7017
768.531	41.86818
768.713	35.26728
768.895	45.97829
769.077	39.30032
769.259	66.37982
769.441	98.0112
769.623	49.93299
769.804	55.36887
769.986	56.23926
770.168	71.70614
770.35	77.6098
770.532	62.53031
770.714	64.67922
770.896	70.05141
771.077	22.7824
771.259	69.371
771.441	57.66131
771.623	75.67873
771.804	95.54548
771.986	21.34653
772.168	47.22021
772.35	67.75032
772.531	93.3476
772.713	57.30922
772.894	74.84243
773.076	49.58384
773.258	41.73792
773.439	79.45505
773.621	80.92118
773.802	35.08938
773.984	58.23393
774.166	59.96106
774.347	88.22244
774.529	67.87949
774.71	17.12101
774.891	49.27658
775.073	51.58553
775.254	89.07336
775.436	43.88367
775.617	95.42175
775.799	49.00797
775.98	85.63134
776.161	91.68231
776.343	89.04048
776.524	54.2688
776.705	48.88272
776.886	23.82948
777.068	56.64031
777.249	117.76319
777.43	94.77281
777.611	33.80845
777.793	57.17448
777.974	87.83736
778.155	49.27015
778.336	45.00519
778.517	96.99289
778.698	44.9285
778.879	19.60325
779.061	5.92297
779.242	64.13968
779.423	59.97448
779.604	42.53279
779.785	51.67706
779.966	61.67688
780.147	77.76491
780.328	77.44198
780.509	105.85986
780.69	77.32201
780.871	46.87405
781.051	29.6804
781.232	60.9243
781.413	62.57697
781.594	45.78647
781.775	48.65172
781.956	45.87653
782.137	24.49922
782.317	43.41441
782.498	63.80459
782.679	68.25861
782.86	58.76644
783.04	41.69968
783.221	67.00279
783.402	97.78767
783.583	57.30147
783.763	75.81858
783.944	52.19485
784.124	30.26176
784.305	91.8777
784.486	71.7286
784.666	53.90255
784.847	21.59128
785.027	119.89281
785.208	42.30909
785.388	41.95233
785.569	40.93863
785.749	48.7251
785.93	43.11614
786.11	33.98303
786.291	58.93904
786.471	64.69301
786.652	74.92727
786.832	56.51744
787.012	65.77845
787.193	34.60882
787.373	56.29278
787.553	49.07515
787.734	60.02338
787.914	46.71091
788.094	68.94861
788.275	60.25239
788.455	47.27789
788.635	30.31519
788.815	63.8888
788.995	34.96394
789.176	30.3629
789.356	42.26275
789.536	44.08779
789.716	65.95391
789.896	42.32554
790.076	45.71702
790.256	65.95791
790.436	11.98298
790.616	36.90079
790.796	59.27991
790.976	45.62825
791.156	45.24254
791.336	69.97461
791.516	61.88705
791.696	52.14457
791.876	25.7409
792.056	61.5893
792.236	78.37242
792.416	74.41194
792.596	67.11237
792.776	64.42978
792.956	73.87042
793.135	90.76947
793.315	31.22783
793.495	85.71993
793.675	69.05781
793.854	79.06914
794.034	72.2912
794.214	33.03669
794.394	75.13262
794.573	79.84246
794.753	58.07951
794.933	41.90042
795.112	58.46848
795.292	72.86172
795.472	94.20894
795.651	28.8841
795.831	57.88311
796.01	51.27151
796.19	46.8228
796.369	50.4829
796.549	62.31719
796.728	51.433
796.908	32.07129
797.087	34.05313
797.267	50.55912
797.446	34.25129
797.626	60.7191
797.805	58.68825
797.984	43.33024
798.164	66.54094
798.343	41.06245
798.522	61.8358
798.702	55.4315
798.881	32.74496
799.06	49.91947
799.239	21.07358
799.419	33.08134
799.598	86.9963
799.777	65.87127
799.956	75.69679
800.136	47.57488
800.315	40.29557
800.494	58.32391
800.673	71.6556
800.852	71.23831
801.031	79.22601
801.21	68.27469
801.389	41.65532
801.568	57.70211
801.747	93.17174
801.926	52.20473
802.105	87.97627
802.284	50.4897
802.463	88.12639
802.642	57.50692
802.821	60.50853
803	85.31031
803.179	72.79373
803.358	82.12581
803.537	45.95595
803.716	71.02494
803.895	44.14089
804.073	54.8168
804.252	50.59171
804.431	65.17615
804.61	58.9089
804.789	84.86729
804.967	42.6839
805.146	44.67427
805.325	105.43243
805.503	65.00978
805.682	31.25746
805.861	123.73131
806.039	88.41051
806.218	42.27127
806.397	63.49674
806.575	61.57704
806.754	59.76099
806.932	40.91744
807.111	93.34317
807.289	78.65135
807.468	63.89127
807.646	81.8794
807.825	67.45277
808.003	69.18283
808.182	83.04764
808.36	59.92192
808.539	40.08545
808.717	92.90526
808.895	45.77386
809.074	62.72286
809.252	54.44647
809.43	82.07863
809.609	92.39792
809.787	96.93131
809.965	53.70211
810.144	60.95874
810.322	49.70557
810.5	71.76831
810.678	62.20327
810.856	105.46193
811.035	82.91092
811.213	96.03272
811.391	79.7882
811.569	65.68414
811.747	146.30223
811.925	94.53227
812.103	47.97566
812.281	49.20121
812.459	111.41286
812.637	102.80122
812.816	92.3407
812.994	116.55995
813.171	91.51978
813.349	85.90734
813.527	98.67001
813.705	89.80161
813.883	112.20682
814.061	99.3904
814.239	117.05541
814.417	122.09578
814.595	85.19532
814.773	72.02447
814.95	75.4753
815.128	75.19792
815.306	64.82388
815.484	68.30454
815.662	45.32124
815.839	54.26139
816.017	54.68718
816.195	93.58231
816.372	60.85878
816.55	92.35949
816.728	107.12994
816.905	64.12192
817.083	107.08631
817.261	65.25399
817.438	141.28196
817.616	121.66124
817.793	52.35314
817.971	86.99874
818.148	82.02417
818.326	108.99233
818.503	74.57585
818.681	101.85929
818.858	60.2794
819.036	66.47461
819.213	72.04901
819.391	52.7726
819.568	47.72044
819.745	41.76495
819.923	77.94723
820.1	52.01031
820.277	45.68747
820.455	54.20499
820.632	52.8853
820.809	61.77827
820.986	35.1503
821.164	28.37151
821.341	22.35146
821.518	36.12028
821.695	25.91883
821.872	22.4278
822.05	20.01942
822.227	15.25128
822.404	16.67838
822.581	19.71268
822.758	16.13505
822.935	16.15769
823.112	19.1255
823.289	14.87794
823.466	19.15532
823.643	18.19994
823.82	21.98907
823.997	19.31993
824.174	23.14273
824.351	32.1831
824.528	28.74073
824.705	26.51693
824.882	29.21913
825.059	39.14445
825.236	27.23496
825.412	28.331
825.589	36.93761
825.766	54.47237
825.943	32.55441
826.12	38.04777
826.296	23.82619
826.473	34.69824
826.65	33.29512
826.827	42.70624
827.003	26.43388
827.18	30.485
827.357	34.80109
827.533	28.07959
827.71	16.08573
827.887	25.83489
828.063	30.47613
828.24	25.47602
828.416	36.91682
828.593	29.06685
828.769	42.71052
828.946	47.11457
829.122	45.5739
829.299	50.82768
829.475	21.08351
829.652	46.21631
829.828	77.40147
830.005	51.36137
830.181	66.04546
830.357	45.23891
830.534	68.38606
830.71	55.92508
830.886	75.22673
831.063	63.92235
831.239	92.43576
831.415	42.65198
831.592	99.00088
831.768	52.68059
831.944	44.52081
832.12	103.56774
832.296	95.6798
832.473	74.81278
832.649	45.62785
832.825	74.52698
833.001	40.47851
833.177	59.76178
833.353	54.26862
833.529	27.93222
833.705	44.83428
833.881	30.4467
834.058	28.99972
834.234	30.77043
834.41	33.92674
834.586	23.5078
834.761	29.86042
834.937	34.31027
835.113	35.79681
835.289	31.90829
835.465	40.79619
835.641	34.45365
835.817	37.33031
835.993	72.12029
836.169	32.44978
836.344	55.55493
836.52	63.26698
836.696	71.91803
836.872	37.73857
837.048	148.17496
837.223	46.66165
837.399	134.23781
837.575	95.89788
837.75	83.71035
837.926	129.62656
838.102	204.62613
838.277	155.35118
838.453	218.71318
838.628	211.49944
838.804	62.87235
838.98	192.85353
839.155	95.95482
839.331	128.60854
839.506	93.69687
839.682	92.57845
839.857	108.31032
840.033	136.53173
840.208	58.48439
840.384	33.49007
840.559	56.82514
840.734	98.16031
840.91	133.06731
841.085	88.80372
841.26	91.0523
841.436	81.95484
841.611	76.79631
841.786	101.82453
841.962	159.66384
842.137	122.75791
842.312	57.39762
842.487	88.54899
842.663	78.4668
842.838	101.66665
843.013	303.77669
843.188	189.33529
843.363	146.24577
843.538	303.57676
843.714	337.2553
843.889	303.8653
844.064	306.97978
844.239	218.35822
844.414	471.32231
844.589	245.64294
844.764	381.55417
844.939	377.57803
845.114	376.12113
845.289	422.04148
845.464	494.97908
845.639	370.91242
845.814	191.44259
845.989	291.90674
846.163	233.87134
846.338	304.15156
846.513	412.18627
846.688	246.03789
846.863	295.63974
847.038	233.29872
847.212	294.06417
847.387	318.00419
847.562	262.87719
847.737	467.31683
847.911	177.11369
848.086	189.40166
848.261	423.65782
848.435	287.73239
848.61	370.12524
848.785	197.76855
848.959	412.95983
849.134	464.78003
849.308	621.71245
849.483	316.37763
849.658	527.68606
849.832	269.88511
850.007	216.81837
850.181	644.07371
850.356	284.2866
850.53	755.05218
850.705	343.15832
850.879	141.25413
851.053	292.81188
851.228	278.63069
851.402	510.16149
851.577	465.64751
851.751	572.53204
851.925	333.1975
852.099	121.47547
852.274	229.3978
852.448	298.9576
852.622	473.77118
852.797	312.2298
852.971	346.46417
853.145	401.78335
853.319	757.98426
853.493	650.31294
853.668	492.98821
853.842	756.19119
854.016	480.91661
854.19	689.58944
854.364	351.30904
854.538	340.56386
854.712	717.26144
854.886	389.62351
855.06	309.44252
855.234	127.95676
855.408	647.72734
855.582	379.59179
855.756	625.33841
855.93	535.88802
856.104	589.79934
856.278	540.51273
856.452	379.71243
856.626	387.49984
856.8	922.85856
856.973	389.59037
857.147	452.61541
857.321	476.87356
857.495	494.98631
857.669	311.15574
857.842	441.53854
858.016	565.20386
858.19	244.73142
858.364	743.56575
858.537	386.24955
858.711	489.92365
858.885	386.26737
859.058	219.44441
859.232	149.78793
859.405	157.65921
859.579	492.88574
859.753	522.78105
859.926	257.53735
860.1	225.60826
860.273	361.37028
860.447	465.12364
860.62	372.74928
860.794	602.23173
860.967	360.48717
861.141	482.12082
861.314	771.60431
861.487	469.04311
861.661	447.50238
861.834	515.27753
862.008	674.13644
862.181	423.92509
862.354	460.65632
862.528	445.90581
862.701	302.60463
862.874	203.02823
863.047	307.77239
863.221	285.65606
863.394	164.72992
863.567	412.64456
863.74	143.0543
863.913	489.8417
864.087	492.62418
864.26	452.63267
864.433	381.70488
864.606	600.92348
864.779	375.12931
864.952	163.50296
865.125	407.91454
865.298	291.11251
865.471	318.68018
865.644	786.29699
865.817	463.13795
865.99	494.68531
866.163	427.20801
866.336	227.50787
866.509	335.80417
866.682	520.58297
866.855	737.29737
867.028	208.89084
867.2	396.36746
867.373	104.71282
867.546	325.31736
867.719	666.95957
867.892	422.83405
868.064	275.96445
868.237	331.0365
868.41	349.79128
868.583	201.81207
868.755	204.24213
868.928	385.53643
869.101	802.52615
869.273	530.53475
869.446	495.14231
869.619	571.9497
869.791	364.20098
869.964	481.32263
870.136	821.24967
870.309	333.7022
870.481	403.69113
870.654	179.5791
870.826	313.90552
870.999	210.72293
871.171	418.63009
871.344	243.63114
871.516	296.09577
871.689	240.02908
871.861	341.73179
872.033	263.15505
872.206	247.39584
872.378	319.14911
872.55	365.7613
872.723	195.88022
872.895	320.31447
873.067	428.22429
873.24	365.15562
873.412	309.62597
873.584	344.98825
873.756	329.09766
873.928	465.33716
874.101	347.45457
874.273	386.0219
874.445	135.94485
874.617	236.36188
874.789	291.44124
874.961	296.13441
875.133	358.29678
875.305	376.71039
875.477	296.91323
875.649	164.79101
875.821	156.81967
875.993	596.97703
876.165	290.74393
876.337	335.11409
876.509	289.01419
876.681	379.53824
876.853	336.7817
877.025	357.93883
877.197	255.88084
877.369	154.13985
877.541	327.82044
877.712	80.57158
877.884	167.14576
878.056	333.55472
878.228	188.78584
878.4	387.96617
878.571	162.11701
878.743	117.61025
878.915	271.54157
879.086	126.41971
879.258	172.93345
879.43	178.26384
879.601	133.29335
879.773	128.40074
879.945	29.48514
880.116	49.26167
880.288	28.95146
880.459	31.11557
880.631	24.86851
880.802	30.28552
880.974	27.10219
881.145	17.73179
881.317	24.64186
881.488	18.29222
881.66	20.94642
881.831	19.60475
882.002	28.2382
882.174	18.25216
882.345	25.08381
882.517	12.87482
882.688	31.08125
882.859	23.56531
883.03	41.22401
883.202	36.69039
883.373	30.06744
883.544	32.13721
883.715	59.58715
883.887	47.25736
884.058	41.61476
884.229	60.73707
884.4	59.5242
884.571	76.81465
884.742	56.26782
884.914	70.80731
885.085	101.54411
885.256	143.29221
885.427	118.25221
885.598	149.69512
885.769	142.7029
885.94	138.06507
886.111	79.38334
886.282	179.84553
886.453	154.09236
886.624	115.55986
886.795	195.09393
886.966	171.01129
887.136	198.78375
887.307	141.10632
887.478	309.01932
887.649	271.34755
887.82	252.62564
887.991	216.06446
888.161	336.94633
888.332	336.94652
888.503	138.1164
888.674	380.45978
888.844	522.4736
889.015	336.4238
889.186	198.78991
889.356	461.28009
889.527	177.78627
889.698	668.03882
889.868	224.61826
890.039	409.06312
890.209	284.3435
890.38	363.7452
890.551	339.64437
890.721	404.9942
890.892	448.0068
891.062	382.47842
891.233	519.11877
891.403	459.82325
891.574	246.13092
891.744	241.07915
891.914	352.49758
892.085	357.75777
892.255	108.48498
892.425	428.84595
892.596	303.79022
892.766	385.40378
892.936	469.78837
893.107	388.95913
893.277	151.98524
893.447	191.79208
893.618	100.49063
893.788	187.63323
893.958	119.9766
894.128	83.02617
894.298	117.42266
894.468	146.96049
894.639	65.62987
894.809	33.20844
894.979	65.98495
895.149	80.63409
895.319	65.18474
895.489	103.77743
895.659	139.57763
895.829	80.97533
895.999	78.73214
896.169	69.76195
896.339	94.4675
896.509	176.79607
896.679	189.29187
896.849	207.25129
897.019	271.83582
897.189	232.41564
897.358	210.49142
897.528	341.94539
897.698	232.18304
897.868	303.00164
898.038	642.34634
898.208	584.59885
898.377	190.25544
898.547	938.60308
898.717	1380.91244
898.886	420.77591
899.056	599.63683
899.226	1436.70614
899.395	749.14192
899.565	1225.51298
899.735	805.94504
899.904	887.1965
900.074	1036.00937
900.244	308.42793
900.413	1207.70621
900.583	359.94905
900.752	1348.40437
900.922	981.43
901.091	146.17138
901.261	1939.01522
901.43	514.33421
901.599	2447.86916
901.769	1400.81245
901.938	1027.56235
902.108	1552.25815
902.277	764.99419
902.446	378.74457
902.616	372.67942
902.785	571.42465
902.954	661.34234
903.124	478.07008
903.293	270.06966
903.462	128.61486
903.631	186.62608
903.801	139.19566
903.97	66.1987
904.139	109.57677
904.308	80.61513
904.477	67.52151
904.646	41.26333
904.816	67.68206
904.985	96.4875
905.154	140.3204
