Data from WindowProjectSample3_Transmission__38__00038.txt Node

Date: Sun May 04 10:40:15 EDT 2025
User: jessi
Spectrometer: SR400872
Trigger mode: 0
Integration Time (sec): 5.000050E-1
Scans to average: 20
Electric dark correction enabled: true
Nonlinearity correction enabled: true
Boxcar width: 0
XAxis mode: Wavelengths
Number of Pixels in Spectrum: 3648
>>>>>Begin Spectral Data<<<<<
184.909	-1106.21016
185.132	-1334.4241
185.355	-1457.89504
185.578	-978.01358
185.801	588.72162
186.024	-1033.19158
186.247	1063.9361
186.47	-1162.35408
186.693	-328.04579
186.916	-725.73318
187.139	-809.35604
187.362	-969.20031
187.585	-902.66522
187.808	-741.06814
188.031	3193.75241
188.254	-2078.72921
188.476	-1167.27534
188.699	-1214.37894
188.922	647.28835
189.145	-973.32691
189.368	-2355.87461
189.591	-1617.23251
189.813	-1522.10752
190.036	-1082.56752
190.259	-1154.08431
190.482	-1481.02385
190.705	-1898.85895
190.927	-887.28351
191.15	-1161.6967
191.373	-1580.19456
191.595	-1484.47862
191.818	-1519.72595
192.041	-937.10178
192.263	-1181.91237
192.486	-548.6954
192.709	-1330.5222
192.931	-2945.96966
193.154	-1320.78797
193.377	-1191.07554
193.599	-1914.26293
193.822	-1569.79461
194.044	-1489.31357
194.267	-1289.91698
194.489	-99.34081
194.712	-1239.94558
194.934	-1573.74254
195.157	-638.41999
195.379	-1375.86074
195.602	-776.61553
195.824	-1411.82961
196.047	-2108.63308
196.269	-1048.15969
196.492	-1350.91445
196.714	-743.44368
196.936	-1364.48274
197.159	-930.20163
197.381	-774.39709
197.604	-538.52472
197.826	-1375.45899
198.048	-1386.38703
198.271	-991.61564
198.493	-1174.17861
198.715	-815.14689
198.938	-915.6499
199.16	-2822.17843
199.382	-1256.40129
199.604	-874.66147
199.827	-1074.66725
200.049	-1603.17287
200.271	-1090.13415
200.493	-2155.02569
200.715	-993.00372
200.938	-845.29007
201.16	-947.78101
201.382	-4132.83118
201.604	-1696.80665
201.826	-785.5522
202.048	-829.10457
202.27	-2120.47629
202.492	-2117.28341
202.715	-2376.94
202.937	-2536.88299
203.159	-1851.96487
203.381	-2648.96356
203.603	-1032.95084
203.825	-6569.05394
204.047	-1116.95594
204.269	-1752.53013
204.491	-1386.36495
204.713	-950.69861
204.935	-1104.27421
205.156	-1317.36726
205.378	-1400.39384
205.6	-971.23715
205.822	-1002.49962
206.044	2423.47539
206.266	-2648.98752
206.488	-743.81064
206.71	-1815.56299
206.932	-1313.05548
207.153	-990.8751
207.375	-864.40809
207.597	-1065.69098
207.819	-845.06432
208.041	-1488.58659
208.262	-2884.30274
208.484	-2558.19387
208.706	-2141.24232
208.927	-3367.58768
209.149	-1237.11556
209.371	-1191.87952
209.593	-7544.14665
209.814	-686.94531
210.036	-4403.38912
210.258	-1438.08311
210.479	-1203.93811
210.701	-2234.43324
210.922	-2560.6568
211.144	-2094.7965
211.366	-2391.36327
211.587	2675.68999
211.809	-1196.18568
212.03	-3480.01089
212.252	-3030.02484
212.473	-1082.57271
212.695	-1140.40691
212.916	-8888.06434
213.138	-6535.25052
213.359	-1007.78603
213.581	-2309.77942
213.802	-6916.80422
214.024	-1464.44597
214.245	97049.25297
214.466	2231.68869
214.688	-1156.33258
214.909	-732.32296
215.131	-2374.61324
215.352	-1860.53647
215.573	-1250.90487
215.795	-1390.47066
216.016	-2325.94071
216.237	2837.63169
216.459	-1804.91739
216.68	-2239.36071
216.901	-1098.19777
217.122	-1373.13277
217.344	-1137.19039
217.565	-1276.59533
217.786	-1246.36879
218.007	-1503.35078
218.228	-839.11016
218.45	-759.91502
218.671	-5413.12005
218.892	-1058.79333
219.113	-1957.6339
219.334	-139.22569
219.555	-1183.61447
219.776	-1078.45964
219.997	-1265.72156
220.219	-1059.66372
220.44	-1619.21319
220.661	-744.71894
220.882	-1396.1527
221.103	-3795.86735
221.324	-2354.06803
221.545	-2194.15798
221.766	-1159.46947
221.987	-2679.31294
222.208	-1046.89891
222.429	-934.7316
222.65	3921.97027
222.87	5885.10418
223.091	-2678.69265
223.312	-2511.63048
223.533	-2085.42635
223.754	-1140.67971
223.975	-3391.61247
224.196	-7824.63894
224.417	-1843.43774
224.637	1548.18223
224.858	189.73041
225.079	-2669.12252
225.3	2972.04746
225.521	-829.95527
225.741	30122.79051
225.962	-1933.71203
226.183	569.2051
226.404	-3831.4984
226.624	-4991.58399
226.845	9147.07043
227.066	-6118.10574
227.286	1322.85173
227.507	331.16804
227.728	378.38206
227.948	936.07571
228.169	220.21208
228.389	237.31645
228.61	135.11189
228.831	179.53133
229.051	15.6248
229.272	100.45197
229.492	134.77727
229.713	36.22821
229.933	88.27466
230.154	72.54313
230.374	130.72377
230.595	92.78197
230.815	55.63563
231.036	93.07964
231.256	-19.67325
231.477	166.95086
231.697	97.36523
231.917	94.03525
232.138	140.86561
232.358	333.47262
232.579	260.015
232.799	42.36721
233.019	255.69813
233.24	307.75454
233.46	98.89741
233.68	161.44519
233.901	100.61589
234.121	74.99539
234.341	34.06337
234.561	-13.57181
234.782	51.75035
235.002	174.87779
235.222	-1.57947
235.442	154.00821
235.662	72.42864
235.883	160.86462
236.103	113.35864
236.323	94.36678
236.543	61.62383
236.763	99.29397
236.983	105.65657
237.203	101.00488
237.423	139.19564
237.643	211.99345
237.864	191.60859
238.084	50.36324
238.304	61.04069
238.524	111.71249
238.744	91.52893
238.964	160.33532
239.184	141.869
239.404	165.03971
239.624	81.00309
239.843	140.86218
240.063	77.65077
240.283	51.56693
240.503	58.76778
240.723	56.67836
240.943	34.72584
241.163	42.22699
241.383	30.70632
241.603	16.33433
241.822	18.73357
242.042	13.8463
242.262	17.3308
242.482	18.9974
242.702	20.60694
242.921	6.03578
243.141	13.28353
243.361	12.3813
243.581	18.37329
243.8	15.36645
244.02	9.32461
244.24	17.50434
244.459	17.7023
244.679	35.13039
244.899	21.88929
245.118	26.06111
245.338	24.41323
245.558	27.41493
245.777	17.36845
245.997	20.7058
246.216	21.43331
246.436	12.88744
246.655	8.47878
246.875	6.96897
247.094	12.60406
247.314	4.43953
247.533	7.39383
247.753	8.34543
247.972	6.75111
248.192	2.62556
248.411	4.17185
248.631	6.31073
248.85	8.45723
249.07	7.99269
249.289	11.38314
249.508	8.57506
249.728	12.64778
249.947	13.33179
250.166	16.16704
250.386	8.38709
250.605	13.78408
250.824	22.67298
251.044	14.37758
251.263	47.47834
251.482	28.21139
251.701	23.7518
251.921	0.60052
252.14	7.74213
252.359	9.79098
252.578	20.1658
252.798	7.14995
253.017	17.07683
253.236	8.81391
253.455	11.62973
253.674	21.52409
253.893	9.73506
254.112	15.58131
254.331	22.70645
254.551	16.56795
254.77	9.08894
254.989	27.50946
255.208	20.6829
255.427	31.86526
255.646	27.62649
255.865	42.3794
256.084	19.0214
256.303	21.72142
256.522	28.38359
256.741	6.89985
256.96	7.44115
257.179	16.88856
257.397	21.79007
257.616	11.76943
257.835	12.52395
258.054	28.74798
258.273	19.96856
258.492	20.24304
258.711	12.86625
258.93	5.64651
259.148	9.82718
259.367	8.69473
259.586	10.8355
259.805	5.11557
260.023	9.4026
260.242	6.83899
260.461	5.40515
260.68	2.46703
260.898	7.8215
261.117	2.73499
261.336	1.79805
261.554	6.08931
261.773	6.45498
261.992	1.46628
262.21	6.03206
262.429	7.36007
262.648	12.34139
262.866	15.05767
263.085	10.46707
263.303	9.27911
263.522	16.67056
263.74	15.83051
263.959	28.11808
264.178	14.36995
264.396	13.12477
264.615	9.32561
264.833	20.90772
265.051	18.01107
265.27	20.85722
265.488	20.56953
265.707	12.38165
265.925	20.35507
266.144	10.18475
266.362	11.19388
266.58	11.74183
266.799	9.2908
267.017	11.07653
267.235	10.31294
267.454	6.8741
267.672	3.82425
267.89	8.12417
268.109	8.82049
268.327	8.54353
268.545	1.78709
268.763	7.29689
268.982	3.05305
269.2	9.12596
269.418	5.88058
269.636	4.40104
269.854	8.49322
270.073	6.27392
270.291	3.86364
270.509	3.80234
270.727	8.59933
270.945	13.90416
271.163	13.70181
271.381	3.13513
271.599	6.06769
271.817	9.26448
272.036	3.39673
272.254	6.62822
272.472	4.66685
272.69	4.46533
272.908	4.87349
273.126	7.52022
273.344	9.67594
273.562	3.56808
273.779	5.00035
273.997	7.93618
274.215	7.45564
274.433	5.34123
274.651	8.60367
274.869	8.2849
275.087	5.14255
275.305	7.4861
275.523	4.94663
275.74	5.66527
275.958	10.48821
276.176	14.87979
276.394	4.81433
276.612	6.58504
276.829	6.24783
277.047	5.44524
277.265	5.58769
277.483	6.41214
277.7	7.64647
277.918	6.37422
278.136	11.48855
278.353	5.4312
278.571	3.57093
278.789	8.71059
279.006	2.29232
279.224	5.83583
279.442	9.09573
279.659	6.65512
279.877	4.41116
280.094	9.89946
280.312	2.35335
280.529	6.8047
280.747	2.46184
280.964	5.51914
281.182	10.45896
281.399	5.53719
281.617	6.80855
281.834	4.93529
282.052	3.57443
282.269	6.07586
282.487	4.7267
282.704	4.46843
282.921	4.05384
283.139	6.23076
283.356	7.90891
283.574	7.38685
283.791	3.53664
284.008	9.71396
284.226	5.57674
284.443	6.42082
284.66	7.89815
284.877	6.80482
285.095	4.311
285.312	3.18275
285.529	2.07534
285.746	1.71801
285.964	4.18253
286.181	2.66345
286.398	3.577
286.615	5.17448
286.832	4.81797
287.05	1.26032
287.267	3.3092
287.484	3.599
287.701	4.98978
287.918	4.72839
288.135	4.72835
288.352	2.11959
288.569	2.86395
288.786	4.60625
289.003	3.62093
289.22	5.86916
289.437	3.24168
289.654	5.23241
289.871	5.42821
290.088	5.54222
290.305	4.33439
290.522	3.66081
290.739	3.85782
290.956	5.70274
291.173	6.58643
291.39	6.20695
291.607	4.40355
291.824	3.7121
292.04	2.5981
292.257	5.508
292.474	5.99478
292.691	3.9618
292.908	1.82761
293.125	3.36293
293.341	2.14588
293.558	9.17852
293.775	4.19185
293.992	4.11192
294.208	1.60057
294.425	2.63947
294.642	3.51275
294.858	5.26558
295.075	1.43791
295.292	3.78921
295.508	4.64386
295.725	6.40356
295.942	3.28413
296.158	2.36689
296.375	3.95555
296.591	3.15814
296.808	3.19282
297.024	3.69421
297.241	4.08468
297.458	4.4209
297.674	0.54912
297.891	3.46316
298.107	2.80445
298.323	2.08199
298.54	4.86057
298.756	2.48417
298.973	1.21017
299.189	5.18207
299.406	2.39528
299.622	5.32297
299.838	5.41603
300.055	4.7402
300.271	1.51694
300.487	2.11962
300.704	2.47805
300.92	1.50211
301.136	7.18396
301.353	5.73608
301.569	3.90304
301.785	3.9742
302.001	4.93427
302.218	4.41725
302.434	4.54016
302.65	1.63108
302.866	3.08496
303.083	7.47377
303.299	7.26118
303.515	3.95719
303.731	4.07882
303.947	1.56613
304.163	2.88362
304.379	4.19375
304.595	4.62453
304.812	2.90843
305.028	2.29043
305.244	3.15343
305.46	4.92842
305.676	5.18943
305.892	6.25244
306.108	4.70799
306.324	3.26874
306.54	7.07096
306.756	4.94634
306.972	4.57827
307.187	3.52308
307.403	6.51848
307.619	2.9426
307.835	5.88617
308.051	5.97982
308.267	2.27108
308.483	5.77367
308.699	4.68065
308.914	3.88415
309.13	3.99273
309.346	1.20494
309.562	2.16561
309.778	1.39636
309.993	4.69696
310.209	3.73666
310.425	1.81892
310.641	3.28325
310.856	2.2074
311.072	1.96976
311.288	3.58091
311.503	3.94749
311.719	1.04318
311.935	0.94224
312.15	4.17786
312.366	3.79828
312.581	4.3759
312.797	3.43429
313.013	4.72266
313.228	2.64174
313.444	3.79914
313.659	2.34548
313.875	4.36114
314.09	3.59883
314.306	6.30807
314.521	5.12368
314.737	4.72052
314.952	4.27773
315.168	3.95736
315.383	4.61155
315.599	3.46797
315.814	3.71655
316.029	5.34686
316.245	1.99858
316.46	1.19861
316.675	5.90473
316.891	7.34107
317.106	8.94837
317.321	4.86364
317.537	4.73594
317.752	5.28674
317.967	5.33182
318.183	2.94491
318.398	3.34352
318.613	5.74603
318.828	6.49435
319.043	5.65862
319.259	3.63631
319.474	4.44343
319.689	6.33682
319.904	1.43213
320.119	5.76351
320.334	4.46968
320.549	3.74267
320.765	6.15122
320.98	4.59018
321.195	5.71862
321.41	3.85761
321.625	5.45578
321.84	7.16907
322.055	7.21197
322.27	2.97544
322.485	2.35842
322.7	4.85496
322.915	6.10424
323.13	2.9206
323.345	6.77675
323.56	4.95612
323.775	5.45028
323.989	5.23218
324.204	4.67437
324.419	5.50052
324.634	2.02041
324.849	4.05316
325.064	7.55832
325.279	5.85517
325.493	5.13567
325.708	5.73376
325.923	2.91746
326.138	3.13016
326.352	6.89641
326.567	5.46846
326.782	3.67893
326.997	3.05403
327.211	5.34297
327.426	4.92526
327.641	3.80513
327.855	1.64033
328.07	5.2391
328.285	7.15449
328.499	3.90597
328.714	4.70241
328.928	5.46831
329.143	4.3945
329.358	6.29277
329.572	5.75851
329.787	6.61586
330.001	8.76653
330.216	2.39556
330.43	7.34056
330.645	7.24368
330.859	5.92275
331.074	2.94708
331.288	4.57838
331.503	7.12263
331.717	2.4256
331.931	4.32868
332.146	4.8019
332.36	8.0082
332.575	5.17249
332.789	4.85859
333.003	4.43202
333.218	5.54005
333.432	3.35531
333.646	6.12516
333.86	7.42329
334.075	7.7977
334.289	3.62328
334.503	2.80962
334.717	5.40638
334.932	5.20079
335.146	5.69609
335.36	3.47074
335.574	5.1427
335.788	5.00685
336.003	5.82084
336.217	5.9606
336.431	4.79556
336.645	3.80674
336.859	2.8308
337.073	4.54551
337.287	4.99533
337.501	3.04183
337.715	5.47364
337.929	5.8746
338.143	2.74943
338.357	4.54571
338.571	3.49927
338.785	5.52888
338.999	3.6245
339.213	3.59799
339.427	2.37145
339.641	6.40946
339.855	3.74767
340.069	3.0704
340.283	5.96677
340.497	7.05758
340.711	5.28762
340.924	4.12184
341.138	2.76946
341.352	2.38269
341.566	4.49796
341.78	1.70451
341.993	3.65413
342.207	3.05189
342.421	4.9085
342.635	4.30161
342.848	3.55903
343.062	0.7878
343.276	3.41598
343.49	7.82411
343.703	3.2402
343.917	5.75094
344.131	5.90543
344.344	3.30753
344.558	3.42195
344.771	2.69641
344.985	6.06269
345.199	7.08799
345.412	4.84229
345.626	4.84426
345.839	1.65614
346.053	2.50857
346.266	2.91725
346.48	5.3183
346.693	4.88141
346.907	5.12419
347.12	2.93568
347.334	4.67986
347.547	4.72319
347.76	3.99057
347.974	6.03691
348.187	4.8805
348.401	3.94339
348.614	3.13008
348.827	3.83026
349.041	5.01612
349.254	1.61705
349.467	4.19121
349.681	2.59122
349.894	3.40229
350.107	6.08035
350.32	7.20926
350.534	2.11153
350.747	3.91521
350.96	2.83898
351.173	3.17429
351.386	3.68021
351.6	3.60351
351.813	3.40772
352.026	4.30302
352.239	2.42874
352.452	3.8987
352.665	5.65487
352.878	3.76163
353.092	7.51755
353.305	5.12224
353.518	4.44761
353.731	2.93287
353.944	5.68296
354.157	3.47236
354.37	3.09143
354.583	2.56751
354.796	1.94381
355.009	5.89381
355.222	4.27419
355.435	4.22668
355.647	5.7008
355.86	2.5903
356.073	4.10778
356.286	3.30729
356.499	5.35827
356.712	4.93328
356.925	4.55903
357.138	5.6327
357.35	2.6024
357.563	3.35826
357.776	4.20603
357.989	3.75963
358.201	4.84879
358.414	4.26998
358.627	5.55127
358.84	3.66469
359.052	2.3847
359.265	2.59385
359.478	5.2255
359.69	0.39661
359.903	5.21604
360.116	5.20326
360.328	1.70183
360.541	5.22554
360.753	2.75842
360.966	3.28376
361.179	3.38589
361.391	3.1427
361.604	2.55887
361.816	3.1682
362.029	2.9118
362.241	2.44118
362.454	2.99481
362.666	2.54787
362.879	3.82215
363.091	3.13741
363.304	2.60338
363.516	3.41689
363.728	2.05937
363.941	4.4537
364.153	3.27579
364.366	0.78094
364.578	2.36219
364.79	4.39013
365.003	3.78181
365.215	3.11967
365.427	4.44708
365.639	5.40479
365.852	3.90195
366.064	5.90067
366.276	3.08088
366.488	4.46915
366.701	3.21027
366.913	3.42453
367.125	3.67176
367.337	2.91024
367.549	3.10662
367.762	3.79538
367.974	3.64293
368.186	3.00773
368.398	5.25751
368.61	4.63446
368.822	4.89661
369.034	3.66656
369.246	4.73306
369.458	7.22888
369.67	2.59896
369.882	6.47358
370.094	1.21898
370.306	6.0753
370.518	3.33777
370.73	3.26247
370.942	2.74482
371.154	3.60338
371.366	3.33941
371.578	4.43537
371.79	2.94355
372.002	5.51523
372.214	6.41916
372.425	3.96918
372.637	5.84335
372.849	4.40219
373.061	0.98624
373.273	4.64266
373.484	4.60264
373.696	5.19125
373.908	0.8789
374.12	5.43415
374.331	4.47834
374.543	2.76267
374.755	2.51458
374.967	4.18545
375.178	5.0545
375.39	3.59741
375.602	4.0444
375.813	2.03277
376.025	2.19904
376.236	3.81342
376.448	4.14772
376.66	3.52424
376.871	3.27533
377.083	5.0945
377.294	5.43872
377.506	3.34362
377.717	5.67938
377.929	4.06824
378.14	2.97897
378.352	4.47008
378.563	4.59624
378.775	5.5273
378.986	2.8543
379.197	4.3294
379.409	3.15939
379.62	4.96047
379.832	4.14757
380.043	3.7232
380.254	4.27746
380.466	2.19333
380.677	7.58662
380.888	6.93396
381.1	7.29383
381.311	7.25706
381.522	4.12325
381.733	7.94445
381.945	3.69126
382.156	4.04368
382.367	3.29863
382.578	7.57529
382.789	7.71856
383.001	3.23909
383.212	6.13674
383.423	6.2514
383.634	5.63289
383.845	4.88263
384.056	3.56075
384.267	4.06194
384.478	3.85986
384.69	2.65492
384.901	4.7945
385.112	4.61175
385.323	6.26918
385.534	4.6787
385.745	4.38318
385.956	4.6179
386.167	2.64929
386.378	4.90151
386.588	2.65387
386.799	3.08978
387.01	2.06386
387.221	5.23229
387.432	4.05496
387.643	6.60513
387.854	3.73582
388.065	3.7518
388.275	3.86671
388.486	3.57547
388.697	4.15974
388.908	3.66964
389.119	5.66411
389.329	6.35995
389.54	4.25516
389.751	4.72054
389.962	5.83828
390.172	4.49612
390.383	3.77004
390.594	3.21893
390.804	3.44578
391.015	3.53211
391.226	4.25748
391.436	5.04404
391.647	4.55528
391.858	5.0037
392.068	2.00054
392.279	2.58078
392.489	4.28646
392.7	5.41343
392.91	2.83173
393.121	3.14981
393.331	4.57723
393.542	5.64593
393.752	5.09741
393.963	4.65501
394.173	4.2697
394.384	5.21086
394.594	4.11094
394.804	2.68806
395.015	4.31229
395.225	5.15954
395.436	2.58525
395.646	4.91436
395.856	3.18132
396.067	2.59212
396.277	5.51666
396.487	4.88475
396.697	4.4053
396.908	5.37093
397.118	5.3229
397.328	4.52843
397.538	5.52505
397.749	3.6116
397.959	5.53555
398.169	5.21137
398.379	2.75403
398.589	5.28939
398.8	4.477
399.01	4.63769
399.22	3.99293
399.43	7.29252
399.64	4.03154
399.85	5.1831
400.06	4.31444
400.27	3.58101
400.48	4.29238
400.69	6.06265
400.9	3.75764
401.11	3.47097
401.32	5.57208
401.53	3.85655
401.74	6.32303
401.95	5.35308
402.16	3.45513
402.37	5.19025
402.58	3.72368
402.79	5.20394
403	5.56936
403.209	3.75513
403.419	5.49318
403.629	3.83765
403.839	5.68164
404.049	5.551
404.258	3.57321
404.468	3.3137
404.678	5.21792
404.888	5.47538
405.097	3.54978
405.307	4.40484
405.517	5.18965
405.727	4.7607
405.936	3.93844
406.146	4.78084
406.356	6.02689
406.565	4.41981
406.775	3.91426
406.984	3.9601
407.194	6.76771
407.404	4.60512
407.613	5.05465
407.823	5.5394
408.032	6.19507
408.242	5.89246
408.451	4.02922
408.661	4.55538
408.87	7.02459
409.08	3.97281
409.289	5.30587
409.499	5.04427
409.708	4.7904
409.918	2.43175
410.127	4.81122
410.336	6.74449
410.546	5.48239
410.755	4.31662
410.964	4.08715
411.174	3.95309
411.383	5.31871
411.592	5.3199
411.802	3.64651
412.011	6.0731
412.22	4.67207
412.429	6.67646
412.639	6.37548
412.848	6.47099
413.057	6.949
413.266	6.38689
413.475	5.01358
413.685	6.05731
413.894	6.07529
414.103	6.44772
414.312	5.86815
414.521	4.93254
414.73	5.28507
414.939	7.36595
415.148	5.66644
415.357	5.37907
415.566	4.65815
415.776	4.58763
415.985	4.48469
416.194	5.99146
416.403	7.00563
416.611	3.47307
416.82	4.41551
417.029	5.0628
417.238	4.11616
417.447	4.00523
417.656	4.41578
417.865	4.22946
418.074	4.53126
418.283	4.81582
418.492	5.8116
418.7	5.53212
418.909	6.45288
419.118	4.91583
419.327	5.27451
419.536	4.94189
419.744	4.25006
419.953	5.81272
420.162	5.71561
420.371	4.2057
420.579	4.07785
420.788	5.29013
420.997	5.33687
421.205	5.19402
421.414	4.81887
421.623	4.83626
421.831	4.27644
422.04	5.30757
422.249	4.29086
422.457	5.03808
422.666	4.41153
422.874	5.65972
423.083	5.66383
423.291	5.61742
423.5	5.22993
423.708	5.22616
423.917	5.87783
424.125	5.06813
424.334	4.67686
424.542	6.93454
424.751	5.85047
424.959	5.6234
425.167	6.18805
425.376	6.00865
425.584	5.27971
425.793	5.68131
426.001	4.56434
426.209	6.05155
426.418	4.70637
426.626	4.91884
426.834	4.62726
427.042	5.5232
427.251	4.76984
427.459	6.30643
427.667	5.72719
427.875	4.28611
428.084	4.99865
428.292	6.83286
428.5	6.17041
428.708	4.7026
428.916	4.64077
429.124	5.81818
429.333	5.38695
429.541	5.41442
429.749	5.60166
429.957	5.67768
430.165	8.07886
430.373	4.42876
430.581	5.86054
430.789	7.14619
430.997	5.00291
431.205	5.0844
431.413	5.86899
431.621	5.25012
431.829	6.40634
432.037	5.45619
432.245	6.37685
432.453	6.0695
432.661	5.52316
432.869	7.89246
433.076	4.82342
433.284	5.48411
433.492	6.34485
433.7	6.94697
433.908	5.20705
434.116	5.7005
434.323	5.95029
434.531	5.70805
434.739	6.11279
434.947	6.59316
435.154	6.46842
435.362	5.91921
435.57	5.57614
435.778	5.32254
435.985	6.10457
436.193	5.40778
436.401	7.09342
436.608	6.03048
436.816	5.4782
437.023	7.62569
437.231	7.90345
437.439	6.19668
437.646	6.66295
437.854	6.63729
438.061	6.71428
438.269	5.90858
438.476	6.72432
438.684	6.2439
438.891	5.68155
439.099	5.46062
439.306	4.61546
439.514	5.03113
439.721	6.40061
439.929	5.46259
440.136	6.48159
440.343	6.27976
440.551	5.59228
440.758	7.68858
440.965	6.53421
441.173	6.09998
441.38	5.38387
441.587	6.31732
441.795	5.4374
442.002	6.15042
442.209	6.22318
442.416	6.54396
442.624	6.42699
442.831	6.59957
443.038	5.55897
443.245	5.30879
443.452	5.81026
443.66	7.0787
443.867	5.60024
444.074	5.78084
444.281	5.60535
444.488	6.0878
444.695	6.30592
444.902	5.80487
445.109	6.83532
445.316	5.87913
445.523	5.75881
445.73	5.38124
445.937	6.20869
446.144	6.50492
446.351	6.40908
446.558	5.25385
446.765	6.69916
446.972	6.7953
447.179	5.80461
447.386	7.03454
447.593	5.62038
447.8	7.0295
448.007	5.87965
448.214	6.01993
448.42	5.5915
448.627	7.22003
448.834	5.99835
449.041	5.84802
449.248	5.92348
449.454	7.11714
449.661	7.91583
449.868	6.00672
450.075	5.588
450.281	4.2851
450.488	5.32586
450.695	5.54116
450.901	5.48071
451.108	6.12472
451.315	7.47392
451.521	6.44711
451.728	7.3998
451.935	5.71272
452.141	6.26929
452.348	6.29788
452.554	6.2581
452.761	6.04408
452.967	7.94042
453.174	6.50986
453.38	6.67515
453.587	5.21782
453.793	6.35444
454	7.17517
454.206	8.51358
454.413	7.6083
454.619	6.83208
454.825	5.66976
455.032	7.02868
455.238	7.40074
455.445	5.25335
455.651	6.58041
455.857	4.6289
456.064	6.18993
456.27	6.21557
456.476	6.21716
456.682	5.13069
456.889	6.87452
457.095	7.06269
457.301	9.02718
457.507	6.64189
457.714	6.85754
457.92	6.66872
458.126	5.80647
458.332	6.32123
458.538	5.95891
458.744	6.10518
458.951	6.21498
459.157	8.04364
459.363	6.6365
459.569	6.17886
459.775	7.04858
459.981	5.69066
460.187	6.16232
460.393	6.94364
460.599	7.41667
460.805	6.44107
461.011	6.36762
461.217	7.10593
461.423	7.29093
461.629	6.09948
461.835	7.12607
462.041	6.25895
462.247	8.14769
462.453	6.43952
462.658	6.48314
462.864	7.47427
463.07	7.02558
463.276	7.0348
463.482	7.11614
463.688	8.17601
463.893	6.18733
464.099	6.43388
464.305	8.70438
464.511	6.40701
464.716	6.82928
464.922	7.61394
465.128	6.16193
465.333	8.65199
465.539	7.43377
465.745	6.67919
465.95	7.20938
466.156	9.82611
466.362	8.17446
466.567	6.70331
466.773	6.49115
466.978	8.57606
467.184	5.91182
467.389	4.78507
467.595	7.40436
467.8	5.99299
468.006	8.24388
468.211	8.1091
468.417	5.87047
468.622	7.61366
468.828	7.57268
469.033	7.24246
469.239	10.11039
469.444	6.36069
469.649	8.07281
469.855	6.86187
470.06	7.13322
470.266	5.89206
470.471	7.69827
470.676	7.47032
470.881	5.48944
471.087	8.6066
471.292	8.74746
471.497	5.87924
471.703	6.80761
471.908	6.57232
472.113	7.30881
472.318	8.00174
472.523	6.2036
472.729	7.55324
472.934	7.58075
473.139	6.74849
473.344	7.71345
473.549	8.37806
473.754	6.24017
473.959	9.0851
474.164	6.30696
474.369	7.0058
474.575	7.90595
474.78	7.15805
474.985	6.88372
475.19	5.57939
475.395	6.2634
475.6	7.08856
475.804	8.76993
476.009	7.17118
476.214	7.35236
476.419	6.68408
476.624	5.50807
476.829	6.32107
477.034	7.7015
477.239	6.39264
477.444	7.32251
477.648	7.59764
477.853	7.73079
478.058	6.74971
478.263	6.47652
478.468	5.85963
478.672	6.10321
478.877	8.07969
479.082	8.98008
479.287	7.36417
479.491	7.17802
479.696	5.95733
479.901	8.02742
480.105	7.78307
480.31	6.41277
480.515	6.95556
480.719	9.48595
480.924	6.39367
481.128	5.9331
481.333	7.21012
481.538	7.30091
481.742	6.65933
481.947	7.40856
482.151	7.38554
482.356	6.88067
482.56	7.5386
482.765	7.304
482.969	8.9095
483.174	9.99553
483.378	11.64459
483.582	11.54668
483.787	12.56108
483.991	12.45786
484.196	12.5916
484.4	12.23843
484.604	12.50262
484.809	10.97783
485.013	10.63886
485.217	9.55263
485.422	8.50969
485.626	7.84656
485.83	7.44788
486.034	7.2227
486.239	7.57577
486.443	7.63686
486.647	7.65171
486.851	8.52429
487.055	9.24257
487.26	8.68067
487.464	9.36015
487.668	8.76349
487.872	8.755
488.076	9.34414
488.28	8.71528
488.484	8.07516
488.688	7.86239
488.892	7.77068
489.096	7.2822
489.3	6.60769
489.504	6.78955
489.708	7.4502
489.912	7.52871
490.116	7.46466
490.32	6.717
490.524	7.50228
490.728	7.57958
490.932	7.16304
491.136	7.14106
491.34	8.16515
491.544	8.30111
491.748	7.79481
491.951	7.81222
492.155	7.59302
492.359	7.48266
492.563	6.37759
492.767	6.268
492.97	6.42999
493.174	6.14974
493.378	6.60637
493.582	6.08211
493.785	6.88776
493.989	7.28417
494.193	7.32936
494.396	6.91123
494.6	8.04322
494.804	7.1365
495.007	6.90947
495.211	6.70064
495.414	7.12787
495.618	7.55131
495.822	8.40185
496.025	7.47677
496.229	8.15733
496.432	6.62464
496.636	7.24221
496.839	7.00256
497.043	8.64933
497.246	7.30748
497.45	6.73279
497.653	6.92691
497.856	7.3108
498.06	6.16496
498.263	6.82117
498.467	6.51805
498.67	8.01386
498.873	7.5659
499.077	6.78409
499.28	6.79788
499.483	7.54767
499.686	7.74067
499.89	7.40722
500.093	7.87151
500.296	6.43031
500.499	8.69479
500.703	7.23068
500.906	7.28261
501.109	9.08537
501.312	7.28258
501.515	7.23469
501.719	7.76214
501.922	8.85819
502.125	7.59797
502.328	7.24103
502.531	6.26482
502.734	7.48736
502.937	5.61961
503.14	7.54371
503.343	6.30601
503.546	7.04679
503.749	6.65836
503.952	8.05215
504.155	6.41822
504.358	7.98883
504.561	7.39479
504.764	6.14645
504.967	7.15756
505.17	7.30159
505.373	8.90537
505.576	7.50004
505.778	7.91343
505.981	6.86425
506.184	8.68769
506.387	5.87408
506.59	9.02718
506.793	8.66247
506.995	7.97036
507.198	5.49024
507.401	7.63487
507.604	7.85302
507.806	6.33381
508.009	6.6607
508.212	7.85409
508.414	6.89244
508.617	6.68151
508.82	7.28616
509.022	8.43395
509.225	7.553
509.427	5.56661
509.63	8.496
509.833	7.22579
510.035	6.95233
510.238	5.75359
510.44	8.19364
510.643	5.2657
510.845	9.46808
511.048	7.67283
511.25	6.86028
511.453	7.26252
511.655	7.79131
511.858	6.90744
512.06	8.18959
512.262	7.25957
512.465	8.15049
512.667	6.70731
512.869	6.16121
513.072	7.48068
513.274	8.10448
513.476	7.61333
513.679	8.02577
513.881	6.19505
514.083	8.80813
514.286	6.63063
514.488	6.74754
514.69	6.35187
514.892	6.17255
515.094	8.11983
515.297	6.64557
515.499	7.40185
515.701	6.62089
515.903	9.03957
516.105	9.08073
516.307	8.22838
516.509	5.60487
516.711	6.22459
516.913	7.51771
517.116	7.3849
517.318	7.102
517.52	8.53812
517.722	8.0084
517.924	6.13348
518.126	7.80146
518.328	6.52578
518.529	7.4991
518.731	8.64242
518.933	6.54869
519.135	6.89487
519.337	7.92822
519.539	7.29894
519.741	5.35361
519.943	6.75546
520.145	6.68379
520.346	7.50381
520.548	6.71243
520.75	7.52786
520.952	6.83662
521.153	7.40594
521.355	7.7509
521.557	6.16872
521.759	7.42314
521.96	7.18614
522.162	6.22738
522.364	8.28262
522.565	6.60816
522.767	8.06907
522.969	8.79149
523.17	7.97071
523.372	7.76273
523.573	6.92016
523.775	7.40082
523.977	6.36465
524.178	9.1007
524.38	6.87549
524.581	8.21932
524.783	7.03177
524.984	7.97409
525.186	7.2691
525.387	7.86108
525.589	7.22474
525.79	6.89696
525.991	6.40102
526.193	7.32125
526.394	5.89459
526.596	7.19962
526.797	7.08631
526.998	6.71236
527.2	6.14234
527.401	7.70058
527.602	7.34197
527.803	8.47779
528.005	8.39598
528.206	9.15459
528.407	9.5893
528.608	9.30323
528.81	9.36128
529.011	8.70442
529.212	9.63581
529.413	8.69329
529.614	8.00516
529.815	7.85441
530.017	7.22212
530.218	6.81724
530.419	6.54774
530.62	7.11318
530.821	7.24711
531.022	6.14887
531.223	7.75557
531.424	7.7181
531.625	7.62591
531.826	7.50995
532.027	7.50704
532.228	8.55788
532.429	7.62133
532.63	7.12441
532.831	7.37547
533.032	7.23459
533.233	7.6021
533.433	7.30778
533.634	7.43541
533.835	6.69424
534.036	6.49471
534.237	6.86684
534.438	6.58174
534.638	6.07832
534.839	6.31743
535.04	7.42728
535.241	6.64938
535.441	8.76239
535.642	7.72011
535.843	6.55473
536.043	6.57195
536.244	6.85262
536.445	6.96132
536.645	7.98793
536.846	7.30565
537.047	8.14618
537.247	6.41407
537.448	6.80266
537.648	7.1403
537.849	6.95807
538.049	6.90361
538.25	7.84677
538.451	7.72332
538.651	6.48956
538.851	7.85557
539.052	8.70711
539.252	8.41477
539.453	7.61775
539.653	7.84817
539.854	7.66307
540.054	7.6151
540.254	8.54668
540.455	8.39465
540.655	7.20492
540.855	7.58298
541.056	7.86724
541.256	7.06086
541.456	7.83759
541.657	6.91203
541.857	7.90079
542.057	6.38101
542.257	6.39183
542.458	7.28635
542.658	7.60231
542.858	6.30654
543.058	7.97766
543.258	7.51528
543.458	6.25712
543.659	6.17307
543.859	7.86668
544.059	7.80551
544.259	7.09604
544.459	7.90875
544.659	6.81394
544.859	7.82451
545.059	6.99372
545.259	8.07874
545.459	7.63111
545.659	8.39147
545.859	7.55396
546.059	7.83186
546.259	6.6408
546.459	6.13036
546.659	6.52747
546.859	7.99314
547.059	7.7066
547.258	7.80755
547.458	7.76555
547.658	6.32306
547.858	6.27307
548.058	7.54896
548.258	7.07253
548.457	6.39384
548.657	10.2588
548.857	7.29959
549.057	8.44631
549.256	8.33663
549.456	7.81947
549.656	5.62506
549.855	10.12675
550.055	7.73223
550.255	10.42884
550.454	8.77955
550.654	9.37488
550.853	10.0278
551.053	9.36443
551.253	8.49974
551.452	8.78563
551.652	6.96202
551.851	6.16424
552.051	7.7899
552.25	7.44922
552.45	7.23894
552.649	7.6434
552.849	6.99059
553.048	7.8665
553.248	8.83794
553.447	6.84499
553.646	8.98862
553.846	9.69938
554.045	9.08092
554.244	6.70188
554.444	10.28698
554.643	7.14368
554.842	9.98592
555.042	10.76599
555.241	7.4549
555.44	6.96399
555.64	8.63289
555.839	10.90998
556.038	9.21605
556.237	7.70684
556.436	8.18116
556.636	9.00471
556.835	7.34104
557.034	10.66224
557.233	8.17311
557.432	6.692
557.631	9.91978
557.83	8.20417
558.029	7.64394
558.228	8.14799
558.427	7.20876
558.626	9.25853
558.825	7.40241
559.024	8.76954
559.223	11.00353
559.422	8.45181
559.621	8.96866
559.82	5.21571
560.019	8.48682
560.218	8.22769
560.417	4.96404
560.616	8.11273
560.815	13.08566
561.014	6.35478
561.212	10.21024
561.411	8.70935
561.61	6.23296
561.809	8.01016
562.008	10.67051
562.206	8.38535
562.405	9.17656
562.604	8.42455
562.803	8.42527
563.001	8.22488
563.2	6.70598
563.399	9.363
563.597	6.93241
563.796	8.95064
563.995	6.88874
564.193	9.41192
564.392	7.81943
564.59	11.73184
564.789	5.8917
564.988	8.14206
565.186	8.6434
565.385	8.20944
565.583	7.88933
565.782	8.26275
565.98	7.77323
566.179	8.15628
566.377	6.56102
566.575	7.03507
566.774	9.6572
566.972	9.2019
567.171	10.71534
567.369	9.66527
567.567	8.16667
567.766	8.6909
567.964	5.54008
568.162	9.15759
568.361	9.54665
568.559	8.48588
568.757	8.92673
568.956	8.75072
569.154	8.43339
569.352	9.84724
569.55	8.38854
569.748	8.69829
569.947	7.39379
570.145	7.58872
570.343	7.0209
570.541	10.08639
570.739	6.77632
570.937	8.76966
571.135	8.9738
571.333	10.83042
571.532	10.61008
571.73	8.91179
571.928	9.79644
572.126	8.78541
572.324	7.71974
572.522	10.03375
572.72	11.71399
572.918	8.13273
573.116	8.65287
573.313	8.42471
573.511	8.14358
573.709	7.84007
573.907	9.27673
574.105	8.05414
574.303	6.28845
574.501	6.46392
574.699	9.00775
574.896	9.05247
575.094	9.25956
575.292	6.80294
575.49	9.75209
575.688	8.13844
575.885	10.21333
576.083	11.0568
576.281	9.25763
576.478	7.82368
576.676	9.32077
576.874	6.90032
577.071	8.33684
577.269	12.21837
577.467	8.28625
577.664	8.81599
577.862	10.08471
578.059	7.66157
578.257	10.31207
578.455	8.98529
578.652	9.06409
578.85	6.40877
579.047	9.34147
579.245	9.27515
579.442	9.17674
579.64	9.51384
579.837	6.26734
580.034	13.03688
580.232	8.77094
580.429	7.65979
580.627	10.10282
580.824	11.4055
581.021	10.40089
581.219	9.02413
581.416	8.04644
581.613	11.90859
581.811	11.65742
582.008	8.17393
582.205	11.03466
582.402	9.84628
582.6	13.11605
582.797	10.0082
582.994	10.30637
583.191	10.81334
583.388	9.65428
583.586	10.7486
583.783	11.68785
583.98	8.10145
584.177	10.13943
584.374	4.80212
584.571	9.83128
584.768	9.52875
584.965	9.14615
585.162	11.21359
585.359	12.76155
585.556	9.44728
585.753	10.5372
585.95	7.64611
586.147	8.52333
586.344	10.57472
586.541	9.13938
586.738	7.82057
586.935	9.50447
587.132	8.64836
587.329	11.3166
587.526	9.38453
587.722	18.16147
587.919	7.2046
588.116	10.67242
588.313	12.38674
588.51	13.67917
588.706	9.50697
588.903	10.89744
589.1	11.51161
589.297	14.89678
589.493	9.61727
589.69	10.57459
589.887	8.79955
590.083	7.8549
590.28	8.41887
590.477	11.63412
590.673	10.74984
590.87	12.01394
591.067	8.89368
591.263	11.01793
591.46	10.51893
591.656	9.56181
591.853	12.51858
592.049	8.06824
592.246	9.10906
592.442	12.47285
592.639	11.87939
592.835	7.76468
593.032	11.30521
593.228	7.67968
593.425	7.66206
593.621	7.41408
593.817	9.97096
594.014	8.54496
594.21	10.10564
594.406	11.53938
594.603	10.62012
594.799	9.0224
594.995	5.78196
595.192	11.49927
595.388	8.91661
595.584	8.94724
595.78	6.98795
595.977	13.30878
596.173	12.805
596.369	9.45435
596.565	8.03839
596.761	7.23689
596.957	11.49701
597.154	7.89711
597.35	8.33903
597.546	7.5346
597.742	9.8541
597.938	9.37309
598.134	7.47933
598.33	9.22221
598.526	12.09639
598.722	10.31424
598.918	12.64486
599.114	10.96902
599.31	8.37221
599.506	10.39205
599.702	8.70351
599.898	10.78959
600.094	12.27173
600.29	12.16518
600.485	11.93657
600.681	9.44097
600.877	13.73333
601.073	10.56859
601.269	14.06786
601.465	13.23871
601.66	8.89272
601.856	7.17679
602.052	13.57674
602.248	9.76758
602.443	6.34659
602.639	8.12417
602.835	8.32031
603.03	8.34253
603.226	11.33546
603.422	8.08259
603.617	9.14145
603.813	8.89762
604.009	8.44185
604.204	11.30501
604.4	6.55452
604.595	10.62047
604.791	7.15233
604.986	9.33885
605.182	7.77158
605.377	8.1334
605.573	8.23925
605.768	9.07352
605.964	9.975
606.159	10.28672
606.355	11.52993
606.55	8.98267
606.746	11.41829
606.941	9.91166
607.136	13.83145
607.332	15.56188
607.527	7.948
607.722	11.10822
607.918	10.34581
608.113	8.56839
608.308	11.68166
608.503	11.4324
608.699	10.98157
608.894	11.07131
609.089	8.2676
609.284	10.26436
609.479	8.94739
609.675	10.88552
609.87	8.66443
610.065	10.4747
610.26	11.28984
610.455	10.88079
610.65	9.07521
610.845	9.86741
611.04	11.46775
611.235	9.51379
611.43	9.1069
611.625	7.85378
611.82	13.16702
612.015	8.58752
612.21	13.54916
612.405	7.52596
612.6	14.68247
612.795	13.42688
612.99	12.50958
613.185	8.54783
613.38	9.35228
613.575	11.37846
613.77	16.90224
613.965	7.66046
614.159	9.43726
614.354	14.02158
614.549	13.1595
614.744	12.62302
614.938	8.88165
615.133	8.01225
615.328	14.01725
615.523	14.10229
615.717	17.85262
615.912	9.84185
616.107	11.85875
616.301	10.45129
616.496	9.69664
616.691	15.5446
616.885	13.02483
617.08	17.42154
617.274	14.6098
617.469	16.66942
617.664	13.08533
617.858	10.42836
618.053	12.26922
618.247	10.58863
618.442	6.94846
618.636	14.41407
618.831	10.2006
619.025	10.24207
619.219	17.4338
619.414	3.96722
619.608	11.92264
619.803	9.83931
619.997	16.71579
620.191	14.79684
620.386	12.88957
620.58	12.06928
620.774	7.62177
620.969	8.10676
621.163	11.86122
621.357	8.99284
621.551	10.87872
621.746	12.15758
621.94	11.56705
622.134	20.46366
622.328	16.59423
622.522	8.0521
622.716	14.76871
622.911	13.79526
623.105	13.79075
623.299	12.75721
623.493	20.02298
623.687	10.017
623.881	11.39801
624.075	13.45302
624.269	14.84142
624.463	7.7033
624.657	8.29937
624.851	13.46329
625.045	14.66337
625.239	14.62171
625.433	10.00496
625.627	15.97915
625.821	10.63168
626.015	9.84418
626.209	11.90616
626.403	8.38025
626.596	12.1454
626.79	13.18983
626.984	8.56894
627.178	12.04918
627.372	12.21864
627.565	13.07034
627.759	7.44815
627.953	8.01522
628.147	12.1277
628.34	12.49445
628.534	16.28973
628.728	10.75907
628.921	13.78024
629.115	13.67988
629.309	14.24782
629.502	14.3661
629.696	12.69822
629.89	11.8148
630.083	12.64026
630.277	13.46589
630.47	17.05477
630.664	11.26347
630.857	8.86153
631.051	14.04544
631.244	15.50615
631.438	15.40916
631.631	10.62259
631.825	15.60021
632.018	14.51956
632.212	18.22433
632.405	15.59156
632.598	11.03382
632.792	13.12539
632.985	6.54195
633.178	11.96101
633.372	12.46991
633.565	12.63822
633.758	16.29946
633.952	10.59823
634.145	10.34427
634.338	12.10014
634.531	11.19753
634.724	10.91391
634.918	12.69082
635.111	11.82267
635.304	11.20675
635.497	18.19371
635.69	13.72157
635.883	15.97937
636.077	9.38547
636.27	14.4961
636.463	13.31362
636.656	14.15078
636.849	11.64117
637.042	14.18538
637.235	17.61944
637.428	15.18074
637.621	14.83406
637.814	17.32135
638.007	18.24247
638.2	18.51165
638.393	19.78606
638.586	9.6085
638.778	12.5444
638.971	13.69133
639.164	19.37706
639.357	15.32797
639.55	18.31432
639.743	16.56961
639.935	16.56294
640.128	20.23133
640.321	16.53886
640.514	14.84754
640.707	21.82064
640.899	16.99894
641.092	9.33177
641.285	37.5975
641.477	7.62009
641.67	22.26914
641.863	18.97388
642.055	15.36996
642.248	15.03035
642.441	13.92702
642.633	16.30045
642.826	20.23983
643.018	19.61096
643.211	21.07007
643.403	20.11896
643.596	23.07478
643.788	21.46102
643.981	14.24793
644.173	18.5278
644.366	14.57555
644.558	9.75181
644.751	18.76118
644.943	10.93154
645.135	21.67834
645.328	21.9318
645.52	18.66619
645.712	18.89384
645.905	27.58891
646.097	12.0817
646.289	16.62618
646.482	22.45187
646.674	14.04923
646.866	19.54081
647.058	17.94218
647.251	12.41705
647.443	13.61494
647.635	15.69597
647.827	12.14078
648.019	12.15073
648.211	16.39283
648.404	16.91912
648.596	21.98914
648.788	16.78982
648.98	17.56057
649.172	18.05842
649.364	17.85835
649.556	10.41566
649.748	25.8076
649.94	13.69235
650.132	17.83932
650.324	13.59591
650.516	13.88905
650.708	20.20211
650.9	11.27833
651.092	10.51619
651.284	10.69174
651.476	12.20624
651.667	17.96646
651.859	20.64382
652.051	15.95597
652.243	16.32301
652.435	14.26784
652.627	17.36259
652.818	17.47029
653.01	10.54737
653.202	13.09073
653.394	15.07463
653.585	18.1246
653.777	33.92106
653.969	21.24189
654.16	20.86727
654.352	12.7612
654.544	16.6216
654.735	21.34832
654.927	17.48137
655.118	23.07877
655.31	20.0117
655.502	21.00182
655.693	15.61993
655.885	19.9122
656.076	23.29307
656.268	17.79821
656.459	22.36874
656.651	22.38387
656.842	15.37386
657.034	14.46874
657.225	20.40195
657.416	22.6783
657.608	22.64836
657.799	16.09875
657.99	21.499
658.182	14.20303
658.373	14.61508
658.564	19.35576
658.756	16.5472
658.947	15.36844
659.138	12.35172
659.33	13.71851
659.521	12.80902
659.712	14.85243
659.903	14.13049
660.094	12.72092
660.286	9.34483
660.477	21.96579
660.668	17.73633
660.859	15.92212
661.05	10.66848
661.241	18.48473
661.432	18.62948
661.623	16.20884
661.814	14.96111
662.006	10.2659
662.197	18.99552
662.388	22.11809
662.579	18.68931
662.77	24.03029
662.96	29.13037
663.151	21.63284
663.342	10.64954
663.533	20.19105
663.724	17.81134
663.915	25.10835
664.106	18.18462
664.297	26.83921
664.488	21.84166
664.678	17.16775
664.869	21.55064
665.06	22.23361
665.251	20.36024
665.442	21.77976
665.632	15.56332
665.823	28.0747
666.014	6.73972
666.204	22.23004
666.395	25.82533
666.586	32.26186
666.776	23.47879
666.967	27.75813
667.158	19.53337
667.348	26.74872
667.539	14.61785
667.729	24.05245
667.92	16.29017
668.111	24.246
668.301	22.17474
668.492	18.20514
668.682	19.43041
668.873	17.43726
669.063	14.21372
669.253	19.85758
669.444	23.46972
669.634	19.00986
669.825	27.94632
670.015	23.70911
670.206	16.25898
670.396	29.51872
670.586	19.42713
670.777	22.18749
670.967	10.645
671.157	19.10538
671.347	17.48229
671.538	26.88459
671.728	22.78449
671.918	29.83933
672.108	26.10425
672.299	20.59752
672.489	22.59727
672.679	18.13156
672.869	24.39405
673.059	28.23818
673.249	23.06944
673.44	16.59183
673.63	20.34913
673.82	25.29942
674.01	16.43469
674.2	22.98857
674.39	35.77597
674.58	23.99153
674.77	22.5436
674.96	21.24374
675.15	42.30866
675.34	26.86181
675.53	22.04753
675.72	20.07797
675.91	14.39439
676.099	30.54432
676.289	32.72748
676.479	26.89604
676.669	19.83111
676.859	25.05945
677.049	17.16876
677.238	22.13002
677.428	31.28651
677.618	20.90116
677.808	26.64667
677.997	24.39045
678.187	15.67558
678.377	22.15999
678.567	19.5203
678.756	19.68556
678.946	20.28097
679.136	14.65392
679.325	16.60337
679.515	16.32985
679.704	14.518
679.894	22.74728
680.084	20.8595
680.273	26.13662
680.463	15.38176
680.652	15.41378
680.842	19.02874
681.031	23.88718
681.221	15.87826
681.41	22.62733
681.6	19.15843
681.789	24.05615
681.978	26.0936
682.168	21.61232
682.357	22.413
682.547	23.92372
682.736	22.01394
682.925	27.45995
683.115	27.2293
683.304	25.60314
683.493	23.71941
683.682	25.12116
683.872	24.39314
684.061	30.52356
684.25	26.91069
684.439	33.63648
684.629	27.47293
684.818	43.3235
685.007	23.90747
685.196	22.26272
685.385	32.28516
685.574	26.92086
685.763	26.30379
685.952	24.50305
686.142	18.64399
686.331	33.17031
686.52	14.60618
686.709	33.52614
686.898	32.92057
687.087	28.47635
687.276	34.33877
687.465	30.55539
687.654	22.71595
687.842	33.99469
688.031	16.96807
688.22	32.36581
688.409	26.52026
688.598	26.50645
688.787	39.76736
688.976	25.8296
689.165	35.73777
689.353	22.81372
689.542	27.99627
689.731	29.95732
689.92	37.3207
690.108	32.26433
690.297	22.74132
690.486	27.15441
690.675	31.83678
690.863	36.96865
691.052	37.10374
691.241	29.96139
691.429	29.10584
691.618	36.37042
691.806	20.95013
691.995	25.22028
692.184	28.29885
692.372	24.90265
692.561	28.12248
692.749	27.18274
692.938	42.72304
693.126	32.44153
693.315	24.82406
693.503	31.9734
693.692	32.64489
693.88	35.20142
694.068	43.00481
694.257	28.32139
694.445	32.12427
694.634	16.85481
694.822	36.72234
695.01	37.65
695.199	37.90704
695.387	40.52228
695.575	37.88624
695.763	30.03827
695.952	27.27952
696.14	19.21429
696.328	25.30213
696.516	30.24622
696.705	30.92082
696.893	30.77459
697.081	16.87656
697.269	32.6072
697.457	21.8749
697.645	19.68571
697.833	33.13979
698.021	21.67943
698.21	22.56126
698.398	24.37251
698.586	17.96236
698.774	16.53491
698.962	21.6705
699.15	17.4061
699.338	14.30642
699.526	24.8932
699.714	19.20169
699.901	20.41383
700.089	28.26749
700.277	19.57111
700.465	22.79517
700.653	28.94601
700.841	29.22005
701.029	21.39908
701.217	34.32714
701.404	27.8668
701.592	37.60863
701.78	40.96003
701.968	25.93385
702.155	27.36165
702.343	20.94608
702.531	39.69925
702.718	33.58476
702.906	29.0176
703.094	27.29225
703.281	40.4399
703.469	29.93605
703.657	40.90499
703.844	56.43575
704.032	43.07197
704.219	27.5661
704.407	35.20046
704.595	42.38555
704.782	35.89336
704.97	30.70595
705.157	29.92196
705.345	46.32566
705.532	53.89957
705.719	36.87966
705.907	45.08429
706.094	34.98464
706.282	47.24119
706.469	31.15898
706.656	34.80476
706.844	32.81956
707.031	41.66355
707.218	35.19686
707.406	47.433
707.593	41.13257
707.78	38.56456
707.968	32.51306
708.155	26.66872
708.342	39.73566
708.529	38.83245
708.716	36.01056
708.904	49.62024
709.091	40.02556
709.278	26.90523
709.465	50.14672
709.652	50.33101
709.839	46.40968
710.026	38.38664
710.213	22.27284
710.4	38.7224
710.587	42.9763
710.774	42.95825
710.961	44.23394
711.148	36.50887
711.335	45.43882
711.522	34.15078
711.709	38.99861
711.896	54.66665
712.083	43.95909
712.27	28.30206
712.457	37.81606
712.644	24.92788
712.831	53.55389
713.017	37.66082
713.204	42.30427
713.391	31.54108
713.578	48.59318
713.765	47.78237
713.951	40.99345
714.138	65.50159
714.325	44.87048
714.512	38.13201
714.698	31.73943
714.885	52.56544
715.072	41.031
715.258	40.54785
715.445	33.18018
715.631	50.48804
715.818	17.00926
716.005	32.4822
716.191	42.4661
716.378	35.5201
716.564	45.8366
716.751	30.435
716.937	32.99879
717.124	48.50683
717.31	31.88727
717.497	52.6789
717.683	31.99299
717.869	60.87956
718.056	36.15173
718.242	45.95659
718.429	39.78933
718.615	30.61969
718.801	42.38149
718.988	50.95696
719.174	45.51548
719.36	40.00214
719.547	55.80599
719.733	44.77229
719.919	46.01791
720.105	51.05164
720.291	42.08769
720.478	44.90776
720.664	40.9756
720.85	40.02445
721.036	75.59342
721.222	59.99587
721.408	43.37135
721.595	67.69955
721.781	64.06523
721.967	57.14315
722.153	62.92418
722.339	53.24154
722.525	51.03745
722.711	36.01904
722.897	32.3293
723.083	42.97125
723.269	58.56914
723.455	73.96785
723.641	78.50962
723.827	50.18359
724.012	54.69726
724.198	42.84609
724.384	62.09359
724.57	51.9611
724.756	32.38607
724.942	27.80213
725.127	58.15754
725.313	65.41898
725.499	63.31656
725.685	69.98752
725.87	52.46436
726.056	39.28662
726.242	63.32409
726.428	31.51868
726.613	60.29238
726.799	44.37527
726.985	36.22187
727.17	32.09193
727.356	67.29153
727.541	39.64829
727.727	44.18729
727.913	56.27732
728.098	41.02931
728.284	56.41886
728.469	32.418
728.655	38.12778
728.84	55.2619
729.026	56.65281
729.211	57.87562
729.397	50.06311
729.582	54.45405
729.767	46.36464
729.953	51.76156
730.138	59.67787
730.323	23.90261
730.509	34.87885
730.694	65.31814
730.879	51.51116
731.065	48.06955
731.25	74.28053
731.435	54.30401
731.621	31.01914
731.806	40.87435
731.991	50.76841
732.176	31.69623
732.361	63.39008
732.547	50.67361
732.732	29.8201
732.917	73.55132
733.102	33.96485
733.287	38.59787
733.472	47.39837
733.657	48.14793
733.842	29.68857
734.027	43.47549
734.212	45.59601
734.397	39.00784
734.582	47.45288
734.767	56.30742
734.952	63.47146
735.137	19.83841
735.322	65.03488
735.507	52.3471
735.692	53.20697
735.877	77.30462
736.062	70.84313
736.247	54.64083
736.431	50.74729
736.616	68.65327
736.801	55.15094
736.986	51.93597
737.171	43.73759
737.355	40.02614
737.54	67.17618
737.725	51.71529
737.909	92.07367
738.094	45.55379
738.279	64.3537
738.463	48.55301
738.648	64.01866
738.833	58.09955
739.017	79.08431
739.202	50.32018
739.386	54
739.571	42.08659
739.756	61.7725
739.94	52.02939
740.125	64.16663
740.309	42.15752
740.494	62.67697
740.678	54.62824
740.863	60.53549
741.047	57.1162
741.231	71.41714
741.416	41.73669
741.6	77.58512
741.785	45.98908
741.969	66.50546
742.153	72.04294
742.338	27.05975
742.522	56.47876
742.706	66.62095
742.89	41.09232
743.075	56.37915
743.259	77.55254
743.443	69.10681
743.627	74.03109
743.812	91.9024
743.996	33.16278
744.18	53.63916
744.364	49.61111
744.548	97.28947
744.732	55.03649
744.916	69.03563
745.1	67.5054
745.285	53.48474
745.469	64.845
745.653	85.96901
745.837	36.02968
746.021	98.20891
746.205	78.41273
746.389	61.30467
746.573	54.4435
746.757	85.71789
746.94	51.43134
747.124	80.42004
747.308	42.46401
747.492	78.50301
747.676	48.69245
747.86	100.63223
748.044	53.74066
748.227	32.99067
748.411	123.68445
748.595	63.482
748.779	45.61702
748.963	67.43139
749.146	61.03112
749.33	48.80125
749.514	44.29618
749.697	80.36871
749.881	50.99351
750.065	45.48911
750.248	62.74092
750.432	101.70348
750.616	60.84332
750.799	40.19038
750.983	97.34456
751.166	110.02938
751.35	38.85275
751.533	80.09163
751.717	81.21774
751.9	90.2448
752.084	54.08889
752.267	44.50898
752.451	45.94486
752.634	60.83427
752.818	71.5532
753.001	76.82099
753.184	77.65722
753.368	68.01073
753.551	12.96847
753.734	47.93494
753.918	96.58661
754.101	51.00924
754.284	72.65868
754.467	55.61367
754.651	50.41074
754.834	49.97303
755.017	79.4777
755.2	76.52922
755.384	41.27571
755.567	72.74789
755.75	79.32556
755.933	56.74844
756.116	65.9476
756.299	54.049
756.482	48.67072
756.665	70.821
756.848	61.26842
757.032	69.5714
757.215	42.37145
757.398	48.98572
757.581	51.82089
757.764	112.70515
757.947	62.93112
758.129	83.92191
758.312	20.40279
758.495	62.95772
758.678	59.37835
758.861	57.53244
759.044	102.49123
759.227	51.93494
759.41	49.03848
759.592	73.92514
759.775	62.71697
759.958	83.35033
760.141	44.48026
760.324	104.49619
760.506	90.53224
760.689	78.228
760.872	111.6855
761.054	70.23084
761.237	60.29434
761.42	71.65745
761.602	81.58584
761.785	69.5663
761.968	82.33852
762.15	99.69122
762.333	60.99355
762.515	71.16015
762.698	53.67588
762.88	78.0785
763.063	70.53442
763.245	78.41682
763.428	45.28406
763.61	49.2288
763.793	37.4028
763.975	58.63687
764.158	49.15855
764.34	46.10394
764.522	39.06835
764.705	46.73512
764.887	70.02248
765.069	31.64062
765.252	63.87677
765.434	67.06962
765.616	55.26237
765.799	46.80817
765.981	72.34096
766.163	45.57813
766.345	73.63155
766.528	52.15079
766.71	24.41606
766.892	63.30135
767.074	84.09871
767.256	57.1768
767.438	97.43809
767.62	68.1637
767.802	107.29274
767.985	78.24078
768.167	101.08966
768.349	54.54587
768.531	76.29598
768.713	79.32036
768.895	87.32644
769.077	76.95166
769.259	121.00819
769.441	183.98552
769.623	88.9203
769.804	106.89102
769.986	103.17768
770.168	128.8905
770.35	156.15018
770.532	114.12518
770.714	123.69259
770.896	124.75595
771.077	53.29577
771.259	121.90765
771.441	100.67126
771.623	141.20688
771.804	175.68604
771.986	46.1443
772.168	80.63223
772.35	132.13394
772.531	177.17695
772.713	99.84236
772.894	141.61927
773.076	97.43037
773.258	88.86579
773.439	141.36116
773.621	162.51904
773.802	70.37557
773.984	86.12972
774.166	106.19214
774.347	147.67585
774.529	138.57531
774.71	45.54314
774.891	100.70424
775.073	85.21926
775.254	149.60481
775.436	81.2905
775.617	175.86207
775.799	87.81267
775.98	154.26811
776.161	162.27296
776.343	163.5585
776.524	96.93045
776.705	90.14035
776.886	48.05143
777.068	115.73862
777.249	215.29424
777.43	184.87717
777.611	66.21152
777.793	88.73496
777.974	158.75895
778.155	87.62462
778.336	76.62387
778.517	189.36645
778.698	78.3603
778.879	47.04937
779.061	28.20138
779.242	117.72068
779.423	126.08848
779.604	85.33409
779.785	99.91581
779.966	110.72566
780.147	138.7506
780.328	145.6263
780.509	209.17878
780.69	129.3775
780.871	79.06677
781.051	59.05479
781.232	113.68451
781.413	106.29094
781.594	93.64638
781.775	88.48282
781.956	82.32644
782.137	46.49152
782.317	79.61324
782.498	117.63532
782.679	103.49241
782.86	107.20872
783.04	81.75703
783.221	118.85571
783.402	184.87154
783.583	105.38433
783.763	131.23021
783.944	88.96237
784.124	59.02659
784.305	167.10606
784.486	125.07405
784.666	98.66709
784.847	57.06422
785.027	209.64231
785.208	77.91105
785.388	85.77354
785.569	85.97785
785.749	91.32516
785.93	85.74788
786.11	57.49364
786.291	118.03723
786.471	113.64324
786.652	137.31875
786.832	102.66218
787.012	120.65319
787.193	69.70785
787.373	107.39597
787.553	88.75672
787.734	119.0664
787.914	93.94366
788.094	125.10846
788.275	116.51293
788.455	93.53009
788.635	64.02086
788.815	113.26032
788.995	69.76841
789.176	55.27403
789.356	76.11714
789.536	94.47305
789.716	121.75585
789.896	72.25332
790.076	82.96808
790.256	109.32555
790.436	35.54191
790.616	75.54715
790.796	107.02695
790.976	83.83557
791.156	77.48339
791.336	124.72117
791.516	117.78804
791.696	93.02107
791.876	58.93522
792.056	107.97204
792.236	132.20567
792.416	128.52926
792.596	120.47825
792.776	126.03646
792.956	120.2609
793.135	160.94944
793.315	69.55181
793.495	145.46976
793.675	125.23218
793.854	136.06396
794.034	139.52978
794.214	63.72601
794.394	129.09774
794.573	148.80839
794.753	107.96772
794.933	73.5791
795.112	111.82283
795.292	138.90359
795.472	183.2692
795.651	64.40755
795.831	104.02311
796.01	93.59423
796.19	95.57728
796.369	100.01802
796.549	119.73836
796.728	94.10871
796.908	59.83639
797.087	67.56099
797.267	91.3862
797.446	66.79983
797.626	120.87719
797.805	116.20768
797.984	75.82254
798.164	124.79408
798.343	72.07716
798.522	110.79606
798.702	101.71005
798.881	67.00926
799.06	94.57833
799.239	46.33647
799.419	74.65466
799.598	158.05582
799.777	122.94948
799.956	148.48761
800.136	88.27404
800.315	75.63861
800.494	118.91557
800.673	147.28249
800.852	121.26507
801.031	147.96167
801.21	123.20397
801.389	91.33693
801.568	108.02197
801.747	175.62294
801.926	104.61513
802.105	160.80916
802.284	88.88664
802.463	164.84272
802.642	110.69669
802.821	116.80805
803	162.02081
803.179	141.39011
803.358	151.4974
803.537	85.88432
803.716	108.74671
803.895	84.36393
804.073	102.14509
804.252	84.07852
804.431	123.63199
804.61	97.04394
804.789	151.71023
804.967	83.00224
805.146	83.40961
805.325	184.85125
805.503	127.13041
805.682	57.951
805.861	210.957
806.039	160.88761
806.218	91.87848
806.397	111.90279
806.575	110.57384
806.754	120.41086
806.932	78.09409
807.111	164.73035
807.289	146.39071
807.468	107.34173
807.646	148.96571
807.825	131.71974
808.003	113.31341
808.182	141.32415
808.36	111.98577
808.539	75.89411
808.717	170.89788
808.895	82.58532
809.074	120.34483
809.252	104.91152
809.43	131.95202
809.609	154.16522
809.787	184.66016
809.965	103.89888
810.144	113.27196
810.322	96.81661
810.5	134.67165
810.678	99.6089
810.856	201.61716
811.035	153.27351
811.213	128.80669
811.391	178.26791
811.569	121.37324
811.747	243.73751
811.925	160.80049
812.103	86.10336
812.281	111.68765
812.459	195.22175
812.637	191.0654
812.816	149.60261
812.994	202.5588
813.171	160.02523
813.349	136.40635
813.527	165.0634
813.705	175.05493
813.883	229.15186
814.061	157.06729
814.239	197.436
814.417	219.23213
814.595	138.42952
814.773	128.17101
814.95	131.85979
815.128	140.78898
815.306	121.22239
815.484	110.39392
815.662	87.72748
815.839	86.18134
816.017	92.29432
816.195	174.16864
816.372	101.86549
816.55	154.37036
816.728	189.67336
816.905	106.61156
817.083	201.64107
817.261	113.03763
817.438	237.24283
817.616	207.16019
817.793	97.80925
817.971	157.04098
818.148	144.69923
818.326	187.86174
818.503	132.77296
818.681	192.90688
818.858	109.74717
819.036	122.54081
819.213	131.11471
819.391	94.49944
819.568	92.46388
819.745	85.18082
819.923	153.37999
820.1	98.5557
820.277	87.08854
820.455	103.82357
820.632	109.38787
820.809	111.56366
820.986	69.91589
821.164	57.67778
821.341	50.10654
821.518	68.94302
821.695	50.10565
821.872	46.63283
822.05	39.44859
822.227	28.09071
822.404	28.60187
822.581	31.66111
822.758	25.24281
822.935	24.79143
823.112	28.61263
823.289	21.00887
823.466	26.93758
823.643	23.29315
823.82	28.84176
823.997	24.7832
824.174	29.54224
824.351	39.25705
824.528	38.04655
824.705	35.43015
824.882	39.86888
825.059	55.27413
825.236	38.98741
825.412	42.48179
825.589	56.66294
825.766	79.45374
825.943	53.45035
826.12	66.24919
826.296	44.56921
826.473	59.16373
826.65	60.53576
826.827	79.88487
827.003	50.05691
827.18	53.32163
827.357	60.23612
827.533	52.5656
827.71	26.18326
827.887	41.73046
828.063	47.74762
828.24	40.04864
828.416	54.70583
828.593	41.34685
828.769	58.60574
828.946	67.10283
829.122	68.23455
829.299	61.66773
829.475	37.11928
829.652	66.2214
829.828	122.33558
830.005	76.70608
830.181	108.87538
830.357	79.60617
830.534	120.26767
830.71	91.32252
830.886	118.86103
831.063	115.37168
831.239	155.88893
831.415	70.88876
831.592	169.41576
831.768	104.35054
831.944	89.80658
832.12	184.28064
832.296	160.22571
832.473	147.26886
832.649	106.87351
832.825	137.80585
833.001	81.40593
833.177	134.9634
833.353	114.5693
833.529	60.83351
833.705	86.00678
833.881	62.2049
834.058	56.49386
834.234	61.98733
834.41	59.73141
834.586	44.76368
834.761	57.25692
834.937	57.8643
835.113	59.70991
835.289	49.9748
835.465	61.71653
835.641	51.04306
835.817	60.61954
835.993	108.74746
836.169	54.58938
836.344	81.81604
836.52	94.23491
836.696	102.24116
836.872	73.86556
837.048	211.58377
837.223	89.16422
837.399	181.42994
837.575	139.971
837.75	140.75047
837.926	190.21149
838.102	337.81903
838.277	246.61232
838.453	318.38802
838.628	321.98877
838.804	129.49422
838.98	329.86145
839.155	151.18937
839.331	213.75504
839.506	157.94527
839.682	157.29277
839.857	204.96393
840.033	232.93239
840.208	110.41004
840.384	58.60096
840.559	113.90375
840.734	161.07389
840.91	255.76095
841.085	138.5958
841.26	135.1887
841.436	112.46753
841.611	111.11401
841.786	169.84544
841.962	252.0442
842.137	151.08892
842.312	92.1233
842.487	123.8068
842.663	120.06656
842.838	122.193
843.013	519.72243
843.188	227.6093
843.363	195.03329
843.538	439.48304
843.714	431.38294
843.889	441.43811
844.064	442.96815
844.239	351.3617
844.414	464.18033
844.589	285.44928
844.764	579.71521
844.939	599.78855
845.114	777.37467
845.289	658.47872
845.464	714.22801
845.639	599.95074
845.814	259.15365
845.989	303.52062
846.163	355.68655
846.338	449.85926
846.513	702.21608
846.688	422.59321
846.863	346.85128
847.038	296.99353
847.212	347.47273
847.387	449.83501
847.562	545.75536
847.737	658.57303
847.911	179.01892
848.086	238.92556
848.261	828.05576
848.435	341.18082
848.61	593.06961
848.785	252.32032
848.959	528.36205
849.134	839.80638
849.308	1207.37594
849.483	349.36514
849.658	644.28015
849.832	341.4225
850.007	268.51411
850.181	1361.03652
850.356	264.1774
850.53	988.79782
850.705	253.10262
850.879	175.23855
851.053	339.22729
851.228	344.24167
851.402	597.95106
851.577	573.79427
851.751	1256.51395
851.925	518.08115
852.099	183.35008
852.274	286.78515
852.448	370.55078
852.622	594.84861
852.797	383.15848
852.971	396.00597
853.145	424.92165
853.319	3206.21512
853.493	623.51765
853.668	337.27867
853.842	915.76283
854.016	689.05797
854.19	735.48924
854.364	457.14528
854.538	482.47064
854.712	817.05195
854.886	384.0964
855.06	372.70178
855.234	140.79783
855.408	858.99946
855.582	779.83818
855.756	831.02382
855.93	905.66201
856.104	410.5235
856.278	721.92806
856.452	397.24121
856.626	566.53412
856.8	1878.50336
856.973	574.76341
857.147	539.57421
857.321	644.73751
857.495	710.0402
857.669	478.50854
857.842	416.95324
858.016	609.3713
858.19	272.71744
858.364	3149.42437
858.537	380.12861
858.711	412.72004
858.885	396.26153
859.058	348.49419
859.232	165.84196
859.405	251.19332
859.579	743.96877
859.753	540.15313
859.926	340.49908
860.1	218.01502
860.273	572.18321
860.447	811.94512
860.62	413.88243
860.794	1406.54165
860.967	512.77077
861.141	923.75835
861.314	1980.76616
861.487	596.16535
861.661	991.10101
861.834	1165.62091
862.008	754.74468
862.181	543.52075
862.354	469.25844
862.528	710.25455
862.701	374.51183
862.874	262.50449
863.047	442.30841
863.221	305.09714
863.394	197.92561
863.567	1398.08796
863.74	122.21293
863.913	972.93852
864.087	635.8307
864.26	1047.03607
864.433	409.29037
864.606	1409.04462
864.779	456.82703
864.952	214.04793
865.125	407.87199
865.298	507.80829
865.471	432.06294
865.644	1270.02869
865.817	770.27277
865.99	792.15361
866.163	1136.95952
866.336	397.83245
866.509	403.72473
866.682	379.85087
866.855	772.41018
867.028	259.82974
867.2	532.97022
867.373	144.39308
867.546	502.66184
867.719	1487.73082
867.892	664.33436
868.064	304.21068
868.237	531.56085
868.41	486.78711
868.583	247.38249
868.755	283.27313
868.928	422.2823
869.101	1517.86375
869.273	901.8394
869.446	778.80264
869.619	1179.5379
869.791	494.06175
869.964	974.01112
870.136	872.72545
870.309	578.73062
870.481	512.61109
870.654	234.01974
870.826	622.57763
870.999	337.5147
871.171	624.69
871.344	389.95889
871.516	434.5551
871.689	329.09889
871.861	609.10061
872.033	326.03316
872.206	370.07884
872.378	733.15575
872.55	464.45434
872.723	272.27368
872.895	468.79744
873.067	864.41946
873.24	719.88845
873.412	379.95819
873.584	458.42648
873.756	437.68112
873.928	538.19919
874.101	600.17454
874.273	696.52692
874.445	203.15425
874.617	242.13459
874.789	529.45602
874.961	390.87187
875.133	650.64057
875.305	414.2413
875.477	267.29879
875.649	220.90012
875.821	304.05619
875.993	1139.5676
876.165	324.01688
876.337	538.35322
876.509	447.64211
876.681	515.0279
876.853	587.13464
877.025	533.56733
877.197	293.342
877.369	290.61425
877.541	772.14301
877.712	131.57832
877.884	242.20419
878.056	519.49345
878.228	352.36372
878.4	568.92364
878.571	292.61033
878.743	195.21921
878.915	511.94289
879.086	260.84123
879.258	376.76115
879.43	323.10373
879.601	267.03013
879.773	312.55945
879.945	73.25493
880.116	120.51831
880.288	74.35465
880.459	85.03766
880.631	60.95144
880.802	74.06716
880.974	63.71699
881.145	44.05884
881.317	58.53529
881.488	40.41327
881.66	44.10829
881.831	38.56271
882.002	51.63876
882.174	34.8823
882.345	44.40129
882.517	21.66432
882.688	51.29084
882.859	37.59284
883.03	60.53685
883.202	59.65821
883.373	48.84396
883.544	45.42311
883.715	78.56529
883.887	69.10462
884.058	58.69541
884.229	86.78676
884.4	91.80602
884.571	113.42758
884.742	96.0741
884.914	102.51114
885.085	160.45614
885.256	237.6931
885.427	179.43042
885.598	221.54331
885.769	239.64352
885.94	228.472
886.111	152.56249
886.282	323.29051
886.453	243.70508
886.624	170.24049
886.795	356.28589
886.966	242.47674
887.136	337.9387
887.307	215.52468
887.478	500.30477
887.649	414.03471
887.82	451.49824
887.991	340.98226
888.161	429.23012
888.332	454.74743
888.503	207.00679
888.674	688.78057
888.844	936.70763
889.015	566.38858
889.186	224.36703
889.356	762.99994
889.527	198.99962
889.698	4696.3877
889.868	367.63698
890.039	521.8017
890.209	421.6864
890.38	619.65813
890.551	568.5584
890.721	747.03257
890.892	715.41221
891.062	475.05319
891.233	566.55599
891.403	468.48526
891.574	252.60473
891.744	438.35229
891.914	509.41999
892.085	541.61461
892.255	139.52362
892.425	1124.30083
892.596	592.49297
892.766	603.26634
892.936	851.0155
893.107	732.30781
893.277	311.63188
893.447	276.17739
893.618	192.20887
893.788	476.74099
893.958	238.63921
894.128	205.49217
894.298	250.27787
894.468	375.63139
894.639	164.50282
894.809	97.57495
894.979	154.12141
895.149	185.72358
895.319	137.29084
895.489	190.92927
895.659	248.72738
895.829	143.22037
895.999	150.753
896.169	107.31824
896.339	138.42293
896.509	260.25117
896.679	295.77688
896.849	293.37169
897.019	428.51812
897.189	292.75613
897.358	298.75835
897.528	427.34768
897.698	150.48808
897.868	399.28999
898.038	1226.75059
898.208	1002.25547
898.377	195.58589
898.547	1202.08035
898.717	2683.05428
898.886	557.37224
899.056	1057.74458
899.226	2271.42252
899.395	1000.68418
899.565	1145.41084
899.735	676.50148
899.904	2344.45727
900.074	2236.87727
900.244	489.98001
900.413	2958.05276
900.583	366.69376
900.752	670.46097
900.922	-5439.00344
901.091	75.81558
901.261	1263.65886
901.43	1072.34181
901.599	820.78446
901.769	-14426.22814
901.938	1985.05765
902.108	4604.0107
902.277	7727.16398
902.446	424.41139
902.616	452.29064
902.785	587.4939
902.954	2660.16153
903.124	1298.00269
903.293	675.2321
903.462	311.93261
903.631	468.67472
903.801	390.34261
903.97	156.63619
904.139	278.15537
904.308	188.43425
904.477	168.54151
904.646	89.80315
904.816	124.90911
904.985	197.21263
905.154	289.1419
