Data from WindowProjectSample_Transmission__39__00039.txt Node

Date: Sat May 03 16:26:59 EDT 2025
User: jessi
Spectrometer: SR400872
Trigger mode: 0
Integration Time (sec): 5.000010E-1
Scans to average: 6
Electric dark correction enabled: true
Nonlinearity correction enabled: true
Boxcar width: 0
XAxis mode: Wavelengths
Number of Pixels in Spectrum: 3648
>>>>>Begin Spectral Data<<<<<
184.909	181724.27362
185.132	1659.05784
185.355	-2076.44024
185.578	3305.1287
185.801	-517.60962
186.024	6465.09006
186.247	1086.26422
186.47	963.43857
186.693	-387.56554
186.916	316.38475
187.139	10306.55187
187.362	3789.79955
187.585	2723.45687
187.808	-1415.51149
188.031	220.50088
188.254	7110.5864
188.476	616.6463
188.699	-4457.11509
188.922	-545.58433
189.145	-4364.40793
189.368	-444.73683
189.591	-839.38114
189.813	-2058.97928
190.036	5054.43728
190.259	2811.33933
190.482	2467.88014
190.705	8382.11827
190.927	-1749.74352
191.15	-1538.56904
191.373	4811.42257
191.595	-1856.45574
191.818	9497.51789
192.041	-192.32451
192.263	-2536.59745
192.486	-1030.22038
192.709	9248.80236
192.931	-2718.01804
193.154	-1991.52792
193.377	4779.38834
193.599	5808.55475
193.822	-1882.87402
194.044	-2064.7078
194.267	662.14149
194.489	411.3817
194.712	2156.80132
194.934	3397.30146
195.157	-8458.60298
195.379	2143.03759
195.602	5249.24906
195.824	5686.17895
196.047	-10215.44978
196.269	-10862.22007
196.492	-1187.6219
196.714	-5576.1638
196.936	4579.65213
197.159	-2600.09027
197.381	-553.48762
197.604	1212.2505
197.826	-3454.5473
198.048	-1441.53131
198.271	-12395.21026
198.493	9769.42362
198.715	-2577.96824
198.938	-933.8331
199.16	-4048.82642
199.382	1744.14643
199.604	-1575.28815
199.827	-1425.13416
200.049	-4260.72487
200.271	2305.03007
200.493	-25394.20369
200.715	5057.81407
200.938	12868.27355
201.16	-238897.51014
201.382	-5504.80947
201.604	-1075.76635
201.826	-7088.38149
202.048	-6405.86068
202.27	-4397.42188
202.492	-3682.90328
202.715	-1452.7637
202.937	-3633.32187
203.159	1124.43073
203.381	-91453.02532
203.603	-1014.58476
203.825	-1385.38421
204.047	2470.64546
204.269	-875.98542
204.491	6685.49025
204.713	-8472.0637
204.935	40338.28794
205.156	2045.8997
205.378	-7943.29033
205.6	-1582.60928
205.822	6337.60695
206.044	-254.59293
206.266	-1902.50476
206.488	785.46864
206.71	-530911.5497
206.932	-14943.30737
207.153	11354.47356
207.375	-2299.26207
207.597	15709.17925
207.819	1721.66902
208.041	6437.975
208.262	620.15459
208.484	-976.17226
208.706	-904.96989
208.927	10905.3092
209.149	-7644.56706
209.371	-2600.23169
209.593	-1992.08305
209.814	-3397.88588
210.036	2159.07489
210.258	-633.135
210.479	1724.79378
210.701	818.76647
210.922	4030.5118
211.144	-1374.81507
211.366	5724.49415
211.587	-615.95612
211.809	-3468.40247
212.03	-2101.77516
212.252	-471.19556
212.473	2809.98123
212.695	-669.83789
212.916	-884.68314
213.138	804.5633
213.359	-1248.5496
213.581	-3330.20849
213.802	-1133.43038
214.024	10983.37176
214.245	-1093.17723
214.466	-124.84135
214.688	-3970.79247
214.909	-817.49281
215.131	8858.00763
215.352	-1186.92139
215.573	-244168.65692
215.795	4551.77909
216.016	-3977.51056
216.237	-572.87847
216.459	-11798.11324
216.68	-1494.24299
216.901	-1601.81637
217.122	1824.69489
217.344	-8470.00533
217.565	-1607.97282
217.786	23798.71216
218.007	826.50691
218.228	-2893.54833
218.45	-5451.41449
218.671	-1241.91792
218.892	969.11482
219.113	1821.45231
219.334	366.16743
219.555	-5893.68396
219.776	34431.30341
219.997	-6885.07482
220.219	-9231.09982
220.44	-4778.93533
220.661	-1311.3925
220.882	12692.04905
221.103	-882.31321
221.324	2430.35384
221.545	-6856.45942
221.766	-1504.27319
221.987	-422.69957
222.208	1768.70399
222.429	6492.68147
222.65	-120.96867
222.87	-695.95767
223.091	39854.79444
223.312	772.17861
223.533	-2121.27742
223.754	3564.94174
223.975	1697.30461
224.196	-766.95023
224.417	-31489.92344
224.637	-2375.5398
224.858	542.53488
225.079	3601.06567
225.3	1735.80845
225.521	3529.66565
225.741	-2687.70865
225.962	1617.2423
226.183	1093.29922
226.404	1878.57533
226.624	1738.73217
226.845	1420.80161
227.066	2415.98917
227.286	619.26707
227.507	420.02022
227.728	372.28963
227.948	532.92926
228.169	140.64989
228.389	120.40444
228.61	61.57814
228.831	84.42263
229.051	7.00463
229.272	44.45301
229.492	62.75475
229.713	23.91437
229.933	51.87752
230.154	39.29668
230.374	70.90663
230.595	48.87848
230.815	34.00083
231.036	54.50738
231.256	-10.43694
231.477	103.76281
231.697	55.70039
231.917	65.14871
232.138	81.96725
232.358	176.5823
232.579	179.66843
232.799	23.63444
233.019	159.41855
233.24	227.68668
233.46	70.08691
233.68	111.72294
233.901	85.88608
234.121	46.44957
234.341	15.18777
234.561	-5.08694
234.782	34.30203
235.002	121.61578
235.222	-1.12975
235.442	94.31643
235.662	49.18865
235.883	110.27448
236.103	86.92048
236.323	70.15357
236.543	56.31475
236.763	66.83002
236.983	66.55395
237.203	80.98927
237.423	106.60694
237.643	156.75751
237.864	141.44412
238.084	35.7199
238.304	48.99714
238.524	89.9808
238.744	70.53897
238.964	111.95902
239.184	104.34356
239.404	99.29487
239.624	48.78022
239.843	95.86937
240.063	49.37833
240.283	32.03522
240.503	38.78008
240.723	36.08859
240.943	20.04861
241.163	27.78299
241.383	20.93735
241.603	8.46395
241.822	12.3762
242.042	8.40102
242.262	10.43567
242.482	11.72197
242.702	14.59184
242.921	4.61353
243.141	9.92172
243.361	8.05641
243.581	13.10472
243.8	11.19533
244.02	7.79119
244.24	14.63771
244.459	12.81764
244.679	26.02106
244.899	16.79867
245.118	20.43125
245.338	15.67074
245.558	20.88503
245.777	11.52367
245.997	13.17932
246.216	14.05166
246.436	7.29663
246.655	5.38278
246.875	4.22648
247.094	8.12098
247.314	2.8782
247.533	4.41081
247.753	5.90144
247.972	4.27442
248.192	2.00907
248.411	2.72681
248.631	5.12782
248.85	6.33654
249.07	4.7264
249.289	9.13852
249.508	6.70713
249.728	10.18164
249.947	11.2268
250.166	12.81836
250.386	6.68543
250.605	10.29583
250.824	15.0168
251.044	11.77181
251.263	35.50335
251.482	18.21715
251.701	18.33907
251.921	1.13675
252.14	5.98946
252.359	5.37677
252.578	13.29404
252.798	4.95519
253.017	13.29821
253.236	7.27915
253.455	8.95558
253.674	17.47643
253.893	8.20927
254.112	10.77707
254.331	16.23305
254.551	13.95235
254.77	5.46561
254.989	20.44728
255.208	20.13058
255.427	22.36619
255.646	19.3166
255.865	30.36305
256.084	13.91422
256.303	16.75368
256.522	21.13568
256.741	3.78185
256.96	5.37783
257.179	11.41937
257.397	13.91921
257.616	7.80107
257.835	8.14517
258.054	21.6209
258.273	12.85825
258.492	15.53609
258.711	8.9287
258.93	4.03839
259.148	5.42201
259.367	5.37575
259.586	6.98092
259.805	3.29049
260.023	6.69113
260.242	5.06998
260.461	3.78714
260.68	2.23482
260.898	6.01066
261.117	1.76449
261.336	1.38957
261.554	5.47664
261.773	5.02642
261.992	0.85657
262.21	5.2793
262.429	6.27837
262.648	10.41026
262.866	11.73448
263.085	7.50771
263.303	7.38721
263.522	12.77049
263.74	13.20034
263.959	21.07264
264.178	10.82196
264.396	9.73813
264.615	6.78883
264.833	17.29188
265.051	12.90482
265.27	14.87154
265.488	15.36086
265.707	9.23436
265.925	15.89509
266.144	6.59844
266.362	8.35666
266.58	8.67802
266.799	7.3233
267.017	8.52754
267.235	7.37018
267.454	4.99245
267.672	2.97731
267.89	6.15634
268.109	6.77404
268.327	6.03488
268.545	1.84939
268.763	6.28108
268.982	2.18077
269.2	7.79767
269.418	3.76466
269.636	3.69267
269.854	6.21252
270.073	5.52097
270.291	2.73998
270.509	3.21051
270.727	6.0279
270.945	10.07676
271.163	9.70401
271.381	2.69885
271.599	4.01543
271.817	7.09871
272.036	2.40086
272.254	4.44026
272.472	3.67372
272.69	3.5808
272.908	3.4928
273.126	5.97892
273.344	7.55443
273.562	2.7303
273.779	3.54799
273.997	5.30446
274.215	6.14014
274.433	4.28336
274.651	6.19147
274.869	6.81826
275.087	3.81233
275.305	5.63997
275.523	3.77046
275.74	4.48063
275.958	7.78781
276.176	11.13745
276.394	3.64001
276.612	4.90533
276.829	4.53985
277.047	3.86584
277.265	4.59105
277.483	5.05395
277.7	5.81732
277.918	5.0793
278.136	8.93978
278.353	4.34522
278.571	2.32248
278.789	7.03502
279.006	1.64912
279.224	4.31918
279.442	6.67301
279.659	5.10962
279.877	3.87087
280.094	7.79007
280.312	1.39998
280.529	4.50976
280.747	1.48798
280.964	3.55201
281.182	8.506
281.399	3.98852
281.617	5.55403
281.834	3.86314
282.052	3.14693
282.269	4.53209
282.487	3.53462
282.704	2.61717
282.921	3.56892
283.139	4.28778
283.356	5.67002
283.574	5.14038
283.791	2.71332
284.008	7.43711
284.226	4.0155
284.443	4.52687
284.66	5.60403
284.877	4.75057
285.095	2.98766
285.312	2.16799
285.529	1.54276
285.746	1.27269
285.964	2.748
286.181	1.85415
286.398	2.68815
286.615	3.67187
286.832	3.52522
287.05	1.20547
287.267	2.3103
287.484	2.93013
287.701	3.96019
287.918	3.6599
288.135	3.77257
288.352	1.81826
288.569	2.13864
288.786	3.41333
289.003	2.44059
289.22	3.86735
289.437	2.35586
289.654	4.02954
289.871	4.32387
290.088	4.20699
290.305	2.98251
290.522	2.42042
290.739	3.10091
290.956	4.36033
291.173	5.6165
291.39	4.69798
291.607	3.29325
291.824	2.75626
292.04	1.75273
292.257	4.20449
292.474	4.38297
292.691	2.93235
292.908	1.38416
293.125	2.67593
293.341	1.46102
293.558	7.21887
293.775	3.06935
293.992	2.85482
294.208	1.19552
294.425	1.78601
294.642	2.51696
294.858	3.37594
295.075	1.18639
295.292	2.74545
295.508	3.36614
295.725	5.16933
295.942	2.37115
296.158	1.69294
296.375	2.79878
296.591	2.32278
296.808	2.23867
297.024	2.59934
297.241	2.96357
297.458	3.33762
297.674	0.30615
297.891	2.51634
298.107	2.00186
298.323	1.50042
298.54	3.81622
298.756	1.81424
298.973	0.90255
299.189	3.95495
299.406	1.75105
299.622	4.03986
299.838	4.0371
300.055	3.77791
300.271	1.05346
300.487	1.12249
300.704	1.72116
300.92	1.14268
301.136	5.43033
301.353	3.87905
301.569	2.77276
301.785	3.256
302.001	3.61797
302.218	3.24502
302.434	3.35311
302.65	1.16373
302.866	2.19031
303.083	5.42179
303.299	5.0475
303.515	2.64883
303.731	3.1555
303.947	1.10013
304.163	1.6879
304.379	3.17606
304.595	3.57317
304.812	2.04281
305.028	1.92132
305.244	2.2152
305.46	3.81037
305.676	4.07469
305.892	4.60896
306.108	3.13262
306.324	2.22984
306.54	5.22543
306.756	3.46076
306.972	3.58879
307.187	2.51586
307.403	4.83257
307.619	1.87315
307.835	4.29632
308.051	4.79096
308.267	1.17588
308.483	4.12467
308.699	3.42068
308.914	3.14804
309.13	2.70143
309.346	0.87675
309.562	1.4049
309.778	0.93796
309.993	3.41118
310.209	2.59225
310.425	1.00034
310.641	2.47537
310.856	1.39827
311.072	1.31133
311.288	2.62406
311.503	2.8155
311.719	0.54869
311.935	0.43535
312.15	3.13091
312.366	2.73837
312.581	3.25949
312.797	2.81885
313.013	3.63279
313.228	2.04572
313.444	2.68851
313.659	2.09323
313.875	3.16052
314.09	2.47629
314.306	4.02054
314.521	3.858
314.737	3.56232
314.952	3.03294
315.168	2.7897
315.383	3.55941
315.599	2.2618
315.814	2.03325
316.029	3.76559
316.245	1.16288
316.46	1.19082
316.675	4.41544
316.891	5.38048
317.106	6.51917
317.321	3.7619
317.537	3.42114
317.752	3.59744
317.967	3.81289
318.183	2.17886
318.398	2.4762
318.613	4.24605
318.828	4.74545
319.043	3.88525
319.259	2.1766
319.474	3.40716
319.689	4.39808
319.904	0.69829
320.119	3.65152
320.334	3.03525
320.549	2.50179
320.765	3.98305
320.98	3.01685
321.195	4.29478
321.41	2.58287
321.625	3.6448
321.84	5.17978
322.055	5.37872
322.27	1.97506
322.485	1.36555
322.7	3.34782
322.915	4.28355
323.13	1.95543
323.345	4.70031
323.56	4.14321
323.775	3.71456
323.989	3.51983
324.204	3.09084
324.419	3.88737
324.634	1.20148
324.849	2.69842
325.064	5.93974
325.279	4.49922
325.493	3.83155
325.708	4.09494
325.923	1.78989
326.138	1.85975
326.352	4.79672
326.567	3.93971
326.782	2.52388
326.997	1.6909
327.211	3.27894
327.426	3.22082
327.641	2.59697
327.855	1.46954
328.07	3.68718
328.285	4.87126
328.499	2.33683
328.714	3.58233
328.928	3.91434
329.143	3.1136
329.358	4.29166
329.572	4.1663
329.787	4.54929
330.001	6.08611
330.216	0.96263
330.43	5.2883
330.645	5.03145
330.859	3.9974
331.074	2.06286
331.288	3.0925
331.503	4.72161
331.717	1.45799
331.931	2.91769
332.146	2.97399
332.36	5.21293
332.575	3.49441
332.789	3.03917
333.003	2.79058
333.218	3.6596
333.432	2.69608
333.646	3.642
333.86	4.67235
334.075	5.11803
334.289	2.34956
334.503	1.99804
334.717	3.69053
334.932	3.46766
335.146	4.63492
335.36	2.7858
335.574	3.76982
335.788	3.33576
336.003	4.56279
336.217	3.91715
336.431	3.79217
336.645	2.19796
336.859	1.7859
337.073	2.54583
337.287	3.18776
337.501	1.76797
337.715	3.20036
337.929	3.77516
338.143	1.653
338.357	2.69696
338.571	1.87634
338.785	3.44724
338.999	2.24815
339.213	2.58097
339.427	1.2315
339.641	4.11361
339.855	2.83228
340.069	2.21908
340.283	4.2308
340.497	5.01646
340.711	3.39207
340.924	2.46568
341.138	1.73632
341.352	1.32912
341.566	3.01044
341.78	1.04023
341.993	2.20749
342.207	1.72089
342.421	3.11861
342.635	3.27048
342.848	2.31158
343.062	0.38398
343.276	2.13817
343.49	5.62163
343.703	1.89577
343.917	3.80557
344.131	3.95433
344.344	1.89377
344.558	2.16829
344.771	1.8953
344.985	4.19229
345.199	4.73339
345.412	3.15368
345.626	3.13029
345.839	1.05911
346.053	1.56181
346.266	1.52476
346.48	3.75132
346.693	3.12933
346.907	3.3213
347.12	1.61116
347.334	2.89423
347.547	3.15722
347.76	2.66527
347.974	4.19829
348.187	3.06026
348.401	2.46583
348.614	2.1182
348.827	2.36759
349.041	3.22514
349.254	1.06135
349.467	2.52735
349.681	1.24861
349.894	1.83287
350.107	4.25617
350.32	4.52024
350.534	0.9014
350.747	2.27498
350.96	1.74442
351.173	2.03726
351.386	2.43511
351.6	2.21945
351.813	1.87517
352.026	2.76697
352.239	1.37036
352.452	2.34012
352.665	3.55748
352.878	2.46089
353.092	5.1422
353.305	3.09042
353.518	3.11263
353.731	1.56112
353.944	4.09162
354.157	1.81988
354.37	1.74684
354.583	1.27845
354.796	1.0232
355.009	3.84072
355.222	2.53198
355.435	2.71995
355.647	3.69572
355.86	1.48009
356.073	2.22125
356.286	2.05419
356.499	3.43117
356.712	3.03687
356.925	2.96281
357.138	3.7329
357.35	1.33155
357.563	2.07449
357.776	2.41713
357.989	2.23056
358.201	3.06365
358.414	2.47381
358.627	3.8616
358.84	2.15118
359.052	1.39182
359.265	1.21016
359.478	3.44948
359.69	-0.31946
359.903	3.04327
360.116	3.40211
360.328	0.69857
360.541	3.27213
360.753	1.56046
360.966	1.80263
361.179	2.07763
361.391	1.7574
361.604	1.25312
361.816	1.80691
362.029	1.54604
362.241	1.36696
362.454	1.80213
362.666	1.34869
362.879	2.33676
363.091	1.89145
363.304	1.55056
363.516	2.16086
363.728	1.04928
363.941	2.85043
364.153	1.83537
364.366	0.27299
364.578	1.16045
364.79	2.71912
365.003	2.27516
365.215	1.76206
365.427	2.83594
365.639	3.47301
365.852	2.60005
366.064	4.36909
366.276	1.72536
366.488	2.8122
366.701	1.77111
366.913	1.84352
367.125	1.65062
367.337	1.3833
367.549	1.90697
367.762	2.22261
367.974	2.46705
368.186	1.59844
368.398	3.40492
368.61	2.88184
368.822	2.94634
369.034	2.3505
369.246	3.20644
369.458	4.81004
369.67	1.30489
369.882	4.12109
370.094	0.25014
370.306	3.90723
370.518	2.07184
370.73	1.39143
370.942	1.49712
371.154	2.11812
371.366	1.78369
371.578	2.74811
371.79	1.89953
372.002	3.62759
372.214	4.24208
372.425	2.49669
372.637	3.8478
372.849	2.48974
373.061	0.18641
373.273	2.91063
373.484	2.88667
373.696	3.21192
373.908	0.26321
374.12	3.24701
374.331	3.11923
374.543	1.38561
374.755	1.24437
374.967	2.41699
375.178	3.44353
375.39	2.31511
375.602	2.6136
375.813	1.13604
376.025	1.28041
376.236	2.60903
376.448	2.39862
376.66	2.21097
376.871	2.16139
377.083	3.37501
377.294	3.93773
377.506	2.05675
377.717	3.79533
377.929	2.83757
378.14	2.03968
378.352	3.08519
378.563	3.23433
378.775	3.80832
378.986	1.76951
379.197	2.92102
379.409	1.93555
379.62	3.31768
379.832	2.75221
380.043	2.3668
380.254	2.71532
380.466	1.40844
380.677	5.42122
380.888	4.88749
381.1	5.12802
381.311	5.14971
381.522	2.91258
381.733	5.62484
381.945	2.58246
382.156	2.66003
382.367	2.41571
382.578	5.59199
382.789	5.68173
383.001	2.40231
383.212	4.52062
383.423	4.58495
383.634	3.86276
383.845	3.49876
384.056	2.56958
384.267	2.98492
384.478	2.96445
384.69	1.8538
384.901	3.54706
385.112	3.27095
385.323	4.73509
385.534	3.51474
385.745	3.66388
385.956	3.66219
386.167	2.14246
386.378	3.59327
386.588	2.33117
386.799	2.26184
387.01	1.7323
387.221	4.11867
387.432	3.39386
387.643	5.13097
387.854	2.95694
388.065	2.99974
388.275	3.11616
388.486	2.77523
388.697	3.34171
388.908	2.93875
389.119	4.49211
389.329	4.98348
389.54	3.45287
389.751	3.90223
389.962	4.68372
390.172	3.47023
390.383	3.34526
390.594	2.88295
390.804	2.94101
391.015	3.17718
391.226	3.89988
391.436	4.31918
391.647	3.99808
391.858	4.33837
392.068	2.12588
392.279	2.92085
392.489	4.19759
392.7	4.65872
392.91	3.18519
393.121	3.22933
393.331	4.35394
393.542	5.00223
393.752	4.50438
393.963	4.29673
394.173	4.52452
394.384	4.6456
394.594	4.09562
394.804	3.01682
395.015	4.0914
395.225	4.79071
395.436	3.32871
395.646	4.58422
395.856	3.90247
396.067	2.91222
396.277	5.2432
396.487	4.78468
396.697	4.81053
396.908	5.19472
397.118	5.01238
397.328	4.53679
397.538	5.25071
397.749	3.91301
397.959	5.45363
398.169	4.95096
398.379	3.31826
398.589	5.00586
398.8	4.95602
399.01	4.90236
399.22	4.4216
399.43	6.69176
399.64	4.59416
399.85	5.29458
400.06	4.80268
400.27	3.97188
400.48	4.78114
400.69	5.98134
400.9	4.45025
401.11	4.05615
401.32	5.58972
401.53	4.50958
401.74	6.35217
401.95	5.57104
402.16	4.71954
402.37	5.65226
402.58	4.77262
402.79	5.58169
403	6.04806
403.209	4.69825
403.419	6.30028
403.629	4.79157
403.839	6.30413
404.049	6.47055
404.258	5.38754
404.468	5.09
404.678	6.46035
404.888	6.72337
405.097	5.65186
405.307	5.69484
405.517	6.39268
405.727	6.53246
405.936	5.49174
406.146	6.09
406.356	7.06231
406.565	5.74869
406.775	5.45003
406.984	5.39496
407.194	7.88993
407.404	6.08751
407.613	6.25359
407.823	6.80095
408.032	7.35447
408.242	6.91877
408.451	5.4911
408.661	6.21494
408.87	7.85181
409.08	5.59639
409.289	6.37784
409.499	6.6778
409.708	6.36656
409.918	4.63158
410.127	6.79961
410.336	7.87899
410.546	7.08828
410.755	6.34253
410.964	6.21019
411.174	5.57941
411.383	6.96716
411.592	6.88104
411.802	5.8116
412.011	7.07249
412.22	6.3141
412.429	8.28837
412.639	8.06334
412.848	7.72254
413.057	8.32774
413.266	7.78542
413.475	6.82095
413.685	7.5358
413.894	7.51747
414.103	7.94721
414.312	7.50739
414.521	6.60766
414.73	7.47377
414.939	8.83515
415.148	7.62074
415.357	7.41802
415.566	7.32578
415.776	6.905
415.985	7.33999
416.194	8.22254
416.403	9.38232
416.611	6.64512
416.82	7.28554
417.029	7.99472
417.238	7.2957
417.447	7.38434
417.656	7.69381
417.865	7.41134
418.074	7.86863
418.283	8.06649
418.492	9.00627
418.7	8.67024
418.909	9.72726
419.118	8.44416
419.327	8.90225
419.536	8.5014
419.744	8.32531
419.953	9.87196
420.162	9.96378
420.371	8.89656
420.579	9.65158
420.788	10.44645
420.997	10.68949
421.205	10.86068
421.414	10.58167
421.623	10.8994
421.831	10.19134
422.04	10.83426
422.249	9.74551
422.457	10.26267
422.666	9.43535
422.874	10.56617
423.083	10.66762
423.291	10.55043
423.5	10.41759
423.708	10.92119
423.917	11.60648
424.125	10.82195
424.334	10.64629
424.542	12.52378
424.751	11.89681
424.959	11.32342
425.167	11.71036
425.376	11.45942
425.584	10.2419
425.793	10.37111
426.001	9.09952
426.209	10.00861
426.418	9.00574
426.626	9.08897
426.834	8.88732
427.042	9.60411
427.251	8.91949
427.459	10.04143
427.667	9.41571
427.875	8.39018
428.084	8.75895
428.292	10.43886
428.5	9.77243
428.708	8.42422
428.916	8.67041
429.124	9.39928
429.333	9.21279
429.541	9.24129
429.749	9.44422
429.957	9.30915
430.165	11.37083
430.373	8.20973
430.581	9.57784
430.789	10.57965
430.997	9.30831
431.205	8.84213
431.413	9.76183
431.621	9.29685
431.829	10.2128
432.037	9.55973
432.245	9.89685
432.453	10.13846
432.661	9.54246
432.869	11.27393
433.076	9.41833
433.284	9.85676
433.492	10.44484
433.7	11.08477
433.908	9.74541
434.116	10.27956
434.323	10.22793
434.531	10.02955
434.739	10.56423
434.947	10.77893
435.154	10.84362
435.362	9.99924
435.57	9.73463
435.778	9.43884
435.985	10.25092
436.193	9.64171
436.401	11.13022
436.608	10.03664
436.816	9.63939
437.023	11.19595
437.231	11.5596
437.439	10.29174
437.646	10.64959
437.854	10.60199
438.061	11.04842
438.269	10.33078
438.476	11.11464
438.684	10.44236
438.891	10.17103
439.099	10.18802
439.306	9.5946
439.514	9.8652
439.721	11.03301
439.929	10.13396
440.136	11.00816
440.343	11.0375
440.551	10.58101
440.758	12.43452
440.965	11.17933
441.173	10.80812
441.38	10.43318
441.587	11.07673
441.795	10.55545
442.002	10.68607
442.209	10.88335
442.416	11.14898
442.624	11.06576
442.831	10.92911
443.038	10.28233
443.245	10.03392
443.452	10.53366
443.66	11.3471
443.867	10.4126
444.074	10.32261
444.281	10.31508
444.488	10.45291
444.695	10.8246
444.902	10.63774
445.109	11.46372
445.316	10.59045
445.523	11.15266
445.73	11.14433
445.937	12.09534
446.144	12.67239
446.351	13.27046
446.558	11.85321
446.765	13.87826
446.972	13.20252
447.179	12.53569
447.386	13.24252
447.593	11.47194
447.8	12.52
448.007	11.20221
448.214	11.03237
448.42	10.73598
448.627	11.87265
448.834	11.07404
449.041	10.73453
449.248	10.89693
449.454	11.69663
449.661	12.0689
449.868	10.68625
450.075	10.49939
450.281	9.71103
450.488	10.0731
450.695	10.18738
450.901	10.21246
451.108	10.85241
451.315	11.80471
451.521	10.89153
451.728	11.98219
451.935	10.6861
452.141	10.93112
452.348	11.24111
452.554	11.20505
452.761	10.64136
452.967	12.29862
453.174	11.33924
453.38	11.15288
453.587	10.16663
453.793	11.23446
454	11.74744
454.206	12.83332
454.413	11.94236
454.619	11.59322
454.825	10.8219
455.032	11.66612
455.238	11.88296
455.445	10.3589
455.651	11.30013
455.857	9.90327
456.064	11.02844
456.27	10.9815
456.476	10.93545
456.682	10.28855
456.889	11.38304
457.095	11.78202
457.301	12.80772
457.507	11.49479
457.714	11.26799
457.92	11.49617
458.126	10.80555
458.332	11.42444
458.538	11.09988
458.744	11.21241
458.951	11.23152
459.157	12.97132
459.363	11.97322
459.569	12.34326
459.775	12.86943
459.981	12.65629
460.187	12.98052
460.393	13.24633
460.599	13.24968
460.805	12.25093
461.011	11.94748
461.217	12.70941
461.423	12.8737
461.629	11.84768
461.835	12.35708
462.041	11.80459
462.247	13.06749
462.453	11.50988
462.658	11.4679
462.864	12.21297
463.07	11.97934
463.276	11.72643
463.482	11.84946
463.688	13.12271
463.893	11.21451
464.099	11.5083
464.305	13.07194
464.511	11.4005
464.716	11.54838
464.922	12.74403
465.128	11.21397
465.333	13.21417
465.539	12.48262
465.745	12.04518
465.95	11.76879
466.156	14.60088
466.362	13.03706
466.567	11.95015
466.773	11.76265
466.978	13.31552
467.184	11.47332
467.389	10.8803
467.595	12.30532
467.8	11.49726
468.006	13.21064
468.211	13.04013
468.417	11.5739
468.622	12.40702
468.828	12.70236
469.033	12.28947
469.239	14.31623
469.444	11.6782
469.649	13.06116
469.855	11.96685
470.06	11.97395
470.266	11.35919
470.471	12.61995
470.676	12.60118
470.881	10.75831
471.087	13.61788
471.292	13.89633
471.497	11.1447
471.703	12.03714
471.908	11.73073
472.113	12.46943
472.318	12.92711
472.523	11.44602
472.729	12.59244
472.934	12.55564
473.139	12.09142
473.344	12.58325
473.549	13.42344
473.754	11.88875
473.959	14.06425
474.164	12.02466
474.369	12.00572
474.575	12.90097
474.78	12.36085
474.985	11.95351
475.19	10.91157
475.395	12.19398
475.6	12.29631
475.804	13.49723
476.009	12.73527
476.214	12.39788
476.419	12.31363
476.624	11.24021
476.829	11.83656
477.034	13.21052
477.239	12.25051
477.444	13.0128
477.648	13.16416
477.853	13.19222
478.058	12.5367
478.263	12.2818
478.468	11.97414
478.672	12.16713
478.877	14.02338
479.082	14.24563
479.287	13.1191
479.491	12.68083
479.696	12.22325
479.901	13.37384
480.105	13.35079
480.31	12.39707
480.515	12.8581
480.719	14.50541
480.924	12.40147
481.128	12.07337
481.333	13.08064
481.538	13.01033
481.742	12.73464
481.947	13.6643
482.151	14.6835
482.356	15.89042
482.56	19.02056
482.765	21.09652
482.969	25.55709
483.174	28.67395
483.378	33.45599
483.582	34.26642
483.787	36.64428
483.991	37.22845
484.196	37.09625
484.4	36.11253
484.604	36.04806
484.809	32.53007
485.013	30.66849
485.217	27.27425
485.422	24.11474
485.626	22.00518
485.83	20.92353
486.034	20.24096
486.239	20.77361
486.443	21.8176
486.647	22.44147
486.851	24.13539
487.055	26.07201
487.26	26.1239
487.464	27.39972
487.668	26.82651
487.872	27.30634
488.076	27.43262
488.28	26.31687
488.484	24.33589
488.688	23.43779
488.892	21.96357
489.096	20.40458
489.3	18.71111
489.504	17.67199
489.708	16.74271
489.912	16.36739
490.116	16.09164
490.32	15.9843
490.524	17.45136
490.728	18.88482
490.932	20.19282
491.136	21.52265
491.34	22.87264
491.544	23.52175
491.748	23.3329
491.951	23.12833
492.155	22.41646
492.359	21.57951
492.563	19.44529
492.767	18.27031
492.97	16.01026
493.174	14.19016
493.378	13.76952
493.582	13.40484
493.785	13.58411
493.989	13.70587
494.193	13.82894
494.396	13.40236
494.6	13.9323
494.804	13.32421
495.007	12.97842
495.211	13.29376
495.414	13.33727
495.618	13.80555
495.822	14.34643
496.025	13.58011
496.229	14.1183
496.432	13.22643
496.636	13.56642
496.839	13.70614
497.043	14.63119
497.246	13.89009
497.45	13.38946
497.653	13.75843
497.856	13.82944
498.06	13.29648
498.263	13.62025
498.467	13.56794
498.67	14.24291
498.873	14.05904
499.077	13.52132
499.28	13.7197
499.483	13.95672
499.686	14.17992
499.89	13.82494
500.093	14.08118
500.296	13.10308
500.499	15.02392
500.703	13.4005
500.906	13.98129
501.109	14.97739
501.312	13.65032
501.515	13.66107
501.719	14.10237
501.922	14.4884
502.125	13.76465
502.328	13.75913
502.531	12.84323
502.734	13.76631
502.937	12.6852
503.14	14.08579
503.343	13.24199
503.546	13.70772
503.749	13.29107
503.952	14.10832
504.155	13.28997
504.358	14.35218
504.561	14.02538
504.764	12.7982
504.967	14.045
505.17	13.5874
505.373	15.01804
505.576	13.61791
505.778	14.44831
505.981	13.11079
506.184	14.7918
506.387	12.64116
506.59	15.34414
506.793	14.55676
506.995	14.12862
507.198	12.50677
507.401	14.1556
507.604	14.39124
507.806	13.14531
508.009	13.63036
508.212	14.43926
508.414	13.59288
508.617	13.4228
508.82	14.01224
509.022	15.33836
509.225	14.32123
509.427	13.03897
509.63	14.9856
509.833	14.06014
510.035	13.74683
510.238	13.00137
510.44	15.04713
510.643	12.71175
510.845	15.42068
511.048	14.48903
511.25	13.73841
511.453	13.96851
511.655	14.31394
511.858	14.00074
512.06	14.74366
512.262	14.22115
512.465	14.88441
512.667	14.06514
512.869	13.50864
513.072	14.4981
513.274	14.69161
513.476	14.6438
513.679	14.70642
513.881	13.382
514.083	15.48159
514.286	13.55152
514.488	13.41536
514.69	13.2415
514.892	13.19021
515.094	14.80859
515.297	13.56519
515.499	14.24804
515.701	13.42724
515.903	15.49628
516.105	15.50104
516.307	14.95215
516.509	12.7611
516.711	13.30726
516.913	14.09548
517.116	14.40012
517.318	13.97112
517.52	15.0563
517.722	14.71933
517.924	13.52953
518.126	14.76057
518.328	13.92922
518.529	14.7338
518.731	15.67487
518.933	14.13447
519.135	14.30713
519.337	15.39612
519.539	14.93385
519.741	13.02946
519.943	14.1416
520.145	14.00356
520.346	14.96551
520.548	14.16497
520.75	14.65106
520.952	14.08406
521.153	14.68028
521.355	14.79975
521.557	13.65843
521.759	14.34203
521.96	14.10383
522.162	13.39049
522.364	15.074
522.565	13.93213
522.767	14.78653
522.969	15.25911
523.17	14.71232
523.372	14.4453
523.573	14.28344
523.775	14.15102
523.977	13.51919
524.178	15.62749
524.38	13.8104
524.581	14.85476
524.783	14.14298
524.984	14.80838
525.186	14.55081
525.387	15.01493
525.589	14.57413
525.79	14.53309
525.991	14.18942
526.193	15.11951
526.394	14.2133
526.596	15.18239
526.797	15.73787
526.998	15.60785
527.2	16.35766
527.401	19.3684
527.602	21.14977
527.803	24.65329
528.005	26.42553
528.206	28.64447
528.407	29.93897
528.608	30.17224
528.81	30.16165
529.011	29.17303
529.212	29.93935
529.413	27.69441
529.614	25.80928
529.815	23.96841
530.017	21.79946
530.218	18.98727
530.419	17.21727
530.62	16.06492
530.821	15.48299
531.022	14.16373
531.223	15.25579
531.424	15.24557
531.625	15.24598
531.826	14.98305
532.027	15.78981
532.228	17.6265
532.429	17.9711
532.63	18.66767
532.831	20.16821
533.032	20.10071
533.233	21.27469
533.433	20.67983
533.634	20.73965
533.835	19.67734
534.036	18.64462
534.237	17.58603
534.438	16.51763
534.638	14.61974
534.839	14.74146
535.04	15.4151
535.241	14.63726
535.441	16.24821
535.642	15.18511
535.843	14.0742
536.043	14.34192
536.244	14.39308
536.445	14.65704
536.645	15.7653
536.846	15.22681
537.047	15.76034
537.247	14.50726
537.448	15.00644
537.648	15.1815
537.849	14.99557
538.049	14.80671
538.25	15.33667
538.451	15.52341
538.651	14.15424
538.851	15.18826
539.052	15.74048
539.252	15.51138
539.453	14.73352
539.653	15.29445
539.854	14.70767
540.054	14.91295
540.254	16.32474
540.455	18.178
540.655	18.76247
540.855	20.99675
541.056	22.49777
541.256	22.38392
541.456	23.45353
541.657	22.65736
541.857	23.37123
542.057	21.32604
542.257	20.19424
542.458	20.3082
542.658	19.17511
542.858	16.76332
543.058	16.71441
543.258	15.89327
543.458	14.3964
543.659	14.41036
543.859	15.69506
544.059	15.71547
544.259	15.02572
544.459	15.7457
544.659	14.59045
544.859	15.40368
545.059	14.67686
545.259	15.55912
545.459	15.32331
545.659	15.70416
545.859	14.99524
546.059	15.07612
546.259	14.60303
546.459	14.13465
546.659	14.13449
546.859	15.63892
547.059	15.41035
547.258	15.32833
547.458	15.57567
547.658	14.49066
547.858	14.37391
548.058	15.43235
548.258	14.818
548.457	14.12787
548.657	17.11526
548.857	14.55446
549.057	15.19093
549.256	15.53111
549.456	14.66685
549.656	12.95512
549.855	16.48715
550.055	14.59183
550.255	16.40433
550.454	15.15713
550.654	15.2531
550.853	16.06766
551.053	15.56555
551.253	15.08075
551.452	15.41107
551.652	13.70764
551.851	13.3071
552.051	14.72936
552.25	14.27924
552.45	14.384
552.649	14.94903
552.849	14.11358
553.048	14.95292
553.248	15.3443
553.447	14.2429
553.646	15.75282
553.846	16.51265
554.045	16.03895
554.244	13.69672
554.444	16.67233
554.643	14.33498
554.842	16.28219
555.042	16.87001
555.241	14.07417
555.44	13.64143
555.64	15.67288
555.839	16.82833
556.038	15.67812
556.237	13.92464
556.436	14.97651
556.636	15.55693
556.835	14.12037
557.034	16.56125
557.233	15.13699
557.432	13.63913
557.631	15.89352
557.83	14.7752
558.029	14.16018
558.228	14.02742
558.427	13.8214
558.626	15.29326
558.825	13.67893
559.024	14.68597
559.223	16.54564
559.422	14.67814
559.621	15.35634
559.82	12.34502
560.019	14.66661
560.218	14.73028
560.417	12.03324
560.616	14.14547
560.815	18.09799
561.014	13.40338
561.212	16.72617
561.411	14.95244
561.61	13.40814
561.809	14.61816
562.008	16.3153
562.206	14.47677
562.405	15.3939
562.604	14.38506
562.803	15.5737
563.001	14.61545
563.2	13.6158
563.399	15.39771
563.597	14.00872
563.796	14.56155
563.995	13.88286
564.193	15.6766
564.392	14.39625
564.59	17.50297
564.789	13.52203
564.988	14.55572
565.186	15.06864
565.385	14.6767
565.583	14.5827
565.782	15.0074
565.98	14.76063
566.179	15.03721
566.377	14.14661
566.575	14.52684
566.774	16.68905
566.972	16.01614
567.171	17.32233
567.369	16.59434
567.567	15.45191
567.766	15.44345
567.964	13.31885
568.162	15.5434
568.361	16.0125
568.559	14.89886
568.757	15.55933
568.956	15.40972
569.154	14.98416
569.352	15.86985
569.55	14.96804
569.748	15.13877
569.947	14.38777
570.145	14.26582
570.343	14.00553
570.541	16.23515
570.739	13.91255
570.937	15.10044
571.135	15.39958
571.333	16.88919
571.532	16.93119
571.73	15.44627
571.928	16.45497
572.126	15.73608
572.324	14.57142
572.522	16.59188
572.72	18.0495
572.918	15.21923
573.116	15.62522
573.313	15.14821
573.511	15.22831
573.709	14.53729
573.907	16.40232
574.105	14.81633
574.303	13.5831
574.501	13.69413
574.699	15.57545
574.896	15.82703
575.094	15.78699
575.292	13.56645
575.49	15.918
575.688	14.93335
575.885	16.57171
576.083	17.5082
576.281	15.81294
576.478	14.27649
576.676	15.62675
576.874	13.48434
577.071	14.86303
577.269	17.49368
577.467	15.00808
577.664	15.02767
577.862	16.64904
578.059	13.57714
578.257	16.19409
578.455	14.64746
578.652	15.10467
578.85	12.54817
579.047	15.10993
579.245	14.94271
579.442	14.86368
579.64	15.11692
579.837	13.05609
580.034	18.34437
580.232	14.61269
580.429	13.20184
580.627	15.65031
580.824	16.54241
581.021	15.30052
581.219	14.11237
581.416	13.6909
581.613	16.34244
581.811	16.9973
582.008	13.6978
582.205	16.16205
582.402	15.08014
582.6	17.54149
582.797	14.56199
582.994	15.19563
583.191	15.61864
583.388	14.33755
583.586	15.92665
583.783	16.15874
583.98	14.08729
584.177	15.2732
584.374	11.26613
584.571	14.91228
584.768	14.64527
584.965	14.01761
585.162	15.33735
585.359	16.69187
585.556	14.7815
585.753	15.49942
585.95	12.82765
586.147	14.03607
586.344	15.7416
586.541	14.50666
586.738	13.28434
586.935	14.58581
587.132	13.88138
587.329	16.26811
587.526	14.9503
587.722	21.44725
587.919	13.70938
588.116	15.88928
588.313	16.8086
588.51	17.61898
588.706	14.73961
588.903	15.84719
589.1	16.03763
589.297	18.24674
589.493	15.21829
589.69	15.62804
589.887	14.6033
590.083	13.89901
590.28	14.41539
590.477	16.10725
590.673	16.03247
590.87	17.00099
591.067	14.7927
591.263	15.99734
591.46	15.66051
591.656	14.6296
591.853	16.54954
592.049	13.86445
592.246	14.40928
592.442	16.85446
592.639	16.52308
592.835	13.49547
593.032	15.48165
593.228	13.13486
593.425	12.71479
593.621	12.94933
593.817	15.60041
594.014	14.19424
594.21	15.31281
594.406	16.21185
594.603	16.3768
594.799	14.63232
594.995	12.70479
595.192	16.57219
595.388	14.79273
595.584	14.75112
595.78	13.57624
595.977	18.18848
596.173	17.02957
596.369	14.94954
596.565	14.18877
596.761	13.48481
596.957	16.8842
597.154	14.52515
597.35	14.90937
597.546	14.67086
597.742	16.51385
597.938	15.52031
598.134	14.54261
598.33	15.79527
598.526	17.39983
598.722	15.57572
598.918	18.03867
599.114	15.8256
599.31	13.76618
599.506	15.32854
599.702	14.22573
599.898	14.89513
600.094	16.1153
600.29	15.93466
600.485	16.72401
600.681	14.10879
600.877	17.54505
601.073	15.16388
601.269	17.89194
601.465	16.96728
601.66	13.72698
601.856	12.72371
602.052	17.37741
602.248	14.58746
602.443	13.02766
602.639	13.64945
602.835	14.44297
603.03	14.16084
603.226	16.81826
603.422	14.20821
603.617	15.19929
603.813	15.03788
604.009	15.02911
604.204	17.20846
604.4	13.99256
604.595	16.8507
604.791	14.26304
604.986	15.63126
605.182	14.68052
605.377	15.06539
605.573	14.73978
605.768	15.88469
605.964	16.09469
606.159	16.12594
606.355	17.21271
606.55	14.96987
606.746	16.95262
606.941	14.73051
607.136	18.21712
607.332	19.67501
607.527	13.53042
607.722	15.75195
607.918	15.15153
608.113	14.19391
608.308	16.76226
608.503	16.13488
608.699	15.79996
608.894	16.79288
609.089	14.55724
609.284	15.68789
609.479	14.95403
609.675	16.85896
609.87	14.86883
610.065	16.92956
610.26	16.92161
610.455	16.56437
610.65	15.57148
610.845	15.46536
611.04	16.90383
611.235	15.68362
611.43	14.57527
611.625	13.56117
611.82	17.90784
612.015	14.30494
612.21	17.61028
612.405	13.03954
612.6	17.82035
612.795	17.13079
612.99	16.10069
613.185	14.056
613.38	13.85704
613.575	15.25685
613.77	20.04049
613.965	12.88887
614.159	14.09442
614.354	18.07252
614.549	16.89858
614.744	16.80499
614.938	13.47827
615.133	12.66713
615.328	17.74961
615.523	16.78224
615.717	20.55089
615.912	14.07119
616.107	15.68975
616.301	14.46425
616.496	15.0643
616.691	17.60939
616.885	16.87364
617.08	21.23417
617.274	17.57617
617.469	18.97642
617.664	16.44734
617.858	14.64637
618.053	16.04055
618.247	15.32784
618.442	11.87714
618.636	18.137
618.831	14.63114
619.025	14.52119
619.219	20.49581
619.414	9.92333
619.608	15.36526
619.803	14.85475
619.997	19.57847
620.191	17.92676
620.386	15.92844
620.58	15.38051
620.774	12.76907
620.969	12.70346
621.163	15.73913
621.357	13.68671
621.551	15.16846
621.746	15.89659
621.94	15.16885
622.134	21.81234
622.328	19.60379
622.522	13.01656
622.716	17.11499
622.911	17.5062
623.105	17.45644
623.299	16.64107
623.493	21.57277
623.687	14.11656
623.881	15.03353
624.075	16.84721
624.269	18.7
624.463	13.10932
624.657	13.11461
624.851	16.93693
625.045	17.17998
625.239	17.56514
625.433	15.85719
625.627	18.38263
625.821	15.22721
626.015	14.91089
626.209	16.48259
626.403	14.31193
626.596	16.76772
626.79	17.76014
626.984	13.84402
627.178	16.70434
627.372	16.98114
627.565	17.32509
627.759	13.73376
627.953	14.41398
628.147	17.41396
628.34	17.24431
628.534	19.80646
628.728	15.71475
628.921	17.60187
629.115	17.11278
629.309	17.73804
629.502	17.83467
629.696	16.04311
629.89	15.40836
630.083	16.52972
630.277	16.6769
630.47	19.31822
630.664	15.6649
630.857	13.3765
631.051	18.2902
631.244	18.21756
631.438	17.7271
631.631	14.06373
631.825	19.14833
632.018	18.0209
632.212	20.05603
632.405	18.9882
632.598	15.19886
632.792	15.94664
632.985	11.95922
633.178	15.45582
633.372	16.16317
633.565	15.74988
633.758	19.44675
633.952	14.1295
634.145	14.28216
634.338	15.52863
634.531	14.89119
634.724	15.17621
634.918	16.03983
635.111	15.70457
635.304	15.57044
635.497	21.51664
635.69	16.88945
635.883	19.01096
636.077	14.15016
636.27	17.10823
636.463	16.69318
636.656	16.78916
636.849	15.93108
637.042	17.84054
637.235	19.92615
637.428	18.19636
637.621	18.90163
637.814	19.4946
638.007	20.43091
638.2	19.1751
638.393	20.55253
638.586	14.00718
638.778	15.47611
638.971	16.92502
639.164	20.21972
639.357	17.38655
639.55	20.20085
639.743	18.67799
639.935	17.38532
640.128	21.65926
640.321	18.25975
640.514	17.04927
640.707	22.52716
640.899	17.86322
641.092	12.87377
641.285	34.74704
641.477	12.13064
641.67	23.0886
641.863	19.90596
642.055	17.45401
642.248	16.3094
642.441	15.76165
642.633	18.52349
642.826	19.71442
643.018	20.48796
643.211	22.19618
643.403	21.5155
643.596	22.76537
643.788	22.58478
643.981	16.91647
644.173	19.96486
644.366	17.34559
644.558	12.66054
644.751	19.9737
644.943	13.63419
645.135	21.32379
645.328	21.96656
645.52	18.18434
645.712	20.36056
645.905	25.46746
646.097	14.39589
646.289	17.71582
646.482	23.04352
646.674	15.55934
646.866	21.19004
647.058	19.0647
647.251	14.36754
647.443	16.36848
647.635	17.42528
647.827	14.37923
648.019	15.56988
648.211	17.46148
648.404	17.26819
648.596	21.8972
648.788	18.28751
648.98	17.72018
649.172	19.41831
649.364	18.5791
649.556	13.38309
649.748	25.21192
649.94	15.15094
650.132	19.50872
650.324	14.55054
650.516	16.45198
650.708	20.74893
650.9	14.64745
651.092	16.30474
651.284	14.0591
651.476	15.33094
651.667	19.62194
651.859	21.16561
652.051	17.03916
652.243	17.36963
652.435	15.79784
652.627	19.39462
652.818	18.41564
653.01	13.52691
653.202	15.03593
653.394	16.62352
653.585	19.14128
653.777	30.35877
653.969	21.63998
654.16	20.44236
654.352	14.77353
654.544	16.91117
654.735	20.94466
654.927	18.54436
655.118	22.54589
655.31	19.95865
655.502	21.1768
655.693	16.82376
655.885	19.42561
656.076	21.80358
656.268	18.78476
656.459	22.35904
656.651	22.53918
656.842	16.67786
657.034	16.32372
657.225	21.25637
657.416	21.8504
657.608	22.48285
657.799	18.22091
657.99	22.43916
658.182	17.34388
658.373	16.78605
658.564	20.75916
658.756	18.56708
658.947	17.70528
659.138	16.10557
659.33	17.33854
659.521	16.70162
659.712	18.13451
659.903	17.72135
660.094	17.00518
660.286	14.62298
660.477	24.11446
660.668	20.18241
660.859	18.27324
661.05	14.67556
661.241	20.40724
661.432	20.14515
661.623	17.30435
661.814	16.05644
662.006	13.9678
662.197	18.7324
662.388	22.04502
662.579	19.90483
662.77	22.22962
662.96	26.69911
663.151	21.54557
663.342	13.65338
663.533	20.67916
663.724	18.09112
663.915	24.77958
664.106	19.27817
664.297	24.72512
664.488	20.78155
664.678	17.09336
664.869	21.47042
665.06	22.88042
665.251	20.50516
665.442	21.19195
665.632	15.57006
665.823	25.09198
666.014	9.57489
666.204	21.794
666.395	23.92082
666.586	27.36298
666.776	22.48788
666.967	24.50222
667.158	19.91085
667.348	23.50813
667.539	15.77488
667.729	22.58023
667.92	16.24444
668.111	22.88992
668.301	21.12555
668.492	18.58843
668.682	20.25451
668.873	18.63326
669.063	16.49843
669.253	20.06582
669.444	22.33103
669.634	19.18493
669.825	26.5719
670.015	23.06195
670.206	16.44939
670.396	26.52082
670.586	19.07513
670.777	20.41064
670.967	12.61861
671.157	18.62378
671.347	16.7146
671.538	24.90085
671.728	21.78507
671.918	26.11101
672.108	23.405
672.299	19.3196
672.489	21.422
672.679	17.63532
672.869	22.11134
673.059	27.21828
673.249	22.63824
673.44	16.43135
673.63	19.59784
673.82	23.62604
674.01	17.47679
674.2	21.2256
674.39	30.33956
674.58	23.5924
674.77	20.58193
674.96	19.22344
675.15	36.2803
675.34	25.36369
675.53	21.04011
675.72	19.3464
675.91	15.25085
676.099	27.45742
676.289	28.98401
676.479	24.09881
676.669	18.71793
676.859	21.28174
677.049	16.71765
677.238	21.44056
677.428	28.6936
677.618	23.28174
677.808	25.50049
677.997	23.25325
678.187	16.39367
678.377	21.07185
678.567	19.15044
678.756	18.73285
678.946	20.50022
679.136	15.96333
679.325	18.7662
679.515	17.11258
679.704	16.00041
679.894	23.24736
680.084	21.68909
680.273	24.47873
680.463	19.27331
680.652	18.77981
680.842	21.02144
681.031	24.26231
681.221	18.59041
681.41	23.11202
681.6	20.66346
681.789	24.56562
681.978	25.43518
682.168	22.13534
682.357	21.992
682.547	23.90743
682.736	21.9494
682.925	25.73209
683.115	25.59854
683.304	24.82831
683.493	23.16539
683.682	22.99599
683.872	22.9122
684.061	26.44341
684.25	24.54222
684.439	29.7683
684.629	24.11707
684.818	35.82591
685.007	21.51388
685.196	20.67151
685.385	28.86591
685.574	22.12055
685.763	25.12849
685.952	23.7876
686.142	18.80881
686.331	27.00633
686.52	14.44671
686.709	30.23844
686.898	29.37596
687.087	25.65145
687.276	29.46364
687.465	28.14882
687.654	22.32215
687.842	30.04016
688.031	17.99927
688.22	28.33063
688.409	23.67085
688.598	23.94901
688.787	33.99092
688.976	24.19715
689.165	30.78395
689.353	20.41973
689.542	25.75298
689.731	26.91361
689.92	31.54814
690.108	26.88477
690.297	23.27506
690.486	24.74615
690.675	28.65418
690.863	32.33846
691.052	31.08659
691.241	25.25664
691.429	25.20732
691.618	31.65656
691.806	18.63682
691.995	22.40304
692.184	24.75786
692.372	21.50296
692.561	27.15786
692.749	24.56648
692.938	36.15315
693.126	27.54445
693.315	25.33323
693.503	27.65136
693.692	27.62022
693.88	30.65167
694.068	34.81979
694.257	25.10987
694.445	27.79811
694.634	14.38047
694.822	29.79914
695.01	31.26536
695.199	32.78806
695.387	33.58856
695.575	30.09702
695.763	25.40717
695.952	22.77071
696.14	19.61976
696.328	23.29099
696.516	25.84019
696.705	26.83914
696.893	26.09612
697.081	17.51908
697.269	27.90038
697.457	20.88859
697.645	20.20939
697.833	28.80911
698.021	20.483
698.21	22.95717
698.398	23.57035
698.586	19.91751
698.774	18.28401
698.962	23.02422
699.15	20.27606
699.338	18.58622
699.526	26.82746
699.714	22.06349
699.901	22.49282
700.089	29.07709
700.277	21.52165
700.465	24.58894
700.653	27.97529
700.841	27.19948
701.029	21.58401
701.217	31.02767
701.404	27.19332
701.592	32.6532
701.78	35.56287
701.968	24.93167
702.155	26.282
702.343	17.85558
702.531	33.54506
702.718	28.10241
702.906	25.54731
703.094	23.16978
703.281	34.2906
703.469	26.2593
703.657	33.06324
703.844	44.28604
704.032	36.90029
704.219	23.43557
704.407	29.82807
704.595	34.15211
704.782	28.15146
704.97	24.55408
705.157	24.75535
705.345	35.4963
705.532	43.61898
705.719	30.32227
705.907	35.34099
706.094	27.26126
706.282	37.65949
706.469	26.79059
706.656	28.09836
706.844	26.40606
707.031	33.41719
707.218	29.85014
707.406	38.05996
707.593	33.22509
707.78	32.79433
707.968	28.24738
708.155	23.63514
708.342	32.78781
708.529	31.97055
708.716	30.2416
708.904	38.38156
709.091	33.80913
709.278	21.27011
709.465	42.33112
709.652	38.89707
709.839	36.51461
710.026	31.00388
710.213	20.32637
710.4	31.48146
710.587	34.8517
710.774	35.42955
710.961	36.21207
711.148	29.79847
711.335	36.13908
711.522	28.3492
711.709	31.7672
711.896	42.63736
712.083	35.51326
712.27	25.71283
712.457	30.15058
712.644	21.83532
712.831	41.94502
713.017	29.70424
713.204	35.66756
713.391	26.28587
713.578	37.40359
713.765	39.66845
713.951	35.35767
714.138	50.84268
714.325	35.70763
714.512	32.08456
714.698	26.80654
714.885	42.21332
715.072	34.19949
715.258	32.43643
715.445	27.70349
715.631	40.53156
715.818	16.75683
716.005	28.40014
716.191	35.51939
716.378	28.55954
716.564	38.28962
716.751	27.52329
716.937	29.50688
717.124	38.87615
717.31	27.20716
717.497	44.1294
717.683	28.80619
717.869	48.00654
718.056	30.67541
718.242	36.78773
718.429	32.3382
718.615	26.8719
718.801	34.66904
718.988	41.01079
719.174	38.16831
719.36	31.69989
719.547	40.95821
719.733	35.88461
719.919	36.40047
720.105	41.84296
720.291	37.16922
720.478	37.08579
720.664	34.26681
720.85	29.25317
721.036	54.81075
721.222	44.76127
721.408	34.5131
721.595	48.32784
721.781	47.74141
721.967	42.45731
722.153	47.20194
722.339	38.74883
722.525	38.7131
722.711	29.54587
722.897	25.88135
723.083	30.76797
723.269	43.09877
723.455	57.30484
723.641	61.34985
723.827	40.46517
724.012	38.86884
724.198	33.74552
724.384	46.28105
724.57	40.17432
724.756	25.94021
724.942	22.139
725.127	43.48166
725.313	47.64517
725.499	46.64384
725.685	50.70117
725.87	39.06576
726.056	29.22034
726.242	46.15784
726.428	24.51974
726.613	43.54803
726.799	33.96426
726.985	27.40013
727.17	23.2375
727.356	49.91142
727.541	27.12117
727.727	35.27328
727.913	42.26301
728.098	33.00387
728.284	42.14096
728.469	25.2705
728.655	29.01978
728.84	43.2044
729.026	42.86501
729.211	42.70165
729.397	39.32679
729.582	40.29943
729.767	37.24379
729.953	40.97616
730.138	45.01956
730.323	20.37162
730.509	29.89796
730.694	51.00795
730.879	41.35626
731.065	38.8162
731.25	56.07582
731.435	42.24045
731.621	25.06708
731.806	32.7539
731.991	38.96869
732.176	27.317
732.361	48.27491
732.547	42.05869
732.732	24.74489
732.917	56.34234
733.102	27.65084
733.287	31.10682
733.472	37.9339
733.657	38.37345
733.842	26.07004
734.027	34.83425
734.212	37.63824
734.397	31.04595
734.582	38.64317
734.767	45.00501
734.952	50.73322
735.137	17.0369
735.322	50.51559
735.507	40.89268
735.692	38.6952
735.877	60.03872
736.062	58.16772
736.247	40.49228
736.431	37.11225
736.616	49.10163
736.801	38.99747
736.986	39.31337
737.171	33.35172
737.355	26.71571
737.54	50.2297
737.725	38.62055
737.909	65.94838
738.094	35.9539
738.279	47.25256
738.463	37.36705
738.648	46.00217
738.833	45.24297
739.017	58.06357
739.202	38.31578
739.386	35.83493
739.571	31.52429
739.756	44.38073
739.94	40.07889
740.125	49.97759
740.309	33.28749
740.494	47.26076
740.678	40.83868
740.863	45.37348
741.047	43.05845
741.231	52.76994
741.416	33.33485
741.6	55.01081
741.785	32.70036
741.969	49.18381
742.153	52.51537
742.338	21.13584
742.522	40.85492
742.706	52.09872
742.89	28.56657
743.075	43.33583
743.259	54.55288
743.443	49.61485
743.627	57.27784
743.812	66.68671
743.996	18.24792
744.18	37.91019
744.364	37.74373
744.548	69.23574
744.732	38.80409
744.916	49.49061
745.1	49.89614
745.285	41.94384
745.469	46.33993
745.653	65.45148
745.837	28.56845
746.021	68.41909
746.205	53.28212
746.389	44.50671
746.573	42.83093
746.757	58.10041
746.94	41.39375
747.124	55.65423
747.308	28.84196
747.492	56.16753
747.676	36.83299
747.86	66.47323
748.044	38.94234
748.227	26.80311
748.411	87.88535
748.595	46.89742
748.779	33.1326
748.963	48.01758
749.146	44.351
749.33	36.78721
749.514	31.14044
749.697	55.09351
749.881	33.44458
750.065	33.53068
750.248	44.1383
750.432	69.97077
750.616	43.61472
750.799	28.23881
750.983	68.51217
751.166	71.99992
751.35	26.43775
751.533	49.95832
751.717	60.24304
751.9	63.79537
752.084	37.68182
752.267	28.70044
752.451	35.89205
752.634	44.38441
752.818	51.27657
753.001	53.81531
753.184	57.24347
753.368	47.30222
753.551	9.63121
753.734	38.06899
753.918	70.9747
754.101	36.65584
754.284	51.67452
754.467	40.37221
754.651	37.83212
754.834	34.1503
755.017	60.08039
755.2	58.20012
755.384	34.66508
755.567	57.13201
755.75	59.14352
755.933	41.32252
756.116	49.51248
756.299	40.48215
756.482	35.50774
756.665	50.6817
756.848	47.17953
757.032	50.33799
757.215	27.57525
757.398	33.42004
757.581	33.76435
757.764	77.07881
757.947	43.76846
758.129	61.05384
758.312	9.73287
758.495	42.0128
758.678	43.57481
758.861	43.98265
759.044	70.55454
759.227	37.36474
759.41	36.16016
759.592	53.01674
759.775	43.02295
759.958	58.48988
760.141	29.25432
760.324	69.9449
760.506	66.49361
760.689	55.94846
760.872	78.63202
761.054	49.63133
761.237	40.87
761.42	54.30924
761.602	57.59899
761.785	49.30923
761.968	59.05
762.15	69.85324
762.333	43.19072
762.515	49.28198
762.698	36.2479
762.88	51.92286
763.063	44.46718
763.245	52.84556
763.428	32.43596
763.61	33.35808
763.793	29.05264
763.975	45.85708
764.158	36.82936
764.34	35.78881
764.522	34.40496
764.705	42.17947
764.887	58.06435
765.069	27.18426
765.252	49.60344
765.434	52.70983
765.616	46.04789
765.799	37.60383
765.981	53.47919
766.163	35.44356
766.345	58.5339
766.528	40.30201
766.71	18.21598
766.892	48.95205
767.074	63.47788
767.256	44.66009
767.438	70.56664
767.62	51.29471
767.802	78.77352
767.985	54.77033
768.167	76.0077
768.349	39.96777
768.531	65.76613
768.713	53.39634
768.895	63.48527
769.077	53.20842
769.259	91.11686
769.441	125.56264
769.623	66.98126
769.804	78.20161
769.986	75.69983
770.168	96.0701
770.35	109.42386
770.532	83.71715
770.714	82.09383
770.896	90.99137
771.077	35.75586
771.259	97.57669
771.441	79.99061
771.623	94.85899
771.804	128.29786
771.986	34.3522
772.168	57.3542
772.35	95.7813
772.531	128.43811
772.713	74.52064
772.894	99.53312
773.076	74.3967
773.258	64.13347
773.439	102.61532
773.621	113.65888
773.802	44.89824
773.984	73.22207
774.166	75.94014
774.347	117.67675
774.529	99.75216
774.71	27.50625
774.891	75.66768
775.073	74.23482
775.254	114.91806
775.436	63.63027
775.617	123.95692
775.799	64.31817
775.98	128.86014
776.161	125.18417
776.343	101.39448
776.524	74.36321
776.705	66.43527
776.886	36.66113
777.068	80.49891
777.249	143.95711
777.43	122.60911
777.611	50.93507
777.793	73.08044
777.974	118.65453
778.155	66.09259
778.336	51.15309
778.517	128.45621
778.698	58.58659
778.879	27.83995
779.061	9.35375
779.242	94.25184
779.423	84.64201
779.604	61.54967
779.785	68.90944
779.966	83.62787
780.147	101.53252
780.328	108.548
780.509	139.84156
780.69	102.65251
780.871	61.95218
781.051	40.63331
781.232	82.64452
781.413	81.41145
781.594	66.86511
781.775	67.84664
781.956	63.86949
782.137	33.95165
782.317	60.75675
782.498	86.47485
782.679	86.43754
782.86	85.54401
783.04	63.3075
783.221	89.01058
783.402	129.26541
783.583	76.73412
783.763	100.73794
783.944	68.06069
784.124	47.85935
784.305	123.26781
784.486	90.90081
784.666	75.15254
784.847	39.58053
785.027	168.59228
785.208	61.69083
785.388	58.14407
785.569	57.758
785.749	66.54974
785.93	62.17509
786.11	38.98348
786.291	93.9753
786.471	82.5479
786.652	95.98212
786.832	70.07075
787.012	86.82318
787.193	47.43323
787.373	73.92422
787.553	62.30689
787.734	85.34565
787.914	60.22563
788.094	86.5654
788.275	83.75488
788.455	65.82869
788.635	40.61136
788.815	78.67309
788.995	49.20225
789.176	40.06389
789.356	57.32578
789.536	66.52223
789.716	84.5258
789.896	55.90502
790.076	62.64615
790.256	76.68697
790.436	22.75718
790.616	53.57016
790.796	82.25202
790.976	64.44408
791.156	63.85965
791.336	94.38753
791.516	83.87986
791.696	71.38956
791.876	37.28954
792.056	79.87049
792.236	99.65284
792.416	91.4767
792.596	89.95844
792.776	85.65905
792.956	89.9395
793.135	117.62995
793.315	53.68788
793.495	112.09306
793.675	93.92493
793.854	97.78282
794.034	95.29402
794.214	49.34056
794.394	94.53226
794.573	105.25461
794.753	78.38139
794.933	60.53375
795.112	78.52673
795.292	92.89673
795.472	124.93999
795.651	46.667
795.831	74.84332
796.01	60.41508
796.19	65.53944
796.369	68.61731
796.549	91.20978
796.728	71.12547
796.908	47.00143
797.087	47.88703
797.267	75.84619
797.446	43.58718
797.626	85.64023
797.805	79.53467
797.984	56.82067
798.164	87.55932
798.343	54.34819
798.522	78.4149
798.702	76.0586
798.881	43.48917
799.06	71.22423
799.239	33.37078
799.419	48.63224
799.598	112.11476
799.777	85.97179
799.956	108.44017
800.136	63.62388
800.315	59.72986
800.494	85.25044
800.673	104.36843
800.852	101.11852
801.031	110.74241
801.21	89.96962
801.389	65.6676
801.568	89.80262
801.747	132.48857
801.926	73.52373
802.105	111.57809
802.284	71.01486
802.463	115.23094
802.642	81.79168
802.821	84.00103
803	113.91876
803.179	101.69204
803.358	113.58057
803.537	63.55285
803.716	92.66405
803.895	58.58902
804.073	79.65647
804.252	61.17693
804.431	94.54055
804.61	80.2613
804.789	108.18854
804.967	66.78929
805.146	66.46682
805.325	141.54931
805.503	91.70078
805.682	40.75108
805.861	157.25809
806.039	114.73251
806.218	62.33892
806.397	85.76928
806.575	82.43452
806.754	81.37057
806.932	62.50066
807.111	129.84198
807.289	103.97744
807.468	91.63867
807.646	101.91909
807.825	92.30501
808.003	92.45975
808.182	106.69978
808.36	83.36009
808.539	61.25132
808.717	117.06621
808.895	53.53945
809.074	85.65232
809.252	74.69644
809.43	111.5582
809.609	120.03132
809.787	134.31717
809.965	77.82093
810.144	84.46543
810.322	75.776
810.5	103.18725
810.678	81.30646
810.856	151.61058
811.035	107.39021
811.213	120.53226
811.391	115.01965
811.569	84.21318
811.747	185.53584
811.925	126.01983
812.103	68.60297
812.281	68.49379
812.459	169.08287
812.637	133.34887
812.816	126.40409
812.994	150.61583
813.171	122.90879
813.349	106.92191
813.527	131.3524
813.705	134.60275
813.883	156.62699
814.061	128.00345
814.239	148.79812
814.417	160.1061
814.595	104.98309
814.773	109.76902
814.95	98.75398
815.128	102.42373
815.306	88.2321
815.484	80.17663
815.662	65.67957
815.839	56.60638
816.017	68.11176
816.195	113.70794
816.372	83.49111
816.55	125.44008
816.728	139.42892
816.905	88.06731
817.083	125.9785
817.261	94.01981
817.438	187.13876
817.616	154.98316
817.793	82.89414
817.971	114.69244
818.148	113.09437
818.326	135.48206
818.503	99.44753
818.681	138.34803
818.858	71.78339
819.036	92.35561
819.213	100.67919
819.391	68.69578
819.568	60.25845
819.745	57.87163
819.923	99.09589
820.1	66.94643
820.277	56.03066
820.455	70.55122
820.632	72.2083
820.809	73.7411
820.986	46.79691
821.164	38.27046
821.341	34.04552
821.518	47.00082
821.695	35.47151
821.872	34.35177
822.05	31.00303
822.227	26.19868
822.404	27.42788
822.581	29.37609
822.758	28.33526
822.935	28.74562
823.112	31.51645
823.289	28.02985
823.466	32.38383
823.643	31.5272
823.82	36.51546
823.997	34.51947
824.174	39.49692
824.351	50.25496
824.528	48.24275
824.705	45.76362
824.882	49.37608
825.059	62.75309
825.236	46.22281
825.412	49.12826
825.589	58.98912
825.766	75.71103
825.943	51.27169
826.12	61.33958
826.296	40.95589
826.473	49.78862
826.65	49.5408
826.827	57.98221
827.003	40.54075
827.18	43.42875
827.357	46.88824
827.533	42.94422
827.71	28.28554
827.887	39.682
828.063	44.88762
828.24	38.74941
828.416	53.25628
828.593	44.71111
828.769	61.62084
828.946	65.32517
829.122	70.76435
829.299	74.56806
829.475	42.26941
829.652	68.27474
829.828	110.56203
830.005	69.25181
830.181	102.00036
830.357	71.7323
830.534	93.33607
830.71	80.2419
830.886	104.66191
831.063	93.25317
831.239	137.88958
831.415	54.9818
831.592	121.60427
831.768	75.6995
831.944	69.16556
832.12	125.62701
832.296	118.19319
832.473	94.23236
832.649	64.613
832.825	91.2942
833.001	51.6018
833.177	78.23758
833.353	67.76308
833.529	38.86077
833.705	55.80196
833.881	41.80177
834.058	42.84115
834.234	44.20929
834.41	45.61586
834.586	35.05039
834.761	42.20638
834.937	48.39884
835.113	50.85309
835.289	45.97374
835.465	57.39494
835.641	53.11475
835.817	56.03177
835.993	101.90849
836.169	54.8064
836.344	78.25085
836.52	91.87775
836.696	106.06607
836.872	65.38338
837.048	200.86756
837.223	76.88867
837.399	166.51305
837.575	140.41686
837.75	118.5303
837.926	190.42197
838.102	267.24975
838.277	210.56879
838.453	289.56639
838.628	276.28123
838.804	100.32026
838.98	258.90672
839.155	141.50314
839.331	157.50422
839.506	112.93225
839.682	107.02992
839.857	154.72862
840.033	165.15829
840.208	78.27559
840.384	42.81006
840.559	74.67752
840.734	132.57671
840.91	170.39157
841.085	111.40087
841.26	106.94512
841.436	120.03782
841.611	95.92836
841.786	158.53662
841.962	240.64071
842.137	146.81112
842.312	80.31397
842.487	124.28834
842.663	112.54754
842.838	133.68016
843.013	547.68369
843.188	291.92275
843.363	180.48418
843.538	517.10328
843.714	524.53922
843.889	485.7082
844.064	499.36836
844.239	281.47605
844.414	566.85377
844.589	320.13508
844.764	725.0613
844.939	484.20028
845.114	454.68435
845.289	694.02561
845.464	804.43197
845.639	728.49637
845.814	240.22783
845.989	484.87146
846.163	392.27983
846.338	774.47269
846.513	644.8977
846.688	368.63359
846.863	791.94548
847.038	400.02794
847.212	350.83947
847.387	806.92871
847.562	411.45357
847.737	595.57506
847.911	268.14004
848.086	269.52099
848.261	490.80981
848.435	364.06448
848.61	571.24422
848.785	280.91488
848.959	545.27396
849.134	647.32055
849.308	1142.02153
849.483	729.45576
849.658	661.68508
849.832	385.88169
850.007	277.70957
850.181	1088.55975
850.356	633.9568
850.53	982.61531
850.705	433.43748
850.879	248.1823
851.053	506.83223
851.228	431.37642
851.402	871.69673
851.577	660.14104
851.751	871.8448
851.925	420.11425
852.099	275.22829
852.274	315.45625
852.448	392.29748
852.622	1053.91224
852.797	378.28077
852.971	460.22195
853.145	882.07179
853.319	1018.37113
853.493	1122.51056
853.668	483.78779
853.842	1554.84575
854.016	1079.65567
854.19	1608.13933
854.364	644.16204
854.538	614.58413
854.712	743.5505
854.886	401.00602
855.06	350.22945
855.234	152.7096
855.408	885.62762
855.582	607.6795
855.756	929.25475
855.93	566.04927
856.104	720.71056
856.278	785.48278
856.452	386.87927
856.626	665.78136
856.8	1133.32794
856.973	1180.65391
857.147	1117.77431
857.321	1521.77375
857.495	570.58914
857.669	845.71306
857.842	691.11073
858.016	516.68297
858.19	398.62973
858.364	1289.79549
858.537	594.66146
858.711	1227.17513
858.885	967.97811
859.058	288.69173
859.232	329.50881
859.405	361.56448
859.579	793.84801
859.753	668.21321
859.926	906.2742
860.1	544.53505
860.273	1046.01288
860.447	885.56854
860.62	633.57961
860.794	880.72243
860.967	673.1898
861.141	562.92381
861.314	738.10432
861.487	688.15965
861.661	525.8002
861.834	839.94205
862.008	1110.59022
862.181	826.66581
862.354	1354.81342
862.528	630.20233
862.701	440.87403
862.874	363.58901
863.047	488.52267
863.221	583.83747
863.394	385.53838
863.567	479.09695
863.74	189.13808
863.913	977.52208
864.087	632.89927
864.26	666.5963
864.433	749.67224
864.606	998.94284
864.779	1599.03409
864.952	266.76603
865.125	952.65059
865.298	631.96474
865.471	578.84434
865.644	972.08906
865.817	603.32206
865.99	951.2365
866.163	853.04866
866.336	466.8986
866.509	444.74445
866.682	641.41663
866.855	1342.63915
867.028	180.20689
867.2	666.48319
867.373	104.78225
867.546	479.07647
867.719	1317.23822
867.892	665.5764
868.064	413.48519
868.237	507.3779
868.41	480.60726
868.583	268.10848
868.755	311.4162
868.928	669.98989
869.101	896.26334
869.273	1736.21791
869.446	500.84012
869.619	1002.01737
869.791	497.90764
869.964	754.55667
870.136	1039.8216
870.309	414.53676
870.481	406.31313
870.654	366.95651
870.826	432.51618
870.999	322.42268
871.171	537.40481
871.344	310.43846
871.516	452.80288
871.689	401.71417
871.861	542.65393
872.033	358.82347
872.206	342.5591
872.378	499.94917
872.55	482.51836
872.723	415.94853
872.895	631.09644
873.067	563.84969
873.24	494.24489
873.412	470.13663
873.584	394.07043
873.756	662.03255
873.928	795.81675
874.101	369.88573
874.273	510.08608
874.445	183.29682
874.617	308.62565
874.789	357.16903
874.961	363.38886
875.133	460.98441
875.305	552.59645
875.477	444.2236
875.649	258.73566
875.821	299.98761
875.993	754.61653
876.165	358.92258
876.337	537.38828
876.509	497.48083
876.681	454.31209
876.853	467.54957
877.025	748.88987
877.197	258.04413
877.369	307.27816
877.541	400.25443
877.712	101.61267
877.884	206.66139
878.056	516.90332
878.228	231.21451
878.4	489.67919
878.571	241.21219
878.743	174.45641
878.915	305.2252
879.086	181.3117
879.258	200.21806
879.43	187.71007
879.601	157.58801
879.773	154.25955
879.945	36.46095
880.116	60.2539
880.288	37.2752
880.459	40.47287
880.631	33.45209
880.802	38.48924
880.974	35.08407
881.145	26.18729
881.317	35.86027
881.488	29.06415
881.66	31.67751
881.831	29.10529
882.002	39.30784
882.174	30.3638
882.345	37.36227
882.517	24.99592
882.688	46.4076
882.859	36.88765
883.03	60.69915
883.202	56.87609
883.373	51.18038
883.544	54.32512
883.715	85.21686
883.887	76.91028
884.058	71.09263
884.229	93.81416
884.4	90.99651
884.571	122.34178
884.742	94.23826
884.914	105.1159
885.085	156.56662
885.256	193.63602
885.427	162.90785
885.598	184.17984
885.769	199.2864
885.94	201.8842
886.111	128.45359
886.282	198.43593
886.453	223.0425
886.624	166.52004
886.795	243.38643
886.966	238.92595
887.136	264.7811
887.307	206.57539
887.478	427.23808
887.649	341.59618
887.82	377.71459
887.991	256.56044
888.161	456.48499
888.332	403.29673
888.503	233.18414
888.674	478.33998
888.844	734.36989
889.015	668.10347
889.186	341.94649
889.356	647.56763
889.527	380.1779
889.698	1016.1856
889.868	276.11291
890.039	541.74819
890.209	363.2043
890.38	602.59002
890.551	481.71709
890.721	783.95376
890.892	537.77053
891.062	1239.22369
891.233	539.59414
891.403	722.57196
891.574	532.46504
891.744	402.9073
891.914	352.74155
892.085	496.37956
892.255	131.09855
892.425	542.42703
892.596	415.25309
892.766	478.58208
892.936	768.27216
893.107	456.35651
893.277	230.67346
893.447	199.11415
893.618	150.66599
893.788	227.72413
893.958	126.44993
894.128	98.52252
894.298	121.25552
894.468	158.23253
894.639	74.07622
894.809	50.25863
894.979	78.65561
895.149	101.87739
895.319	77.93284
895.489	112.00822
895.659	152.68687
895.829	86.56495
895.999	106.15035
896.169	86.06225
896.339	125.22825
896.509	259.21555
896.679	240.11273
896.849	267.15648
897.019	352.80362
897.189	325.26552
897.358	303.4528
897.528	490.91801
897.698	220.01072
897.868	361.98239
898.038	878.61562
898.208	1023.70665
898.377	266.33138
898.547	1911.45072
898.717	3351.43874
898.886	860.84209
899.056	804.05239
899.226	2103.15571
899.395	2328.7935
899.565	2518.11892
899.735	4335.90104
899.904	1678.07237
900.074	5775.28988
900.244	601.56928
900.413	3502.58646
900.583	856.89556
900.752	-1881.65895
900.922	1047.66995
901.091	326.8035
901.261	2209.24028
901.43	1233.54852
901.599	3327.40411
901.769	2764.03081
901.938	2715.18539
902.108	1001.93175
902.277	1465.20536
902.446	486.03557
902.616	646.49404
902.785	615.3603
902.954	832.42971
903.124	503.96763
903.293	375.24456
903.462	141.66783
903.631	218.02053
903.801	151.92629
903.97	72.64709
904.139	116.35258
904.308	99.71199
904.477	77.18658
904.646	43.74697
904.816	73.12834
904.985	115.94323
905.154	169.07994
