Data from WindowProjectSample3_Transmission__35__00035.txt Node

Date: Sun May 04 10:36:55 EDT 2025
User: jessi
Spectrometer: SR400872
Trigger mode: 0
Integration Time (sec): 5.000050E-1
Scans to average: 20
Electric dark correction enabled: true
Nonlinearity correction enabled: true
Boxcar width: 0
XAxis mode: Wavelengths
Number of Pixels in Spectrum: 3648
>>>>>Begin Spectral Data<<<<<
184.909	-1616.63654
185.132	-1288.59514
185.355	-1287.07295
185.578	-1086.83082
185.801	-2773.33837
186.024	-1083.201
186.247	-1465.32318
186.47	-2615.23934
186.693	-232.61867
186.916	-275.57593
187.139	-989.08934
187.362	-1697.77167
187.585	-1095.27383
187.808	-841.65351
188.031	-145682.2703
188.254	-1281.10386
188.476	-811.71589
188.699	-1081.76767
188.922	565.47401
189.145	-1232.49778
189.368	-975.4153
189.591	-3753.52592
189.813	-732.68227
190.036	-1229.40569
190.259	-3249.82465
190.482	-1599.34265
190.705	-1713.24646
190.927	-981.88077
191.15	-1657.47399
191.373	-2124.49234
191.595	-2608.27599
191.818	-1209.84382
192.041	-13071.61953
192.263	-1555.68652
192.486	-444.68408
192.709	-1665.39376
192.931	-4236.22914
193.154	-1204.95777
193.377	-1200.98841
193.599	12350.22011
193.822	-748.86836
194.044	-3950.25339
194.267	-4463.41646
194.489	-1174.22595
194.712	-1843.38022
194.934	-1629.02966
195.157	-1039.25336
195.379	-768.9757
195.602	-838.44831
195.824	-979.27855
196.047	-932.30062
196.269	-1059.45568
196.492	-1084.84037
196.714	-1039.68419
196.936	-1572.87139
197.159	-893.05856
197.381	-888.05513
197.604	-781.45953
197.826	-1953.26212
198.048	-1566.66065
198.271	-1218.74373
198.493	-1033.05222
198.715	-894.90147
198.938	-6926.22141
199.16	-1257.61628
199.382	-889.99206
199.604	-9999.24517
199.827	-1609.69279
200.049	-963.07483
200.271	-928.6311
200.493	-2215.26334
200.715	-953.36018
200.938	-765.76573
201.16	-1288.31628
201.382	-2731.74225
201.604	-1263.77285
201.826	-1184.84403
202.048	-558.9633
202.27	-866.38379
202.492	-1952.3948
202.715	-2048.02991
202.937	-2242.80937
203.159	-1184.91608
203.381	-1577.28048
203.603	-1324.46989
203.825	4076.62956
204.047	-1124.33579
204.269	-3165.76562
204.491	-1438.42405
204.713	-766.96837
204.935	-1290.43255
205.156	-1246.29617
205.378	-3780.26364
205.6	-931.28106
205.822	-1116.00387
206.044	2404.6191
206.266	-1247.77021
206.488	-768.40862
206.71	-1940.75805
206.932	-2383.59159
207.153	-1174.6526
207.375	-936.33719
207.597	-1104.72632
207.819	-878.56992
208.041	-1289.8518
208.262	-1018.25805
208.484	-1828.33643
208.706	-854.70227
208.927	-820.02813
209.149	-2159.65427
209.371	-784.53695
209.593	-700.28581
209.814	-600.64131
210.036	-809.51163
210.258	-593.4293
210.479	-1390.34458
210.701	11507.8105
210.922	-851.25858
211.144	-886.76079
211.366	-1926.00757
211.587	10965.52585
211.809	-997.3385
212.03	-3305.25441
212.252	1719.30234
212.473	-1121.14342
212.695	-4468.23151
212.916	-2802.47501
213.138	-6452.94594
213.359	-988.73308
213.581	-1528.86339
213.802	-955.4551
214.024	-1307.05933
214.245	-11266.07843
214.466	-639.538
214.688	-1299.27462
214.909	-1599.19328
215.131	-2002.98198
215.352	-927.98133
215.573	-1238.9167
215.795	-3222.16282
216.016	-1126.12548
216.237	-4038.57137
216.459	-13800.03446
216.68	-1689.68579
216.901	-1438.19965
217.122	-3571.98736
217.344	-1224.72328
217.565	-1522.0061
217.786	-1433.92106
218.007	-1308.04741
218.228	-4967.78112
218.45	-1133.83306
218.671	-1407.32616
218.892	-1662.85091
219.113	-2198.71345
219.334	-87.88272
219.555	-1433.2206
219.776	-884.34354
219.997	-1368.87601
220.219	-2971.63744
220.44	-1050.21979
220.661	-818.15475
220.882	-1017.3265
221.103	-3005.97582
221.324	5725.30668
221.545	-1921.88898
221.766	-1345.76001
221.987	-2230.21783
222.208	-3011.14573
222.429	-949.30212
222.65	-1172.2318
222.87	5295.20871
223.091	-8144.25557
223.312	4105.53353
223.533	-1717.28088
223.754	-1669.98823
223.975	-2474.68094
224.196	157096.12138
224.417	-10305.15297
224.637	2018.42165
224.858	137.36898
225.079	-7236.80154
225.3	2483.68443
225.521	-868.91869
225.741	8483.86506
225.962	6669.53214
226.183	268.49799
226.404	8948.26645
226.624	1728.67658
226.845	7743.74244
227.066	1798.14217
227.286	745.75609
227.507	257.85139
227.728	270.80191
227.948	496.41894
228.169	141.60349
228.389	153.08944
228.61	84.42391
228.831	114.2043
229.051	12.88481
229.272	68.74851
229.492	106.73051
229.713	29.8057
229.933	69.77705
230.154	63.97383
230.374	103.71027
230.595	75.64154
230.815	46.41349
231.036	80.86504
231.256	-13.33617
231.477	143.50873
231.697	84.79583
231.917	84.49155
232.138	119.91447
232.358	256.02663
232.579	211.08984
232.799	26.65808
233.019	209.90048
233.24	229.57292
233.46	78.21921
233.68	120.76814
233.901	84.67851
234.121	53.72342
234.341	22.10992
234.561	-5.83341
234.782	39.18293
235.002	137.31978
235.222	0.15448
235.442	125.5126
235.662	59.59172
235.883	120.25914
236.103	92.19171
236.323	64.37931
236.543	52.29045
236.763	81.86898
236.983	80.25414
237.203	77.88443
237.423	118.62303
237.643	179.2505
237.864	148.03096
238.084	39.79371
238.304	46.54152
238.524	87.20579
238.744	74.45571
238.964	134.91366
239.184	115.25108
239.404	118.74851
239.624	62.9663
239.843	105.38023
240.063	60.88615
240.283	42.46516
240.503	44.11696
240.723	44.202
240.943	27.58743
241.163	33.95812
241.383	23.04506
241.603	12.98238
241.822	14.71006
242.042	10.1166
242.262	13.42677
242.482	14.8369
242.702	16.56286
242.921	5.82918
243.141	11.40121
243.361	11.50021
243.581	15.604
243.8	14.47746
244.02	8.63941
244.24	15.78465
244.459	15.43778
244.679	32.85855
244.899	20.36116
245.118	23.41768
245.338	21.02198
245.558	23.23149
245.777	13.47577
245.997	16.16576
246.216	15.46949
246.436	9.55114
246.655	7.11406
246.875	5.19912
247.094	9.91294
247.314	3.59776
247.533	6.21866
247.753	7.21686
247.972	5.76757
248.192	2.24981
248.411	3.51051
248.631	6.01349
248.85	7.47592
249.07	7.41884
249.289	10.64182
249.508	7.57767
249.728	12.33942
249.947	12.59859
250.166	15.15642
250.386	7.78048
250.605	11.02828
250.824	19.84274
251.044	13.07928
251.263	39.45163
251.482	22.66349
251.701	18.58382
251.921	0.47047
252.14	5.96936
252.359	7.11644
252.578	16.38119
252.798	6.10269
253.017	14.32282
253.236	7.6312
253.455	9.87498
253.674	19.46711
253.893	8.84457
254.112	14.52091
254.331	20.46112
254.551	17.0859
254.77	7.71168
254.989	23.45291
255.208	17.69792
255.427	26.79769
255.646	22.63402
255.865	32.69658
256.084	15.16018
256.303	18.29687
256.522	22.16992
256.741	5.34963
256.96	6.20045
257.179	13.25783
257.397	18.2226
257.616	9.27305
257.835	10.49642
258.054	24.7535
258.273	16.40232
258.492	16.87136
258.711	10.38746
258.93	5.13818
259.148	6.99942
259.367	6.78778
259.586	8.50612
259.805	3.80962
260.023	7.39264
260.242	5.67682
260.461	4.41496
260.68	2.3053
260.898	6.75187
261.117	2.30238
261.336	1.59726
261.554	5.78033
261.773	5.903
261.992	1.33508
262.21	5.68307
262.429	6.75717
262.648	11.07574
262.866	12.75981
263.085	9.81497
263.303	8.14878
263.522	14.37189
263.74	13.79752
263.959	23.9542
264.178	12.93897
264.396	11.07959
264.615	7.45712
264.833	17.35086
265.051	15.25702
265.27	17.77678
265.488	17.15478
265.707	11.07261
265.925	16.39844
266.144	7.979
266.362	8.98591
266.58	9.68991
266.799	7.80279
267.017	9.14967
267.235	8.42467
267.454	5.87011
267.672	2.89211
267.89	6.67679
268.109	7.48329
268.327	7.11894
268.545	2.0178
268.763	6.28642
268.982	2.85627
269.2	7.52134
269.418	5.19562
269.636	4.01022
269.854	7.03238
270.073	5.20133
270.291	3.2011
270.509	2.80157
270.727	6.84858
270.945	11.38753
271.163	11.27471
271.381	2.65289
271.599	4.86965
271.817	7.95514
272.036	2.7983
272.254	5.26531
272.472	3.51338
272.69	3.78856
272.908	3.92603
273.126	6.34545
273.344	8.15215
273.562	3.02247
273.779	4.37474
273.997	6.75676
274.215	6.4333
274.433	4.8586
274.651	7.05542
274.869	6.95121
275.087	4.07348
275.305	6.66558
275.523	4.116
275.74	4.6754
275.958	8.59144
276.176	11.91966
276.394	4.00457
276.612	5.00775
276.829	5.06092
277.047	4.48002
277.265	4.7605
277.483	5.73125
277.7	6.31428
277.918	5.42371
278.136	9.70032
278.353	4.64936
278.571	2.74748
278.789	7.42242
279.006	1.60463
279.224	4.46522
279.442	7.61808
279.659	5.51728
279.877	3.76054
280.094	8.26165
280.312	1.68902
280.529	5.40275
280.747	1.9597
280.964	4.32921
281.182	8.51297
281.399	4.47723
281.617	5.53559
281.834	3.99925
282.052	3.14683
282.269	4.97687
282.487	4.15575
282.704	3.46515
282.921	3.16327
283.139	5.11938
283.356	6.4309
283.574	5.78236
283.791	2.79417
284.008	7.96035
284.226	4.80483
284.443	5.23595
284.66	6.44484
284.877	5.86676
285.095	3.35837
285.312	2.52352
285.529	1.57143
285.746	1.28354
285.964	3.10211
286.181	2.11792
286.398	3.01704
286.615	4.37276
286.832	3.98644
287.05	1.09837
287.267	2.91484
287.484	4.01266
287.701	4.26344
287.918	4.05466
288.135	4.20281
288.352	1.81962
288.569	2.28111
288.786	3.87808
289.003	2.82722
289.22	4.63271
289.437	2.71995
289.654	4.24314
289.871	4.4654
290.088	4.2844
290.305	3.43187
290.522	2.94017
290.739	3.10663
290.956	4.54768
291.173	5.5931
291.39	5.21646
291.607	3.6558
291.824	2.9847
292.04	2.39581
292.257	4.67943
292.474	5.03055
292.691	3.17109
292.908	1.77618
293.125	2.80936
293.341	1.69793
293.558	7.36105
293.775	3.3383
293.992	3.27122
294.208	1.26629
294.425	2.30142
294.642	2.73532
294.858	4.26686
295.075	1.10282
295.292	3.12612
295.508	3.73696
295.725	5.27592
295.942	2.71293
296.158	1.88648
296.375	3.06313
296.591	2.43115
296.808	2.42629
297.024	2.87149
297.241	3.21488
297.458	3.47973
297.674	0.38402
297.891	2.71485
298.107	2.2795
298.323	1.66426
298.54	3.89298
298.756	2.00474
298.973	0.83893
299.189	4.17294
299.406	1.94709
299.622	4.36448
299.838	4.40336
300.055	3.90487
300.271	0.87329
300.487	1.71624
300.704	1.90767
300.92	1.13874
301.136	5.52522
301.353	4.26952
301.569	3.08352
301.785	3.25356
302.001	3.79688
302.218	3.47229
302.434	3.58618
302.65	1.18187
302.866	2.26332
303.083	5.82426
303.299	5.70646
303.515	2.88208
303.731	3.06397
303.947	1.02678
304.163	2.00773
304.379	3.03428
304.595	3.46974
304.812	2.04782
305.028	1.67403
305.244	2.38648
305.46	3.91852
305.676	3.93831
305.892	4.57244
306.108	3.52154
306.324	2.60391
306.54	5.39809
306.756	3.8035
306.972	3.48302
307.187	2.39884
307.403	5.18689
307.619	2.14823
307.835	4.3984
308.051	4.63691
308.267	1.54628
308.483	4.29635
308.699	3.50786
308.914	2.76181
309.13	2.82908
309.346	0.71545
309.562	1.54686
309.778	0.89327
309.993	3.63563
310.209	2.73642
310.425	1.25418
310.641	2.32141
310.856	1.50152
311.072	1.36193
311.288	2.67991
311.503	2.78416
311.719	0.61275
311.935	0.41391
312.15	3.02312
312.366	2.80626
312.581	3.41379
312.797	2.58252
313.013	3.65427
313.228	1.94124
313.444	2.92985
313.659	1.66999
313.875	3.25348
314.09	2.65438
314.306	4.62103
314.521	3.87419
314.737	3.69477
314.952	3.17975
315.168	2.80844
315.383	3.31338
315.599	2.54404
315.814	2.46204
316.029	3.94438
316.245	1.35033
316.46	0.74225
316.675	4.59591
316.891	5.45142
317.106	6.60913
317.321	3.6085
317.537	3.53689
317.752	3.74683
317.967	4.05136
318.183	1.97979
318.398	2.49457
318.613	4.09875
318.828	4.8204
319.043	3.97167
319.259	2.61774
319.474	3.22026
319.689	4.45043
319.904	0.46398
320.119	3.96841
320.334	3.30731
320.549	2.46458
320.765	4.3494
320.98	3.23501
321.195	4.09295
321.41	2.78205
321.625	3.99026
321.84	5.29812
322.055	5.27018
322.27	2.26777
322.485	1.53366
322.7	3.30569
322.915	4.47129
323.13	1.89497
323.345	4.82408
323.56	3.50788
323.775	3.82233
323.989	3.66898
324.204	3.16394
324.419	4.0024
324.634	1.23593
324.849	2.83789
325.064	5.42788
325.279	4.06333
325.493	3.70153
325.708	4.15744
325.923	1.99013
326.138	2.04632
326.352	4.88972
326.567	4.01522
326.782	2.55253
326.997	1.92303
327.211	3.71015
327.426	3.59966
327.641	2.57535
327.855	0.90289
328.07	3.61037
328.285	5.02909
328.499	2.56272
328.714	3.39825
328.928	4.07974
329.143	2.83314
329.358	4.22476
329.572	4.31484
329.787	4.64682
330.001	6.36821
330.216	1.42404
330.43	5.22681
330.645	5.15942
330.859	4.22109
331.074	1.95959
331.288	3.08145
331.503	4.89786
331.717	1.7732
331.931	2.84671
332.146	3.20913
332.36	5.431
332.575	3.6936
332.789	3.32367
333.003	2.74447
333.218	3.71383
333.432	2.09265
333.646	3.90516
333.86	4.90359
334.075	5.2505
334.289	2.20989
334.503	1.70616
334.717	3.56939
334.932	3.60612
335.146	4.3101
335.36	2.48803
335.574	3.90898
335.788	3.7156
336.003	4.39996
336.217	4.12992
336.431	3.65225
336.645	2.48229
336.859	1.81381
337.073	2.98159
337.287	3.00528
337.501	1.74715
337.715	3.27528
337.929	3.56693
338.143	1.53507
338.357	2.79966
338.571	1.86304
338.785	3.5536
338.999	2.25992
339.213	2.29271
339.427	1.29969
339.641	4.39477
339.855	2.48804
340.069	2.13139
340.283	4.07634
340.497	4.98609
340.711	3.40452
340.924	2.41262
341.138	1.71362
341.352	1.38621
341.566	3.13663
341.78	0.66185
341.993	2.07072
342.207	1.67523
342.421	3.04447
342.635	2.79927
342.848	2.06243
343.062	0.27794
343.276	2.01627
343.49	5.40361
343.703	2.10243
343.917	3.77638
344.131	3.75154
344.344	2.05836
344.558	2.17894
344.771	1.68829
344.985	4.03467
345.199	4.65827
345.412	3.08891
345.626	3.16069
345.839	0.84423
346.053	1.4834
346.266	1.59786
346.48	3.61759
346.693	3.00787
346.907	3.2557
347.12	1.7982
347.334	2.98422
347.547	3.21639
347.76	2.3731
347.974	4.04321
348.187	3.08306
348.401	2.38592
348.614	2.10884
348.827	2.25669
349.041	3.31554
349.254	0.84959
349.467	2.50873
349.681	1.40387
349.894	2.11951
350.107	3.99211
350.32	4.6577
350.534	0.99504
350.747	2.26448
350.96	1.56237
351.173	1.80196
351.386	2.18257
351.6	2.0843
351.813	1.84377
352.026	2.55008
352.239	1.18464
352.452	2.15644
352.665	3.62977
352.878	2.22465
353.092	5.02731
353.305	3.33134
353.518	2.81086
353.731	1.8079
353.944	3.72551
354.157	1.84026
354.37	1.54741
354.583	1.38648
354.796	0.63936
355.009	3.74585
355.222	2.44204
355.435	2.47027
355.647	3.63758
355.86	1.32428
356.073	2.31515
356.286	1.94099
356.499	3.22483
356.712	2.87565
356.925	2.65848
357.138	3.43409
357.35	1.34538
357.563	1.99143
357.776	2.47917
357.989	1.99945
358.201	2.93338
358.414	2.48148
358.627	3.50342
358.84	1.97154
359.052	1.15887
359.265	1.16569
359.478	3.37044
359.69	-0.4324
359.903	3.01068
360.116	3.08141
360.328	0.62648
360.541	3.00616
360.753	1.15393
360.966	1.65262
361.179	1.67152
361.391	1.56935
361.604	1.17721
361.816	1.60453
362.029	1.37286
362.241	1.21766
362.454	1.51427
362.666	1.1859
362.879	2.04401
363.091	1.74703
363.304	1.26061
363.516	2.04127
363.728	0.91772
363.941	2.666
364.153	1.43989
364.366	-0.1467
364.578	0.9926
364.79	2.51425
365.003	1.99669
365.215	1.60985
365.427	2.54332
365.639	3.37299
365.852	2.28335
366.064	3.78055
366.276	1.4765
366.488	2.58695
366.701	1.63213
366.913	1.89378
367.125	1.96091
367.337	1.42499
367.549	1.58943
367.762	2.24228
367.974	2.12297
368.186	1.40584
368.398	3.01053
368.61	2.54137
368.822	2.7381
369.034	2.03625
369.246	2.59479
369.458	4.34348
369.67	1.0714
369.882	3.99323
370.094	0.14509
370.306	3.67785
370.518	1.57332
370.73	1.48051
370.942	1.22428
371.154	1.72212
371.366	1.39367
371.578	2.20445
371.79	1.21312
372.002	3.22365
372.214	3.61837
372.425	2.2736
372.637	3.44716
372.849	2.30902
373.061	-0.03089
373.273	2.57614
373.484	2.5621
373.696	2.85561
373.908	-0.10828
374.12	3.07963
374.331	2.36415
374.543	1.21777
374.755	1.11952
374.967	2.19831
375.178	2.70862
375.39	1.74953
375.602	2.14968
375.813	0.70782
376.025	0.74598
376.236	1.79281
376.448	2.02572
376.66	1.47521
376.871	1.42827
377.083	2.77777
377.294	2.81986
377.506	1.43419
377.717	3.16562
377.929	2.05952
378.14	1.10167
378.352	2.40698
378.563	2.31557
378.775	3.15173
378.986	1.23327
379.197	1.97484
379.409	1.4484
379.62	2.68527
379.832	2.12646
380.043	1.5955
380.254	2.06809
380.466	0.72693
380.677	4.42113
380.888	4.12664
381.1	4.39134
381.311	4.21867
381.522	1.80903
381.733	4.84086
381.945	1.66932
382.156	2.18116
382.367	1.45495
382.578	4.60299
382.789	4.48712
383.001	1.51595
383.212	3.16359
383.423	3.39489
383.634	2.99327
383.845	2.25475
384.056	1.53029
384.267	1.80312
384.478	1.79384
384.69	0.878
384.901	2.43642
385.112	2.24966
385.323	3.47612
385.534	2.28015
385.745	2.11082
385.956	2.31571
386.167	0.85656
386.378	2.37987
386.588	0.76383
386.799	1.13287
387.01	0.34869
387.221	2.70413
387.432	1.67818
387.643	3.79956
387.854	1.66175
388.065	1.5262
388.275	1.66368
388.486	1.46398
388.697	1.72458
388.908	1.58077
389.119	2.94374
389.329	3.62772
389.54	1.9212
389.751	2.12151
389.962	3.0021
390.172	2.10461
390.383	1.31426
390.594	1.24577
390.804	1.17515
391.015	1.29943
391.226	1.86513
391.436	2.38108
391.647	2.07371
391.858	2.50762
392.068	0.28715
392.279	0.68704
392.489	1.79566
392.7	2.79714
392.91	0.79012
393.121	1.12977
393.331	2.20352
393.542	2.85692
393.752	2.31996
393.963	1.90995
394.173	1.82309
394.384	2.46881
394.594	1.75448
394.804	0.75053
395.015	1.98626
395.225	2.45538
395.436	0.85569
395.646	2.3715
395.856	1.1403
396.067	0.77125
396.277	2.85089
396.487	2.22303
396.697	1.84808
396.908	2.53786
397.118	2.6222
397.328	2.08462
397.538	2.80236
397.749	1.297
397.959	2.75953
398.169	2.56606
398.379	0.79532
398.589	2.68602
398.8	2.03103
399.01	1.93845
399.22	1.59975
399.43	4.03398
399.64	1.61967
399.85	2.54376
400.06	1.87311
400.27	1.55952
400.48	1.9798
400.69	3.37203
400.9	1.59039
401.11	1.44848
401.32	2.89446
401.53	1.59357
401.74	3.47108
401.95	2.70014
402.16	1.17077
402.37	2.54616
402.58	1.53811
402.79	2.70492
403	2.8523
403.209	1.55731
403.419	2.70145
403.629	1.6019
403.839	2.64644
404.049	2.79115
404.258	1.32085
404.468	1.13216
404.678	2.50865
404.888	2.6369
405.097	1.1532
405.307	1.95317
405.517	2.49325
405.727	2.30288
405.936	1.66992
406.146	2.26125
406.356	3.2755
406.565	2.12598
406.775	1.72449
406.984	1.70641
407.194	3.73539
407.404	2.24759
407.613	2.47109
407.823	2.90234
408.032	3.34022
408.242	3.17401
408.451	1.76561
408.661	2.1569
408.87	3.87739
409.08	1.9132
409.289	2.61531
409.499	2.352
409.708	2.34326
409.918	0.67815
410.127	2.32518
410.336	3.62603
410.546	2.88106
410.755	2.09166
410.964	1.92764
411.174	1.78121
411.383	2.84592
411.592	2.86201
411.802	1.54804
412.011	3.33527
412.22	2.43925
412.429	3.81499
412.639	3.62463
412.848	3.74624
413.057	3.95176
413.266	3.51054
413.475	2.54303
413.685	3.24722
413.894	3.29806
414.103	3.62146
414.312	3.10072
414.521	2.50785
414.73	2.8007
414.939	4.18219
415.148	3.04252
415.357	2.82562
415.566	2.2474
415.776	2.22809
415.985	2.10361
416.194	3.25249
416.403	3.80581
416.611	1.43649
416.82	1.96436
417.029	2.44608
417.238	1.81767
417.447	1.69229
417.656	1.968
417.865	1.802
418.074	2.0048
418.283	2.19468
418.492	2.83921
418.7	2.73715
418.909	3.32335
419.118	2.34202
419.327	2.52138
419.536	2.36005
419.744	1.82855
419.953	2.87734
420.162	2.84734
420.371	1.8074
420.579	1.71157
420.788	2.78601
420.997	2.74029
421.205	2.91869
421.414	2.48954
421.623	2.46695
421.831	2.06852
422.04	2.94624
422.249	2.084
422.457	2.68994
422.666	2.10772
422.874	3.10033
423.083	3.0502
423.291	2.97508
423.5	2.63293
423.708	2.85966
423.917	3.25274
424.125	2.72704
424.334	2.44201
424.542	4.28657
424.751	3.46824
424.959	3.31291
425.167	3.56827
425.376	3.53704
425.584	2.75758
425.793	3.15611
426.001	2.34408
426.209	3.43998
426.418	2.42793
426.626	2.66845
426.834	2.4229
427.042	3.02926
427.251	2.45821
427.459	3.64313
427.667	3.26927
427.875	2.22487
428.084	2.66821
428.292	3.99748
428.5	3.46453
428.708	2.5068
428.916	2.40262
429.124	3.16161
429.333	2.8222
429.541	2.87605
429.749	3.07411
429.957	3.01167
430.165	4.7685
430.373	2.19586
430.581	3.20992
430.789	4.12828
430.997	2.76829
431.205	2.6499
431.413	3.09531
431.621	2.85759
431.829	3.52659
432.037	2.76427
432.245	3.27927
432.453	3.30251
432.661	2.90669
432.869	4.41026
433.076	2.3276
433.284	2.96105
433.492	3.41544
433.7	3.91742
433.908	2.72906
434.116	3.1378
434.323	3.30403
434.531	3.15671
434.739	3.53907
434.947	3.82482
435.154	3.7292
435.362	3.39484
435.57	3.03359
435.778	2.86534
435.985	3.46966
436.193	2.95328
436.401	4.09757
436.608	3.27347
436.816	2.95974
437.023	4.5582
437.231	4.56667
437.439	3.47745
437.646	3.63893
437.854	3.66301
438.061	3.78044
438.269	3.09034
438.476	3.68289
438.684	3.33968
438.891	3.00823
439.099	2.78779
439.306	2.21276
439.514	2.54304
439.721	3.43697
439.929	2.76768
440.136	3.44196
440.343	3.38584
440.551	2.91971
440.758	4.46217
440.965	3.63984
441.173	3.33062
441.38	2.81109
441.587	3.54759
441.795	2.96773
442.002	3.59176
442.209	3.63755
442.416	3.93077
442.624	3.80866
442.831	3.83885
443.038	3.09768
443.245	2.7675
443.452	3.15877
443.66	4.07575
443.867	2.86825
444.074	3.13202
444.281	2.83083
444.488	3.23081
444.695	3.27765
444.902	2.94504
445.109	3.58826
445.316	3.05828
445.523	2.94408
445.73	2.68752
445.937	3.40199
446.144	3.78621
446.351	3.76303
446.558	2.88627
446.765	4.2104
446.972	4.14095
447.179	3.39814
447.386	4.32644
447.593	3.16489
447.8	4.17789
448.007	3.27074
448.214	3.45008
448.42	3.05446
448.627	4.32198
448.834	3.41777
449.041	3.37904
449.248	3.44206
449.454	4.18699
449.661	4.93608
449.868	3.52244
450.075	3.15696
450.281	2.23593
450.488	2.8085
450.695	3.15251
450.901	3.0458
451.108	3.53748
451.315	4.28383
451.521	3.49467
451.728	4.23315
451.935	3.09812
452.141	3.36863
452.348	3.50477
452.554	3.50457
452.761	3.29735
452.967	4.66808
453.174	3.69071
453.38	3.76848
453.587	2.81703
453.793	3.69789
454	4.23129
454.206	5.19608
454.413	4.59326
454.619	3.91632
454.825	3.14678
455.032	4.09847
455.238	4.50199
455.445	2.74838
455.651	3.83743
455.857	2.37172
456.064	3.51561
456.27	3.43995
456.476	3.57813
456.682	2.73902
456.889	4.01621
457.095	4.07885
457.301	5.34729
457.507	3.60787
457.714	3.70196
457.92	3.53512
458.126	3.04686
458.332	3.35093
458.538	2.97411
458.744	3.09147
458.951	3.03273
459.157	4.28822
459.363	3.44405
459.569	3.25516
459.775	4.02675
459.981	3.079
460.187	3.59581
460.393	4.04706
460.599	4.37757
460.805	3.67634
461.011	3.71959
461.217	4.47949
461.423	4.60516
461.629	3.67035
461.835	4.38485
462.041	3.64686
462.247	5.05516
462.453	3.76006
462.658	3.8804
462.864	4.41164
463.07	4.0166
463.276	4.18688
463.482	4.13963
463.688	4.83526
463.893	3.49957
464.099	3.62856
464.305	5.07088
464.511	3.59525
464.716	3.91342
464.922	4.37258
465.128	3.42872
465.333	5.23669
465.539	4.30111
465.745	3.73103
465.95	4.12047
466.156	5.97268
466.362	4.80456
466.567	3.76753
466.773	3.57039
466.978	5.15952
467.184	3.34474
467.389	2.46079
467.595	4.49082
467.8	3.3618
468.006	5.00794
468.211	4.85373
468.417	3.33031
468.622	4.4672
468.828	4.5506
469.033	4.25361
469.239	6.19505
469.444	3.60389
469.649	4.74171
469.855	3.85246
470.06	4.22005
470.266	3.30513
470.471	4.5294
470.676	4.35588
470.881	2.94718
471.087	4.86322
471.292	5.27155
471.497	3.1826
471.703	3.95939
471.908	3.6741
472.113	4.22547
472.318	4.63517
472.523	3.27695
472.729	4.35622
472.934	4.44501
473.139	3.76527
473.344	4.57093
473.549	5.0272
473.754	3.55828
473.959	5.51861
474.164	3.5116
474.369	4.02495
474.575	4.8877
474.78	4.26097
474.985	3.87184
475.19	2.93178
475.395	3.57913
475.6	4.02118
475.804	5.105
476.009	3.95917
476.214	4.07136
476.419	3.76872
476.624	2.78529
476.829	3.46373
477.034	4.34334
477.239	3.42907
477.444	4.13778
477.648	4.34004
477.853	4.4354
478.058	3.74495
478.263	3.50833
478.468	3.15255
478.672	3.3035
478.877	4.8208
479.082	5.34106
479.287	4.25233
479.491	4.0819
479.696	3.20518
479.901	4.66597
480.105	4.3907
480.31	3.5404
480.515	3.82565
480.719	5.49197
480.924	3.36293
481.128	3.06751
481.333	3.87524
481.538	3.92918
481.742	3.40651
481.947	3.90178
482.151	4.14162
482.356	4.11672
482.56	5.10033
482.765	5.30141
482.969	6.58502
483.174	7.5539
483.378	8.82746
483.582	8.65528
483.787	9.64146
483.991	9.55193
484.196	9.68522
484.4	9.54359
484.604	9.87831
484.809	8.64603
485.013	8.46766
485.217	7.60674
485.422	6.77299
485.626	6.16581
485.83	5.88347
486.034	5.64611
486.239	5.84886
486.443	5.81642
486.647	5.70766
486.851	6.53625
487.055	7.11156
487.26	6.58009
487.464	7.17615
487.668	6.63043
487.872	6.57994
488.076	7.20314
488.28	6.67412
488.484	6.26029
488.688	6.07935
488.892	6.1939
489.096	5.84436
489.3	5.19028
489.504	5.00574
489.708	5.12269
489.912	5.01505
490.116	4.81245
490.32	4.18833
490.524	4.97795
490.728	5.18195
490.932	5.24388
491.136	5.29015
491.34	6.29687
491.544	6.4707
491.748	6.0744
491.951	6.05698
492.155	5.87604
492.359	5.96018
492.563	4.91068
492.767	4.79631
492.97	4.54529
493.174	3.89873
493.378	4.1781
493.582	3.71318
493.785	4.28589
493.989	4.37237
494.193	4.39939
494.396	3.96772
494.6	4.66844
494.804	4.1983
495.007	3.71135
495.211	3.69232
495.414	4.00137
495.618	4.15465
495.822	4.78954
496.025	4.02476
496.229	4.61366
496.432	3.52152
496.636	3.98945
496.839	3.90146
497.043	5.03654
497.246	4.04816
497.45	3.82183
497.653	3.95712
497.856	4.29216
498.06	3.39579
498.263	3.92548
498.467	3.69018
498.67	4.76702
498.873	4.42673
499.077	3.89731
499.28	3.86041
499.483	4.36564
499.686	4.67123
499.89	4.54117
500.093	4.74534
500.296	3.71206
500.499	5.29981
500.703	4.25195
500.906	4.2738
501.109	5.60589
501.312	4.33393
501.515	4.21041
501.719	4.57095
501.922	5.36039
502.125	4.47219
502.328	4.15069
502.531	3.49468
502.734	4.26576
502.937	3.02309
503.14	4.31471
503.343	3.42155
503.546	4.0127
503.749	3.67058
503.952	4.65987
504.155	3.47224
504.358	4.64685
504.561	4.21302
504.764	3.36587
504.967	4.1943
505.17	4.33031
505.373	5.42875
505.576	4.31468
505.778	4.65355
505.981	3.90468
506.184	5.11559
506.387	3.18192
506.59	5.50176
506.793	5.08094
506.995	4.6301
507.198	2.86448
507.401	4.23391
507.604	4.38543
507.806	3.52304
508.009	3.65845
508.212	4.41522
508.414	3.66169
508.617	3.70077
508.82	4.0247
509.022	4.94195
509.225	4.33176
509.427	2.9969
509.63	5.06663
509.833	4.13842
510.035	3.99386
510.238	3.10379
510.44	4.86265
510.643	2.76637
510.845	5.74545
511.048	4.43672
511.25	3.89065
511.453	4.09073
511.655	4.41267
511.858	3.89638
512.06	4.76789
512.262	4.10718
512.465	4.75924
512.667	3.71121
512.869	3.46644
513.072	4.46057
513.274	4.89155
513.476	4.58362
513.679	4.88353
513.881	3.56677
514.083	5.54812
514.286	3.81168
514.488	3.91765
514.69	3.57706
514.892	3.46217
515.094	4.74761
515.297	3.89525
515.499	4.25607
515.701	3.75493
515.903	5.30014
516.105	5.30022
516.307	4.67764
516.509	2.94888
516.711	3.28705
516.913	4.13583
517.116	3.89856
517.318	3.7943
517.52	4.68704
517.722	4.38094
517.924	3.1651
518.126	4.16471
518.328	3.47039
518.529	4.30715
518.731	4.99318
518.933	3.61334
519.135	3.91943
519.337	4.69786
519.539	4.39749
519.741	3.0395
519.943	3.98231
520.145	3.90225
520.346	4.48541
520.548	4.02123
520.75	4.35759
520.952	3.88862
521.153	4.28892
521.355	4.74713
521.557	3.49957
521.759	4.45137
521.96	4.27487
522.162	3.56795
522.364	5.05265
522.565	3.75662
522.767	4.86352
522.969	5.16004
523.17	4.49634
523.372	4.57491
523.573	3.73586
523.775	3.96559
523.977	3.38292
524.178	5.18041
524.38	3.51956
524.581	4.52193
524.783	3.74957
524.984	4.3128
525.186	3.86485
525.387	4.26733
525.589	3.91499
525.79	3.67841
525.991	3.45408
526.193	4.07363
526.394	3.10594
526.596	4.07992
526.797	4.07001
526.998	3.81005
527.2	3.50069
527.401	4.97187
527.602	5.0796
527.803	6.52912
528.005	6.35569
528.206	7.01314
528.407	7.45403
528.608	7.11425
528.81	7.25141
529.011	6.64608
529.212	7.62925
529.413	6.80073
529.614	6.33886
529.815	6.336
530.017	5.87422
530.218	5.24028
530.419	4.43184
530.62	4.47
530.821	4.44634
531.022	3.46526
531.223	4.53734
531.424	4.48758
531.625	4.23658
531.826	4.14517
532.027	4.16054
532.228	5.08552
532.429	4.61407
532.63	4.53455
532.831	5.00518
533.032	5.07016
533.233	5.56716
533.433	5.3265
533.634	5.47002
533.835	4.76596
534.036	4.54945
534.237	4.57403
534.438	4.15644
534.638	3.61807
534.839	3.92147
535.04	4.48573
535.241	3.93441
535.441	5.16902
535.642	4.32164
535.843	3.44476
536.043	3.45097
536.244	3.67792
536.445	3.68455
536.645	4.52663
536.846	4.01769
537.047	4.79533
537.247	3.56898
537.448	3.95821
537.648	4.11915
537.849	4.20413
538.049	4.24462
538.25	4.84959
538.451	4.56246
538.651	3.7518
538.851	4.51981
539.052	5.06824
539.252	4.71253
539.453	4.07597
539.653	4.1944
539.854	3.98713
540.054	3.84775
540.254	4.50898
540.455	4.91743
540.655	4.26847
540.855	5.20567
541.056	5.72643
541.256	5.17676
541.456	6.21016
541.657	5.30771
541.857	6.2389
542.057	4.8207
542.257	4.76758
542.458	5.37999
542.658	5.33918
542.858	4.02146
543.058	4.91883
543.258	4.59393
543.458	3.59743
543.659	3.36292
543.859	4.74067
544.059	4.65069
544.259	4.14378
544.459	4.73067
544.659	3.88187
544.859	4.58748
545.059	3.89493
545.259	4.64064
545.459	4.32091
545.659	4.82241
545.859	4.18945
546.059	4.29694
546.259	3.60574
546.459	3.12857
546.659	3.46053
546.859	4.57617
547.059	4.41141
547.258	4.61292
547.458	4.53718
547.658	3.55264
547.858	3.67006
548.058	4.55543
548.258	4.42061
548.457	3.86429
548.657	6.65515
548.857	4.36074
549.057	5.17283
549.256	5.01372
549.456	4.4928
549.656	3.11733
549.855	6.18102
550.055	4.46993
550.255	6.31363
550.454	5.00318
550.654	5.6489
550.853	5.95721
551.053	5.53681
551.253	5.01116
551.452	4.96848
551.652	3.60072
551.851	3.17316
552.051	4.30924
552.25	4.15672
552.45	3.93872
552.649	4.24658
552.849	3.76734
553.048	4.55576
553.248	5.1267
553.447	3.95444
553.646	5.44706
553.846	6.016
554.045	5.53583
554.244	3.88266
554.444	6.3613
554.643	4.23608
554.842	6.11397
555.042	6.78429
555.241	4.54223
555.44	4.0819
555.64	5.21209
555.839	6.51324
556.038	5.55306
556.237	4.49531
556.436	4.75126
556.636	5.3602
556.835	4.32533
557.034	6.5735
557.233	4.95919
557.432	3.94551
557.631	6.13561
557.83	4.94282
558.029	4.56009
558.228	4.68229
558.427	4.02352
558.626	5.55817
558.825	4.25842
559.024	5.3166
559.223	6.67835
559.422	5.00569
559.621	5.28881
559.82	2.85018
560.019	5.03935
560.218	4.68368
560.417	2.44015
560.616	4.79561
560.815	7.89298
561.014	3.62339
561.212	5.92504
561.411	5.19717
561.61	3.37631
561.809	4.67964
562.008	6.42543
562.206	4.89561
562.405	5.49815
562.604	4.89235
562.803	5.03662
563.001	4.84425
563.2	3.71675
563.399	5.4326
563.597	4.03529
563.796	5.19992
563.995	3.87169
564.193	5.46352
564.392	4.51047
564.59	6.86581
564.789	3.06103
564.988	4.66166
565.186	4.88997
565.385	4.54182
565.583	4.35371
565.782	4.54582
565.98	4.32867
566.179	4.60958
566.377	3.50562
566.575	3.92693
566.774	5.69627
566.972	5.44615
567.171	6.6038
567.369	5.98044
567.567	4.91582
567.766	5.32507
567.964	3.00159
568.162	5.4742
568.361	5.94446
568.559	4.79128
568.757	5.45067
568.956	5.10753
569.154	4.74673
569.352	5.80426
569.55	4.82171
569.748	5.04246
569.947	4.12728
570.145	4.29076
570.343	3.80335
570.541	5.79019
570.739	3.60539
570.937	4.78043
571.135	5.18585
571.333	6.22812
571.532	6.08887
571.73	4.91131
571.928	5.71634
572.126	5.11459
572.324	4.30887
572.522	6.00885
572.72	7.26163
572.918	4.84095
573.116	5.10181
573.313	4.97977
573.511	4.80178
573.709	4.62994
573.907	5.53073
574.105	4.56855
574.303	3.28336
574.501	3.48277
574.699	5.16626
574.896	5.21376
575.094	5.41253
575.292	3.6204
575.49	5.72677
575.688	4.88328
575.885	6.25382
576.083	6.87097
576.281	5.38613
576.478	4.63167
576.676	5.73756
576.874	4.1301
577.071	5.02974
577.269	7.68761
577.467	4.84309
577.664	5.40768
577.862	6.16348
578.059	4.81538
578.257	6.47053
578.455	5.37709
578.652	5.43153
578.85	3.4614
579.047	5.6396
579.245	5.44932
579.442	5.40531
579.64	5.65973
579.837	3.6138
580.034	8.0327
580.232	5.07313
580.429	4.29328
580.627	6.19535
580.824	7.0028
581.021	6.23026
581.219	5.27802
581.416	4.65259
581.613	7.05687
581.811	7.15157
582.008	4.75399
582.205	6.74802
582.402	6.02723
582.6	8.14971
582.797	5.92959
582.994	6.48213
583.191	6.57936
583.388	5.85633
583.586	6.74093
583.783	7.19719
583.98	4.82462
584.177	6.12421
584.374	2.55405
584.571	5.95674
584.768	5.78978
584.965	5.44919
585.162	6.79402
585.359	7.90429
585.556	5.90238
585.753	6.39319
585.95	4.38932
586.147	5.01142
586.344	6.37482
586.541	5.6145
586.738	4.62506
586.935	5.69471
587.132	5.05548
587.329	7.17615
587.526	5.81484
587.722	11.47851
587.919	4.10633
588.116	6.28115
588.313	7.72975
588.51	8.34258
588.706	5.55794
588.903	6.5739
589.1	7.07757
589.297	9.21951
589.493	5.72668
589.69	6.46866
589.887	5.17382
590.083	4.47247
590.28	4.96886
590.477	7.14866
590.673	6.73388
590.87	7.59016
591.067	5.55745
591.263	6.76399
591.46	6.6951
591.656	5.95387
591.853	7.86946
592.049	4.98321
592.246	5.66465
592.442	7.5498
592.639	7.17939
592.835	4.38393
593.032	6.78815
593.228	4.42126
593.425	4.29723
593.621	4.03165
593.817	6.13929
594.014	4.98338
594.21	5.99464
594.406	7.04621
594.603	6.36198
594.799	5.25568
594.995	3.19173
595.192	7.02103
595.388	5.18337
595.584	5.07249
595.78	3.82671
595.977	7.81456
596.173	7.46086
596.369	5.12142
596.565	4.47808
596.761	4.38924
596.957	6.83473
597.154	4.53268
597.35	4.89635
597.546	4.62771
597.742	6.0688
597.938	5.94365
598.134	4.59459
598.33	5.98973
598.526	7.91699
598.722	6.5707
598.918	8.36131
599.114	6.73854
599.31	5.15126
599.506	6.52013
599.702	5.37724
599.898	6.75724
600.094	7.75242
600.29	7.44597
600.485	7.34154
600.681	5.65434
600.877	8.4609
601.073	6.51923
601.269	8.75531
601.465	8.05094
601.66	5.20077
601.856	3.8754
602.052	8.18312
602.248	5.56262
602.443	3.4693
602.639	4.37826
602.835	4.72579
603.03	4.90452
603.226	6.64439
603.422	4.4923
603.617	5.07374
603.813	4.87358
604.009	4.84921
604.204	6.64265
604.4	3.62075
604.595	6.37691
604.791	4.38094
604.986	5.67268
605.182	4.59242
605.377	4.96368
605.573	5.16012
605.768	5.84909
605.964	6.44769
606.159	6.84239
606.355	7.92171
606.55	5.75706
606.746	7.82654
606.941	6.17353
607.136	8.89319
607.332	10.16108
607.527	4.65888
607.722	6.73847
607.918	6.22164
608.113	5.11597
608.308	6.83704
608.503	6.57439
608.699	6.38853
608.894	6.40363
609.089	4.74763
609.284	6.04876
609.479	5.11798
609.675	6.63803
609.87	5.36771
610.065	6.67639
610.26	7.15
610.455	7.2513
610.65	5.96173
610.845	6.57585
611.04	7.76217
611.235	6.25068
611.43	5.82032
611.625	4.8853
611.82	8.61015
612.015	5.48207
612.21	8.81432
612.405	4.50653
612.6	9.52254
612.795	8.47239
612.99	7.8582
613.185	5.28255
613.38	5.70471
613.575	7.24077
613.77	10.84904
613.965	4.88337
614.159	5.51114
614.354	8.87965
614.549	8.64707
614.744	8.02562
614.938	5.44844
615.133	4.94407
615.328	8.84286
615.523	8.80793
615.717	11.56977
615.912	6.07105
616.107	7.31619
616.301	6.5619
616.496	5.83814
616.691	9.86459
616.885	8.18826
617.08	11.00143
617.274	9.17057
617.469	10.59758
617.664	8.12296
617.858	6.35663
618.053	7.46716
618.247	6.71515
618.442	3.97797
618.636	9.24779
618.831	6.60115
619.025	6.4241
619.219	11.28124
619.414	1.9733
619.608	7.45736
619.803	5.84113
619.997	10.78256
620.191	9.17844
620.386	8.1109
620.58	7.64315
620.774	4.64501
620.969	5.19929
621.163	7.78285
621.357	5.44611
621.551	6.88083
621.746	7.74366
621.94	7.19405
622.134	13.39234
622.328	10.83032
622.522	5.08193
622.716	9.30316
622.911	9.24885
623.105	9.00163
623.299	7.91427
623.493	13.10745
623.687	6.14521
623.881	6.94633
624.075	8.77198
624.269	9.33784
624.463	4.47455
624.657	4.91437
624.851	8.17792
625.045	9.11107
625.239	8.70554
625.433	6.10435
625.627	9.78995
625.821	6.28561
626.015	5.82459
626.209	7.22472
626.403	4.75521
626.596	7.67501
626.79	8.11905
626.984	5.03334
627.178	7.81059
627.372	7.91707
627.565	8.2582
627.759	4.58026
627.953	5.15778
628.147	8.0088
628.34	8.44071
628.534	10.80809
628.728	7.01576
628.921	9.19176
629.115	8.69145
629.309	9.29552
629.502	9.25129
629.696	8.35002
629.89	7.50181
630.083	8.14188
630.277	8.55077
630.47	11.19268
630.664	7.49009
630.857	5.28401
631.051	9.11368
631.244	10.17734
631.438	9.87284
631.631	6.66471
631.825	10.3397
632.018	9.34219
632.212	11.31929
632.405	10.06687
632.598	6.85961
632.792	8.20318
632.985	3.74134
633.178	7.26174
633.372	7.69549
633.565	7.87653
633.758	10.44994
633.952	6.3483
634.145	6.52593
634.338	7.75958
634.531	7.12082
634.724	6.79832
634.918	8.16009
635.111	7.57157
635.304	6.98187
635.497	12.13131
635.69	8.62313
635.883	10.3685
636.077	5.8711
636.27	9.088
636.463	8.51767
636.656	9.49428
636.849	7.36698
637.042	8.91088
637.235	11.78874
637.428	9.97565
637.621	9.35525
637.814	11.27836
638.007	11.87371
638.2	12.17622
638.393	13.07025
638.586	6.24328
638.778	7.88007
638.971	9.09204
639.164	12.34342
639.357	9.83449
639.55	11.7576
639.743	10.54942
639.935	10.6029
640.128	13.37592
640.321	10.37754
640.514	9.75175
640.707	14.78868
640.899	10.69201
641.092	6.01325
641.285	24.74275
641.477	4.6966
641.67	14.33073
641.863	12.09092
642.055	10.02831
642.248	9.50204
642.441	8.8276
642.633	10.34113
642.826	13.03912
643.018	12.41828
643.211	13.72268
643.403	13.0057
643.596	14.62684
643.788	14.83462
643.981	9.13237
644.173	11.96015
644.366	9.24878
644.558	6.35216
644.751	11.79268
644.943	6.78705
645.135	14.1677
645.328	13.99502
645.52	11.61405
645.712	12.172
645.905	17.91936
646.097	7.69817
646.289	11.07117
646.482	14.48412
646.674	8.96093
646.866	12.62842
647.058	11.9052
647.251	7.74972
647.443	9.14894
647.635	9.7248
647.827	7.98219
648.019	7.75583
648.211	10.55817
648.404	10.71982
648.596	14.4039
648.788	10.60358
648.98	11.00931
649.172	11.33668
649.364	11.6201
649.556	6.24323
649.748	16.38083
649.94	8.70886
650.132	11.59941
650.324	8.25399
650.516	8.58146
650.708	13.2017
650.9	6.89591
651.092	6.40809
651.284	6.74631
651.476	7.49937
651.667	11.77449
651.859	13.4577
652.051	10.29416
652.243	10.66726
652.435	8.93999
652.627	11.22773
652.818	11.79659
653.01	6.55718
653.202	8.55028
653.394	9.60667
653.585	11.83325
653.777	22.06258
653.969	14.03019
654.16	13.76829
654.352	8.40194
654.544	10.8322
654.735	13.50789
654.927	11.46332
655.118	15.18593
655.31	13.12709
655.502	13.19183
655.693	9.5144
655.885	12.69507
656.076	14.94166
656.268	11.64708
656.459	14.52069
656.651	14.68596
656.842	9.46742
657.034	8.89917
657.225	12.46753
657.416	14.67616
657.608	14.21543
657.799	10.07259
657.99	13.19223
658.182	8.24171
658.373	8.81495
658.564	12.0109
658.756	10.11313
658.947	9.56122
659.138	7.67015
659.33	8.72404
659.521	8.13444
659.712	9.64076
659.903	9.21885
660.094	8.38872
660.286	6.26215
660.477	15.32161
660.668	12.24847
660.859	11.02884
661.05	7.52492
661.241	12.38435
661.432	12.60045
661.623	10.39674
661.814	9.6822
662.006	6.88131
662.197	12.86938
662.388	14.48693
662.579	12.21051
662.77	15.44304
662.96	19.71083
663.151	14.60042
663.342	6.90198
663.533	13.38919
663.724	11.56588
663.915	16.49454
664.106	11.77168
664.297	17.62369
664.488	13.83593
664.678	10.95613
664.869	14.27646
665.06	14.50475
665.251	13.35907
665.442	13.6388
665.632	9.24129
665.823	18.22108
666.014	4.23574
666.204	13.80158
666.395	16.49511
666.586	21.17951
666.776	14.70032
666.967	17.86232
667.158	12.89233
667.348	17.31497
667.539	9.04909
667.729	15.33727
667.92	10.32464
668.111	15.51408
668.301	14.07092
668.492	11.23497
668.682	12.2339
668.873	11.70206
669.063	8.99652
669.253	12.63291
669.444	14.8946
669.634	12.30153
669.825	17.99466
670.015	16.04785
670.206	10.61927
670.396	19.4491
670.586	12.06622
670.777	14.43182
670.967	6.63947
671.157	12.89451
671.347	11.29362
671.538	18.0127
671.728	14.42653
671.918	19.00583
672.108	16.91081
672.299	12.95059
672.489	14.76419
672.679	11.37113
672.869	15.34888
673.059	18.87097
673.249	15.52779
673.44	10.92288
673.63	12.84919
673.82	16.45528
674.01	10.75372
674.2	15.6108
674.39	23.75135
674.58	15.07948
674.77	13.79199
674.96	13.75874
675.15	27.63988
675.34	17.17661
675.53	14.26905
675.72	12.86864
675.91	9.24375
676.099	19.53062
676.289	20.99124
676.479	17.30602
676.669	12.70905
676.859	16.11086
677.049	10.26993
677.238	13.93547
677.428	20.17508
677.618	13.23876
677.808	16.70827
677.997	15.63258
678.187	10.08932
678.377	13.6162
678.567	12.0443
678.756	11.69447
678.946	12.59379
679.136	8.99276
679.325	10.23174
679.515	10.07648
679.704	8.54777
679.894	14.21158
680.084	13.10182
680.273	16.79877
680.463	9.6799
680.652	9.96434
680.842	12.6763
681.031	15.67734
681.221	10.02819
681.41	14.76909
681.6	12.91497
681.789	15.90074
681.978	18.28575
682.168	14.28683
682.357	15.35414
682.547	16.13124
682.736	14.68617
682.925	18.2396
683.115	17.77378
683.304	17.50162
683.493	15.82727
683.682	16.62651
683.872	15.83675
684.061	19.38828
684.25	16.538
684.439	21.41632
684.629	17.21673
684.818	27.87046
685.007	14.73738
685.196	14.05366
685.385	20.68175
685.574	16.92615
685.763	16.53994
685.952	15.95856
686.142	11.70345
686.331	21.17431
686.52	9.4878
686.709	21.4081
686.898	20.67915
687.087	18.12595
687.276	22.06277
687.465	19.54532
687.654	14.42131
687.842	21.80118
688.031	10.97756
688.22	20.59259
688.409	16.3291
688.598	16.73258
688.787	26.21006
688.976	16.49765
689.165	22.94645
689.353	14.53163
689.542	18.11489
689.731	19.08372
689.92	24.18061
690.108	21.01941
690.297	15.0968
690.486	17.57879
690.675	20.45236
690.863	24.31997
691.052	23.86874
691.241	19.22616
691.429	18.15486
691.618	23.53641
691.806	12.45391
691.995	16.40957
692.184	17.46709
692.372	15.39727
692.561	17.83885
692.749	17.50666
692.938	27.80567
693.126	20.70546
693.315	16.41246
693.503	20.32974
693.692	20.74326
693.88	22.06631
694.068	27.74762
694.257	17.73903
694.445	20.0169
694.634	10.17846
694.822	22.91938
695.01	24.21383
695.199	24.04749
695.387	25.81751
695.575	24.38448
695.763	18.32888
695.952	17.12147
696.14	12.06065
696.328	15.77449
696.516	18.65874
696.705	18.97121
696.893	18.98652
697.081	10.0926
697.269	19.62198
697.457	12.60449
697.645	11.64422
697.833	19.51251
698.021	12.39357
698.21	13.6706
698.398	15.08271
698.586	10.9909
698.774	10.48472
698.962	13.95918
699.15	11.40246
699.338	9.80635
699.526	17.07207
699.714	13.29625
699.901	14.49024
700.089	20.30616
700.277	14.03436
700.465	16.24025
700.653	20.52784
700.841	20.43802
701.029	14.29901
701.217	22.68277
701.404	18.76259
701.592	25.04037
701.78	27.43501
701.968	16.99918
702.155	18.21915
702.343	12.91117
702.531	25.44036
702.718	21.56586
702.906	18.58265
703.094	16.54891
703.281	26.00158
703.469	18.7738
703.657	25.72449
703.844	36.67573
704.032	27.47932
704.219	16.94805
704.407	21.96336
704.595	26.5896
704.782	21.57045
704.97	18.97576
705.157	18.42832
705.345	29.18156
705.532	34.12753
705.719	21.94265
705.907	28.80168
706.094	21.70917
706.282	29.73125
706.469	19.62581
706.656	22.09434
706.844	20.42268
707.031	26.37882
707.218	22.35138
707.406	30.42774
707.593	24.71115
707.78	24.61144
707.968	20.36666
708.155	17.29439
708.342	25.27741
708.529	24.9733
708.716	23.03556
708.904	30.54119
709.091	24.77783
709.278	16.7225
709.465	31.26376
709.652	31.88182
709.839	29.17526
710.026	23.05683
710.213	13.69275
710.4	24.3977
710.587	27.49945
710.774	27.95427
710.961	27.89586
711.148	23.01842
711.335	28.41954
711.522	22.12163
711.709	24.03998
711.896	34.28872
712.083	28.12214
712.27	17.90819
712.457	23.55075
712.644	15.11023
712.831	34.16521
713.017	23.81949
713.204	26.78526
713.391	19.74693
713.578	31.07554
713.765	30.67499
713.951	26.41873
714.138	42.05744
714.325	28.07176
714.512	23.76627
714.698	20.12565
714.885	32.80497
715.072	26.27467
715.258	25.04901
715.445	20.72323
715.631	31.30607
715.818	10.86537
716.005	21.05038
716.191	27.51944
716.378	22.88221
716.564	29.66797
716.751	20.06878
716.937	21.31514
717.124	32.43775
717.31	21.16708
717.497	33.78408
717.683	22.0436
717.869	40.90772
718.056	22.52863
718.242	29.36657
718.429	26.06454
718.615	19.48692
718.801	26.28892
718.988	32.52069
719.174	29.93472
719.36	26.41567
719.547	35.74971
719.733	29.13898
719.919	28.97254
720.105	32.266
720.291	27.2991
720.478	28.81895
720.664	26.42734
720.85	25.10572
721.036	46.71095
721.222	36.63612
721.408	27.67125
721.595	41.92057
721.781	39.30116
721.967	35.39315
722.153	38.79401
722.339	30.35239
722.525	30.69611
722.711	21.77176
722.897	19.59586
723.083	25.99145
723.269	37.02209
723.455	45.54881
723.641	48.37499
723.827	30.32689
724.012	32.70296
724.198	25.99521
724.384	38.51509
724.57	31.6479
724.756	19.35716
724.942	16.01013
725.127	35.03933
725.313	39.7744
725.499	39.74765
725.685	42.57168
725.87	32.80415
726.056	23.64055
726.242	38.40093
726.428	19.19329
726.613	35.62309
726.799	28.00363
726.985	22.51779
727.17	19.36318
727.356	40.14147
727.541	23.16004
727.727	27.40066
727.913	34.37683
728.098	25.78663
728.284	34.76696
728.469	20.66215
728.655	22.84877
728.84	34.27619
729.026	35.75495
729.211	36.27093
729.397	31.29928
729.582	33.64302
729.767	28.96691
729.953	31.9866
730.138	36.21534
730.323	14.04174
730.509	21.67869
730.694	40.33756
730.879	32.60472
731.065	30.38353
731.25	46.14039
731.435	34.23864
731.621	18.48742
731.806	25.54168
731.991	31.01246
732.176	19.25387
732.361	38.03029
732.547	29.9565
732.732	18.6859
732.917	46.81386
733.102	21.66678
733.287	24.19571
733.472	30.80755
733.657	31.26825
733.842	20.02202
734.027	27.91667
734.212	29.81539
734.397	25.19214
734.582	31.43515
734.767	37.30201
734.952	42.20973
735.137	13.78305
735.322	42.07442
735.507	33.84478
735.692	34.94008
735.877	48.77538
736.062	45.19991
736.247	34.36863
736.431	31.22705
736.616	42.43313
736.801	34.41954
736.986	32.13054
737.171	27.41313
737.355	23.63363
737.54	41.21481
737.725	32.14157
737.909	55.14322
738.094	27.44354
738.279	39.14137
738.463	30.14072
738.648	37.74055
738.833	34.91993
739.017	45.47173
739.202	29.2505
739.386	31.92233
739.571	23.64794
739.756	37.11179
739.94	33.03595
740.125	40.62861
740.309	25.97991
740.494	39.78501
740.678	33.87539
740.863	37.88089
741.047	35.89051
741.231	43.33995
741.416	26.07562
741.6	47.83085
741.785	27.43503
741.969	41.24939
742.153	44.49957
742.338	16.46903
742.522	33.83873
742.706	39.23016
742.89	24.36043
743.075	35.37762
743.259	47.15311
743.443	40.73396
743.627	44.99102
743.812	55.86546
743.996	20.78592
744.18	34.23663
744.364	28.84224
744.548	59.42941
744.732	33.60307
744.916	42.53625
745.1	39.78301
745.285	32.74215
745.469	41.0796
745.653	50.92439
745.837	23.36938
746.021	60.50463
746.205	46.52552
746.389	37.90919
746.573	31.52835
746.757	51.08937
746.94	31.91937
747.124	48.53312
747.308	24.59865
747.492	47.00701
747.676	30.00107
747.86	59.57496
748.044	30.79465
748.227	20.34965
748.411	71.42784
748.595	38.06979
748.779	27.57447
748.963	40.34721
749.146	37.54756
749.33	28.55142
749.514	26.29581
749.697	48.68521
749.881	30.6046
750.065	26.91512
750.248	36.22747
750.432	61.04883
750.616	36.27864
750.799	24.50856
750.983	55.19124
751.166	64.20045
751.35	23.25311
751.533	43.39079
751.717	46.82567
751.9	52.74791
752.084	33.73998
752.267	26.59057
752.451	29.70573
752.634	38.8967
752.818	42.58648
753.001	46.36972
753.184	48.51869
753.368	40.38064
753.551	8.11195
753.734	29.85566
753.918	56.68627
754.101	29.89461
754.284	45.44936
754.467	32.72457
754.651	29.6998
754.834	31.09315
755.017	49.20001
755.2	47.17229
755.384	25.19595
755.567	45.90531
755.75	49.75866
755.933	34.68342
756.116	39.62184
756.299	32.63094
756.482	28.52554
756.665	43.57408
756.848	36.3723
757.032	42.07368
757.215	25.30652
757.398	30.23359
757.581	28.98922
757.764	66.87946
757.947	35.6862
758.129	48.25119
758.312	11.00837
758.495	36.33397
758.678	36.39219
758.861	34.94156
759.044	56.84526
759.227	29.76514
759.41	30.66014
759.592	42.35526
759.775	35.91715
759.958	47.94488
760.141	25.30814
760.324	61.46092
760.506	52.68329
760.689	45.69078
760.872	64.35652
761.054	43.13115
761.237	34.67858
761.42	41.99515
761.602	47.88432
761.785	42.12198
761.968	46.45832
762.15	56.5809
762.333	34.64282
762.515	39.55545
762.698	30.30266
762.88	41.54968
763.063	36.85572
763.245	40.95663
763.428	25.37366
763.61	28.03072
763.793	21.84738
763.975	36.1394
764.158	28.78757
764.34	27.19816
764.522	24.1417
764.705	30.55259
764.887	45.1167
765.069	20.79688
765.252	42.47053
765.434	41.85884
765.616	37.13535
765.799	30.3114
765.981	45.4923
766.163	28.8809
766.345	47.32453
766.528	32.18304
766.71	15.16705
766.892	39.68511
767.074	51.93454
767.256	36.395
767.438	58.52118
767.62	43.68443
767.802	66.88453
767.985	47.44256
768.167	62.67351
768.349	32.45221
768.531	48.212
768.713	45.30814
768.895	52.83566
769.077	47.69943
769.259	71.27197
769.441	109.25604
769.623	54.68061
769.804	64.32237
769.986	61.41874
770.168	75.2706
770.35	91.4954
770.532	63.63889
770.714	71.75159
770.896	73.6165
771.077	32.81949
771.259	75.48864
771.441	62.58565
771.623	78.11608
771.804	102.04564
771.986	29.61575
772.168	49.54903
772.35	77.05221
772.531	107.92726
772.713	60.0016
772.894	83.80142
773.076	58.7354
773.258	50.41472
773.439	79.86389
773.621	91.05897
773.802	41.98969
773.984	51.02464
774.166	64.45249
774.347	88.5535
774.529	79.46116
774.71	29.15939
774.891	58.86604
775.073	54.62832
775.254	93.85292
775.436	48.84861
775.617	99.55825
775.799	52.48962
775.98	90.57112
776.161	95.07832
776.343	95.58237
776.524	59.17124
776.705	54.05416
776.886	31.09732
777.068	62.12251
777.249	119.07605
777.43	104.46649
777.611	38.83436
777.793	54.78438
777.974	89.83509
778.155	51.68733
778.336	48.65467
778.517	108.05577
778.698	46.89699
778.879	26.4982
779.061	17.63935
779.242	68.89351
779.423	70.70166
779.604	52.51121
779.785	58.07528
779.966	64.69584
780.147	82.12737
780.328	85.01933
780.509	119.23687
780.69	72.34373
780.871	47.64352
781.051	35.69101
781.232	67.89297
781.413	65.65889
781.594	56.87181
781.775	52.12333
781.956	49.30496
782.137	28.46461
782.317	49.40663
782.498	66.44734
782.679	60.5078
782.86	65.66721
783.04	49.47814
783.221	70.89221
783.402	102.86852
783.583	63.04711
783.763	75.13141
783.944	52.57872
784.124	34.72585
784.305	95.87208
784.486	73.58717
784.666	60.25485
784.847	32.87094
785.027	118.63832
785.208	48.15731
785.388	48.40165
785.569	48.90647
785.749	56.84948
785.93	50.36042
786.11	33.66306
786.291	71.20919
786.471	65.88854
786.652	78.90991
786.832	59.9771
787.012	67.23333
787.193	40.13282
787.373	63.38626
787.553	54.66063
787.734	66.33061
787.914	52.02505
788.094	68.32569
788.275	66.61149
788.455	54.54142
788.635	37.10724
788.815	64.41788
788.995	40.20996
789.176	32.68899
789.356	46.11783
789.536	54.63453
789.716	72.75235
789.896	48.09316
790.076	50.24182
790.256	65.23503
790.436	22.54213
790.616	45.75269
790.796	64.82402
790.976	53.18467
791.156	46.1576
791.336	76.81098
791.516	71.23089
791.696	55.01298
791.876	34.29594
792.056	62.34019
792.236	79.07281
792.416	75.68544
792.596	70.13862
792.776	69.05898
792.956	75.55812
793.135	94.29326
793.315	42.47054
793.495	86.20947
793.675	77.29417
793.854	76.84326
794.034	81.87723
794.214	39.67936
794.394	75.76056
794.573	84.13683
794.753	63.67109
794.933	44.51781
795.112	67.06145
795.292	76.70646
795.472	100.88635
795.651	37.4565
795.831	60.16286
796.01	52.19136
796.19	54.97464
796.369	57.59175
796.549	69.14424
796.728	55.91512
796.908	35.21953
797.087	41.67256
797.267	53.21822
797.446	39.40432
797.626	70.60317
797.805	71.37983
797.984	45.45566
798.164	75.71745
798.343	42.5228
798.522	65.93477
798.702	61.65458
798.881	37.52894
799.06	56.2133
799.239	26.84842
799.419	43.22224
799.598	92.75346
799.777	70.6189
799.956	85.58608
800.136	52.23698
800.315	44.72222
800.494	70.86355
800.673	85.72604
800.852	73.6381
801.031	81.86705
801.21	72.43136
801.389	51.45042
801.568	65.2002
801.747	104.15884
801.926	63.68878
802.105	96.30606
802.284	53.74218
802.463	94.83093
802.642	68.08291
802.821	68.63127
803	92.42684
803.179	78.99008
803.358	89.6695
803.537	51.5861
803.716	62.82519
803.895	49.22643
804.073	58.03734
804.252	49.79114
804.431	70.7741
804.61	59.87755
804.789	86.35464
804.967	51.82243
805.146	49.55054
805.325	104.35711
805.503	72.08627
805.682	33.39744
805.861	119.40487
806.039	88.62132
806.218	49.12742
806.397	70.04231
806.575	63.96751
806.754	66.47628
806.932	44.96096
807.111	97.33829
807.289	80.31196
807.468	65.52608
807.646	86.11374
807.825	74.49317
808.003	69.97082
808.182	84.16515
808.36	64.90861
808.539	47.63475
808.717	99.30256
808.895	48.17955
809.074	73.49244
809.252	66.89824
809.43	80.04183
809.609	90.32579
809.787	106.96512
809.965	60.13115
810.144	69.12709
810.322	60.34452
810.5	75.89421
810.678	60.79139
810.856	119.92507
811.035	89.95712
811.213	84.98522
811.391	97.95708
811.569	72.70874
811.747	143.62063
811.925	92.91413
812.103	50.7555
812.281	64.37065
812.459	111.42803
812.637	112.96641
812.816	85.39726
812.994	114.60248
813.171	95.96758
813.349	79.80721
813.527	99.24275
813.705	101.75225
813.883	125.64904
814.061	96.63879
814.239	123.3191
814.417	121.85122
814.595	78.74987
814.773	76.31519
814.95	72.20464
815.128	78.73069
815.306	72.13287
815.484	64.06838
815.662	54.36951
815.839	47.05754
816.017	55.70318
816.195	97.53953
816.372	62.51435
816.55	88.05504
816.728	107.11887
816.905	65.3804
817.083	111.09787
817.261	69.23444
817.438	120.86929
817.616	115.164
817.793	56.47633
817.971	92.42686
818.148	87.46526
818.326	103.97727
818.503	75.1436
818.681	103.61378
818.858	56.89116
819.036	66.08578
819.213	70.1464
819.391	51.21997
819.568	52.44395
819.745	46.20878
819.923	81.9716
820.1	53.59776
820.277	46.88842
820.455	55.18879
820.632	57.0619
820.809	56.77394
820.986	35.56329
821.164	29.59492
821.341	24.55836
821.518	33.87691
821.695	23.42795
821.872	21.48164
822.05	18.36552
822.227	13.55972
822.404	14.82051
822.581	18.12177
822.758	14.06761
822.935	14.66737
823.112	17.32271
823.289	13.32324
823.466	18.05931
823.643	16.95306
823.82	21.57215
823.997	19.60687
824.174	24.78937
824.351	33.48585
824.528	32.8344
824.705	29.22403
824.882	34.55094
825.059	43.86669
825.236	29.15892
825.412	33.1529
825.589	39.79866
825.766	55.66038
825.943	34.94115
826.12	41.14835
826.296	26.13907
826.473	33.70485
826.65	33.40379
826.827	43.09454
827.003	27.29783
827.18	29.58151
827.357	34.53107
827.533	31.14692
827.71	16.01336
827.887	26.25893
828.063	30.94656
828.24	27.39281
828.416	38.76866
828.593	30.37648
828.769	45.50011
828.946	53.51774
829.122	53.82012
829.299	51.42602
829.475	31.32056
829.652	52.61263
829.828	92.19794
830.005	55.25187
830.181	79.27294
830.357	51.97025
830.534	82.11962
830.71	60.56112
830.886	77.59127
831.063	79.42785
831.239	99.01162
831.415	43.4275
831.592	97.08004
831.768	61.26297
831.944	50.45093
832.12	93.61937
832.296	86.38167
832.473	77.71777
832.649	55.23854
832.825	71.16631
833.001	39.76233
833.177	63.78641
833.353	55.19692
833.529	29.20499
833.705	44.14469
833.881	32.33508
834.058	31.09548
834.234	34.86737
834.41	34.57359
834.586	26.69124
834.761	34.49871
834.937	37.56448
835.113	40.82254
835.289	36.39057
835.465	45.82771
835.641	39.60428
835.817	45.99593
835.993	86.25058
836.169	42.08769
836.344	62.48882
836.52	72.6846
836.696	70.19873
836.872	51.79361
837.048	143.85966
837.223	59.39471
837.399	116.50984
837.575	94.06482
837.75	89.2972
837.926	117.98572
838.102	199.68999
838.277	143.9671
838.453	181.04449
838.628	188.86702
838.804	79.1389
838.98	184.06976
839.155	87.87736
839.331	119.7633
839.506	79.31825
839.682	77.60398
839.857	98.80218
840.033	120.59089
840.208	59.66206
840.384	31.66333
840.559	64.83055
840.734	94.75978
840.91	137.29733
841.085	78.8872
841.26	81.49756
841.436	73.46923
841.611	74.96305
841.786	109.99964
841.962	160.29122
842.137	92.21948
842.312	54.94506
842.487	84.11708
842.663	65.97113
842.838	75.57157
843.013	272.84863
843.188	128.85587
843.363	126.66864
843.538	235.67781
843.714	234.95377
843.889	243.6259
844.064	258.34951
844.239	215.69622
844.414	261.26752
844.589	171.7473
844.764	313.7519
844.939	299.65462
845.114	374.38046
845.289	362.90297
845.464	378.18491
845.639	296.74258
845.814	148.26573
845.989	179.80509
846.163	193.26495
846.338	229.4233
846.513	342.80042
846.688	204.64874
846.863	206.69395
847.038	185.26691
847.212	212.27031
847.387	234.69327
847.562	256.9289
847.737	292.30994
847.911	99.67765
848.086	124.71644
848.261	390.89557
848.435	182.39723
848.61	286.9869
848.785	142.47943
848.959	306.87727
849.134	440.09842
849.308	522.66021
849.483	229.42263
849.658	349.72212
849.832	183.2543
850.007	149.50775
850.181	639.04995
850.356	157.35888
850.53	523.84387
850.705	124.69368
850.879	84.82457
851.053	197.17183
851.228	176.14208
851.402	289.24551
851.577	338.33995
851.751	421.36039
851.925	240.0978
852.099	111.11532
852.274	161.09326
852.448	203.65165
852.622	305.98236
852.797	227.92589
852.971	241.00824
853.145	245.24435
853.319	653.60734
853.493	337.86457
853.668	202.43917
853.842	425.89451
854.016	326.45635
854.19	395.47265
854.364	235.65962
854.538	255.38143
854.712	338.52338
854.886	224.60555
855.06	195.57125
855.234	75.379
855.408	437.44315
855.582	352.58114
855.756	362.89548
855.93	442.03743
856.104	238.86732
856.278	348.75783
856.452	211.04097
856.626	297.5828
856.8	531.46337
856.973	284.53413
857.147	276.15978
857.321	282.80172
857.495	353.55079
857.669	248.35219
857.842	200.91896
858.016	333.77552
858.19	148.40392
858.364	829.06802
858.537	175.53149
858.711	245.43088
858.885	210.50725
859.058	197.79989
859.232	104.89135
859.405	123.89008
859.579	341.41442
859.753	294.42828
859.926	163.96674
860.1	96.86538
860.273	229.70945
860.447	445.06038
860.62	211.49841
860.794	458.31181
860.967	259.10659
861.141	358.81774
861.314	672.55762
861.487	290.8565
861.661	396.93095
861.834	516.54011
862.008	346.80208
862.181	239.24125
862.354	234.34099
862.528	301.85842
862.701	183.65483
862.874	127.11703
863.047	209.57682
863.221	190.70667
863.394	98.0044
863.567	373.76153
863.74	86.11922
863.913	346.37135
864.087	283.64266
864.26	324.12418
864.433	191.96564
864.606	536.20317
864.779	230.91543
864.952	117.29039
865.125	186.34129
865.298	233.75244
865.471	228.77624
865.644	487.96535
865.817	363.99297
865.99	323.36522
866.163	464.99968
866.336	192.32585
866.509	232.4967
866.682	183.49871
866.855	396.70397
867.028	130.99662
867.2	271.66462
867.373	93.61846
867.546	228.70487
867.719	573.82833
867.892	288.79546
868.064	156.0235
868.237	257.62368
868.41	249.86271
868.583	128.95244
868.755	135.80263
868.928	203.92421
869.101	581.95033
869.273	337.56607
869.446	274.89201
869.619	378.25822
869.791	226.57638
869.964	368.52875
870.136	345.83179
870.309	242.18571
870.481	239.68842
870.654	114.83453
870.826	266.3154
870.999	172.59066
871.171	276.52702
871.344	168.24235
871.516	218.62061
871.689	130.84345
871.861	220.25731
872.033	160.13121
872.206	182.9227
872.378	328.11121
872.55	187.00588
872.723	130.48501
872.895	195.09504
873.067	344.85562
873.24	338.23396
873.412	182.48291
873.584	202.3648
873.756	194.26178
873.928	248.96057
874.101	252.49671
874.273	277.83714
874.445	91.38682
874.617	120.231
874.789	224.32325
874.961	191.08431
875.133	274.72604
875.305	208.72452
875.477	138.40893
875.649	103.94585
875.821	134.6606
875.993	394.43203
876.165	136.35935
876.337	233.25502
876.509	221.65425
876.681	236.10272
876.853	234.7561
877.025	230.4668
877.197	144.13666
877.369	127.60697
877.541	284.43681
877.712	72.58951
877.884	125.6636
878.056	255.17709
878.228	143.54438
878.4	248.2125
878.571	130.55094
878.743	88.52546
878.915	192.29463
879.086	118.30692
879.258	148.66794
879.43	129.13856
879.601	110.16274
879.773	118.76579
879.945	30.83505
880.116	44.5163
880.288	28.08249
880.459	31.39107
880.631	22.80698
880.802	27.49241
880.974	25.05193
881.145	17.48478
881.317	24.05093
881.488	16.56122
881.66	19.74388
881.831	17.25322
882.002	25.24243
882.174	17.70997
882.345	24.53779
882.517	12.30679
882.688	32.21691
882.859	24.93107
883.03	42.97282
883.202	42.49897
883.373	36.0481
883.544	35.88771
883.715	62.38833
883.887	54.02148
884.058	47.31204
884.229	68.14455
884.4	67.14113
884.571	80.29041
884.742	64.38628
884.914	72.04527
885.085	101.515
885.256	138.48801
885.427	110.0055
885.598	136.47759
885.769	135.74868
885.94	138.44475
886.111	88.12621
886.282	157.95707
886.453	117.40592
886.624	90.66535
886.795	178.41907
886.966	134.34653
887.136	185.79735
887.307	118.45525
887.478	253.86321
887.649	192.05775
887.82	225.81382
887.991	173.95311
888.161	241.94547
888.332	227.68758
888.503	111.52152
888.674	312.02234
888.844	393.73475
889.015	274.00433
889.186	118.46363
889.356	333.70608
889.527	110.11014
889.698	571.13127
889.868	163.56246
890.039	245.57281
890.209	196.35454
890.38	276.61426
890.551	237.0959
890.721	317.89939
890.892	286.05724
891.062	187.76363
891.233	256.44936
891.403	170.79091
891.574	130.96169
891.744	193.82613
891.914	205.04704
892.085	222.86049
892.255	71.55667
892.425	361.35844
892.596	228.33749
892.766	224.74261
892.936	298.89946
893.107	253.39605
893.277	133.01931
893.447	97.79575
893.618	70.82466
893.788	155.86377
893.958	81.24577
894.128	73.73516
894.298	93.37677
894.468	121.95939
894.639	54.72634
894.809	38.08935
894.979	59.01922
895.149	67.95959
895.319	55.71772
895.489	85.22689
895.659	108.69508
895.829	72.26674
895.999	77.32159
896.169	60.28665
896.339	75.72296
896.509	160.56585
896.679	191.59603
896.849	187.54496
897.019	261.99181
897.189	212.57424
897.358	178.75727
897.528	257.50574
897.698	86.42896
897.868	231.38646
898.038	462.02998
898.208	466.41047
898.377	102.28215
898.547	455.72844
898.717	649.78844
898.886	232.82988
899.056	418.78813
899.226	675.06113
899.395	341.98786
899.565	565.22437
899.735	309.49509
899.904	539.89232
900.074	552.15257
900.244	186.66456
900.413	809.29051
900.583	136.63126
900.752	292.4092
900.922	749.02558
901.091	32.00857
901.261	450.59863
901.43	403.84993
901.599	341.05359
901.769	1391.09086
901.938	558.42065
902.108	454.7424
902.277	763.07414
902.446	137.67277
902.616	157.09736
902.785	198.32197
902.954	402.37175
903.124	242.43725
903.293	184.19169
903.462	93.31852
903.631	141.49884
903.801	102.47061
903.97	52.51689
904.139	85.82305
904.308	68.39404
904.477	54.95272
904.646	33.26347
904.816	50.43466
904.985	80.23655
905.154	127.02338
