Data from WindowProjectSample_Transmission__34__00034__02004403604108005.txt Node

Date: Mon May 05 17:41:51 EDT 2025
User: jessi
Spectrometer: SR400872
Trigger mode: 0
Integration Time (sec): 5.000010E-1
Scans to average: 20
Electric dark correction enabled: true
Nonlinearity correction enabled: true
Boxcar width: 0
XAxis mode: Wavelengths
Number of Pixels in Spectrum: 3648
>>>>>Begin Spectral Data<<<<<
184.909	21227.5746
185.132	-5006.53042
185.355	-3159.47222
185.578	-18211.99105
185.801	1642.35046
186.024	10567.96083
186.247	-1891.17913
186.47	1272.62043
186.693	401.02909
186.916	217.47512
187.139	-3721.25126
187.362	3484.03836
187.585	4011.22479
187.808	3556.6995
188.031	-5.83546
188.254	-58565.77625
188.476	-739.97713
188.699	6443.94258
188.922	640.10085
189.145	-15874.32428
189.368	-675.99857
189.591	-1377.40367
189.813	3224.17635
190.036	-50273.32199
190.259	-904.75376
190.482	-4371.23138
190.705	7302.8204
190.927	-2369.54829
191.15	13281.88911
191.373	3542.26482
191.595	-9475.21656
191.818	-4256.31176
192.041	-5778.02395
192.263	-3362.41928
192.486	-757.34977
192.709	-3896.51206
192.931	8154.08934
193.154	-29600.88534
193.377	-2702.8897
193.599	-2613.37003
193.822	-9582.70283
194.044	-2059.88022
194.267	1240.81731
194.489	279.33504
194.712	-43745.24428
194.934	-32213.01707
195.157	1113.1513
195.379	1385.32621
195.602	-7166.16354
195.824	-1336.63247
196.047	-8039.69152
196.269	2710.88158
196.492	-6425.5665
196.714	26642.35124
196.936	-8646.83452
197.159	-1167.04332
197.381	1189.57795
197.604	440.09411
197.826	12286.23549
198.048	-10433.61966
198.271	-2878.22002
198.493	7836.81264
198.715	2336.31688
198.938	-529.51629
199.16	6803.74814
199.382	-102366.17705
199.604	2511.8427
199.827	-1116.73209
200.049	-2875.12953
200.271	14841.56622
200.493	1241.93623
200.715	-37873.5704
200.938	-6240.68532
201.16	-4194.51294
201.382	20071.70717
201.604	2322.70053
201.826	2317.36747
202.048	-2059.76752
202.27	-1980.57229
202.492	-36200.77147
202.715	2897.65568
202.937	-4415.63049
203.159	-6423.63646
203.381	1418.44344
203.603	6567.63619
203.825	6492.11843
204.047	2167.25764
204.269	-2799.07276
204.491	2181.41208
204.713	5833.14943
204.935	-504878.21114
205.156	1186.95003
205.378	-2983.163
205.6	1634.73793
205.822	154646.38019
206.044	-995.63723
206.266	1601.82835
206.488	4449.86467
206.71	-5294.4965
206.932	1110.53979
207.153	12124.35228
207.375	-6947.77192
207.597	-38244.39632
207.819	-2841.73328
208.041	2517.4025
208.262	472.8723
208.484	696.81696
208.706	-802.62022
208.927	-815.8486
209.149	565.36849
209.371	-2935.7769
209.593	-299.78807
209.814	-818.00485
210.036	574.43987
210.258	-687.16176
210.479	1737.15517
210.701	1671.58003
210.922	3247.96452
211.144	-3922.80143
211.366	2119.11275
211.587	6397.15338
211.809	-8373.55355
212.03	2291.93333
212.252	438.15124
212.473	1992.20041
212.695	-5412.45197
212.916	3119.69363
213.138	-676.69302
213.359	3684.67651
213.581	5410.19556
213.802	-828.67251
214.024	1151.64546
214.245	2118.9025
214.466	3065.57908
214.688	-3055.80746
214.909	-1172.72916
215.131	-1793.7555
215.352	-3106.99236
215.573	14719.07731
215.795	4965.11683
216.016	5638.50264
216.237	871.63434
216.459	3732.94708
216.68	1831.69006
216.901	5020.31583
217.122	-2823.71304
217.344	-11713.05685
217.565	3496.30135
217.786	8952.23115
218.007	17153.15903
218.228	-697.58475
218.45	5538.19255
218.671	884.66592
218.892	37831.20089
219.113	1617.84162
219.334	-362.73711
219.555	9851.75223
219.776	3084.70678
219.997	22485.94763
220.219	2729.7738
220.44	-12077.72628
220.661	435.73682
220.882	1511.8791
221.103	-1086.90744
221.324	2303.95707
221.545	2334.799
221.766	-8735.91599
221.987	862.0728
222.208	1590.87755
222.429	4313.71938
222.65	219.05927
222.87	18237.65258
223.091	730.59946
223.312	575.43464
223.533	1359.42884
223.754	1530.34943
223.975	1383.30605
224.196	1849.27225
224.417	1329.25813
224.637	612.57694
224.858	29.32113
225.079	1162.2789
225.3	649.04702
225.521	3750.30992
225.741	486.06045
225.962	519.40324
226.183	150.08425
226.404	668.22886
226.624	440.37822
226.845	622.71631
227.066	427.3811
227.286	259.7336
227.507	132.27917
227.728	117.88063
227.948	236.19727
228.169	75.76851
228.389	86.93865
228.61	47.89585
228.831	62.82751
229.051	0.99176
229.272	39.07713
229.492	56.34234
229.713	13.36929
229.933	37.4057
230.154	30.68168
230.374	54.39762
230.595	37.54279
230.815	21.40373
231.036	38.91652
231.256	-13.11788
231.477	70.19346
231.697	40.15526
231.917	38.86782
232.138	56.87972
232.358	113.32432
232.579	103.25616
232.799	16.21744
233.019	96.51968
233.24	116.48812
233.46	36.77635
233.68	59.57674
233.901	44.46019
234.121	26.01094
234.341	12.85924
234.561	-2.6112
234.782	21.26096
235.002	68.78904
235.222	-4.39821
235.442	63.8231
235.662	33.21345
235.883	63.53494
236.103	52.08619
236.323	37.26114
236.543	29.23154
236.763	41.23057
236.983	45.51378
237.203	41.03398
237.423	56.75226
237.643	87.95542
237.864	73.72234
238.084	19.48531
238.304	22.66363
238.524	45.39696
238.744	37.84207
238.964	77.637
239.184	62.00677
239.404	64.55433
239.624	36.20817
239.843	62.05572
240.063	35.67236
240.283	21.24902
240.503	27.14841
240.723	25.3044
240.943	12.89098
241.163	19.49989
241.383	15.33228
241.603	6.61594
241.822	9.66958
242.042	6.37822
242.262	8.34014
242.482	9.20669
242.702	11.0417
242.921	2.7947
243.141	6.68473
243.361	6.47172
243.581	9.40126
243.8	7.62005
244.02	4.95091
244.24	9.36041
244.459	9.38083
244.679	18.08683
244.899	10.75409
245.118	13.69022
245.338	11.18444
245.558	13.98548
245.777	8.34397
245.997	10.61395
246.216	10.817
246.436	6.14354
246.655	4.54931
246.875	3.23963
247.094	6.22727
247.314	2.0973
247.533	3.55133
247.753	4.35966
247.972	3.57443
248.192	1.18306
248.411	1.85843
248.631	3.73709
248.85	4.71199
249.07	3.86837
249.289	5.69655
249.508	4.68589
249.728	7.35401
249.947	6.73201
250.166	8.76221
250.386	4.22542
250.605	6.14021
250.824	12.00626
251.044	7.87105
251.263	29.58146
251.482	14.93523
251.701	11.65831
251.921	-0.06249
252.14	3.34102
252.359	4.20006
252.578	9.94788
252.798	3.56426
253.017	9.18201
253.236	4.23701
253.455	5.92279
253.674	10.60603
253.893	4.88909
254.112	7.91223
254.331	10.91762
254.551	8.45908
254.77	3.34597
254.989	14.99692
255.208	9.72488
255.427	14.94148
255.646	11.26909
255.865	22.02025
256.084	8.80849
256.303	10.8559
256.522	14.05676
256.741	2.53248
256.96	2.98446
257.179	8.31885
257.397	10.64938
257.616	6.13803
257.835	6.38668
258.054	15.15649
258.273	10.4446
258.492	11.1496
258.711	6.5504
258.93	3.12295
259.148	4.57434
259.367	4.67602
259.586	5.47892
259.805	2.44341
260.023	5.29974
260.242	3.94652
260.461	2.71268
260.68	1.18313
260.898	4.39152
261.117	1.34425
261.336	0.99793
261.554	3.47939
261.773	3.37311
261.992	0.77593
262.21	3.22912
262.429	3.65674
262.648	7.37968
262.866	8.3904
263.085	5.56995
263.303	5.09235
263.522	8.67126
263.74	8.82378
263.959	15.23377
264.178	6.98243
264.396	6.55987
264.615	4.88151
264.833	10.61448
265.051	8.4721
265.27	11.05453
265.488	11.03821
265.707	6.24307
265.925	10.99784
266.144	4.47536
266.362	5.91539
266.58	5.52814
266.799	4.95624
267.017	5.86734
267.235	5.12788
267.454	3.26079
267.672	2.00062
267.89	4.23455
268.109	4.44206
268.327	4.36154
268.545	1.02247
268.763	4.06636
268.982	1.75974
269.2	4.0873
269.418	3.21098
269.636	1.92824
269.854	4.76065
270.073	3.07002
270.291	1.93119
270.509	1.61169
270.727	4.35892
270.945	7.37786
271.163	7.11129
271.381	1.42756
271.599	3.21016
271.817	5.36256
272.036	1.76369
272.254	3.17257
272.472	2.52958
272.69	2.40767
272.908	2.37986
273.126	4.64066
273.344	5.32143
273.562	1.69628
273.779	2.63239
273.997	3.8466
274.215	4.22935
274.433	2.73572
274.651	4.41063
274.869	4.6842
275.087	2.76426
275.305	4.08144
275.523	2.43947
275.74	3.05115
275.958	5.43769
276.176	8.23928
276.394	2.71057
276.612	3.30206
276.829	3.24916
277.047	2.71353
277.265	2.88303
277.483	3.61916
277.7	4.33036
277.918	3.32335
278.136	6.28538
278.353	2.95875
278.571	1.68603
278.789	4.42281
279.006	0.99227
279.224	3.08498
279.442	5.12103
279.659	3.49644
279.877	2.51833
280.094	5.85505
280.312	1.18211
280.529	3.53672
280.747	1.00119
280.964	2.60558
281.182	6.01855
281.399	2.79095
281.617	3.94336
281.834	2.51059
282.052	2.03737
282.269	3.23481
282.487	2.39871
282.704	2.07712
282.921	2.33975
283.139	3.32837
283.356	3.99293
283.574	3.90909
283.791	1.83108
284.008	5.6133
284.226	2.96072
284.443	3.18882
284.66	4.58414
284.877	3.34748
285.095	2.08499
285.312	1.72305
285.529	0.91061
285.746	0.75206
285.964	2.00244
286.181	1.4355
286.398	1.89836
286.615	2.70491
286.832	2.65654
287.05	0.6131
287.267	1.78614
287.484	1.64129
287.701	2.61333
287.918	2.70535
288.135	2.66851
288.352	1.23136
288.569	1.48901
288.786	2.35208
289.003	1.98378
289.22	2.92513
289.437	1.61165
289.654	2.78271
289.871	2.99003
290.088	3.06367
290.305	2.36764
290.522	1.85193
290.739	2.18328
290.956	3.23522
291.173	3.47517
291.39	3.49759
291.607	2.41305
291.824	1.7942
292.04	1.40901
292.257	2.96417
292.474	3.27061
292.691	1.95828
292.908	1.03246
293.125	1.69861
293.341	1.23101
293.558	5.00608
293.775	1.94837
293.992	2.14595
294.208	1.07673
294.425	1.43485
294.642	2.02226
294.858	2.5542
295.075	0.83981
295.292	2.08534
295.508	2.64668
295.725	4.35025
295.942	2.0738
296.158	1.81209
296.375	2.58267
296.591	2.1167
296.808	2.4052
297.024	2.77868
297.241	3.01869
297.458	3.28203
297.674	1.19145
297.891	2.76186
298.107	2.62882
298.323	2.16542
298.54	4.35669
298.756	2.65368
298.973	1.94487
299.189	4.55697
299.406	2.7795
299.622	4.24993
299.838	4.35598
300.055	4.20108
300.271	2.26031
300.487	2.64695
300.704	3.15758
300.92	2.47548
301.136	6.29255
301.353	4.42881
301.569	3.71049
301.785	4.1363
302.001	4.61569
302.218	4.24998
302.434	4.52943
302.65	3.02896
302.866	3.53817
303.083	6.24231
303.299	6.26049
303.515	4.42917
303.731	4.80969
303.947	3.07986
304.163	3.85702
304.379	4.76448
304.595	4.79116
304.812	3.7697
305.028	3.91133
305.244	4.20665
305.46	5.10056
305.676	5.43067
305.892	5.84652
306.108	5.22125
306.324	4.30661
306.54	6.34248
306.756	5.07084
306.972	4.9345
307.187	4.70377
307.403	5.8121
307.619	4.21606
307.835	5.86871
308.051	6.16783
308.267	3.94168
308.483	6.01485
308.699	5.39889
308.914	4.97331
309.13	4.74319
309.346	3.83883
309.562	4.13652
309.778	3.89818
309.993	5.57997
310.209	5.29337
310.425	4.06932
310.641	5.17954
310.856	4.45109
311.072	4.41506
311.288	5.07539
311.503	5.59907
311.719	3.82597
311.935	3.86672
312.15	5.91779
312.366	5.49348
312.581	5.73295
312.797	5.38526
313.013	6.07612
313.228	4.77333
313.444	4.93409
313.659	4.71428
313.875	5.67334
314.09	5.0745
314.306	6.5782
314.521	6.0101
314.737	5.80668
314.952	5.17561
315.168	5.19783
315.383	5.61319
315.599	4.90376
315.814	4.99884
316.029	5.85791
316.245	4.41464
316.46	3.66214
316.675	6.30705
316.891	6.77207
317.106	7.93118
317.321	5.41653
317.537	5.96355
317.752	6.17607
317.967	6.03829
318.183	4.39334
318.398	4.92137
318.613	5.91695
318.828	6.52845
319.043	5.89957
319.259	5.17215
319.474	5.58067
319.689	6.42309
319.904	3.82917
320.119	6.28863
320.334	5.59728
320.549	5.27458
320.765	6.28243
320.98	5.77391
321.195	5.79829
321.41	5.43084
321.625	5.98748
321.84	7.01383
322.055	6.8812
322.27	4.91558
322.485	4.38051
322.7	5.97131
322.915	6.22272
323.13	4.92637
323.345	7.03327
323.56	6.72931
323.775	6.12815
323.989	6.00595
324.204	5.69974
324.419	6.76451
324.634	4.63293
324.849	5.60816
325.064	8.83922
325.279	6.78073
325.493	5.99187
325.708	6.44481
325.923	5.01984
326.138	5.45015
326.352	7.11924
326.567	6.67798
326.782	5.33522
326.997	5.33788
327.211	6.27804
327.426	6.08664
327.641	5.62943
327.855	4.42672
328.07	6.34501
328.285	7.41599
328.499	5.46361
328.714	5.94521
328.928	6.16502
329.143	5.68384
329.358	6.68496
329.572	6.62436
329.787	7.19605
330.001	8.16884
330.216	4.76534
330.43	7.84851
330.645	7.03167
330.859	6.73948
331.074	5.14135
331.288	5.96792
331.503	7.34764
331.717	4.84751
331.931	6.02107
332.146	6.18104
332.36	7.62665
332.575	6.26087
332.789	6.1274
333.003	6.26219
333.218	6.41066
333.432	5.31979
333.646	6.67665
333.86	7.61865
334.075	7.3073
334.289	5.51931
334.503	4.90133
334.717	6.50536
334.932	6.32245
335.146	6.98336
335.36	5.52618
335.574	6.61424
335.788	6.43234
336.003	6.91681
336.217	6.84558
336.431	6.58133
336.645	5.68362
336.859	5.07129
337.073	6.13297
337.287	6.52018
337.501	5.0161
337.715	6.64651
337.929	7.00386
338.143	5.31072
338.357	5.90787
338.571	5.76594
338.785	6.89382
338.999	5.83409
339.213	5.77785
339.427	5.17822
339.641	7.45155
339.855	5.85631
340.069	5.5902
340.283	7.03502
340.497	7.82239
340.711	6.84823
340.924	6.26412
341.138	5.52308
341.352	5.14103
341.566	6.55197
341.78	5.16264
341.993	5.95799
342.207	5.67056
342.421	6.65129
342.635	6.12132
342.848	5.96157
343.062	4.39858
343.276	5.81648
343.49	8.00788
343.703	5.77304
343.917	7.29106
344.131	7.43803
344.344	5.73331
344.558	6.0629
344.771	5.30411
344.985	7.7565
345.199	7.94666
345.412	6.76176
345.626	6.90933
345.839	5.23087
346.053	5.55296
346.266	5.69897
346.48	7.02157
346.693	6.77905
346.907	6.64122
347.12	5.62635
347.334	6.6642
347.547	6.78549
347.76	6.3972
347.974	7.33622
348.187	6.56725
348.401	6.14904
348.614	5.66461
348.827	6.13108
349.041	6.71391
349.254	5.0401
349.467	5.94277
349.681	5.53592
349.894	5.70198
350.107	7.61508
350.32	8.15821
350.534	5.36563
350.747	6.12936
350.96	5.82977
351.173	5.85784
351.386	6.20684
351.6	5.91799
351.813	6.15566
352.026	6.11509
352.239	5.60451
352.452	6.10025
352.665	7.60017
352.878	6.39105
353.092	8.18235
353.305	7.04816
353.518	6.67486
353.731	5.5897
353.944	7.46528
354.157	6.33687
354.37	6.10691
354.583	5.58327
354.796	5.49926
355.009	7.37241
355.222	6.82869
355.435	6.6863
355.647	7.61659
355.86	6.18478
356.073	6.98081
356.286	6.17579
356.499	7.51037
356.712	7.16823
356.925	7.27766
357.138	7.52454
357.35	6.25225
357.563	6.61773
357.776	7.04749
357.989	6.88583
358.201	7.32182
358.414	7.09528
358.627	8.02129
358.84	6.85553
359.052	5.97845
359.265	6.40713
359.478	7.72097
359.69	4.97947
359.903	7.51782
360.116	7.76512
360.328	5.81485
360.541	7.57507
360.753	6.52645
360.966	6.84012
361.179	6.9486
361.391	6.82301
361.604	6.7197
361.816	6.99462
362.029	7.05223
362.241	6.59527
362.454	7.07029
362.666	6.59098
362.879	7.70815
363.091	6.95167
363.304	6.84737
363.516	7.04905
363.728	6.44303
363.941	7.52178
364.153	7.30395
364.366	5.71994
364.578	6.3353
364.79	7.24862
365.003	7.11788
365.215	6.5213
365.427	7.49229
365.639	7.74004
365.852	7.10809
366.064	8.4582
366.276	6.92481
366.488	7.25477
366.701	6.9213
366.913	6.76326
367.125	6.82391
367.337	6.4432
367.549	6.65405
367.762	7.01319
367.974	7.06282
368.186	6.80317
368.398	7.72569
368.61	7.3265
368.822	7.45717
369.034	6.81684
369.246	7.61757
369.458	9.37501
369.67	6.53564
369.882	8.30305
370.094	5.71943
370.306	8.11013
370.518	6.83928
370.73	6.73489
370.942	6.66397
371.154	7.08817
371.366	6.88991
371.578	7.48725
371.79	7.01329
372.002	8.01125
372.214	8.71232
372.425	7.12775
372.637	8.34174
372.849	7.55713
373.061	5.81135
373.273	7.53451
373.484	7.48581
373.696	7.84694
373.908	5.68552
374.12	7.92994
374.331	7.51029
374.543	6.6848
374.755	6.61878
374.967	7.25557
375.178	7.92855
375.39	6.96174
375.602	7.37731
375.813	6.25113
376.025	6.70835
376.236	7.52488
376.448	7.67805
376.66	7.21254
376.871	7.25924
377.083	8.25266
377.294	8.79318
377.506	7.10417
377.717	8.46251
377.929	7.74123
378.14	7.273
378.352	7.80396
378.563	7.96192
378.775	8.49972
378.986	6.79265
379.197	7.50353
379.409	6.89955
379.62	7.89884
379.832	7.71447
380.043	7.36356
380.254	7.74002
380.466	6.60823
380.677	9.62948
380.888	8.85858
381.1	9.38404
381.311	9.48254
381.522	7.82441
381.733	9.48684
381.945	7.7825
382.156	7.49882
382.367	7.30967
382.578	9.61289
382.789	9.75248
383.001	7.11379
383.212	8.80279
383.423	8.9228
383.634	8.46008
383.845	8.39726
384.056	7.62321
384.267	7.90569
384.478	7.94058
384.69	7.16262
384.901	8.20091
385.112	7.99861
385.323	9.09103
385.534	8.21245
385.745	8.19849
385.956	8.02529
386.167	7.27344
386.378	8.24086
386.588	7.54832
386.799	7.48488
387.01	7.07765
387.221	8.53724
387.432	8.05079
387.643	9.03815
387.854	7.79061
388.065	7.80462
388.275	7.91817
388.486	7.62591
388.697	7.93748
388.908	7.67574
389.119	8.77976
389.329	8.93012
389.54	7.94252
389.751	8.30565
389.962	8.93772
390.172	8.11969
390.383	7.90565
390.594	7.67323
390.804	7.66755
391.015	7.71272
391.226	8.35315
391.436	8.60241
391.647	8.52242
391.858	8.59068
392.068	7.34848
392.279	7.75477
392.489	8.50236
392.7	8.94765
392.91	7.88739
393.121	7.86951
393.331	8.68955
393.542	9.06327
393.752	8.85776
393.963	8.64868
394.173	8.53072
394.384	8.71556
394.594	8.49191
394.804	7.65973
395.015	8.54269
395.225	8.7343
395.436	7.89708
395.646	8.6167
395.856	8.17134
396.067	7.46924
396.277	8.87936
396.487	8.60135
396.697	8.6892
396.908	8.65026
397.118	8.77033
397.328	8.41957
397.538	9.01494
397.749	7.82859
397.959	8.97939
398.169	8.77872
398.379	7.52101
398.589	8.79494
398.8	8.57841
399.01	8.50048
399.22	8.22994
399.43	9.88951
399.64	8.57312
399.85	8.77908
400.06	8.63262
400.27	8.01906
400.48	8.51472
400.69	9.38388
400.9	8.24357
401.11	7.87322
401.32	9.05376
401.53	8.27083
401.74	9.53072
401.95	8.79331
402.16	8.21452
402.37	8.73464
402.58	8.32151
402.79	8.93496
403	9.30252
403.209	8.21808
403.419	9.36263
403.629	8.15789
403.839	9.29964
404.049	9.15746
404.258	8.58588
404.468	8.37676
404.678	9.06903
404.888	9.63083
405.097	8.66673
405.307	8.85359
405.517	9.27012
405.727	9.18131
405.936	8.69251
406.146	9.26938
406.356	9.73399
406.565	8.87871
406.775	8.73776
406.984	8.71116
407.194	10.10428
407.404	8.9588
407.613	9.29493
407.823	9.30002
408.032	9.62283
408.242	9.50748
408.451	8.69616
408.661	8.84507
408.87	10.17675
409.08	8.43418
409.289	9.13092
409.499	9.20317
409.708	9.16717
409.918	7.71662
410.127	9.16848
410.336	10.00324
410.546	9.52806
410.755	8.88204
410.964	9.04989
411.174	8.56311
411.383	9.49127
411.592	9.39988
411.802	8.69362
412.011	9.55607
412.22	9.15165
412.429	10.27931
412.639	10.15441
412.848	9.64929
413.057	10.1834
413.266	9.92224
413.475	9.27844
413.685	9.65096
413.894	9.92589
414.103	9.98541
414.312	9.89872
414.521	9.27148
414.73	9.48674
414.939	10.75962
415.148	9.88562
415.357	9.65404
415.566	9.48078
415.776	9.31181
415.985	9.47885
416.194	10.15177
416.403	10.8935
416.611	9.11613
416.82	9.63245
417.029	9.99127
417.238	9.59375
417.447	9.5027
417.656	9.86211
417.865	9.64201
418.074	9.942
418.283	9.99972
418.492	10.6654
418.7	10.40731
418.909	11.53776
419.118	10.77068
419.327	11.16948
419.536	11.05017
419.744	11.10464
419.953	12.36564
420.162	12.62649
420.371	12.21574
420.579	12.83945
420.788	13.62198
420.997	13.74015
421.205	14.20559
421.414	13.95143
421.623	14.2164
421.831	13.74265
422.04	14.31637
422.249	13.43645
422.457	13.74422
422.666	12.82504
422.874	13.60421
423.083	13.67057
423.291	13.72998
423.5	13.63172
423.708	14.03787
423.917	14.56578
424.125	14.05755
424.334	13.98217
424.542	15.65638
424.751	15.2656
424.959	14.78447
425.167	14.85616
425.376	14.74859
425.584	13.48291
425.793	13.30403
426.001	12.38512
426.209	12.39332
426.418	11.29221
426.626	10.95817
426.834	10.78847
427.042	11.1872
427.251	10.76922
427.459	11.55429
427.667	11.21851
427.875	10.34903
428.084	10.85983
428.292	11.65371
428.5	11.37776
428.708	10.45027
428.916	10.43107
429.124	11.0347
429.333	10.81503
429.541	10.78342
429.749	11.00759
429.957	11.0812
430.165	12.59637
430.373	10.1409
430.581	11.1867
430.789	11.89398
430.997	10.94492
431.205	10.69717
431.413	11.29315
431.621	10.97084
431.829	11.53943
432.037	11.10199
432.245	11.23863
432.453	11.47446
432.661	11.16753
432.869	12.36384
433.076	10.93188
433.284	11.31275
433.492	11.77389
433.7	12.08412
433.908	11.41599
434.116	11.45785
434.323	11.67127
434.531	11.46921
434.739	11.86112
434.947	12.08425
435.154	11.95583
435.362	11.58001
435.57	11.42818
435.778	11.19273
435.985	11.7353
436.193	11.2682
436.401	12.26836
436.608	11.50526
436.816	11.27751
437.023	12.38518
437.231	12.48729
437.439	11.73766
437.646	11.92922
437.854	11.79464
438.061	12.02976
438.269	11.59137
438.476	12.14456
438.684	11.66251
438.891	11.59605
439.099	11.43743
439.306	11.25552
439.514	11.32766
439.721	12.45425
439.929	12.13699
440.136	13.08322
440.343	13.24638
440.551	13.19532
440.758	14.78633
440.965	13.54504
441.173	13.27652
441.38	13.20213
441.587	12.86321
441.795	12.68722
442.002	12.2522
442.209	12.27089
442.416	12.38966
442.624	12.37889
442.831	12.27372
443.038	11.86078
443.245	11.49561
443.452	11.91578
443.66	12.23532
443.867	11.79507
444.074	11.64656
444.281	11.69028
444.488	11.8924
444.695	12.04259
444.902	11.97727
445.109	13.02229
445.316	12.94028
445.523	13.52906
445.73	13.76753
445.937	14.7688
446.144	15.27076
446.351	15.85699
446.558	14.8643
446.765	16.80573
446.972	16.00429
447.179	15.70031
447.386	16.25359
447.593	14.57156
447.8	15.48319
448.007	13.95135
448.214	13.21298
448.42	12.68265
448.627	12.93208
448.834	12.37669
449.041	12.31085
449.248	12.2662
449.454	12.71359
449.661	13.2342
449.868	12.18833
450.075	12.14384
450.281	11.27738
450.488	11.74918
450.695	11.91224
450.901	11.8909
451.108	11.9914
451.315	12.85561
451.521	12.19511
451.728	12.86026
451.935	11.88628
452.141	12.29326
452.348	12.26259
452.554	12.34176
452.761	12.08709
452.967	13.16468
453.174	12.45928
453.38	12.62591
453.587	11.73604
453.793	12.63375
454	12.9041
454.206	13.55354
454.413	13.04347
454.619	12.80729
454.825	12.12413
455.032	12.89892
455.238	12.98786
455.445	11.92661
455.651	12.60379
455.857	11.75724
456.064	12.28787
456.27	12.28109
456.476	12.26344
456.682	11.9394
456.889	12.63956
457.095	12.77596
457.301	13.83419
457.507	12.53968
457.714	12.64136
457.92	12.59149
458.126	12.23566
458.332	12.50794
458.538	12.33319
458.744	12.53653
458.951	12.48879
459.157	14.74432
459.363	14.23525
459.569	14.76063
459.775	15.51501
459.981	15.44172
460.187	15.96536
460.393	16.09163
460.599	16.28928
460.805	15.41823
461.011	14.36133
461.217	14.08454
461.423	13.70851
461.629	13.16646
461.835	13.40305
462.041	13.01275
462.247	13.90531
462.453	12.88988
462.658	12.84751
462.864	13.42806
463.07	13.02414
463.276	13.15597
463.482	12.97072
463.688	13.69617
463.893	12.64897
464.099	12.91866
464.305	13.67737
464.511	12.73086
464.716	12.91768
464.922	13.45716
465.128	12.53486
465.333	13.98315
465.539	13.35855
465.745	13.04646
465.95	13.1319
466.156	14.60047
466.362	13.78309
466.567	13.12665
466.773	12.837
466.978	13.91213
467.184	12.63008
467.389	12.18915
467.595	13.38459
467.8	12.75128
468.006	13.97577
468.211	13.95461
468.417	12.60277
468.622	13.48676
468.828	13.6373
469.033	13.50636
469.239	14.74473
469.444	13.08411
469.649	13.7324
469.855	13.18727
470.06	13.27385
470.266	12.91707
470.471	13.66254
470.676	13.56304
470.881	12.4184
471.087	14.1593
471.292	14.85994
471.497	12.86986
471.703	13.34612
471.908	13.21475
472.113	13.4359
472.318	13.9491
472.523	12.83454
472.729	13.63917
472.934	13.81958
473.139	13.27462
473.344	13.63172
473.549	14.1093
473.754	13.1195
473.959	14.97813
474.164	13.14288
474.369	13.40393
474.575	13.90603
474.78	13.4995
474.985	13.15564
475.19	12.55068
475.395	13.13222
475.6	13.45355
475.804	14.29251
476.009	13.5758
476.214	13.48451
476.419	13.36535
476.624	12.76587
476.829	13.13159
477.034	13.98885
477.239	13.16416
477.444	13.98631
477.648	13.94091
477.853	13.99746
478.058	13.56415
478.263	13.35793
478.468	13.21081
478.672	13.2864
478.877	14.52323
479.082	14.55228
479.287	14.02184
479.491	13.73426
479.696	13.37157
479.901	14.07704
480.105	14.1767
480.31	13.31714
480.515	13.76446
480.719	14.88956
480.924	13.51898
481.128	13.31659
481.333	13.98669
481.538	13.93146
481.742	14.49246
481.947	15.72225
482.151	16.99696
482.356	18.17482
482.56	20.99114
482.765	23.33813
482.969	27.43864
483.174	31.05308
483.378	35.82998
483.582	37.71649
483.787	40.68958
483.991	42.1033
484.196	43.076
484.4	42.96771
484.604	43.31419
484.809	40.41528
485.013	38.16137
485.217	35.03443
485.422	31.57303
485.626	28.64815
485.83	26.67415
486.034	25.40733
486.239	25.44082
486.443	25.78379
486.647	26.35914
486.851	27.59915
487.055	29.50552
487.26	29.94683
487.464	31.28203
487.668	31.34928
487.872	32.27582
488.076	32.40733
488.28	31.59768
488.484	29.87817
488.688	29.12726
488.892	27.74366
489.096	25.83756
489.3	23.9913
489.504	22.27229
489.708	21.04671
489.912	20.319
490.116	19.76853
490.32	19.27056
490.524	20.56193
490.728	21.56608
490.932	22.86479
491.136	24.15814
491.34	25.9007
491.544	26.64738
491.748	26.95751
491.951	27.11703
492.155	26.78492
492.359	26.14809
492.563	24.28783
492.767	23.23393
492.97	20.97514
493.174	18.95488
493.378	17.34274
493.582	15.49206
493.785	14.61448
493.989	14.67029
494.193	14.60622
494.396	14.24349
494.6	14.76313
494.804	14.37802
495.007	14.02222
495.211	14.19727
495.414	14.17319
495.618	14.46091
495.822	14.96742
496.025	14.2484
496.229	14.6721
496.432	14.02337
496.636	14.41268
496.839	14.37344
497.043	15.15774
497.246	14.60509
497.45	14.37305
497.653	14.61458
497.856	14.62683
498.06	14.14997
498.263	14.54816
498.467	14.46976
498.67	15.02747
498.873	14.77228
499.077	14.51182
499.28	14.4785
499.483	14.73712
499.686	14.86761
499.89	14.67953
500.093	14.98637
500.296	14.21063
500.499	15.34877
500.703	14.51582
500.906	14.70792
501.109	15.43982
501.312	14.64866
501.515	14.51194
501.719	14.73955
501.922	15.15207
502.125	14.63996
502.328	14.64489
502.531	14.05193
502.734	14.44186
502.937	13.82603
503.14	14.67503
503.343	14.1814
503.546	14.51835
503.749	14.23929
503.952	14.93656
504.155	14.24874
504.358	14.80486
504.561	14.63487
504.764	14.00653
504.967	14.71217
505.17	14.67903
505.373	15.42763
505.576	14.6569
505.778	15.04909
505.981	14.25039
506.184	15.3013
506.387	13.79801
506.59	15.8209
506.793	15.15219
506.995	14.93201
507.198	13.83976
507.401	15.00243
507.604	14.97748
507.806	14.28785
508.009	14.42079
508.212	15.19889
508.414	14.41615
508.617	14.57414
508.82	14.81688
509.022	15.59684
509.225	14.90739
509.427	14.16026
509.63	15.50449
509.833	14.98891
510.035	14.65532
510.238	14.20927
510.44	15.50489
510.643	14.05613
510.845	15.81186
511.048	15.073
511.25	14.59542
511.453	14.87031
511.655	15.05271
511.858	14.78268
512.06	15.37191
512.262	14.96215
512.465	15.40974
512.667	14.75937
512.869	14.43681
513.072	15.15285
513.274	15.3506
513.476	15.292
513.679	15.4169
513.881	14.49528
514.083	15.7682
514.286	14.63313
514.488	14.64923
514.69	14.52893
514.892	14.24028
515.094	15.30979
515.297	14.65199
515.499	15.04541
515.701	14.58652
515.903	15.80096
516.105	15.86099
516.307	15.36468
516.509	14.03702
516.711	14.3546
516.913	15.01807
517.116	14.92164
517.318	14.69205
517.52	15.48987
517.722	15.26878
517.924	14.38633
518.126	15.29382
518.328	14.87929
518.529	15.81978
518.731	16.64827
518.933	15.35014
519.135	15.54888
519.337	16.25023
519.539	15.491
519.741	14.5649
519.943	15.10574
520.145	15.12734
520.346	15.6424
520.548	15.02189
520.75	15.35546
520.952	15.11396
521.153	15.39932
521.355	15.46115
521.557	14.77785
521.759	15.26513
521.96	15.1146
522.162	14.62325
522.364	15.61995
522.565	14.80947
522.767	15.36068
522.969	15.60259
523.17	15.45713
523.372	15.35025
523.573	14.91642
523.775	15.11301
523.977	14.78609
524.178	16.05616
524.38	14.84238
524.581	15.53142
524.783	14.99588
524.984	15.45338
525.186	15.36507
525.387	16.12316
525.589	16.27175
525.79	16.69716
525.991	16.79084
526.193	17.63117
526.394	17.12367
526.596	18.05112
526.797	18.49356
526.998	18.20135
527.2	19.1486
527.401	21.53915
527.602	23.35432
527.803	26.47972
528.005	28.71418
528.206	31.07274
528.407	33.00851
528.608	33.71895
528.81	34.7641
529.011	34.37124
529.212	35.36456
529.413	33.75952
529.614	31.93289
529.815	30.06063
530.017	27.76938
530.218	24.9339
530.419	22.29058
530.62	21.23337
530.821	19.80316
531.022	18.04394
531.223	18.53707
531.424	17.88811
531.625	17.92237
531.826	17.55376
532.027	18.3341
532.228	19.82854
532.429	20.38286
532.63	21.22952
532.831	22.64227
533.032	23.12398
533.233	24.29055
533.433	24.05222
533.634	24.4389
533.835	23.69508
534.036	22.82047
534.237	22.0226
534.438	20.78424
534.638	19.04233
534.839	17.99145
535.04	17.20553
535.241	16.23557
535.441	16.96876
535.642	16.51254
535.843	16.05543
536.043	16.40505
536.244	16.76842
536.445	17.13589
536.645	18.02742
536.846	17.7279
537.047	18.14016
537.247	17.08204
537.448	16.61291
537.648	16.1952
537.849	15.7661
538.049	15.76203
538.25	16.04324
538.451	16.10531
538.651	15.39912
538.851	16.05577
539.052	16.32272
539.252	16.12215
539.453	15.58189
539.653	15.7844
539.854	15.59488
540.054	15.64985
540.254	17.92889
540.455	19.7203
540.655	20.57221
540.855	22.93077
541.056	24.61848
541.256	25.04088
541.456	26.47897
541.657	26.47599
541.857	27.2052
542.057	25.78917
542.257	25.09087
542.458	24.92965
542.658	23.98752
542.858	21.56113
543.058	20.85066
543.258	19.78485
543.458	17.92745
543.659	17.20413
543.859	17.38219
544.059	16.72936
544.259	15.97168
544.459	16.45982
544.659	15.82504
544.859	16.15758
545.059	15.73306
545.259	16.19555
545.459	15.9558
545.659	16.31071
545.859	15.80654
546.059	16.06309
546.259	15.48883
546.459	15.33379
546.659	15.4472
546.859	16.24577
547.059	16.13201
547.258	16.11877
547.458	16.23378
547.658	15.53298
547.858	15.33358
548.058	16.18957
548.258	15.80634
548.457	15.5298
548.657	17.26138
548.857	15.84317
549.057	16.39746
549.256	16.14254
549.456	15.53444
549.656	14.77867
549.855	16.92362
550.055	15.42066
550.255	16.80075
550.454	15.98592
550.654	16.3157
550.853	16.61682
551.053	16.16534
551.253	15.87458
551.452	16.02464
551.652	15.04077
551.851	14.86484
552.051	15.52516
552.25	15.44064
552.45	15.34434
552.649	15.51309
552.849	15.19021
553.048	15.85767
553.248	16.32743
553.447	15.24427
553.646	16.2948
553.846	17.37916
554.045	16.63196
554.244	15.15928
554.444	16.76255
554.643	15.34799
554.842	16.77075
555.042	17.01948
555.241	15.48553
555.44	15.177
555.64	16.17186
555.839	16.78984
556.038	16.10544
556.237	15.3416
556.436	15.88858
556.636	15.94555
556.835	15.16701
557.034	16.80027
557.233	15.70226
557.432	14.72904
557.631	16.40078
557.83	15.65275
558.029	15.38405
558.228	15.41116
558.427	15.13372
558.626	16.03971
558.825	15.03976
559.024	15.41508
559.223	16.92053
559.422	15.43825
559.621	15.8345
559.82	14.21507
560.019	15.69988
560.218	15.5395
560.417	14.22923
560.616	15.22921
560.815	17.85126
561.014	14.84174
561.212	16.74112
561.411	15.85512
561.61	14.97836
561.809	15.51596
562.008	16.86515
562.206	15.63227
562.405	16.16591
562.604	15.57745
562.803	16.04377
563.001	15.60979
563.2	15.06489
563.399	16.11854
563.597	15.09482
563.796	15.6301
563.995	14.89703
564.193	16.25093
564.392	15.51595
564.59	16.9408
564.789	14.60765
564.988	15.57152
565.186	15.92652
565.385	15.46351
565.583	15.56044
565.782	15.78716
565.98	15.72581
566.179	15.66242
566.377	15.30608
566.575	15.43495
566.774	16.71358
566.972	16.45295
567.171	17.30988
567.369	16.81276
567.567	16.09708
567.766	16.1014
567.964	14.76819
568.162	16.33103
568.361	16.75408
568.559	15.71655
568.757	16.07175
568.956	15.88195
569.154	16.1119
569.352	16.30506
569.55	15.75838
569.748	15.87512
569.947	15.34994
570.145	15.1501
570.343	15.14829
570.541	16.87235
570.739	15.15851
570.937	15.93508
571.135	16.25359
571.333	17.38685
571.532	17.31127
571.73	16.09637
571.928	16.72812
572.126	16.33963
572.324	15.80578
572.522	16.83319
572.72	17.94483
572.918	16.03441
573.116	16.40581
573.313	15.95822
573.511	16.07058
573.709	15.76363
573.907	16.69032
574.105	15.7119
574.303	15.07272
574.501	14.9249
574.699	16.36108
574.896	16.3158
575.094	16.42575
575.292	15.25926
575.49	16.81088
575.688	15.97586
575.885	16.95151
576.083	17.61508
576.281	16.38505
576.478	15.52044
576.676	16.49277
576.874	15.15743
577.071	16.0633
577.269	17.5901
577.467	15.85533
577.664	16.01843
577.862	16.70123
578.059	15.1709
578.257	16.65967
578.455	15.73897
578.652	16.0029
578.85	14.52865
579.047	16.0668
579.245	15.67687
579.442	16.01091
579.64	15.69493
579.837	14.65483
580.034	17.92415
580.232	15.80632
580.429	14.92958
580.627	16.28947
580.824	17.03032
581.021	16.27746
581.219	15.51947
581.416	15.35169
581.613	17.03603
581.811	16.9062
582.008	15.06103
582.205	16.42876
582.402	16.16638
582.6	17.63982
582.797	15.91576
582.994	16.39245
583.191	16.50935
583.388	15.80544
583.586	16.47024
583.783	16.8547
583.98	15.08062
584.177	16.2451
584.374	13.77754
584.571	15.78248
584.768	15.69606
584.965	15.47778
585.162	16.43487
585.359	17.18976
585.556	15.92124
585.753	16.15344
585.95	14.80234
586.147	15.00701
586.344	16.09852
586.541	15.57717
586.738	14.95213
586.935	15.7569
587.132	15.25081
587.329	16.78047
587.526	15.9847
587.722	20.07492
587.919	14.7207
588.116	16.47155
588.313	16.96925
588.51	17.79838
588.706	15.77762
588.903	16.37296
589.1	16.86203
589.297	18.51151
589.493	15.91923
589.69	16.59055
589.887	15.62237
590.083	15.19581
590.28	15.45549
590.477	17.08922
590.673	16.70258
590.87	17.31006
591.067	15.61403
591.263	16.3855
591.46	16.3479
591.656	15.81361
591.853	17.3478
592.049	15.48383
592.246	15.50537
592.442	16.76441
592.639	17.27711
592.835	15.3068
593.032	16.51306
593.228	14.97261
593.425	15.05458
593.621	14.95328
593.817	16.4058
594.014	15.33564
594.21	16.33555
594.406	17.11147
594.603	16.4777
594.799	15.66767
594.995	14.29852
595.192	17.26427
595.388	15.83364
595.584	15.85869
595.78	15.12004
595.977	18.51098
596.173	17.62105
596.369	15.99981
596.565	15.4148
596.761	15.29649
596.957	17.24988
597.154	15.86955
597.35	15.94824
597.546	15.97623
597.742	16.87953
597.938	16.70953
598.134	16.07152
598.33	16.63235
598.526	17.58006
598.722	16.63942
598.918	17.9525
599.114	16.76924
599.31	15.22227
599.506	16.26337
599.702	15.63519
599.898	16.43457
600.094	16.60918
600.29	16.80122
600.485	17.09485
600.681	15.54536
600.877	17.80317
601.073	16.14631
601.269	18.14168
601.465	17.34006
601.66	15.55331
601.856	14.71147
602.052	18.3226
602.248	15.95716
602.443	14.71114
602.639	15.2565
602.835	15.71698
603.03	15.55741
603.226	16.95075
603.422	15.68114
603.617	16.34797
603.813	16.17359
604.009	16.09271
604.204	17.42357
604.4	15.39858
604.595	17.49388
604.791	15.73409
604.986	16.95234
605.182	16.03042
605.377	16.45553
605.573	16.34425
605.768	16.64919
605.964	17.08465
606.159	17.25378
606.355	17.4838
606.55	16.15784
606.746	17.49817
606.941	16.52237
607.136	18.07001
607.332	19.13985
607.527	15.28055
607.722	16.66324
607.918	16.18641
608.113	15.58286
608.308	17.11876
608.503	16.83245
608.699	16.99083
608.894	17.09292
609.089	15.87429
609.284	16.86224
609.479	16.24732
609.675	17.24076
609.87	16.51733
610.065	17.3796
610.26	17.6265
610.455	17.48402
610.65	16.89221
610.845	17.17729
611.04	17.45892
611.235	16.70572
611.43	16.53105
611.625	15.62654
611.82	18.2756
612.015	16.00033
612.21	18.26157
612.405	15.20136
612.6	18.10586
612.795	17.95267
612.99	17.25543
613.185	15.41878
613.38	15.91731
613.575	16.8495
613.77	19.54053
613.965	14.97784
614.159	15.76568
614.354	17.7137
614.549	17.54511
614.744	17.06243
614.938	15.21258
615.133	14.95636
615.328	18.00177
615.523	17.60836
615.717	19.50327
615.912	15.80679
616.107	16.57611
616.301	16.40607
616.496	15.84716
616.691	18.0899
616.885	17.34565
617.08	19.76275
617.274	17.67465
617.469	18.77986
617.664	17.28645
617.858	16.02763
618.053	16.94992
618.247	16.45802
618.442	14.23502
618.636	18.24496
618.831	15.78776
619.025	15.90213
619.219	19.93994
619.414	13.29455
619.608	16.27355
619.803	16.00439
619.997	19.13026
620.191	17.77325
620.386	17.15591
620.58	16.46763
620.774	14.60791
620.969	14.71169
621.163	16.81992
621.357	15.26445
621.551	16.26984
621.746	16.7031
621.94	16.12001
622.134	20.17288
622.328	18.8604
622.522	15.01217
622.716	17.94512
622.911	17.8099
623.105	17.92007
623.299	17.273
623.493	20.13752
623.687	15.89476
623.881	16.0342
624.075	17.52186
624.269	18.03942
624.463	14.51365
624.657	14.91239
624.851	17.45992
625.045	17.72843
625.239	17.87196
625.433	16.31149
625.627	18.87316
625.821	16.41691
626.015	16.22877
626.209	17.04045
626.403	15.39216
626.596	17.48121
626.79	17.95651
626.984	16.0443
627.178	17.8002
627.372	17.69483
627.565	17.92314
627.759	15.71462
627.953	16.0708
628.147	17.64515
628.34	17.92878
628.534	19.79017
628.728	16.84876
628.921	18.07603
629.115	17.91644
629.309	18.42813
629.502	18.24598
629.696	17.33266
629.89	17.00833
630.083	17.48871
630.277	17.47947
630.47	19.02546
630.664	16.40335
630.857	15.14032
631.051	18.70801
631.244	18.39577
631.438	18.10759
631.631	16.09131
631.825	18.87818
632.018	17.93856
632.212	19.60573
632.405	18.54421
632.598	16.09745
632.792	17.10519
632.985	14.06634
633.178	16.77879
633.372	17.12896
633.565	16.91164
633.758	18.69922
633.952	16.1543
634.145	15.99836
634.338	17.10813
634.531	16.54693
634.724	16.35936
634.918	17.01797
635.111	16.75306
635.304	16.75452
635.497	20.38667
635.69	17.81298
635.883	19.0677
636.077	15.87705
636.27	17.80544
636.463	17.62952
636.656	17.6468
636.849	16.90153
637.042	18.12819
637.235	19.69966
637.428	18.26926
637.621	18.0935
637.814	19.47265
638.007	19.31319
638.2	19.34734
638.393	19.78281
638.586	15.31467
638.778	16.8215
638.971	17.17559
639.164	19.64465
639.357	17.3625
639.55	19.59563
639.743	18.47033
639.935	18.10464
640.128	20.81176
640.321	18.77039
640.514	17.6695
640.707	20.60393
640.899	18.50739
641.092	15.0576
641.285	33.17752
641.477	14.73797
641.67	21.55183
641.863	19.7202
642.055	17.62238
642.248	17.37557
642.441	17.30278
642.633	18.55822
642.826	19.01059
643.018	19.60479
643.211	20.53962
643.403	20.94916
643.596	21.26532
643.788	20.198
643.981	16.97549
644.173	18.89732
644.366	17.20942
644.558	15.09843
644.751	19.32329
644.943	15.87483
645.135	20.21329
645.328	20.35855
645.52	18.58287
645.712	19.5727
645.905	22.59007
646.097	16.07106
646.289	18.52937
646.482	21.34921
646.674	16.54235
646.866	20.06531
647.058	18.81198
647.251	16.35968
647.443	16.99358
647.635	17.44244
647.827	16.11368
648.019	16.31734
648.211	17.63784
648.404	18.3103
648.596	20.94102
648.788	18.41371
648.98	18.45011
649.172	18.95303
649.364	18.72867
649.556	15.48813
649.748	22.64066
649.94	16.56964
650.132	19.3119
650.324	16.70841
650.516	17.29713
650.708	20.11787
650.9	15.83009
651.092	15.45518
651.284	16.07365
651.476	16.32995
651.667	19.12454
651.859	20.56566
652.051	18.03781
652.243	18.42204
652.435	17.81301
652.627	18.98425
652.818	19.32149
653.01	15.83863
653.202	16.73279
653.394	17.5466
653.585	19.07283
653.777	25.86912
653.969	21.3974
654.16	20.41867
654.352	16.56808
654.544	18.3374
654.735	20.08586
654.927	18.64631
655.118	21.13036
655.31	19.68182
655.502	20.49492
655.693	17.98244
655.885	19.2338
656.076	20.93114
656.268	18.98573
656.459	21.23324
656.651	20.77433
656.842	17.82153
657.034	17.3691
657.225	20.45911
657.416	21.18034
657.608	20.92788
657.799	19.00703
657.99	21.15957
658.182	17.77389
658.373	17.73864
658.564	21.0464
658.756	19.66512
658.947	18.96804
659.138	17.78958
659.33	18.27905
659.521	18.18443
659.712	19.11876
659.903	18.68143
660.094	18.25266
660.286	16.90746
660.477	22.33916
660.668	20.13579
660.859	18.9829
661.05	16.84427
661.241	20.18126
661.432	19.65396
661.623	18.33272
661.814	18.45177
662.006	16.50261
662.197	19.54993
662.388	21.43761
662.579	19.4367
662.77	21.25066
662.96	24.04814
663.151	20.51091
663.342	15.59825
663.533	19.97187
663.724	19.09391
663.915	22.57425
664.106	19.51667
664.297	22.62842
664.488	20.34877
664.678	17.60274
664.869	21.18192
665.06	20.68312
665.251	19.59925
665.442	20.46025
665.632	17.02588
665.823	23.21176
666.014	13.81362
666.204	20.44273
666.395	21.86208
666.586	24.06855
666.776	20.68853
666.967	23.50692
667.158	19.61382
667.348	22.59815
667.539	17.56767
667.729	21.18887
667.92	18.17351
668.111	21.83143
668.301	21.02065
668.492	19.09941
668.682	20.24613
668.873	19.18422
669.063	17.0006
669.253	20.52734
669.444	22.24516
669.634	20.08488
669.825	23.50679
670.015	22.14917
670.206	18.18613
670.396	23.83274
670.586	19.36762
670.777	20.68181
670.967	15.67951
671.157	19.10041
671.347	18.47814
671.538	22.79197
671.728	21.10581
671.918	24.03766
672.108	21.75092
672.299	19.43644
672.489	20.72217
672.679	18.49073
672.869	21.36158
673.059	25.06029
673.249	21.13134
673.44	17.56103
673.63	19.5099
673.82	21.9583
674.01	17.91873
674.2	21.07214
674.39	26.12549
674.58	21.52582
674.77	20.44286
674.96	19.72784
675.15	29.05848
675.34	22.85512
675.53	20.04625
675.72	19.64969
675.91	17.11689
676.099	24.73111
676.289	25.56383
676.479	23.09028
676.669	19.28464
676.859	21.32609
677.049	18.78626
677.238	20.78137
677.428	24.64847
677.618	21.87885
677.808	25.15138
677.997	22.1549
678.187	18.80283
678.377	20.74749
678.567	19.58456
678.756	19.62426
678.946	20.7293
679.136	17.84539
679.325	19.8221
679.515	19.12731
679.704	18.36144
679.894	22.82184
680.084	21.72242
680.273	23.51085
680.463	19.46309
680.652	19.23931
680.842	21.0696
681.031	23.2725
681.221	19.25397
681.41	22.36031
681.6	20.72135
681.789	22.8343
681.978	23.94872
682.168	21.95182
682.357	21.3402
682.547	22.45777
682.736	21.49436
682.925	24.26039
683.115	24.04299
683.304	22.43793
683.493	21.5697
683.682	22.65337
683.872	22.07467
684.061	24.00274
684.25	22.73722
684.439	27.15326
684.629	23.41104
684.818	30.01613
685.007	22.0427
685.196	20.96595
685.385	26.49763
685.574	22.48685
685.763	22.75648
685.952	22.23157
686.142	18.71206
686.331	25.30881
686.52	18.51014
686.709	27.19183
686.898	26.62479
687.087	24.13569
687.276	26.55299
687.465	25.17682
687.654	21.58629
687.842	25.61549
688.031	19.57838
688.22	26.22187
688.409	23.24476
688.598	22.59756
688.787	28.8587
688.976	22.45414
689.165	27.83157
689.353	21.3135
689.542	23.92364
689.731	25.35182
689.92	28.55171
690.108	24.03918
690.297	22.0153
690.486	23.3192
690.675	24.95625
690.863	27.31282
691.052	26.94265
691.241	23.15679
691.429	23.64139
691.618	26.87385
691.806	19.47065
691.995	22.36211
692.184	23.07519
692.372	22.7598
692.561	23.72456
692.749	23.65294
692.938	32.7564
693.126	24.8127
693.315	22.64809
693.503	25.20958
693.692	26.08794
693.88	25.87357
694.068	28.96869
694.257	23.93568
694.445	25.74704
694.634	18.38019
694.822	25.85097
695.01	27.08411
695.199	30.29478
695.387	27.59528
695.575	27.30202
695.763	23.65003
695.952	22.57637
696.14	19.5699
696.328	22.20865
696.516	24.07731
696.705	24.87567
696.893	23.66513
697.081	19.24683
697.269	26.37754
697.457	20.89496
697.645	20.52894
697.833	25.96538
698.021	21.62853
698.21	22.46319
698.398	23.28618
698.586	21.10181
698.774	20.6631
698.962	23.95697
699.15	21.504
699.338	19.95156
699.526	25.12245
699.714	22.20477
699.901	22.09544
700.089	25.93589
700.277	21.52977
700.465	23.35342
700.653	25.5429
700.841	24.32632
701.029	22.07948
701.217	28.3887
701.404	23.46189
701.592	28.74368
701.78	30.82329
701.968	23.66364
702.155	24.47843
702.343	20.38541
702.531	28.14748
702.718	25.20475
702.906	22.58002
703.094	22.76008
703.281	28.32829
703.469	24.10526
703.657	27.59598
703.844	34.67152
704.032	31.12128
704.219	23.97946
704.407	26.01383
704.595	29.54518
704.782	26.17183
704.97	25.34572
705.157	24.32967
705.345	32.37889
705.532	36.95116
705.719	29.3486
705.907	31.958
706.094	28.57487
706.282	34.61665
706.469	29.07048
706.656	30.08696
706.844	28.50985
707.031	33.28986
707.218	31.90502
707.406	35.32839
707.593	32.4888
707.78	33.08936
707.968	30.79935
708.155	27.98112
708.342	33.05404
708.529	33.14161
708.716	32.7634
708.904	37.14021
709.091	33.48181
709.278	27.73986
709.465	38.59787
709.652	36.51066
709.839	35.2398
710.026	30.91462
710.213	25.25824
710.4	30.69776
710.587	32.24355
710.774	34.56522
710.961	33.99882
711.148	30.88789
711.335	34.04104
711.522	30.07281
711.709	32.02048
711.896	38.02621
712.083	34.28699
712.27	27.8906
712.457	31.66099
712.644	25.6543
712.831	38.42851
713.017	31.12406
713.204	33.62993
713.391	28.8828
713.578	33.77447
713.765	35.61179
713.951	31.28651
714.138	41.08592
714.325	30.70825
714.512	29.52234
714.698	26.17699
714.885	34.20967
715.072	28.66943
715.258	28.59506
715.445	26.20238
715.631	32.67931
715.818	19.10461
716.005	26.02018
716.191	30.45097
716.378	26.69601
716.564	31.04527
716.751	24.59942
716.937	26.28032
717.124	31.59505
717.31	24.89027
717.497	35.85463
717.683	25.71131
717.869	36.27011
718.056	25.56884
718.242	29.83029
718.429	27.30632
718.615	23.96098
718.801	27.90969
718.988	32.7129
719.174	30.19028
719.36	26.85388
719.547	33.58589
719.733	28.63796
719.919	29.26443
720.105	30.31486
720.291	27.98778
720.478	29.2171
720.664	27.43426
720.85	26.259
721.036	39.61836
721.222	35.33853
721.408	28.32865
721.595	36.11265
721.781	35.08324
721.967	33.0705
722.153	35.97027
722.339	31.27537
722.525	30.02507
722.711	24.64986
722.897	23.37352
723.083	27.04977
723.269	33.5703
723.455	41.50903
723.641	47.00595
723.827	29.38719
724.012	31.91171
724.198	28.22099
724.384	35.57491
724.57	31.33531
724.756	23.14252
724.942	21.05847
725.127	33.93658
725.313	35.03136
725.499	34.82299
725.685	38.26995
725.87	31.49039
726.056	26.33099
726.242	35.67149
726.428	22.99361
726.613	33.11546
726.799	28.02196
726.985	24.83172
727.17	22.17243
727.356	39.0194
727.541	25.83248
727.727	28.92104
727.913	32.80169
728.098	27.09031
728.284	33.22207
728.469	25.34127
728.655	26.10654
728.84	34.77996
729.026	33.32749
729.211	32.72971
729.397	31.48575
729.582	34.03775
729.767	30.39687
729.953	32.32303
730.138	35.91759
730.323	19.85005
730.509	25.82343
730.694	37.84943
730.879	33.34204
731.065	31.17375
731.25	41.79072
731.435	33.26622
731.621	23.85332
731.806	28.04619
731.991	30.85503
732.176	23.78899
732.361	37.99306
732.547	31.80105
732.732	23.84186
732.917	41.03025
733.102	25.12258
733.287	27.26245
733.472	30.57005
733.657	30.0588
733.842	24.13725
734.027	28.00977
734.212	29.59735
734.397	26.87545
734.582	30.61752
734.767	35.70783
734.952	37.56929
735.137	19.25243
735.322	37.19684
735.507	32.59708
735.692	31.2394
735.877	41.27834
736.062	39.71163
736.247	32.88565
736.431	30.26668
736.616	36.00681
736.801	32.55858
736.986	31.00684
737.171	26.61035
737.355	25.294
737.54	37.63462
737.725	31.21677
737.909	45.89024
738.094	27.93496
738.279	35.17335
738.463	29.70786
738.648	34.10553
738.833	33.69146
739.017	42.50198
739.202	29.25903
739.386	30.14992
739.571	26.17458
739.756	35.84463
739.94	31.37828
740.125	33.53821
740.309	27.74533
740.494	34.87966
740.678	32.20877
740.863	33.92159
741.047	32.06825
741.231	39.18567
741.416	28.25951
741.6	40.26069
741.785	27.31747
741.969	37.29573
742.153	39.74801
742.338	21.4421
742.522	31.56259
742.706	36.2744
742.89	25.49728
743.075	31.48471
743.259	39.30027
743.443	38.02351
743.627	40.47916
743.812	43.99671
743.996	23.71295
744.18	30.50162
744.364	30.0888
744.548	45.74472
744.732	30.41276
744.916	37.84887
745.1	35.47264
745.285	30.25643
745.469	35.67823
745.653	41.90216
745.837	26.38492
746.021	45.77821
746.205	39.9057
746.389	33.38349
746.573	30.63446
746.757	41.54421
746.94	30.50627
747.124	40.38694
747.308	26.64199
747.492	39.39625
747.676	27.87878
747.86	48.1092
748.044	29.79254
748.227	23.49587
748.411	56.65481
748.595	33.30662
748.779	26.75261
748.963	35.05481
749.146	32.70635
749.33	28.58133
749.514	27.51252
749.697	38.59501
749.881	28.8088
750.065	27.57544
750.248	33.13351
750.432	46.74807
750.616	33.06654
750.799	26.47127
750.983	48.29876
751.166	47.69051
751.35	24.37867
751.533	37.49841
751.717	42.8414
751.9	43.44241
752.084	31.31493
752.267	28.30675
752.451	28.30789
752.634	33.30481
752.818	36.80553
753.001	39.1304
753.184	40.42237
753.368	35.80581
753.551	14.28174
753.734	28.21803
753.918	49.07243
754.101	29.23315
754.284	38.37433
754.467	30.29767
754.651	29.14526
754.834	27.98243
755.017	40.81947
755.2	41.07821
755.384	28.59429
755.567	38.53365
755.75	38.65733
755.933	31.71981
756.116	38.99499
756.299	30.45408
756.482	27.53292
756.665	36.90364
756.848	33.01401
757.032	36.16612
757.215	26.19818
757.398	27.60135
757.581	28.61043
757.764	52.98689
757.947	33.21632
758.129	39.72884
758.312	17.15629
758.495	32.13374
758.678	33.52349
758.861	30.41766
759.044	45.33809
759.227	27.91412
759.41	28.96725
759.592	37.87642
759.775	32.43044
759.958	40.22776
760.141	26.08855
760.324	50.36603
760.506	44.48335
760.689	38.78451
760.872	48.67075
761.054	36.98569
761.237	32.88279
761.42	35.51255
761.602	39.19135
761.785	36.87587
761.968	41.96683
762.15	45.71452
762.333	32.17594
762.515	37.7687
762.698	31.4903
762.88	40.11423
763.063	37.40824
763.245	42.04354
763.428	28.19811
763.61	31.09976
763.793	26.43626
763.975	36.56234
764.158	31.98213
764.34	30.00449
764.522	29.05372
764.705	32.69196
764.887	43.36565
765.069	24.25493
765.252	38.16319
765.434	38.29649
765.616	34.91782
765.799	29.7322
765.981	38.20547
766.163	29.96401
766.345	42.91335
766.528	29.81043
766.71	21.81988
766.892	36.1756
767.074	42.5539
767.256	32.04388
767.438	47.15688
767.62	36.28484
767.802	50.82819
767.985	39.49349
768.167	47.61716
768.349	31.71995
768.531	38.79295
768.713	36.7636
768.895	41.10664
769.077	36.33757
769.259	54.65623
769.441	72.5788
769.623	39.91013
769.804	48.07608
769.986	44.80649
770.168	51.26274
770.35	61.72643
770.532	48.33094
770.714	53.28181
770.896	53.61237
771.077	28.01629
771.259	56.54961
771.441	48.68014
771.623	58.04022
771.804	69.39101
771.986	29.64976
772.168	40.82892
772.35	54.27838
772.531	70.63398
772.713	46.5136
772.894	61.84456
773.076	44.96646
773.258	42.70487
773.439	60.41181
773.621	68.04539
773.802	35.98355
773.984	40.33676
774.166	49.02844
774.347	64.29617
774.529	58.08699
774.71	27.11287
774.891	44.52969
775.073	40.92607
775.254	60.68083
775.436	40.72712
775.617	73.67955
775.799	43.56879
775.98	61.86507
776.161	66.94248
776.343	67.35316
776.524	47.31941
776.705	44.52132
776.886	26.55803
777.068	53.43948
777.249	97.02477
777.43	70.75502
777.611	35.01251
777.793	43.62893
777.974	68.34736
778.155	40.92617
778.336	35.25766
778.517	77.86959
778.698	39.22426
778.879	27.41018
779.061	19.41405
779.242	52.46045
779.423	52.69657
779.604	41.13381
779.785	44.02466
779.966	49.76841
780.147	60.68041
780.328	60.74934
780.509	79.89747
780.69	59.26754
780.871	39.08011
781.051	30.43481
781.232	49.90146
781.413	48.78199
781.594	43.3638
781.775	43.06306
781.956	38.75652
782.137	27.09824
782.317	41.80605
782.498	48.98259
782.679	49.32547
782.86	50.3626
783.04	41.88946
783.221	50.72846
783.402	72.90029
783.583	47.57276
783.763	59.18639
783.944	42.28261
784.124	33.18566
784.305	70.07332
784.486	55.31841
784.666	47.03647
784.847	30.28752
785.027	90.88933
785.208	41.48882
785.388	38.88306
785.569	39.60821
785.749	44.48758
785.93	42.6633
786.11	31.80504
786.291	55.28007
786.471	50.14243
786.652	59.95737
786.832	46.18436
787.012	50.7668
787.193	33.86682
787.373	48.13463
787.553	42.75813
787.734	50.29613
787.914	42.82754
788.094	59.83617
788.275	51.1024
788.455	43.53259
788.635	34.07608
788.815	50.73993
788.995	37.03991
789.176	31.54976
789.356	38.32553
789.536	43.68458
789.716	53.0576
789.896	37.99124
790.076	40.96312
790.256	51.20885
790.436	23.12464
790.616	35.39686
790.796	49.98088
790.976	41.65026
791.156	39.04297
791.336	55.09674
791.516	51.94047
791.696	46.19538
791.876	31.77935
792.056	48.6078
792.236	59.95984
792.416	57.39422
792.596	54.27839
792.776	53.46365
792.956	55.57548
793.135	70.04403
793.315	35.08493
793.495	59.87119
793.675	56.34832
793.854	56.49855
794.034	59.55645
794.214	36.25043
794.394	56.88209
794.573	63.82057
794.753	48.40513
794.933	35.78135
795.112	50.63001
795.292	59.77634
795.472	69.7676
795.651	32.35071
795.831	46.86281
796.01	44.40051
796.19	44.44905
796.369	48.30501
796.549	52.98076
796.728	47.3837
796.908	32.59504
797.087	34.26835
797.267	43.7749
797.446	35.02113
797.626	54.39775
797.805	52.89085
797.984	39.64232
798.164	57.60241
798.343	37.65519
798.522	50.41479
798.702	48.9664
798.881	34.12135
799.06	42.44447
799.239	26.55838
799.419	37.2903
799.598	69.5129
799.777	52.62964
799.956	61.68604
800.136	44.83438
800.315	37.33126
800.494	52.16272
800.673	59.56078
800.852	56.21742
801.031	61.91191
801.21	53.7958
801.389	42.79719
801.568	49.22391
801.747	73.49397
801.926	48.83745
802.105	66.00418
802.284	42.45368
802.463	68.76382
802.642	52.59905
802.821	50.93039
803	66.45756
803.179	59.03174
803.358	62.03453
803.537	41.18394
803.716	48.81032
803.895	39.21094
804.073	45.15098
804.252	37.53512
804.431	52.99111
804.61	45.38724
804.789	59.33713
804.967	41.96282
805.146	41.28958
805.325	78.07149
805.503	53.26062
805.682	31.83204
805.861	93.63873
806.039	65.94065
806.218	42.87199
806.397	51.13653
806.575	47.28978
806.754	54.34287
806.932	37.82307
807.111	61.20316
807.289	60.15638
807.468	48.28272
807.646	60.67183
807.825	55.28617
808.003	51.30969
808.182	61.45797
808.36	48.1934
808.539	38.0577
808.717	68.39415
808.895	40.90269
809.074	51.91933
809.252	48.45532
809.43	55.72809
809.609	66.12664
809.787	68.38387
809.965	45.34021
810.144	49.31218
810.322	46.88151
810.5	54.92245
810.678	45.44699
810.856	79.07622
811.035	63.68207
811.213	58.85921
811.391	69.14343
811.569	53.32274
811.747	100.92555
811.925	67.65889
812.103	41.57395
812.281	50.30143
812.459	72.06809
812.637	75.93923
812.816	61.03101
812.994	81.0748
813.171	68.78653
813.349	56.81266
813.527	63.44777
813.705	70.75531
813.883	89.68828
814.061	63.5502
814.239	77.21303
814.417	83.30509
814.595	62.73761
814.773	58.06965
814.95	54.46278
815.128	58.86358
815.306	53.20502
815.484	48.38352
815.662	39.98527
815.839	35.15299
816.017	43.13663
816.195	66.56541
816.372	46.28214
816.55	61.06739
816.728	76.42203
816.905	50.26229
817.083	74.88934
817.261	51.4733
817.438	97.39889
817.616	79.26328
817.793	46.97028
817.971	63.71088
818.148	61.76257
818.326	70.01009
818.503	54.82566
818.681	74.52105
818.858	49.68234
819.036	50.25207
819.213	52.60583
819.391	43.55636
819.568	43.27074
819.745	40.49165
819.923	63.16941
820.1	47.08107
820.277	42.44523
820.455	47.14293
820.632	49.17318
820.809	52.42827
820.986	38.19418
821.164	33.88128
821.341	30.5474
821.518	41.29362
821.695	32.96671
821.872	31.46173
822.05	28.94622
822.227	25.82679
822.404	26.64785
822.581	29.21865
822.758	26.99648
822.935	27.35931
823.112	29.33447
823.289	26.57423
823.466	29.49856
823.643	28.66484
823.82	32.15846
823.997	30.74987
824.174	32.9311
824.351	39.57938
824.528	38.10456
824.705	35.20953
824.882	38.18645
825.059	45.2995
825.236	35.81926
825.412	36.8701
825.589	42.36766
825.766	54.19944
825.943	38.58924
826.12	42.27941
826.296	34.27568
826.473	39.33035
826.65	39.80117
826.827	44.35422
827.003	33.86864
827.18	36.12471
827.357	39.67714
827.533	35.76748
827.71	25.24251
827.887	32.66352
828.063	36.47121
828.24	31.48568
828.416	38.83088
828.593	34.31297
828.769	43.9083
828.946	44.51939
829.122	47.02877
829.299	45.40055
829.475	33.07135
829.652	44.58824
829.828	65.08092
830.005	45.52339
830.181	57.32494
830.357	46.93486
830.534	61.52673
830.71	48.80582
830.886	58.35504
831.063	58.13818
831.239	69.4731
831.415	39.05518
831.592	71.07471
831.768	48.96886
831.944	45.06058
832.12	75.24156
832.296	71.30703
832.473	62.2501
832.649	44.54936
832.825	63.91291
833.001	41.41087
833.177	54.49305
833.353	51.48154
833.529	33.58151
833.705	48.13943
833.881	34.94261
834.058	34.89231
834.234	36.95553
834.41	36.73038
834.586	30.86111
834.761	35.15981
834.937	37.54888
835.113	39.03712
835.289	34.90515
835.465	39.77868
835.641	36.88915
835.817	39.05404
835.993	59.81188
836.169	35.99068
836.344	50.7944
836.52	55.0784
836.696	51.31427
836.872	44.89607
837.048	102.55391
837.223	48.191
837.399	82.94478
837.575	64.61971
837.75	62.9607
837.926	83.41867
838.102	115.06266
838.277	96.37315
838.453	129.33802
838.628	125.05547
838.804	53.82509
838.98	110.45394
839.155	63.37331
839.331	86.04056
839.506	59.93371
839.682	63.22732
839.857	84.18892
840.033	94.59514
840.208	49.13342
840.384	33.03178
840.559	49.99859
840.734	70.45005
840.91	89.90646
841.085	58.45012
841.26	58.71701
841.436	54.98186
841.611	53.16756
841.786	75.89294
841.962	98.97275
842.137	65.40347
842.312	47.33217
842.487	58.74599
842.663	50.82509
842.838	61.32748
843.013	169.52575
843.188	82.24777
843.363	92.47297
843.538	144.42224
843.714	137.37284
843.889	147.96498
844.064	157.60136
844.239	129.12981
844.414	146.03917
844.589	97.13592
844.764	177.93776
844.939	167.31167
845.114	183.60208
845.289	179.03087
845.464	242.54654
845.639	166.80476
845.814	90.68487
845.989	98.89888
846.163	124.89673
846.338	127.25575
846.513	173.586
846.688	117.62062
846.863	124.76862
847.038	105.79743
847.212	121.37975
847.387	126.08049
847.562	132.59917
847.737	162.492
847.911	71.61872
848.086	84.46923
848.261	274.60507
848.435	113.63035
848.61	166.66253
848.785	94.27475
848.959	179.41051
849.134	225.86302
849.308	238.74789
849.483	132.70654
849.658	198.83033
849.832	114.65204
850.007	100.6422
850.181	265.41983
850.356	98.23768
850.53	248.86692
850.705	80.08381
850.879	59.6342
851.053	127.00625
851.228	112.91359
851.402	142.27263
851.577	181.94932
851.751	202.61189
851.925	135.34416
852.099	69.48026
852.274	98.7352
852.448	122.3047
852.622	137.80011
852.797	130.24928
852.971	123.95427
853.145	135.15325
853.319	360.24881
853.493	192.59706
853.668	101.97751
853.842	236.05769
854.016	194.95106
854.19	221.05942
854.364	142.70735
854.538	150.51891
854.712	199.66158
854.886	127.29066
855.06	120.45335
855.234	54.14469
855.408	206.09653
855.582	180.32774
855.756	174.92716
855.93	235.18355
856.104	162.37784
856.278	184.34243
856.452	137.61553
856.626	182.71502
856.8	268.4818
856.973	171.2437
857.147	152.0577
857.321	156.60779
857.495	189.06079
857.669	130.19026
857.842	116.98907
858.016	194.92052
858.19	107.11687
858.364	302.22449
858.537	121.19071
858.711	140.55154
858.885	126.83121
859.058	115.47941
859.232	68.43013
859.405	82.57853
859.579	183.97316
859.753	152.95177
859.926	104.83208
860.1	80.08956
860.273	139.64056
860.447	218.13652
860.62	122.43618
860.794	254.78614
860.967	154.69617
861.141	198.9324
861.314	274.42918
861.487	170.03906
861.661	223.2245
861.834	216.40841
862.008	190.45487
862.181	139.29587
862.354	143.68865
862.528	166.05931
862.701	120.24315
862.874	81.15806
863.047	128.3107
863.221	121.34591
863.394	65.15454
863.567	224.07322
863.74	57.73377
863.913	183.42105
864.087	160.57247
864.26	183.00191
864.433	133.39012
864.606	239.55846
864.779	141.77661
864.952	73.99891
865.125	114.77104
865.298	132.54691
865.471	138.30445
865.644	268.3015
865.817	226.50602
865.99	186.40045
866.163	207.565
866.336	122.62028
866.509	143.91953
866.682	112.21458
866.855	204.27114
867.028	97.24747
867.2	177.28406
867.373	63.85264
867.546	155.54088
867.719	283.9128
867.892	176.66317
868.064	102.62382
868.237	158.46773
868.41	137.47245
868.583	93.14737
868.755	93.4252
868.928	143.67333
869.101	282.13568
869.273	205.2826
869.446	168.04776
869.619	205.60664
869.791	141.92259
869.964	201.47529
870.136	183.27748
870.309	156.14685
870.481	156.56165
870.654	78.87697
870.826	155.59645
870.999	122.57929
871.171	185.18993
871.344	122.8236
871.516	131.02899
871.689	102.66289
871.861	142.74864
872.033	102.93702
872.206	124.07464
872.378	199.8521
872.55	133.06908
872.723	91.2195
872.895	129.1904
873.067	203.20841
873.24	235.83908
873.412	118.61572
873.584	126.73712
873.756	128.5105
873.928	164.12786
874.101	165.94255
874.273	176.11733
874.445	71.08994
874.617	86.60409
874.789	150.73097
874.961	128.41582
875.133	163.30423
875.305	145.00396
875.477	99.3818
875.649	83.38629
875.821	102.46385
875.993	242.39202
876.165	97.23212
876.337	165.11912
876.509	124.77161
876.681	161.53351
876.853	154.17853
877.025	156.16306
877.197	105.60465
877.369	96.12239
877.541	191.52787
877.712	65.98999
877.884	98.56655
878.056	177.96665
878.228	99.88949
878.4	171.41218
878.571	99.70367
878.743	75.43734
878.915	159.91436
879.086	96.09191
879.258	117.5402
879.43	104.52869
879.601	94.39384
879.773	100.14778
879.945	33.39394
880.116	47.95936
880.288	34.45101
880.459	37.75659
880.631	31.7089
880.802	35.64971
880.974	34.74361
881.145	27.75339
881.317	33.55183
881.488	28.48694
881.66	30.59927
881.831	28.51832
882.002	36.25065
882.174	29.28269
882.345	34.71592
882.517	25.56174
882.688	38.86791
882.859	34.89701
883.03	48.66662
883.202	46.58753
883.373	42.63799
883.544	42.38427
883.715	65.56334
883.887	53.58308
884.058	49.96492
884.229	66.4154
884.4	68.04324
884.571	73.93104
884.742	65.63356
884.914	69.84548
885.085	97.29472
885.256	116.19315
885.427	95.29339
885.598	113.78195
885.769	119.43377
885.94	107.20817
886.111	80.29639
886.282	135.66735
886.453	111.30182
886.624	82.52346
886.795	129.67081
886.966	112.88967
887.136	142.33922
887.307	97.8969
887.478	171.37553
887.649	151.20575
887.82	158.84658
887.991	126.10364
888.161	170.72649
888.332	171.03243
888.503	89.37696
888.674	212.77165
888.844	230.29087
889.015	183.08161
889.186	91.83018
889.356	213.98184
889.527	92.50855
889.698	360.40997
889.868	126.8598
890.039	153.51089
890.209	136.51062
890.38	178.49953
890.551	159.94891
890.721	222.61723
890.892	186.17504
891.062	138.15636
891.233	165.13907
891.403	125.99853
891.574	106.0808
891.744	131.74043
891.914	185.74816
892.085	148.46951
892.255	61.13214
892.425	220.85922
892.596	177.55095
892.766	165.38788
892.936	225.65915
893.107	192.12111
893.277	110.6151
893.447	87.9509
893.618	64.33865
893.788	125.49043
893.958	76.11747
894.128	75.18307
894.298	80.56288
894.468	109.76476
894.639	56.11841
894.809	43.0149
894.979	61.56854
895.149	70.60903
895.319	58.75115
895.489	79.59699
895.659	92.98786
895.829	65.64903
895.999	71.33793
896.169	55.49132
896.339	64.77234
896.509	125.19243
896.679	140.78973
896.849	138.11769
897.019	185.09487
897.189	144.03275
897.358	136.67591
897.528	187.58166
897.698	80.81019
897.868	175.42867
898.038	286.04645
898.208	265.46902
898.377	107.18303
898.547	283.31594
898.717	435.50766
898.886	180.40442
899.056	276.36663
899.226	397.10825
899.395	244.11801
899.565	301.31259
899.735	206.34139
899.904	344.62801
900.074	283.4905
900.244	140.9283
900.413	516.77298
900.583	131.02961
900.752	191.88482
900.922	309.4829
901.091	48.38177
901.261	263.79875
901.43	254.78969
901.599	270.38385
901.769	556.89829
901.938	306.82476
902.108	298.75987
902.277	375.51067
902.446	112.49804
902.616	128.92249
902.785	177.87853
902.954	296.80398
903.124	201.76019
903.293	167.51103
903.462	89.41896
903.631	129.16563
903.801	93.62485
903.97	57.50348
904.139	88.8713
904.308	70.87135
904.477	58.5998
904.646	40.75701
904.816	55.74739
904.985	76.27892
905.154	110.91276
