Data from WindowProjectSample3_Transmission__51__00051.txt Node

Date: Sun May 04 11:24:02 EDT 2025
User: jessi
Spectrometer: SR400872
Trigger mode: 0
Integration Time (sec): 5.000050E-1
Scans to average: 20
Electric dark correction enabled: true
Nonlinearity correction enabled: true
Boxcar width: 0
XAxis mode: Wavelengths
Number of Pixels in Spectrum: 3648
>>>>>Begin Spectral Data<<<<<
184.909	-1286.68753
185.132	-1452.92985
185.355	-1168.65044
185.578	-1044.28453
185.801	1257.91799
186.024	-920.67694
186.247	-4884.59247
186.47	-2037.01222
186.693	-265.58079
186.916	-562.56828
187.139	-787.83808
187.362	-2873.09792
187.585	-706.34405
187.808	-4976.24511
188.031	8961.87787
188.254	-2450.56918
188.476	-3500.83748
188.699	-1086.96748
188.922	710.6671
189.145	-1218.76023
189.368	3093.87164
189.591	-2345.5694
189.813	-1502.50294
190.036	-859.85342
190.259	-1195.30492
190.482	-1576.78044
190.705	-2419.22662
190.927	-701.26031
191.15	-1521.75904
191.373	-1132.27107
191.595	-1305.55028
191.818	-1364.03055
192.041	-657.35678
192.263	-1095.22165
192.486	-630.26046
192.709	-1540.72968
192.931	-3302.7114
193.154	-1167.8885
193.377	-1622.84525
193.599	-3182.70937
193.822	-3496.40426
194.044	-3157.4031
194.267	-1874.14247
194.489	-41.96816
194.712	-964.61975
194.934	-1723.4293
195.157	-619.25502
195.379	-1272.26753
195.602	-838.47312
195.824	-1329.97523
196.047	-2113.28019
196.269	-1098.59908
196.492	-1444.85559
196.714	-1271.37011
196.936	-1234.17689
197.159	-932.96272
197.381	-794.94565
197.604	-593.98602
197.826	-2151.16197
198.048	-1106.95366
198.271	-1640.46186
198.493	-1156.7655
198.715	-973.63111
198.938	-3160.61718
199.16	-4404.92473
199.382	-1242.28458
199.604	-1238.74498
199.827	-1835.54236
200.049	-1536.27282
200.271	-1189.47273
200.493	-1469.52156
200.715	-972.846
200.938	-839.63488
201.16	-963.55827
201.382	-1058.72645
201.604	-1279.25813
201.826	-700.72225
202.048	-822.71634
202.27	-1385.93633
202.492	-1381.03267
202.715	-1866.00574
202.937	-2079.53116
203.159	-1338.74995
203.381	-1559.81739
203.603	-1018.80882
203.825	-5222.66052
204.047	-1611.22916
204.269	-1367.05738
204.491	-1268.87207
204.713	-1588.11765
204.935	-1402.31801
205.156	-2794.1079
205.378	-2773.76656
205.6	-1601.48324
205.822	-1096.51982
206.044	1408.62147
206.266	-1325.77124
206.488	-934.84118
206.71	-1705.19697
206.932	-1803.45471
207.153	-1139.63872
207.375	-1365.46854
207.597	-1078.30647
207.819	-1105.67693
208.041	-1195.63595
208.262	-1534.35459
208.484	-885.88381
208.706	-2291.18109
208.927	-833.49969
209.149	-1445.54098
209.371	-1201.52737
209.593	-1632.5933
209.814	-626.13664
210.036	-933.85955
210.258	-725.0054
210.479	-1052.72196
210.701	-1886.6324
210.922	-1265.43962
211.144	-1007.20236
211.366	-1099.10217
211.587	1358.93049
211.809	-1119.82967
212.03	-6204.02651
212.252	980.36516
212.473	-949.77814
212.695	-17359.48897
212.916	-3524.39901
213.138	-1374.64217
213.359	-973.51751
213.581	-1420.03091
213.802	-933.12577
214.024	-1380.14904
214.245	-11972.36335
214.466	-1058.20699
214.688	-1426.74564
214.909	-1032.26328
215.131	-2700.63991
215.352	-3736.50797
215.573	-1081.42409
215.795	-1908.58586
216.016	-1414.19378
216.237	-3091.26886
216.459	-1455.16592
216.68	-1114.17447
216.901	-1544.63081
217.122	10380.82864
217.344	-972.85614
217.565	-1320.4355
217.786	-1328.72832
218.007	-966.31598
218.228	-1205.61503
218.45	-1079.71395
218.671	-1187.83356
218.892	-1033.29334
219.113	-1577.3193
219.334	-109.16799
219.555	-1617.21537
219.776	-1545.0317
219.997	-1242.21003
220.219	16705.11113
220.44	-1201.91532
220.661	-3391.32094
220.882	-929.81464
221.103	1584.83198
221.324	-2804.13689
221.545	-1170.50683
221.766	-1310.94687
221.987	-1796.47107
222.208	-2011.70346
222.429	-762.84687
222.65	-718.68565
222.87	-1630.56921
223.091	-3499.43455
223.312	3167.11243
223.533	-1209.89329
223.754	-1560.57318
223.975	-2217.21779
224.196	8691.49875
224.417	-8095.37462
224.637	4154.01459
224.858	210.09726
225.079	-1916.03872
225.3	28509.63934
225.521	-1040.32306
225.741	-5165.59879
225.962	6944.57208
226.183	409.12612
226.404	-3659.51704
226.624	2489.72115
226.845	-83398.29964
227.066	-643500.27161
227.286	873.01969
227.507	324.74576
227.728	286.5337
227.948	674.81225
228.169	171.2916
228.389	174.75309
228.61	98.11006
228.831	132.28546
229.051	10.74941
229.272	71.58728
229.492	105.6382
229.713	31.16986
229.933	72.48889
230.154	62.18067
230.374	101.77519
230.595	73.82016
230.815	45.14251
231.036	72.67819
231.256	-8.11727
231.477	129.78124
231.697	77.80108
231.917	84.45564
232.138	117.07853
232.358	240.36806
232.579	194.79069
232.799	34.34435
233.019	192.98759
233.24	235.00622
233.46	84.3869
233.68	118.42442
233.901	82.85959
234.121	58.28851
234.341	25.79183
234.561	-4.6313
234.782	42.16916
235.002	132.37402
235.222	0.01458
235.442	118.33924
235.662	55.53485
235.883	115.60682
236.103	98.41278
236.323	65.11268
236.543	52.33911
236.763	76.43435
236.983	84.01442
237.203	74.66606
237.423	114.66576
237.643	170.29348
237.864	150.03799
238.084	37.13658
238.304	48.49918
238.524	88.17687
238.744	76.21005
238.964	133.74364
239.184	116.21262
239.404	125.4532
239.624	64.33524
239.843	108.6001
240.063	65.45421
240.283	42.26125
240.503	46.22086
240.723	46.12019
240.943	27.33737
241.163	34.91749
241.383	26.14089
241.603	13.97959
241.822	15.47327
242.042	10.65272
242.262	14.25763
242.482	14.91262
242.702	17.3912
242.921	5.21259
243.141	11.49499
243.361	10.18414
243.581	15.15763
243.8	12.54802
244.02	8.39104
244.24	15.49651
244.459	14.27833
244.679	29.59786
244.899	18.40325
245.118	22.66716
245.338	21.29758
245.558	23.37094
245.777	13.81294
245.997	17.21363
246.216	17.87187
246.436	10.40937
246.655	7.37762
246.875	5.61552
247.094	10.31345
247.314	3.91416
247.533	6.1466
247.753	7.18638
247.972	5.78573
248.192	2.2975
248.411	3.29903
248.631	5.75532
248.85	7.08431
249.07	7.13182
249.289	9.9095
249.508	7.27814
249.728	11.58514
249.947	11.78547
250.166	14.61328
250.386	7.53062
250.605	11.54188
250.824	18.81165
251.044	12.94323
251.263	39.55133
251.482	22.94818
251.701	19.96134
251.921	0.30566
252.14	6.29358
252.359	7.69598
252.578	16.46242
252.798	6.11986
253.017	14.28014
253.236	7.29551
253.455	9.69502
253.674	18.40628
253.893	8.91602
254.112	13.03575
254.331	19.28504
254.551	15.37211
254.77	8.82439
254.989	22.76721
255.208	17.55061
255.427	27.63269
255.646	23.24402
255.865	33.7729
256.084	15.15724
256.303	19.14489
256.522	23.74921
256.741	6.34004
256.96	6.49165
257.179	14.22485
257.397	18.03451
257.616	10.18748
257.835	10.20996
258.054	24.63909
258.273	17.61551
258.492	18.02184
258.711	11.06556
258.93	5.18884
259.148	7.77135
259.367	7.23355
259.586	9.25408
259.805	4.21542
260.023	7.72755
260.242	5.84643
260.461	4.5565
260.68	2.3741
260.898	6.55322
261.117	2.52061
261.336	1.64505
261.554	5.56768
261.773	5.74331
261.992	1.56689
262.21	5.43671
262.429	6.45645
262.648	11.29516
262.866	12.63216
263.085	9.27797
263.303	7.88046
263.522	14.34001
263.74	13.80477
263.959	23.61986
264.178	12.74274
264.396	11.13316
264.615	8.2377
264.833	18.29186
265.051	15.22404
265.27	17.92576
265.488	17.82925
265.707	10.92488
265.925	17.43495
266.144	8.58311
266.362	9.41495
266.58	9.61262
266.799	8.10745
267.017	9.77594
267.235	8.66018
267.454	5.80493
267.672	3.38566
267.89	7.25336
268.109	7.49346
268.327	7.39086
268.545	1.79789
268.763	7.01579
268.982	3.19635
269.2	7.52608
269.418	5.21099
269.636	4.37331
269.854	7.36736
270.073	5.48473
270.291	3.31877
270.509	3.0055
270.727	7.56144
270.945	11.55032
271.163	11.80318
271.381	3.08356
271.599	5.23124
271.817	8.23371
272.036	3.00186
272.254	5.71477
272.472	4.03223
272.69	3.91107
272.908	4.33124
273.126	6.53374
273.344	8.42678
273.562	2.89827
273.779	4.56531
273.997	7.0402
274.215	6.72618
274.433	4.85016
274.651	7.32519
274.869	7.32986
275.087	4.54106
275.305	6.91226
275.523	4.66538
275.74	4.869
275.958	9.05091
276.176	12.82362
276.394	4.26049
276.612	5.4314
276.829	5.49531
277.047	4.80602
277.265	4.99454
277.483	5.75851
277.7	6.64736
277.918	5.57345
278.136	10.31987
278.353	4.91138
278.571	2.98322
278.789	7.58381
279.006	2.01775
279.224	4.76771
279.442	8.30317
279.659	6.3899
279.877	4.00423
280.094	8.42277
280.312	2.01754
280.529	5.71721
280.747	2.10402
280.964	4.84412
281.182	9.09494
281.399	4.84677
281.617	5.93486
281.834	4.33869
282.052	3.29056
282.269	5.32394
282.487	4.27932
282.704	3.77365
282.921	3.65401
283.139	5.58411
283.356	6.90983
283.574	6.52169
283.791	3.1692
284.008	8.61478
284.226	5.08515
284.443	5.60656
284.66	7.03956
284.877	6.18821
285.095	3.97981
285.312	2.8646
285.529	1.7626
285.746	1.49211
285.964	3.40835
286.181	2.35568
286.398	3.20427
286.615	4.59606
286.832	4.23432
287.05	1.14305
287.267	3.09141
287.484	3.18828
287.701	4.38369
287.918	4.19125
288.135	4.5043
288.352	1.98172
288.569	2.63489
288.786	4.34228
289.003	3.1706
289.22	5.00608
289.437	2.93842
289.654	4.78499
289.871	4.86267
290.088	4.64896
290.305	4.02157
290.522	3.13765
290.739	3.33321
290.956	5.05507
291.173	5.80539
291.39	5.56725
291.607	3.77537
291.824	3.2348
292.04	2.33027
292.257	4.87144
292.474	5.31254
292.691	3.71856
292.908	1.77791
293.125	3.07415
293.341	1.99862
293.558	8.09664
293.775	3.7925
293.992	4.06926
294.208	1.52986
294.425	2.60042
294.642	3.35374
294.858	4.74806
295.075	1.39729
295.292	3.42936
295.508	4.42256
295.725	5.97173
295.942	3.28918
296.158	2.67471
296.375	3.93489
296.591	3.31857
296.808	3.3162
297.024	3.94686
297.241	4.23102
297.458	4.53942
297.674	1.30149
297.891	3.91125
298.107	3.46469
298.323	2.78056
298.54	5.39401
298.756	3.3294
298.973	2.0071
299.189	5.93883
299.406	3.59651
299.622	5.80543
299.838	6.17421
300.055	5.62577
300.271	2.79097
300.487	3.37933
300.704	3.76677
300.92	2.91248
301.136	8.25771
301.353	6.7082
301.569	4.99043
301.785	5.45689
302.001	6.02684
302.218	5.662
302.434	6.06974
302.65	3.3781
302.866	4.40177
303.083	8.79932
303.299	8.73663
303.515	5.55049
303.731	6.00064
303.947	3.69451
304.163	4.80123
304.379	5.70592
304.595	6.32424
304.812	4.68998
305.028	4.45235
305.244	5.0951
305.46	6.76863
305.676	6.86841
305.892	7.98645
306.108	6.7665
306.324	5.37581
306.54	8.60887
306.756	6.62111
306.972	6.50759
307.187	5.86687
307.403	8.13999
307.619	5.15617
307.835	7.53856
308.051	7.82778
308.267	4.69451
308.483	7.92646
308.699	6.89672
308.914	6.04915
309.13	6.25366
309.346	4.0228
309.562	4.79918
309.778	4.1718
309.993	6.89988
310.209	6.44865
310.425	4.61512
310.641	5.96087
310.856	4.99635
311.072	4.87571
311.288	6.18127
311.503	6.57161
311.719	3.98152
311.935	4.09838
312.15	6.9305
312.366	6.60932
312.581	7.08394
312.797	6.45761
313.013	7.52359
313.228	5.49182
313.444	6.17632
313.659	5.04097
313.875	7.15133
314.09	6.21591
314.306	8.36226
314.521	7.56599
314.737	7.49412
314.952	6.76596
315.168	6.91878
315.383	7.0318
315.599	6.07682
315.814	6.50685
316.029	7.84694
316.245	5.09666
316.46	3.93899
316.675	8.37468
316.891	9.48107
317.106	10.90036
317.321	7.34518
317.537	7.43325
317.752	7.79374
317.967	8.25358
318.183	5.43466
318.398	6.10909
318.613	8.25337
318.828	8.89779
319.043	7.82855
319.259	6.40054
319.474	7.05164
319.689	8.39236
319.904	4.14822
320.119	8.44122
320.334	7.16651
320.549	6.53914
320.765	8.56444
320.98	7.41056
321.195	8.04732
321.41	6.86529
321.625	8.13979
321.84	9.67771
322.055	9.4474
322.27	5.73814
322.485	5.34543
322.7	7.46476
322.915	8.57914
323.13	6.12977
323.345	9.48325
323.56	8.29867
323.775	8.12112
323.989	7.81882
324.204	7.34364
324.419	8.40759
324.634	5.32347
324.849	7.20925
325.064	10.31106
325.279	8.78481
325.493	7.83097
325.708	8.63755
325.923	6.05748
326.138	6.68029
326.352	9.66255
326.567	8.4307
326.782	6.76762
326.997	6.5757
327.211	8.37033
327.426	7.82827
327.641	6.96862
327.855	5.01205
328.07	8.37565
328.285	9.96224
328.499	6.91225
328.714	7.76501
328.928	8.2381
329.143	7.56097
329.358	9.34083
329.572	8.78827
329.787	9.75549
330.001	11.44298
330.216	5.44242
330.43	10.53824
330.645	9.69935
330.859	8.96455
331.074	6.09478
331.288	7.37171
331.503	10.31707
331.717	5.73938
331.931	7.61092
332.146	8.14226
332.36	11.01533
332.575	8.49334
332.789	7.97369
333.003	7.77121
333.218	8.76915
333.432	6.97537
333.646	9.08575
333.86	10.61534
334.075	10.59389
334.289	6.92193
334.503	5.89614
334.717	8.93588
334.932	8.32992
335.146	8.778
335.36	6.75985
335.574	8.49348
335.788	8.12377
336.003	9.11469
336.217	9.30101
336.431	8.31297
336.645	7.36572
336.859	6.41025
337.073	8.06441
337.287	8.33083
337.501	6.47663
337.715	8.93625
337.929	8.92754
338.143	6.48212
338.357	7.89265
338.571	7.33276
338.785	9.2459
338.999	7.16802
339.213	7.28933
339.427	6.29197
339.641	9.92095
339.855	7.30893
340.069	6.88507
340.283	9.35195
340.497	10.26929
340.711	9.0524
340.924	8.11052
341.138	6.78509
341.352	6.37928
341.566	8.42888
341.78	5.99541
341.993	7.40358
342.207	7.16834
342.421	8.6295
342.635	8.17312
342.848	7.52701
343.062	4.8676
343.276	7.5499
343.49	11.15609
343.703	7.43766
343.917	9.55334
344.131	9.89786
344.344	7.27982
344.558	7.67886
344.771	6.69163
344.985	9.96154
345.199	10.89521
345.412	8.7856
345.626	8.89328
345.839	6.04821
346.053	6.89914
346.266	7.02905
346.48	9.16737
346.693	8.83786
346.907	9.07302
347.12	7.19287
347.334	8.40799
347.547	9.0316
347.76	8.07679
347.974	9.88927
348.187	8.70277
348.401	8.19125
348.614	7.05828
348.827	8.13114
349.041	9.21476
349.254	6.05821
349.467	8.10616
349.681	7.24294
349.894	7.4402
350.107	10.08571
350.32	11.50201
350.534	6.47363
350.747	8.19781
350.96	7.35196
351.173	7.6125
351.386	7.8361
351.6	7.84557
351.813	7.88899
352.026	8.33239
352.239	7.13293
352.452	8.24474
352.665	10.27227
352.878	8.20978
353.092	11.7003
353.305	9.58488
353.518	8.57832
353.731	7.31205
353.944	9.73933
354.157	8.13437
354.37	7.99521
354.583	7.0699
354.796	6.96546
355.009	10.18065
355.222	8.94235
355.435	8.73944
355.647	10.46357
355.86	7.86756
356.073	8.73835
356.286	8.22081
356.499	10.20529
356.712	10.05674
356.925	9.48118
357.138	10.38365
357.35	7.69011
357.563	8.46175
357.776	9.25325
357.989	9.19047
358.201	9.89079
358.414	9.61745
358.627	10.45435
358.84	8.74465
359.052	7.51968
359.265	7.88158
359.478	10.26985
359.69	5.91074
359.903	10.50974
360.116	10.70592
360.328	7.37577
360.541	10.27133
360.753	8.61611
360.966	9.07007
361.179	9.21578
361.391	9.04429
361.604	8.67248
361.816	9.04882
362.029	9.11139
362.241	8.59972
362.454	9.18922
362.666	8.52319
362.879	10.04083
363.091	9.10462
363.304	8.75612
363.516	8.97747
363.728	8.06677
363.941	9.89386
364.153	9.60971
364.366	6.91754
364.578	8.13723
364.79	9.95401
365.003	9.53811
365.215	8.84508
365.427	10.08062
365.639	10.74034
365.852	9.78976
366.064	11.40057
366.276	9.06896
366.488	9.78832
366.701	9.21371
366.913	9.19193
367.125	9.46258
367.337	8.64244
367.549	9.01344
367.762	9.48966
367.974	9.52821
368.186	9.25338
368.398	10.58336
368.61	10.13246
368.822	10.51013
369.034	9.22253
369.246	10.53916
369.458	12.82274
369.67	8.65651
369.882	12.13551
370.094	7.26357
370.306	11.42081
370.518	9.16651
370.73	9.44675
370.942	9.22982
371.154	9.75527
371.366	9.60531
371.578	10.76677
371.79	9.69396
372.002	11.47078
372.214	12.64417
372.425	10.17971
372.637	12.01452
372.849	10.65975
373.061	7.5697
373.273	10.7391
373.484	10.85817
373.696	11.12619
373.908	7.51842
374.12	11.50734
374.331	10.79386
374.543	9.34814
374.755	9.23259
374.967	10.34011
375.178	11.59877
375.39	10.1543
375.602	10.74178
375.813	8.76565
376.025	9.40721
376.236	10.75061
376.448	11.03973
376.66	10.60304
376.871	10.4878
377.083	11.86826
377.294	12.87199
377.506	10.33743
377.717	12.65923
377.929	11.17386
378.14	10.5743
378.352	11.49821
378.563	11.74165
378.775	12.63946
378.986	9.99944
379.197	11.21319
379.409	10.23057
379.62	11.80696
379.832	11.33243
380.043	10.98128
380.254	11.61759
380.466	9.7079
380.677	14.57538
380.888	13.58362
381.1	14.63674
381.311	14.67398
381.522	11.64702
381.733	14.74382
381.945	11.35649
382.156	11.22728
382.367	10.86309
382.578	14.80217
382.789	15.13187
383.001	10.69603
383.212	13.95951
383.423	13.81761
383.634	13.1095
383.845	12.80147
384.056	11.43878
384.267	11.90415
384.478	12.22098
384.69	10.6995
384.901	12.62409
385.112	12.51716
385.323	14.44162
385.534	12.45814
385.745	12.59602
385.956	12.73403
386.167	11.28757
386.378	13.08189
386.588	11.4437
386.799	11.23659
387.01	10.61834
387.221	13.47927
387.432	12.57501
387.643	14.58285
387.854	12.14412
388.065	12.18433
388.275	12.32117
388.486	12.07321
388.697	12.57962
388.908	12.13856
389.119	13.9759
389.329	14.56197
389.54	12.72807
389.751	13.28702
389.962	14.54864
390.172	13.17435
390.383	12.5791
390.594	12.16907
390.804	12.415
391.015	12.57041
391.226	13.46968
391.436	14.19439
391.647	13.64568
391.858	14.14118
392.068	11.70132
392.279	12.03309
392.489	13.86808
392.7	14.52253
392.91	12.52334
393.121	12.42296
393.331	13.95731
393.542	14.80989
393.752	14.19655
393.963	13.92441
394.173	14.02236
394.384	14.52227
394.594	13.7111
394.804	12.48465
395.015	14.05495
395.225	14.6452
395.436	12.59033
395.646	14.08364
395.856	13.25461
396.067	12.02624
396.277	14.75182
396.487	14.35079
396.697	14.03933
396.908	14.93844
397.118	14.61362
397.328	14.03233
397.538	15.20227
397.749	13.41329
397.959	15.13704
398.169	14.54229
398.379	12.58419
398.589	14.73268
398.8	14.46325
399.01	14.63312
399.22	13.80806
399.43	16.63064
399.64	14.24844
399.85	14.79454
400.06	14.44155
400.27	13.51129
400.48	14.33351
400.69	15.6174
400.9	13.83048
401.11	13.22099
401.32	15.49959
401.53	13.87677
401.74	16.39762
401.95	14.93988
402.16	14.01686
402.37	15.34475
402.58	14.31842
402.79	15.29212
403	15.71424
403.209	14.22254
403.419	16.03408
403.629	14.37997
403.839	16.09746
404.049	16.07067
404.258	14.55227
404.468	14.03815
404.678	15.98916
404.888	16.30122
405.097	14.8048
405.307	15.20666
405.517	15.76557
405.727	15.7248
405.936	15.01656
406.146	15.29053
406.356	16.78896
406.565	15.08392
406.775	14.82374
406.984	14.74205
407.194	17.37089
407.404	15.30172
407.613	15.70918
407.823	16.07734
408.032	16.784
408.242	16.33303
408.451	14.80321
408.661	15.2725
408.87	17.42076
409.08	15.00627
409.289	16.0382
409.499	16.0338
409.708	15.80591
409.918	13.69057
410.127	15.85194
410.336	17.37747
410.546	16.41075
410.755	15.42638
410.964	15.32258
411.174	14.91775
411.383	16.45235
411.592	16.04756
411.802	14.7589
412.011	16.78695
412.22	15.75885
412.429	17.53509
412.639	17.40798
412.848	17.13219
413.057	17.78745
413.266	17.17514
413.475	16.23202
413.685	16.71385
413.894	17.15467
414.103	17.26901
414.312	17.09171
414.521	16.23603
414.73	16.6958
414.939	18.29264
415.148	17.13303
415.357	16.7033
415.566	16.32842
415.776	16.14413
415.985	16.18206
416.194	17.48795
416.403	18.58826
416.611	15.62502
416.82	16.30725
417.029	17.03711
417.238	16.50006
417.447	16.2744
417.656	16.73305
417.865	16.38242
418.074	16.89772
418.283	17.12306
418.492	18.18528
418.7	17.84408
418.909	18.8488
419.118	17.35608
419.327	17.72284
419.536	17.57619
419.744	16.94645
419.953	18.4172
420.162	18.33164
420.371	17.00724
420.579	16.84708
420.788	17.96739
420.997	18.06268
421.205	17.80132
421.414	17.53689
421.623	17.50608
421.831	17.1104
422.04	17.95388
422.249	17.07987
422.457	17.80381
422.666	17.31562
422.874	18.39821
423.083	18.30507
423.291	18.25589
423.5	18.03628
423.708	18.19595
423.917	18.63981
424.125	18.03592
424.334	17.67688
424.542	19.54388
424.751	18.75538
424.959	18.49379
425.167	18.99061
425.376	18.79532
425.584	18.09773
425.793	18.49029
426.001	17.52438
426.209	18.67508
426.418	17.59917
426.626	17.5687
426.834	17.51756
427.042	18.08768
427.251	17.55774
427.459	18.84878
427.667	18.19951
427.875	16.94254
428.084	17.62459
428.292	19.17026
428.5	18.69605
428.708	17.18098
428.916	17.41932
429.124	18.25712
429.333	17.99288
429.541	17.99963
429.749	18.30571
429.957	18.17648
430.165	20.68492
430.373	17.21202
430.581	18.60348
430.789	19.59649
430.997	17.89907
431.205	17.8046
431.413	18.68001
431.621	18.13865
431.829	19.17483
432.037	18.26235
432.245	19.17587
432.453	19.06951
432.661	18.56002
432.869	20.60943
433.076	18.04087
433.284	18.59285
433.492	19.4296
433.7	19.95835
433.908	18.37109
434.116	18.81623
434.323	18.83232
434.531	18.64441
434.739	19.10607
434.947	19.47068
435.154	19.57705
435.362	18.83148
435.57	18.54199
435.778	18.28095
435.985	19.04189
436.193	18.34521
436.401	20.06473
436.608	18.84489
436.816	18.59229
437.023	20.35071
437.231	20.61837
437.439	19.08063
437.646	19.65398
437.854	19.42309
438.061	19.62619
438.269	18.80007
438.476	19.71081
438.684	19.41398
438.891	18.90001
439.099	18.74753
439.306	18.20187
439.514	18.49948
439.721	19.70971
439.929	18.79371
440.136	19.75924
440.343	19.45694
440.551	19.06981
440.758	20.67344
440.965	19.75378
441.173	19.23479
441.38	18.71012
441.587	19.49958
441.795	18.80649
442.002	19.25891
442.209	19.46665
442.416	19.67393
442.624	19.59475
442.831	19.54597
443.038	18.8158
443.245	18.55236
443.452	19.10045
443.66	20.01728
443.867	18.9194
444.074	18.84488
444.281	18.94358
444.488	19.21854
444.695	19.66973
444.902	19.25351
445.109	20.20984
445.316	19.49625
445.523	19.25129
445.73	18.86501
445.937	19.6936
446.144	19.99671
446.351	20.00078
446.558	18.95031
446.765	20.19327
446.972	20.2675
447.179	19.40736
447.386	20.5414
447.593	19.10934
447.8	20.34993
448.007	19.25636
448.214	19.38321
448.42	19.0551
448.627	20.55995
448.834	19.38863
449.041	19.22992
449.248	19.28434
449.454	20.24293
449.661	21.08636
449.868	19.07942
450.075	18.85168
450.281	17.71647
450.488	18.61464
450.695	18.86595
450.901	18.83443
451.108	19.20613
451.315	20.62371
451.521	19.5907
451.728	20.45097
451.935	19.03307
452.141	19.53059
452.348	19.49698
452.554	19.55932
452.761	19.33194
452.967	21.16937
453.174	19.90975
453.38	20.07071
453.587	18.69565
453.793	19.87126
454	20.50881
454.206	21.85036
454.413	20.75052
454.619	20.22431
454.825	19.20284
455.032	20.39145
455.238	20.70024
455.445	18.82948
455.651	19.92178
455.857	18.21236
456.064	19.53342
456.27	19.57914
456.476	19.62875
456.682	18.68598
456.889	20.14623
457.095	20.32256
457.301	22.16028
457.507	20.13318
457.714	20.22958
457.92	19.96623
458.126	19.46417
458.332	20.16516
458.538	19.73009
458.744	19.95502
458.951	19.88878
459.157	21.53062
459.363	20.22096
459.569	19.89738
459.775	20.65561
459.981	19.54875
460.187	19.95296
460.393	20.5601
460.599	20.91911
460.805	19.90629
461.011	19.96404
461.217	20.89846
461.423	21.04911
461.629	19.77077
461.835	20.6168
462.041	19.87836
462.247	21.58152
462.453	19.92616
462.658	19.86219
462.864	20.8081
463.07	20.39665
463.276	20.50527
463.482	20.36663
463.688	21.6305
463.893	19.99049
464.099	20.05946
464.305	21.88626
464.511	20.068
464.716	20.18942
464.922	21.05924
465.128	19.77458
465.333	21.9439
465.539	20.93302
465.745	20.43479
465.95	20.56126
466.156	23.00053
466.362	21.4294
466.567	20.29518
466.773	19.94548
466.978	21.69176
467.184	19.61356
467.389	18.66375
467.595	20.857
467.8	19.68182
468.006	21.76298
468.211	21.55998
468.417	19.39774
468.622	20.98315
468.828	21.12795
469.033	20.90836
469.239	23.24917
469.444	20.09621
469.649	21.40732
469.855	20.63593
470.06	20.96481
470.266	19.76241
470.471	21.41562
470.676	20.90288
470.881	19.05479
471.087	22.1872
471.292	22.1867
471.497	19.45361
471.703	20.60906
471.908	20.22726
472.113	20.92927
472.318	21.55797
472.523	19.84975
472.729	21.22635
472.934	21.25917
473.139	20.46148
473.344	21.27731
473.549	21.95438
473.754	20.02441
473.959	22.56511
474.164	20.0673
474.369	20.65571
474.575	21.7504
474.78	20.87704
474.985	20.14521
475.19	19.37863
475.395	20.3322
475.6	20.75095
475.804	22.27587
476.009	21.03155
476.214	20.83248
476.419	20.31946
476.624	19.23476
476.829	20.17867
477.034	21.42823
477.239	20.26987
477.444	21.02404
477.648	21.45089
477.853	21.37791
478.058	20.59789
478.263	20.09992
478.468	19.8528
478.672	19.97668
478.877	21.98694
479.082	22.46128
479.287	21.27541
479.491	20.91464
479.696	19.88609
479.901	21.68479
480.105	21.49324
480.31	20.25921
480.515	20.84921
480.719	23.04174
480.924	20.49404
481.128	19.91889
481.333	21.14649
481.538	21.15501
481.742	20.5933
481.947	21.29322
482.151	21.42025
482.356	20.95243
482.56	22.72459
482.765	25.41577
482.969	30.12202
483.174	34.17225
483.378	39.08922
483.582	40.78064
483.787	43.31358
483.991	44.11774
484.196	44.13257
484.4	42.99009
484.604	42.45316
484.809	38.7313
485.013	35.99521
485.217	32.38725
485.422	28.89867
485.626	26.15575
485.83	24.77773
486.034	24.22495
486.239	24.88052
486.443	25.83151
486.647	26.77185
486.851	28.5241
487.055	30.61836
487.26	31.00677
487.464	32.49121
487.668	31.95841
487.872	32.50019
488.076	32.5828
488.28	31.0756
488.484	29.07089
488.688	27.91806
488.892	26.31326
489.096	24.22291
489.3	22.30384
489.504	20.93126
489.708	21.41873
489.912	21.4968
490.116	21.6088
490.32	20.86161
490.524	21.5386
490.728	22.42638
490.932	23.83432
491.136	25.3619
491.34	27.01059
491.544	27.54995
491.748	27.52631
491.951	27.19115
492.155	26.43379
492.359	25.49828
492.563	23.18161
492.767	21.6084
492.97	20.68872
493.174	20.42786
493.378	20.82443
493.582	20.52232
493.785	21.23622
493.989	21.48929
494.193	21.33522
494.396	21.198
494.6	22.00939
494.804	21.35422
495.007	20.99836
495.211	21.08865
495.414	21.31667
495.618	21.79473
495.822	22.58062
496.025	21.65514
496.229	22.18955
496.432	20.79224
496.636	21.3906
496.839	21.27353
497.043	22.6982
497.246	21.71848
497.45	21.0247
497.653	21.25421
497.856	21.49956
498.06	20.70019
498.263	21.15003
498.467	20.8838
498.67	22.18236
498.873	21.91172
499.077	21.11917
499.28	21.25143
499.483	21.84487
499.686	22.12265
499.89	21.64681
500.093	22.11081
500.296	20.80577
500.499	22.78739
500.703	21.47547
500.906	21.78252
501.109	23.10252
501.312	21.52735
501.515	21.61779
501.719	22.00433
501.922	22.73815
502.125	21.87511
502.328	21.3518
502.531	20.57001
502.734	21.75089
502.937	20.13298
503.14	21.73515
503.343	20.79158
503.546	21.29833
503.749	20.95544
503.952	22.17749
504.155	20.81857
504.358	22.18941
504.561	21.68216
504.764	20.45072
504.967	21.56914
505.17	21.62246
505.373	23.09605
505.576	21.72948
505.778	22.10067
505.981	21.24609
506.184	22.83398
506.387	20.3145
506.59	23.27445
506.793	22.7171
506.995	22.24101
507.198	20.08867
507.401	22.07961
507.604	22.32148
507.806	21.01957
508.009	21.25018
508.212	22.40236
508.414	21.3566
508.617	21.45347
508.82	21.74027
509.022	22.92857
509.225	22.00126
509.427	20.49583
509.63	22.68777
509.833	21.69669
510.035	21.39341
510.238	20.47298
510.44	22.64899
510.643	20.06695
510.845	23.64429
511.048	22.26444
511.25	21.38268
511.453	21.61453
511.655	22.29413
511.858	21.55172
512.06	22.57949
512.262	21.96288
512.465	22.62696
512.667	21.44424
512.869	20.71024
513.072	22.044
513.274	22.36752
513.476	22.13912
513.679	22.43407
513.881	20.80795
514.083	23.17776
514.286	21.04516
514.488	21.1398
514.69	20.88333
514.892	20.61142
515.094	22.56634
515.297	21.13379
515.499	21.93408
515.701	21.05464
515.903	23.50494
516.105	23.44338
516.307	22.30288
516.509	20.28642
516.711	20.8506
516.913	21.89267
517.116	21.82255
517.318	21.42959
517.52	22.97513
517.722	22.57384
517.924	20.89393
518.126	22.26905
518.328	21.26009
518.529	22.19992
518.731	23.10611
518.933	21.27385
519.135	21.63514
519.337	22.71257
519.539	21.9469
519.741	20.34487
519.943	21.59516
520.145	21.54047
520.346	22.16246
520.548	21.50731
520.75	22.04958
520.952	21.54446
521.153	22.00455
521.355	22.28405
521.557	20.79405
521.759	21.93679
521.96	21.85465
522.162	20.88089
522.364	22.70551
522.565	20.84361
522.767	22.50164
522.969	22.75593
523.17	22.32418
523.372	22.13084
523.573	21.45154
523.775	21.74951
523.977	21.02896
524.178	23.2488
524.38	21.34373
524.581	22.68131
524.783	21.6832
524.984	22.47099
525.186	21.86776
525.387	22.32517
525.589	21.78601
525.79	21.41837
525.991	21.17437
526.193	21.91578
526.394	20.65055
526.596	21.81091
526.797	21.79693
526.998	21.44183
527.2	20.92783
527.401	22.35674
527.602	23.72119
527.803	27.56213
528.005	29.55549
528.206	31.8712
528.407	33.38555
528.608	33.83984
528.81	33.79306
529.011	33.03056
529.212	33.56989
529.413	31.26406
529.614	29.04388
529.815	26.90171
530.017	24.2928
530.218	21.81195
530.419	21.34369
530.62	21.9015
530.821	22.10044
531.022	21.06684
531.223	22.49494
531.424	22.46409
531.625	22.29142
531.826	22.1412
532.027	22.09263
532.228	23.1042
532.429	22.19599
532.63	21.90344
532.831	22.70619
533.032	22.98452
533.233	23.88349
533.433	23.30181
533.634	23.52172
533.835	22.24214
534.036	21.32794
534.237	21.71547
534.438	21.38202
534.638	20.91794
534.839	21.36322
535.04	22.19097
535.241	21.63023
535.441	23.40656
535.642	22.45532
535.843	21.3023
536.043	21.31367
536.244	21.52988
536.445	21.49348
536.645	22.56256
536.846	22.03621
537.047	22.69968
537.247	21.29011
537.448	21.68211
537.648	21.79449
537.849	21.80888
538.049	21.84162
538.25	22.55511
538.451	22.25613
538.651	21.16207
538.851	22.27664
539.052	23.26323
539.252	22.83169
539.453	21.92835
539.653	22.40122
539.854	22.2078
540.054	22.19114
540.254	22.93426
540.455	22.79688
540.655	21.77004
540.855	23.41361
541.056	24.86692
541.256	24.77948
541.456	25.99555
541.657	25.3685
541.857	25.76208
542.057	23.88791
542.257	22.84357
542.458	22.67173
542.658	22.47452
542.858	21.19873
543.058	22.82072
543.258	22.52895
543.458	21.32857
543.659	21.11942
543.859	22.91265
544.059	22.78695
544.259	21.85295
544.459	22.59661
544.659	21.77496
544.859	22.62123
545.059	21.53725
545.259	22.76789
545.459	22.33518
545.659	23.08436
545.859	22.27749
546.059	22.4392
546.259	21.5063
546.459	20.94757
546.659	21.27658
546.859	22.6777
547.059	22.59138
547.258	22.41393
547.458	22.47422
547.658	21.17121
547.858	21.08248
548.058	22.28933
548.258	21.76694
548.457	21.31031
548.657	23.91727
548.857	21.92722
549.057	22.75719
549.256	22.70033
549.456	21.80594
549.656	20.15255
549.855	24.16585
550.055	21.90856
550.255	24.27753
550.454	22.86631
550.654	23.46541
550.853	23.73381
551.053	23.35393
551.253	22.80096
551.452	22.82328
551.652	21.39514
551.851	21.01553
552.051	22.1904
552.25	22.03925
552.45	21.59557
552.649	21.94198
552.849	21.43075
553.048	22.15163
553.248	22.9883
553.447	21.36453
553.646	23.2032
553.846	23.84737
554.045	23.23307
554.244	20.75376
554.444	24.25668
554.643	21.55109
554.842	23.7689
555.042	24.69868
555.241	21.48549
555.44	21.12961
555.64	23.03057
555.839	24.60738
556.038	23.00235
556.237	21.61762
556.436	22.11652
556.636	22.6801
556.835	21.13643
557.034	24.29209
557.233	21.89649
557.432	20.79365
557.631	23.75765
557.83	22.02479
558.029	21.52369
558.228	21.8265
558.427	21.26829
558.626	22.78528
558.825	21.3183
559.024	22.30297
559.223	24.47221
559.422	21.89584
559.621	22.88874
559.82	19.38803
560.019	22.34068
560.218	22.02133
560.417	19.30486
560.616	21.94162
560.815	26.66754
561.014	20.48077
561.212	23.97204
561.411	22.54507
561.61	20.42272
561.809	21.89686
562.008	24.22931
562.206	22.24985
562.405	23.08068
562.604	22.02823
562.803	22.42211
563.001	21.76233
563.2	20.6091
563.399	23.01995
563.597	20.74682
563.796	22.26621
563.995	20.81159
564.193	23.22262
564.392	22.00971
564.59	25.2193
564.789	20.06619
564.988	22.04999
565.186	22.67833
565.385	22.43409
565.583	22.08637
565.782	22.14368
565.98	22.06518
566.179	22.0548
566.377	21.08001
566.575	21.651
566.774	23.79149
566.972	23.23075
567.171	24.56279
567.369	23.71288
567.567	22.3827
567.766	22.68225
567.964	19.84504
568.162	23.02087
568.361	23.55289
568.559	22.20928
568.757	23.00335
568.956	22.61517
569.154	22.30852
569.352	23.13576
569.55	22.19027
569.748	22.42601
569.947	21.53907
570.145	21.34437
570.343	20.90686
570.541	23.56289
570.739	21.18625
570.937	22.6281
571.135	22.93356
571.333	24.36905
571.532	24.24077
571.73	22.66229
571.928	23.71568
572.126	22.75247
572.324	21.66175
572.522	23.6582
572.72	25.6985
572.918	22.12136
573.116	22.73324
573.313	22.22382
573.511	22.34906
573.709	21.84093
573.907	23.2577
574.105	22.01576
574.303	20.50048
574.501	20.65123
574.699	22.92553
574.896	22.90105
575.094	22.97644
575.292	20.73743
575.49	23.45464
575.688	21.86927
575.885	23.9297
576.083	24.69441
576.281	22.91986
576.478	21.48002
576.676	23.00469
576.874	20.67154
577.071	22.09404
577.269	25.33174
577.467	22.72477
577.664	22.08231
577.862	23.73265
578.059	21.19022
578.257	23.65637
578.455	21.86181
578.652	22.29208
578.85	19.86956
579.047	22.48999
579.245	22.32188
579.442	22.42332
579.64	22.4832
579.837	19.83439
580.034	26.03124
580.232	21.8475
580.429	20.86395
580.627	23.29624
580.824	24.45961
581.021	23.38901
581.219	21.77367
581.416	21.31887
581.613	24.72154
581.811	24.36593
582.008	21.32208
582.205	24.15954
582.402	22.726
582.6	25.50419
582.797	22.92295
582.994	23.35094
583.191	23.5041
583.388	22.77633
583.586	23.68632
583.783	23.94754
583.98	21.26475
584.177	23.15111
584.374	18.43794
584.571	22.33947
584.768	21.81995
584.965	22.2003
585.162	23.63429
585.359	25.25758
585.556	22.501
585.753	23.01555
585.95	20.80551
586.147	21.37553
586.344	23.36902
586.541	22.12468
586.738	20.87198
586.935	22.65295
587.132	21.34673
587.329	24.43401
587.526	22.33683
587.722	30.2497
587.919	20.71283
588.116	23.23362
588.313	25.0439
588.51	26.06146
588.706	22.36613
588.903	23.78851
589.1	24.09219
589.297	26.93885
589.493	22.39112
589.69	23.60604
589.887	22.18958
590.083	21.03049
590.28	21.47745
590.477	24.09395
590.673	24.03344
590.87	24.87968
591.067	22.21189
591.263	23.54521
591.46	23.23634
591.656	22.48329
591.853	24.87906
592.049	21.34643
592.246	21.96462
592.442	24.74293
592.639	24.43754
592.835	21.38704
593.032	23.58261
593.228	20.69143
593.425	20.74428
593.621	20.60637
593.817	23.32507
594.014	21.63705
594.21	22.73718
594.406	24.24543
594.603	23.6792
594.799	21.95691
594.995	19.46451
595.192	24.50802
595.388	22.38536
595.584	22.15621
595.78	20.63572
595.977	26.05981
596.173	25.62385
596.369	22.50291
596.565	21.57184
596.761	20.83282
596.957	24.75879
597.154	21.81018
597.35	22.04279
597.546	21.46764
597.742	23.37232
597.938	23.02101
598.134	21.25529
598.33	22.55064
598.526	24.83541
598.722	23.14833
598.918	25.59059
599.114	23.42106
599.31	21.25325
599.506	22.81113
599.702	21.39383
599.898	23.24193
600.094	24.53025
600.29	24.00655
600.485	24.56243
600.681	21.87584
600.877	25.71394
601.073	23.1959
601.269	25.73403
601.465	25.32738
601.66	21.58539
601.856	19.97475
602.052	25.47933
602.248	22.56213
602.443	20.14962
602.639	21.40939
602.835	21.59125
603.03	21.94988
603.226	24.46415
603.422	21.72506
603.617	22.78229
603.813	22.42991
604.009	22.22942
604.204	24.43933
604.4	20.49812
604.595	24.11349
604.791	21.38776
604.986	23.35567
605.182	21.74316
605.377	22.25012
605.573	21.82981
605.768	22.58169
605.964	23.54242
606.159	23.62684
606.355	24.81314
606.55	21.9091
606.746	24.49906
606.941	22.61877
607.136	26.10748
607.332	28.06382
607.527	21.01844
607.722	23.48669
607.918	23.08285
608.113	22.12665
608.308	24.54178
608.503	24.24757
608.699	24.25012
608.894	24.09301
609.089	21.87717
609.284	23.49972
609.479	22.50286
609.675	24.11372
609.87	22.3674
610.065	24.08274
610.26	24.57862
610.455	24.33565
610.65	22.47316
610.845	23.23029
611.04	24.58271
611.235	23.04202
611.43	22.16639
611.625	20.74187
611.82	25.5808
612.015	21.75935
612.21	25.65736
612.405	20.25507
612.6	26.43429
612.795	25.2698
612.99	24.16965
613.185	21.22844
613.38	21.95297
613.575	23.47315
613.77	28.54799
613.965	20.04734
614.159	21.39062
614.354	25.70022
614.549	25.36017
614.744	25.14014
614.938	21.1888
615.133	20.30638
615.328	26.11992
615.523	25.39353
615.717	29.48901
615.912	22.00805
616.107	23.94863
616.301	22.69198
616.496	22.56598
616.691	26.91288
616.885	24.93021
617.08	29.26111
617.274	26.13928
617.469	27.86579
617.664	24.98444
617.858	22.51304
618.053	24.32138
618.247	23.12326
618.442	19.38717
618.636	26.58293
618.831	21.93765
619.025	22.05238
619.219	29.1031
619.414	17.02584
619.608	23.59067
619.803	22.59892
619.997	27.88937
620.191	26.08989
620.386	24.56044
620.58	23.87929
620.774	19.92673
620.969	20.56456
621.163	24.07395
621.357	21.12053
621.551	22.81126
621.746	23.82994
621.94	23.35261
622.134	31.02078
622.328	28.37883
622.522	20.32704
622.716	25.95259
622.911	25.88767
623.105	26.31914
623.299	25.10058
623.493	30.754
623.687	22.39613
623.881	22.93126
624.075	25.39138
624.269	26.51138
624.463	19.89883
624.657	20.70067
624.851	25.2037
625.045	26.16055
625.239	26.25998
625.433	23.50371
625.627	27.02608
625.821	23.40804
626.015	22.4385
626.209	24.62632
626.403	21.54355
626.596	25.12943
626.79	25.59543
626.984	21.57328
627.178	24.86406
627.372	24.91743
627.565	25.66143
627.759	21.0247
627.953	21.40463
628.147	24.68504
628.34	24.98404
628.534	28.66198
628.728	23.46479
628.921	26.29672
629.115	25.63999
629.309	26.28716
629.502	26.40473
629.696	24.75699
629.89	23.98032
630.083	24.67462
630.277	25.56647
630.47	28.52916
630.664	23.51462
630.857	20.96665
631.051	25.75721
631.244	27.0606
631.438	26.52428
631.631	22.47062
631.825	27.66093
632.018	26.50201
632.212	28.71579
632.405	27.24105
632.598	22.68449
632.792	25.01465
632.985	19.36999
633.178	24.21823
633.372	24.51731
633.565	24.74572
633.758	27.98075
633.952	22.78187
634.145	22.68715
634.338	24.56101
634.531	23.22313
634.724	23.19991
634.918	24.93225
635.111	23.93297
635.304	23.09086
635.497	30.27478
635.69	25.11724
635.883	27.69153
636.077	22.17866
636.27	26.0194
636.463	24.78991
636.656	25.55476
636.849	24.11365
637.042	25.81907
637.235	28.54176
637.428	26.70235
637.621	25.7311
637.814	28.52612
638.007	28.66711
638.2	28.70948
638.393	30.50935
638.586	21.41152
638.778	23.97099
638.971	24.75497
639.164	29.91799
639.357	26.03546
639.55	29.19458
639.743	27.83945
639.935	27.6202
640.128	30.41117
640.321	27.25344
640.514	26.41448
640.707	32.52095
640.899	27.55207
641.092	21.70003
641.285	46.24825
641.477	20.03771
641.67	32.12977
641.863	29.39194
642.055	26.24243
642.248	25.51786
642.441	25.34608
642.633	27.10484
642.826	29.01396
643.018	29.79456
643.211	31.92403
643.403	30.6876
643.596	33.00771
643.788	31.95936
643.981	25.20837
644.173	29.06088
644.366	26.2902
644.558	21.21713
644.751	28.98846
644.943	21.97547
645.135	31.7684
645.328	31.95794
645.52	28.84246
645.712	29.67666
645.905	36.09916
646.097	23.45329
646.289	27.36319
646.482	32.63005
646.674	25.04033
646.866	30.30341
647.058	28.26266
647.251	23.45101
647.443	25.35643
647.635	26.73004
647.827	22.6752
648.019	23.91139
648.211	27.16349
648.404	26.52888
648.596	31.35418
648.788	27.45643
648.98	27.75992
649.172	27.73254
649.364	28.0298
649.556	21.77097
649.748	35.90411
649.94	23.86283
650.132	28.55989
650.324	24.12955
650.516	25.39393
650.708	31.39818
650.9	22.64319
651.092	21.88509
651.284	22.6243
651.476	24.23774
651.667	28.91457
651.859	30.62694
652.051	27.27519
652.243	27.24195
652.435	25.41207
652.627	28.63119
652.818	29.0473
653.01	21.46202
653.202	23.91443
653.394	25.65966
653.585	28.56485
653.777	42.60319
653.969	31.4741
654.16	31.40308
654.352	24.25671
654.544	27.31243
654.735	31.01445
654.927	27.82912
655.118	32.66135
655.31	30.19687
655.502	31.3524
655.693	26.03784
655.885	30.03069
656.076	32.70384
656.268	28.32406
656.459	32.18334
656.651	32.12066
656.842	25.73802
657.034	25.26497
657.225	30.95929
657.416	32.65062
657.608	32.15709
657.799	27.2929
657.99	31.77701
658.182	25.72327
658.373	25.79965
658.564	29.70096
658.756	28.26097
658.947	26.9195
659.138	24.64301
659.33	25.94255
659.521	24.92916
659.712	26.86202
659.903	26.41665
660.094	25.35194
660.286	22.2485
660.477	33.41141
660.668	29.33538
660.859	27.43563
661.05	22.90757
661.241	29.74258
661.432	29.86069
661.623	26.7081
661.814	26.7902
662.006	22.21338
662.197	30.06388
662.388	31.83576
662.579	29.67729
662.77	33.4007
662.96	38.61889
663.151	31.45746
663.342	22.72686
663.533	31.06464
663.724	29.05756
663.915	35.43418
664.106	28.5713
664.297	35.64275
664.488	31.91987
664.678	26.7939
664.869	32.22209
665.06	33.50431
665.251	30.22674
665.442	31.29203
665.632	25.57618
665.823	37.05791
666.014	18.76825
666.204	32.44109
666.395	35.60238
666.586	40.61003
666.776	32.90644
666.967	36.70622
667.158	30.96434
667.348	35.52868
667.539	25.70152
667.729	33.61478
667.92	27.14029
668.111	33.93478
668.301	31.53355
668.492	29.05136
668.682	29.82158
668.873	29.38674
669.063	24.97507
669.253	30.86475
669.444	32.39925
669.634	29.3979
669.825	37.85917
670.015	34.01196
670.206	26.8386
670.396	37.20891
670.586	29.58145
670.777	32.38102
670.967	22.1844
671.157	29.81111
671.347	27.84219
671.538	36.73664
671.728	32.2468
671.918	38.49123
672.108	35.77842
672.299	30.48346
672.489	32.17455
672.679	28.34735
672.869	32.49825
673.059	38.65225
673.249	33.3512
673.44	26.81848
673.63	30.5337
673.82	34.74706
674.01	27.04986
674.2	33.19386
674.39	43.54158
674.58	33.63509
674.77	32.94378
674.96	30.1974
675.15	49.2609
675.34	36.68813
675.53	31.06653
675.72	30.67798
675.91	25.51607
676.099	39.337
676.289	40.7152
676.479	36.33735
676.669	30.29506
676.859	33.42209
677.049	27.64414
677.238	31.67822
677.428	39.90428
677.618	32.59676
677.808	35.73454
677.997	34.11365
678.187	26.82297
678.377	31.38443
678.567	30.10418
678.756	29.6677
678.946	30.47315
679.136	26.22177
679.325	28.50573
679.515	27.32512
679.704	25.74525
679.894	33.21601
680.084	31.68127
680.273	35.13199
680.463	27.53903
680.652	27.53043
680.842	29.95242
681.031	34.6508
681.221	27.69387
681.41	33.2231
681.6	30.00133
681.789	34.14441
681.978	36.91696
682.168	32.10735
682.357	32.40915
682.547	35.13771
682.736	32.23228
682.925	37.43534
683.115	37.16487
683.304	36.17953
683.493	34.26325
683.682	34.8041
683.872	33.81258
684.061	39.19343
684.25	35.96284
684.439	41.62324
684.629	36.3227
684.818	49.00979
685.007	33.16531
685.196	32.33034
685.385	40.65234
685.574	35.70429
685.763	35.88115
685.952	34.34554
686.142	27.68934
686.331	41.16833
686.52	25.47062
686.709	42.12663
686.898	40.47612
687.087	37.04737
687.276	41.96047
687.465	38.62671
687.654	33.00239
687.842	41.69322
688.031	28.80559
688.22	39.91097
688.409	34.88513
688.598	35.55567
688.787	47.10796
688.976	35.06115
689.165	42.7114
689.353	32.16271
689.542	37.55046
689.731	38.07398
689.92	44.86542
690.108	40.21875
690.297	33.13292
690.486	35.72317
690.675	39.57054
690.863	43.65828
691.052	44.22855
691.241	37.84344
691.429	37.62166
691.618	44.60224
691.806	30.11835
691.995	34.74301
692.184	36.46912
692.372	34.82079
692.561	37.04985
692.749	36.53478
692.938	49.88171
693.126	39.42814
693.315	34.38052
693.503	40.86856
693.692	40.60798
693.88	42.88789
694.068	49.62138
694.257	37.30469
694.445	39.8261
694.634	26.50949
694.822	43.64803
695.01	44.86705
695.199	44.63121
695.387	47.00498
695.575	44.23671
695.763	37.87366
695.952	35.39658
696.14	29.67521
696.328	35.10294
696.516	37.76992
696.705	39.34175
696.893	39.10836
697.081	28.60401
697.269	41.28263
697.457	31.00177
697.645	30.52951
697.833	40.34761
698.021	31.72005
698.21	33.08781
698.398	34.76988
698.586	30.2021
698.774	29.17073
698.962	33.09011
699.15	30.10487
699.338	27.59728
699.526	36.47429
699.714	31.5174
699.901	31.80752
700.089	40.06673
700.277	31.62713
700.465	34.07412
700.653	40.76963
700.841	39.12114
701.029	32.43981
701.217	43.89458
701.404	38.33539
701.592	46.96943
701.78	49.48062
701.968	35.24948
702.155	36.29341
702.343	31.39059
702.531	47.81005
702.718	42.17521
702.906	37.70614
703.094	35.38359
703.281	47.77927
703.469	40.46448
703.657	46.55404
703.844	60.87674
704.032	49.8201
704.219	37.20307
704.407	42.80166
704.595	48.6981
704.782	42.45227
704.97	38.58368
705.157	38.88431
705.345	50.86668
705.532	58.6387
705.719	44.18337
705.907	50.13646
706.094	42.25711
706.282	52.93738
706.469	39.87275
706.656	40.98045
706.844	40.2539
707.031	48.45681
707.218	43.87696
707.406	52.58129
707.593	46.71481
707.78	46.53542
707.968	41.38543
708.155	37.20867
708.342	46.56176
708.529	45.25402
708.716	43.71489
708.904	54.06072
709.091	47.8413
709.278	34.98866
709.465	57.29787
709.652	55.06735
709.839	51.67059
710.026	44.33762
710.213	31.88888
710.4	45.41501
710.587	48.63392
710.774	51.49967
710.961	50.02489
711.148	43.70558
711.335	49.95244
711.522	42.00755
711.709	45.47598
711.896	58.69361
712.083	50.90643
712.27	37.0434
712.457	45.68016
712.644	33.56351
712.831	58.8574
713.017	45.64386
713.204	49.78192
713.391	41.04205
713.578	53.2376
713.765	53.36603
713.951	48.1835
714.138	68.13886
714.325	50.29699
714.512	45.28432
714.698	39.754
714.885	57.74707
715.072	47.1587
715.258	46.9711
715.445	40.67934
715.631	55.09856
715.818	28.02786
716.005	41.49556
716.191	49.51383
716.378	44.06762
716.564	52.54536
716.751	39.34822
716.937	42.08378
717.124	54.72855
717.31	39.43252
717.497	58.02765
717.683	41.58098
717.869	66.1057
718.056	43.32333
718.242	50.27099
718.429	47.94826
718.615	38.83805
718.801	49.37279
718.988	56.13805
719.174	51.87153
719.36	47.05772
719.547	59.43485
719.733	51.60847
719.919	53.34996
720.105	55.36448
720.291	48.34666
720.478	51.75102
720.664	48.89655
720.85	47.21354
721.036	74.57699
721.222	62.39124
721.408	49.68361
721.595	68.0194
721.781	66.00225
721.967	60.5836
722.153	66.41996
722.339	57.85291
722.525	54.41979
722.711	44.32158
722.897	40.21239
723.083	48.27487
723.269	61.18124
723.455	74.79858
723.641	78.76432
723.827	53.88862
724.012	56.20642
724.198	48.99039
724.384	64.31188
724.57	58.55627
724.756	39.38144
724.942	36.16479
725.127	61.22023
725.313	65.65242
725.499	66.1034
725.685	69.99637
725.87	57.24689
726.056	44.20235
726.242	66.36172
726.428	38.339
726.613	60.13502
726.799	49.41716
726.985	43.67398
727.17	38.91369
727.356	66.40729
727.541	42.91793
727.727	50.9988
727.913	60.02764
728.098	47.23549
728.284	58.88032
728.469	40.91343
728.655	44.99375
728.84	59.47677
729.026	60.51871
729.211	60.91567
729.397	56.17641
729.582	58.32507
729.767	52.04653
729.953	57.52113
730.138	62.56267
730.323	33.04156
730.509	43.48543
730.694	67.84407
730.879	57.002
731.065	54.51236
731.25	75.61334
731.435	60.30093
731.621	39.28967
731.806	47.76872
731.991	55.77358
732.176	39.78434
732.361	65.60625
732.547	55.44015
732.732	38.55319
732.917	76.31242
733.102	42.45385
733.287	46.21336
733.472	53.19775
733.657	52.7777
733.842	38.14257
734.027	49.69706
734.212	53.43014
734.397	45.78634
734.582	54.32638
734.767	63.13442
734.952	68.78574
735.137	30.31693
735.322	69.88627
735.507	59.52194
735.692	56.58029
735.877	80.3007
736.062	72.95363
736.247	59.6229
736.431	55.89444
736.616	70.2602
736.801	57.7163
736.986	56.74237
737.171	49.13244
737.355	44.19485
737.54	69.10103
737.725	55.03581
737.909	88.51363
738.094	49.44177
738.279	67.2844
738.463	53.8146
738.648	63.45009
738.833	60.96819
739.017	76.89507
739.202	52.67366
739.386	55.88029
739.571	40.50626
739.756	63.08841
739.94	56.41618
740.125	66.34273
740.309	49.89998
740.494	67.08288
740.678	58.05068
740.863	63.12426
741.047	59.36526
741.231	71.88477
741.416	48.31902
741.6	76.41395
741.785	50.56789
741.969	69.17246
742.153	73.8611
742.338	36.9496
742.522	60.82718
742.706	69.29653
742.89	47.2614
743.075	59.97288
743.259	76.71535
743.443	71.37472
743.627	76.31633
743.812	88.76568
743.996	42.55976
744.18	58.42939
744.364	54.58267
744.548	92.98478
744.732	58.90462
744.916	72.76244
745.1	66.83349
745.285	58.50655
745.469	68.14277
745.653	85.58151
745.837	44.93355
746.021	94.31554
746.205	77.42109
746.389	62.71147
746.573	59.79979
746.757	82.56253
746.94	56.25126
747.124	75.64104
747.308	47.64412
747.492	80.35053
747.676	53.09113
747.86	93.59064
748.044	56.79443
748.227	39.97938
748.411	111.51883
748.595	64.25843
748.779	49.78403
748.963	68.32789
749.146	64.66202
749.33	52.02787
749.514	49.15441
749.697	75.71254
749.881	53.72666
750.065	53.56655
750.248	64.47652
750.432	93.22833
750.616	62.48837
750.799	45.2904
750.983	90.65194
751.166	103.07301
751.35	43.4085
751.533	71.75348
751.717	79.10324
751.9	83.20893
752.084	58.39281
752.267	49.80854
752.451	55.23821
752.634	63.15865
752.818	72.62612
753.001	74.2916
753.184	77.82055
753.368	70.45801
753.551	23.504
753.734	52.11954
753.918	90.66633
754.101	53.11178
754.284	73.922
754.467	57.48062
754.651	53.85037
754.834	51.04809
755.017	77.9175
755.2	77.30193
755.384	49.25211
755.567	74.98616
755.75	80.32699
755.933	61.12299
756.116	69.92928
756.299	57.95133
756.482	52.5113
756.665	72.63639
756.848	63.90188
757.032	70.64029
757.215	44.14184
757.398	53.71558
757.581	52.25731
757.764	104.66827
757.947	63.37369
758.129	84.4221
758.312	29.55178
758.495	63.06383
758.678	62.53546
758.861	60.30625
759.044	93.42935
759.227	55.57451
759.41	54.19357
759.592	73.77169
759.775	64.12249
759.958	79.13648
760.141	49.38613
760.324	100.5243
760.506	87.70678
760.689	79.2991
760.872	99.8401
761.054	75.3445
761.237	62.63394
761.42	70.83521
761.602	79.19875
761.785	70.6508
761.968	79.96156
762.15	93.31005
762.333	60.55552
762.515	69.9415
762.698	57.37317
762.88	73.15797
763.063	65.4337
763.245	69.86012
763.428	47.3402
763.61	52.82528
763.793	42.76262
763.975	60.04888
764.158	51.55488
764.34	50.62546
764.522	46.41339
764.705	55.00049
764.887	73.31484
765.069	40.21488
765.252	68.8766
765.434	71.3557
765.616	64.30207
765.799	55.39177
765.981	74.35021
766.163	54.45824
766.345	79.43305
766.528	57.68058
766.71	34.33003
766.892	67.94741
767.074	84.61066
767.256	63.81463
767.438	94.98021
767.62	70.90972
767.802	103.70784
767.985	77.27695
768.167	102.26236
768.349	60.11952
768.531	75.37634
768.713	76.20639
768.895	82.65565
769.077	74.58331
769.259	111.67938
769.441	161.89054
769.623	90.28925
769.804	102.94375
769.986	97.81076
770.168	115.41388
770.35	138.8176
770.532	102.38068
770.714	108.57038
770.896	118.06266
771.077	59.67687
771.259	116.35848
771.441	100.52761
771.623	124.76359
771.804	150.77091
771.986	56.1967
772.168	78.488
772.35	121.24903
772.531	160.43775
772.713	96.59632
772.894	131.77135
773.076	93.50599
773.258	81.59996
773.439	124.6099
773.621	141.55311
773.802	69.8705
773.984	80.39487
774.166	103.30925
774.347	133.20007
774.529	126.18569
774.71	50.52084
774.891	91.2185
775.073	84.07518
775.254	132.82784
775.436	82.47861
775.617	152.8009
775.799	84.25784
775.98	140.45138
776.161	144.05979
776.343	143.77607
776.524	96.18952
776.705	88.81674
776.886	53.69068
777.068	106.98674
777.249	177.38601
777.43	161.7736
777.611	69.63966
777.793	92.29239
777.974	140.41314
778.155	83.81788
778.336	79.19984
778.517	165.8775
778.698	79.83696
778.879	51.94004
779.061	36.95489
779.242	108.88755
779.423	112.66343
779.604	86.95254
779.785	92.9693
779.966	104.10823
780.147	123.3042
780.328	134.33599
780.509	178.61912
780.69	124.3421
780.871	78.24299
781.051	65.13614
781.232	105.55624
781.413	98.63857
781.594	91.29624
781.775	87.71875
781.956	81.3079
782.137	51.70539
782.317	81.98228
782.498	111.33952
782.679	106.20697
782.86	105.43796
783.04	80.47089
783.221	113.05797
783.402	157.74495
783.583	101.57729
783.763	120.61992
783.944	87.79487
784.124	66.28079
784.305	154.7946
784.486	116.43285
784.666	91.84026
784.847	59.75732
785.027	180.77074
785.208	79.61117
785.388	79.44978
785.569	85.69237
785.749	94.70926
785.93	87.43544
786.11	62.75099
786.291	112.92058
786.471	104.72022
786.652	121.36285
786.832	98.21881
787.012	109.7616
787.193	69.30721
787.373	102.14751
787.553	87.49851
787.734	106.19078
787.914	88.14058
788.094	113.08831
788.275	106.97555
788.455	89.69886
788.635	65.45052
788.815	101.46517
788.995	69.72147
789.176	61.82871
789.356	71.03905
789.536	89.05511
789.716	111.15538
789.896	76.86369
790.076	83.68953
790.256	97.69676
790.436	41.26792
790.616	76.35865
790.796	102.24863
790.976	86.15035
791.156	80.76664
791.336	115.50218
791.516	107.93993
791.696	89.65446
791.876	60.85968
792.056	99.69452
792.236	119.74594
792.416	119.98565
792.596	111.35592
792.776	112.59901
792.956	115.25027
793.135	142.58194
793.315	70.89724
793.495	135.84105
793.675	115.0913
793.854	125.46611
794.034	124.97532
794.214	69.30399
794.394	125.59505
794.573	136.40458
794.753	98.69396
794.933	76.34432
795.112	105.37761
795.292	121.76233
795.472	153.32911
795.651	66.83412
795.831	95.95209
796.01	92.22031
796.19	86.45108
796.369	97.10561
796.549	115.20138
796.728	92.17052
796.908	61.1607
797.087	69.85034
797.267	84.04255
797.446	67.14383
797.626	116.33736
797.805	113.46391
797.984	75.8305
798.164	114.80009
798.343	74.98243
798.522	101.08249
798.702	95.84306
798.881	66.41954
799.06	90.49743
799.239	50.55742
799.419	73.03466
799.598	144.27022
799.777	111.24329
799.956	133.12194
800.136	85.20652
800.315	75.16799
800.494	112.77275
800.673	129.64308
800.852	114.65195
801.031	125.5529
801.21	112.4877
801.389	88.47158
801.568	101.12315
801.747	159.45302
801.926	100.63395
802.105	147.19505
802.284	85.45448
802.463	146.10289
802.642	103.48974
802.821	107.16763
803	141.99749
803.179	127.80251
803.358	137.10561
803.537	79.28651
803.716	101.11468
803.895	84.47461
804.073	95.99029
804.252	79.54628
804.431	115.86217
804.61	95.60778
804.789	139.17246
804.967	86.7243
805.146	81.41199
805.325	162.1646
805.503	110.22174
805.682	62.87661
805.861	180.77877
806.039	140.99212
806.218	88.61819
806.397	103.89039
806.575	101.85944
806.754	110.73133
806.932	71.29849
807.111	150.41066
807.289	127.02855
807.468	102.31427
807.646	130.45105
807.825	115.56385
808.003	101.7285
808.182	130.10124
808.36	104.34007
808.539	78.3644
808.717	153.51286
808.895	76.69143
809.074	113.26725
809.252	100.87013
809.43	124.6779
809.609	138.55381
809.787	151.96671
809.965	97.55044
810.144	106.10389
810.322	97.63551
810.5	116.29883
810.678	96.84948
810.856	178.92675
811.035	136.89384
811.213	131.28461
811.391	149.11465
811.569	110.78907
811.747	214.6253
811.925	150.11589
812.103	82.38478
812.281	102.06557
812.459	167.55898
812.637	167.58349
812.816	141.70848
812.994	167.07302
813.171	142.31046
813.349	124.52897
813.527	150.87285
813.705	155.82571
813.883	197.11289
814.061	140.64174
814.239	170.29696
814.417	178.25348
814.595	121.65489
814.773	121.59745
814.95	112.88363
815.128	125.84104
815.306	93.58074
815.484	110.50609
815.662	84.56855
815.839	77.46709
816.017	89.97609
816.195	154.33183
816.372	99.21029
816.55	138.72117
816.728	160.47349
816.905	99.70661
817.083	170.67051
817.261	105.84407
817.438	191.14791
817.616	180.93419
817.793	96.23133
817.971	135.65666
818.148	144.06809
818.326	162.11371
818.503	124.02072
818.681	159.8298
818.858	96.6727
819.036	108.68351
819.213	118.39986
819.391	91.55196
819.568	87.26737
819.745	79.51704
819.923	132.30913
820.1	92.00258
820.277	77.51729
820.455	91.37117
820.632	93.65429
820.809	95.57644
820.986	67.80222
821.164	56.06532
821.341	50.33099
821.518	64.73475
821.695	49.49774
821.872	48.6702
822.05	42.32907
822.227	35.36564
822.404	36.73434
822.581	39.8298
822.758	35.67245
822.935	35.7218
823.112	39.04992
823.289	33.95462
823.466	38.51326
823.643	36.62804
823.82	41.62594
823.997	38.67804
824.174	44.17887
824.351	54.65053
824.528	54.39777
824.705	50.25628
824.882	56.27994
825.059	70.97433
825.236	51.46165
825.412	55.62341
825.589	66.61532
825.766	87.94726
825.943	60.86495
826.12	70.43549
826.296	51.39759
826.473	62.27829
826.65	63.2304
826.827	72.799
827.003	52.3094
827.18	55.90093
827.357	63.00126
827.533	55.08516
827.71	35.81194
827.887	48.9102
828.063	54.43258
828.24	48.79351
828.416	61.76949
828.593	52.31605
828.769	70.16406
828.946	76.97113
829.122	80.05727
829.299	76.75511
829.475	51.04595
829.652	79.0951
829.828	127.29172
830.005	82.6315
830.181	114.8637
830.357	85.26694
830.534	122.13096
830.71	95.06517
830.886	121.14331
831.063	118.47036
831.239	147.37155
831.415	70.51777
831.592	148.4084
831.768	97.63164
831.944	83.7208
832.12	152.16805
832.296	139.1982
832.473	123.72546
832.649	89.6791
832.825	114.81235
833.001	74.43735
833.177	105.48288
833.353	94.69355
833.529	58.32595
833.705	76.89209
833.881	59.22205
834.058	58.28082
834.234	61.01933
834.41	60.15408
834.586	50.20744
834.761	60.27042
834.937	63.97374
835.113	63.73888
835.289	58.93394
835.465	68.88338
835.641	61.08678
835.817	70.91965
835.993	120.09454
836.169	65.6356
836.344	96.13173
836.52	104.46279
836.696	105.32478
836.872	84.81896
837.048	203.85067
837.223	92.24384
837.399	178.89365
837.575	133.26899
837.75	132.31646
837.926	169.50578
838.102	286.16445
838.277	217.73076
838.453	276.51446
838.628	261.20353
838.804	129.43186
838.98	257.84882
839.155	142.17942
839.331	182.06931
839.506	139.78826
839.682	131.75167
839.857	170.41938
840.033	192.47073
840.208	99.654
840.384	55.86996
840.559	102.38533
840.734	146.65297
840.91	210.02204
841.085	129.64385
841.26	120.05733
841.436	111.84373
841.611	114.48331
841.786	163.27352
841.962	227.19148
842.137	135.48254
842.312	93.10399
842.487	120.99009
842.663	105.51334
842.838	140.80783
843.013	421.32635
843.188	203.04762
843.363	162.68118
843.538	373.09278
843.714	356.51277
843.889	360.35502
844.064	390.1266
844.239	338.42644
844.414	422.55267
844.589	261.33224
844.764	509.8378
844.939	463.19751
845.114	554.62262
845.289	566.76865
845.464	561.20707
845.639	439.64013
845.814	221.64032
845.989	273.6355
846.163	302.5601
846.338	330.43885
846.513	520.58621
846.688	316.87824
846.863	306.35618
847.038	266.88882
847.212	337.74137
847.387	326.91536
847.562	333.16148
847.737	444.00757
847.911	165.49429
848.086	194.98768
848.261	546.86918
848.435	285.61982
848.61	447.40454
848.785	202.89385
848.959	465.5881
849.134	634.73852
849.308	760.87593
849.483	369.60666
849.658	556.16083
849.832	266.96677
850.007	228.81484
850.181	1015.58877
850.356	260.38901
850.53	795.46546
850.705	197.93656
850.879	145.47847
851.053	291.31585
851.228	278.71259
851.402	420.292
851.577	486.87465
851.751	724.83359
851.925	339.07129
852.099	171.90238
852.274	218.84876
852.448	301.05704
852.622	493.18959
852.797	313.50826
852.971	345.68019
853.145	332.2734
853.319	1095.62834
853.493	518.70036
853.668	263.1931
853.842	746.60473
854.016	550.71076
854.19	668.04907
854.364	343.95338
854.538	389.18567
854.712	588.66137
854.886	307.28044
855.06	265.77009
855.234	118.41628
855.408	645.62733
855.582	606.85792
855.756	533.87527
855.93	680.26774
856.104	357.66465
856.278	535.1113
856.452	334.36977
856.626	426.57435
856.8	975.6002
856.973	427.76413
857.147	404.03808
857.321	453.5221
857.495	559.13062
857.669	365.68585
857.842	287.52692
858.016	535.05939
858.19	229.81862
858.364	1335.80897
858.537	296.01193
858.711	344.12203
858.885	311.95854
859.058	270.95329
859.232	141.44662
859.405	182.75417
859.579	510.08248
859.753	425.02491
859.926	273.22541
860.1	149.26219
860.273	330.90745
860.447	603.35549
860.62	329.02779
860.794	741.13083
860.967	357.85671
861.141	669.75353
861.314	1083.82502
861.487	469.29928
861.661	650.5997
861.834	691.3456
862.008	502.88228
862.181	384.60543
862.354	380.86027
862.528	421.5562
862.701	320.00103
862.874	193.82899
863.047	293.14521
863.221	311.86328
863.394	158.85179
863.567	582.47652
863.74	118.84785
863.913	494.43517
864.087	493.66945
864.26	576.77779
864.433	315.46043
864.606	935.01091
864.779	315.44565
864.952	158.34862
865.125	269.61911
865.298	326.90841
865.471	325.34462
865.644	817.08707
865.817	549.15187
865.99	545.87477
866.163	755.34777
866.336	318.16602
866.509	301.29493
866.682	290.13036
866.855	606.01472
867.028	193.04476
867.2	465.0182
867.373	148.71881
867.546	362.21693
867.719	860.2449
867.892	456.08498
868.064	278.6023
868.237	393.21768
868.41	408.07806
868.583	170.14454
868.755	241.8908
868.928	307.12878
869.101	930.28721
869.273	565.22602
869.446	434.96406
869.619	651.11864
869.791	339.63622
869.964	542.98214
870.136	532.11841
870.309	451.10306
870.481	358.13226
870.654	186.80494
870.826	454.85227
870.999	265.90665
871.171	434.33358
871.344	266.85938
871.516	295.83734
871.689	235.16294
871.861	424.24629
872.033	241.83113
872.206	287.53018
872.378	486.87952
872.55	313.2512
872.723	204.32931
872.895	326.01518
873.067	537.0328
873.24	541.68347
873.412	269.33816
873.584	310.58435
873.756	289.0271
873.928	346.60871
874.101	379.24186
874.273	438.18547
874.445	147.11755
874.617	200.87993
874.789	337.48694
874.961	298.33146
875.133	425.76893
875.305	342.55881
875.477	235.97561
875.649	168.06451
875.821	203.09955
875.993	612.57299
876.165	215.87979
876.337	366.68753
876.509	314.92804
876.681	338.87137
876.853	378.60562
877.025	400.8984
877.197	228.64762
877.369	220.0198
877.541	466.18696
877.712	130.50699
877.884	218.02935
878.056	395.92902
878.228	211.57475
878.4	411.59784
878.571	224.576
878.743	150.32088
878.915	337.89149
879.086	207.05844
879.258	242.46646
879.43	216.56195
879.601	198.96492
879.773	205.84787
879.945	59.71388
880.116	87.77879
880.288	59.12851
880.459	63.17485
880.631	51.51438
880.802	58.42174
880.974	53.73539
881.145	42.0977
881.317	51.21439
881.488	40.92044
881.66	44.09608
881.831	40.42512
882.002	50.07879
882.174	39.49936
882.345	48.12641
882.517	31.01865
882.688	54.62542
882.859	45.25168
883.03	66.24526
883.202	64.47872
883.373	57.17091
883.544	55.88159
883.715	87.32947
883.887	79.76079
884.058	69.27183
884.229	96.53385
884.4	96.6054
884.571	116.34355
884.742	97.82282
884.914	103.87097
885.085	156.96456
885.256	208.16441
885.427	175.55809
885.598	183.44831
885.769	200.18658
885.94	193.82089
886.111	134.80427
886.282	247.91767
886.453	188.21624
886.624	138.86229
886.795	248.80923
886.966	200.04339
887.136	264.74469
887.307	173.35145
887.478	399.51921
887.649	329.82077
887.82	355.1997
887.991	270.55608
888.161	346.46916
888.332	321.68883
888.503	153.46569
888.674	510.15935
888.844	620.6747
889.015	413.49246
889.186	189.79156
889.356	563.86456
889.527	164.52405
889.698	1095.46312
889.868	280.37085
890.039	376.73495
890.209	318.36151
890.38	421.08455
890.551	353.57309
890.721	481.02986
890.892	468.65091
891.062	294.39582
891.233	335.65844
891.403	339.55773
891.574	233.44158
891.744	305.11924
891.914	375.32326
892.085	320.36835
892.255	124.71743
892.425	620.19281
892.596	405.36023
892.766	418.66735
892.936	481.90124
893.107	411.04428
893.277	219.31611
893.447	176.89377
893.618	134.69132
893.788	281.32616
893.958	150.84913
894.128	147.49018
894.298	168.43243
894.468	205.92972
894.639	110.72546
894.809	77.8963
894.979	110.08632
895.149	128.7886
895.319	104.2506
895.489	142.84367
895.659	176.40648
895.829	115.31787
895.999	119.43588
896.169	97.54856
896.339	120.53492
896.509	234.47565
896.679	253.55935
896.849	263.72361
897.019	386.75073
897.189	295.82243
897.358	270.43608
897.528	378.49294
897.698	160.84722
897.868	340.48495
898.038	948.77903
898.208	739.56908
898.377	167.59553
898.547	822.6814
898.717	1071.66309
898.886	435.36663
899.056	647.8562
899.226	1505.61138
899.395	486.51072
899.565	882.18234
899.735	477.50519
899.904	1079.7163
900.074	1019.74058
900.244	281.19615
900.413	1219.49207
900.583	296.44917
900.752	434.82464
900.922	2196.7605
901.091	77.84933
901.261	671.52477
901.43	699.12289
901.599	606.19257
901.769	7216.07751
901.938	748.68467
902.108	815.0976
902.277	1650.54606
902.446	265.67617
902.616	250.09875
902.785	347.66681
902.954	705.80526
903.124	488.5832
903.293	353.42816
903.462	184.96223
903.631	258.59237
903.801	198.85398
903.97	106.96972
904.139	162.21908
904.308	129.43905
904.477	101.30029
904.646	68.5818
904.816	80.31637
904.985	135.12349
905.154	207.56118
