Data from WindowProjectSample_Transmission__13__00013__05062618017620936.txt Node

Date: Mon May 05 16:59:22 EDT 2025
User: jessi
Spectrometer: SR400872
Trigger mode: 0
Integration Time (sec): 5.000010E-1
Scans to average: 20
Electric dark correction enabled: true
Nonlinearity correction enabled: true
Boxcar width: 0
XAxis mode: Wavelengths
Number of Pixels in Spectrum: 3648
>>>>>Begin Spectral Data<<<<<
184.909	20504.66087
185.132	-5039.15438
185.355	-2982.44769
185.578	-17774.87982
185.801	1395.13297
186.024	9904.50858
186.247	-1843.0343
186.47	1223.37726
186.693	425.73918
186.916	285.27225
187.139	-3728.25566
187.362	3323.04033
187.585	4043.92222
187.808	3525.72958
188.031	-40.45579
188.254	-49748.32522
188.476	-1766.64279
188.699	6148.31339
188.922	615.91208
189.145	-15695.45532
189.368	-699.40499
189.591	-1318.91042
189.813	3157.40575
190.036	-48196.88137
190.259	-848.16064
190.482	-4837.73525
190.705	6920.99105
190.927	-2642.74202
191.15	12983.1236
191.373	3452.60412
191.595	-9143.11621
191.818	-4040.62658
192.041	-7469.1487
192.263	-3517.00585
192.486	-765.90667
192.709	-4006.18019
192.931	8052.1807
193.154	-28263.16293
193.377	-2765.25496
193.599	-2564.07577
193.822	-9210.34899
194.044	-1929.2666
194.267	1207.35952
194.489	230.90791
194.712	-42338.84359
194.934	-31635.71883
195.157	1075.3171
195.379	1380.11903
195.602	-6720.93827
195.824	-1240.90367
196.047	-8817.50153
196.269	2690.38885
196.492	-6568.80896
196.714	29510.66478
196.936	-8578.07335
197.159	-1237.65663
197.381	1177.48386
197.604	425.95756
197.826	11795.38931
198.048	-11132.61141
198.271	-2848.86583
198.493	7645.11358
198.715	2364.44657
198.938	-464.01791
199.16	6779.22941
199.382	-102280.58514
199.604	2805.10741
199.827	-1039.25867
200.049	-2810.31311
200.271	13674.33617
200.493	1231.26851
200.715	-37071.88471
200.938	-5996.20563
201.16	-4170.53831
201.382	21030.49072
201.604	2271.4688
201.826	2235.84081
202.048	-1940.51081
202.27	-1884.42974
202.492	-35800.38919
202.715	2951.34501
202.937	-4585.43735
203.159	-6157.99869
203.381	1465.89417
203.603	6515.52282
203.825	6034.0507
204.047	2197.46283
204.269	-2812.3587
204.491	2113.99549
204.713	6203.95977
204.935	-460518.82124
205.156	1187.13918
205.378	-2899.10725
205.6	1709.6463
205.822	154834.84087
206.044	-943.09073
206.266	1604.20083
206.488	4624.54459
206.71	-5444.73428
206.932	1112.39098
207.153	11514.64098
207.375	-6826.89272
207.597	-39095.00639
207.819	-2822.2551
208.041	2428.48746
208.262	522.93235
208.484	711.81659
208.706	-803.05753
208.927	-863.95309
209.149	581.21955
209.371	-2949.63902
209.593	-224.07244
209.814	-844.67103
210.036	542.96273
210.258	-664.65581
210.479	1724.55384
210.701	1621.66462
210.922	3355.30611
211.144	-3864.38007
211.366	2026.33222
211.587	7393.19981
211.809	-7914.6401
212.03	2478.29772
212.252	447.90256
212.473	2094.46114
212.695	-6018.37083
212.916	2852.36828
213.138	-669.27326
213.359	3620.3099
213.581	5279.94178
213.802	-951.2467
214.024	1132.35308
214.245	2089.71659
214.466	2575.9912
214.688	-3096.43395
214.909	-1109.58177
215.131	-1668.5621
215.352	-3204.95948
215.573	14478.48274
215.795	5036.7763
216.016	5351.49537
216.237	826.06575
216.459	3567.53911
216.68	1833.22228
216.901	5015.53391
217.122	-3177.52599
217.344	-11750.96666
217.565	3408.06369
217.786	8986.63135
218.007	16591.61334
218.228	-745.88957
218.45	5817.48869
218.671	743.33308
218.892	35458.35816
219.113	1571.92984
219.334	-310.41742
219.555	8784.56128
219.776	3185.02574
219.997	21657.67393
220.219	2943.35131
220.44	-10044.42473
220.661	484.35715
220.882	1439.84406
221.103	-1080.74202
221.324	2412.96086
221.545	2235.9886
221.766	-8918.36437
221.987	886.57387
222.208	1582.84012
222.429	4296.7857
222.65	512.52706
222.87	19389.71676
223.091	727.89585
223.312	578.14161
223.533	1319.21387
223.754	1476.08251
223.975	1366.3326
224.196	1945.20518
224.417	1285.32803
224.637	571.23819
224.858	112.30921
225.079	1094.59199
225.3	681.26196
225.521	3747.51733
225.741	495.5363
225.962	522.34055
226.183	131.46672
226.404	669.69787
226.624	421.65056
226.845	604.0388
227.066	416.57659
227.286	249.37528
227.507	125.49649
227.728	117.48106
227.948	234.19873
228.169	74.52116
228.389	88.10397
228.61	45.9925
228.831	64.25712
229.051	2.95302
229.272	38.65715
229.492	57.14309
229.713	14.142
229.933	36.17345
230.154	30.1272
230.374	52.97803
230.595	38.47861
230.815	22.55384
231.036	38.83391
231.256	-9.669
231.477	67.13938
231.697	40.84981
231.917	39.87852
232.138	55.22887
232.358	104.9054
232.579	104.09408
232.799	21.3112
233.019	100.67409
233.24	113.70973
233.46	33.75271
233.68	66.6046
233.901	36.85322
234.121	28.11482
234.341	10.96668
234.561	-3.76945
234.782	19.16451
235.002	64.8805
235.222	-4.86885
235.442	63.40135
235.662	32.8875
235.883	62.63324
236.103	49.96212
236.323	38.41829
236.543	29.93252
236.763	38.69843
236.983	45.45034
237.203	40.19084
237.423	57.73199
237.643	85.61529
237.864	72.65234
238.084	18.36511
238.304	26.0364
238.524	43.55158
238.744	40.43644
238.964	72.90022
239.184	59.91068
239.404	65.45689
239.624	33.39002
239.843	60.42438
240.063	35.84773
240.283	22.57393
240.503	25.18166
240.723	25.4395
240.943	14.24212
241.163	20.45221
241.383	13.85884
241.603	7.87601
241.822	9.57852
242.042	6.09064
242.262	8.26398
242.482	9.77825
242.702	10.53372
242.921	2.86929
243.141	6.6472
243.361	6.26496
243.581	9.12768
243.8	7.39855
244.02	5.33279
244.24	9.45092
244.459	9.37182
244.679	17.70762
244.899	11.43934
245.118	13.29019
245.338	11.90172
245.558	13.69764
245.777	9.22186
245.997	9.89882
246.216	10.25248
246.436	6.44629
246.655	4.81328
246.875	3.35414
247.094	6.34417
247.314	2.01009
247.533	3.73794
247.753	4.32164
247.972	3.37634
248.192	1.25252
248.411	1.95728
248.631	3.54474
248.85	4.65315
249.07	3.8513
249.289	5.56199
249.508	4.67202
249.728	7.732
249.947	6.71401
250.166	8.69001
250.386	3.98985
250.605	6.82457
250.824	11.10578
251.044	7.56117
251.263	28.85562
251.482	14.17456
251.701	11.84786
251.921	-0.10878
252.14	3.76041
252.359	4.06269
252.578	9.77754
252.798	3.56881
253.017	8.82312
253.236	4.20785
253.455	5.99091
253.674	9.86159
253.893	5.12152
254.112	7.89889
254.331	10.95194
254.551	8.09824
254.77	3.44605
254.989	12.94215
255.208	9.64206
255.427	14.54346
255.646	11.63595
255.865	21.31022
256.084	8.87
256.303	11.29519
256.522	13.91079
256.741	3.29372
256.96	2.51164
257.179	8.72008
257.397	10.63431
257.616	5.36019
257.835	6.36611
258.054	15.52454
258.273	10.28828
258.492	10.87458
258.711	6.56478
258.93	3.11525
259.148	4.55991
259.367	4.43623
259.586	5.40076
259.805	2.29685
260.023	5.20941
260.242	3.86308
260.461	2.76059
260.68	1.22289
260.898	4.57386
261.117	1.38081
261.336	0.82009
261.554	3.41017
261.773	3.30834
261.992	0.87908
262.21	3.10293
262.429	3.51392
262.648	7.29195
262.866	7.96325
263.085	5.29806
263.303	4.74429
263.522	8.15361
263.74	8.70318
263.959	15.1609
264.178	7.27969
264.396	6.46324
264.615	4.74255
264.833	10.20691
265.051	9.02837
265.27	10.93418
265.488	10.77182
265.707	6.11194
265.925	10.78846
266.144	4.65468
266.362	5.59799
266.58	5.47444
266.799	5.06572
267.017	5.82962
267.235	5.45347
267.454	3.42712
267.672	1.68946
267.89	4.3243
268.109	4.13123
268.327	4.38995
268.545	0.98754
268.763	3.99895
268.982	1.344
269.2	4.13519
269.418	2.66258
269.636	1.84233
269.854	4.70701
270.073	3.16656
270.291	1.90461
270.509	1.59239
270.727	4.34164
270.945	7.21412
271.163	7.0365
271.381	1.59823
271.599	3.14504
271.817	5.34916
272.036	1.72892
272.254	3.13661
272.472	2.33331
272.69	2.50084
272.908	2.31589
273.126	4.42511
273.344	5.39011
273.562	1.88295
273.779	2.64282
273.997	3.85123
274.215	4.15351
274.433	2.94141
274.651	4.30154
274.869	4.63027
275.087	2.8773
275.305	4.03046
275.523	2.36011
275.74	2.65953
275.958	5.47933
276.176	8.1086
276.394	2.52526
276.612	3.06222
276.829	3.24498
277.047	2.60272
277.265	3.12312
277.483	3.54079
277.7	4.27429
277.918	3.44813
278.136	6.1295
278.353	2.9855
278.571	1.88551
278.789	4.39742
279.006	0.7904
279.224	2.82398
279.442	5.14915
279.659	3.67421
279.877	2.36711
280.094	5.8121
280.312	1.28184
280.529	3.40991
280.747	0.92418
280.964	2.71895
281.182	6.11589
281.399	2.5954
281.617	3.70245
281.834	2.40288
282.052	1.79249
282.269	3.11664
282.487	2.49289
282.704	2.06208
282.921	2.16198
283.139	3.21153
283.356	4.10378
283.574	3.79455
283.791	1.89649
284.008	5.60694
284.226	3.06539
284.443	3.18103
284.66	4.57922
284.877	3.55102
285.095	2.01497
285.312	1.63486
285.529	0.96151
285.746	0.78212
285.964	1.97426
286.181	1.30048
286.398	1.87507
286.615	2.70953
286.832	2.54652
287.05	0.56885
287.267	1.88595
287.484	1.81296
287.701	2.63452
287.918	2.63206
288.135	2.59143
288.352	1.21787
288.569	1.32558
288.786	2.43143
289.003	1.95243
289.22	3.01213
289.437	1.72434
289.654	2.90423
289.871	2.95606
290.088	2.88444
290.305	2.31611
290.522	1.75358
290.739	2.02181
290.956	3.12348
291.173	3.53341
291.39	3.44631
291.607	2.26672
291.824	1.75012
292.04	1.19823
292.257	2.82923
292.474	3.10289
292.691	1.88704
292.908	0.8975
293.125	1.69586
293.341	1.14749
293.558	4.92531
293.775	1.95609
293.992	2.12987
294.208	0.88795
294.425	1.21409
294.642	1.82033
294.858	2.60083
295.075	0.7144
295.292	1.93365
295.508	2.31725
295.725	4.07766
295.942	1.73397
296.158	1.31757
296.375	2.14459
296.591	1.64855
296.808	1.90974
297.024	2.11078
297.241	2.47638
297.458	2.6295
297.674	0.40368
297.891	2.08647
298.107	1.78087
298.323	1.35657
298.54	3.38869
298.756	1.68429
298.973	0.96048
299.189	3.58457
299.406	1.66061
299.622	3.30354
299.838	3.26774
300.055	3.06708
300.271	1.17579
300.487	1.62542
300.704	1.92312
300.92	1.21247
301.136	4.89978
301.353	3.24082
301.569	2.48861
301.785	2.83483
302.001	3.24974
302.218	2.92034
302.434	3.00844
302.65	1.56531
302.866	2.21879
303.083	4.7682
303.299	4.62436
303.515	2.90693
303.731	3.10122
303.947	1.52076
304.163	2.28329
304.379	2.88519
304.595	3.32021
304.812	2.11773
305.028	2.16889
305.244	2.64511
305.46	3.42568
305.676	3.80208
305.892	4.10029
306.108	3.48251
306.324	2.51882
306.54	4.70059
306.756	3.36308
306.972	3.31485
307.187	2.92897
307.403	4.10688
307.619	2.55008
307.835	3.97904
308.051	4.49898
308.267	2.06688
308.483	4.12349
308.699	3.48555
308.914	3.08459
309.13	2.94593
309.346	1.82264
309.562	2.32438
309.778	1.9276
309.993	3.66979
310.209	3.18798
310.425	2.07955
310.641	3.05815
310.856	2.27366
311.072	2.14923
311.288	3.20804
311.503	3.42989
311.719	1.70459
311.935	1.67986
312.15	3.71638
312.366	3.3484
312.581	3.57332
312.797	3.29115
313.013	4.03151
313.228	2.70185
313.444	3.00349
313.659	2.58578
313.875	3.71199
314.09	3.08081
314.306	4.44107
314.521	3.87783
314.737	4.04303
314.952	3.21308
315.168	3.32197
315.383	3.60264
315.599	2.91129
315.814	2.99983
316.029	3.97693
316.245	2.25526
316.46	1.84541
316.675	4.32498
316.891	4.82685
317.106	6.02235
317.321	3.57195
317.537	3.94777
317.752	4.17005
317.967	4.25388
318.183	2.517
318.398	2.99659
318.613	4.02399
318.828	4.66929
319.043	4.09554
319.259	3.17177
319.474	3.46877
319.689	4.45109
319.904	1.93447
320.119	4.10585
320.334	3.68395
320.549	3.13014
320.765	4.40735
320.98	3.69319
321.195	3.81761
321.41	3.45323
321.625	4.05364
321.84	5.10337
322.055	4.96037
322.27	2.64053
322.485	2.45632
322.7	3.82229
322.915	4.29149
323.13	2.85672
323.345	5.03346
323.56	4.42483
323.775	4.05231
323.989	3.73145
324.204	3.79594
324.419	4.56194
324.634	2.42086
324.849	3.44113
325.064	6.69075
325.279	4.5943
325.493	4.02465
325.708	4.30573
325.923	2.90197
326.138	3.28034
326.352	5.08608
326.567	4.48991
326.782	3.08639
326.997	3.16174
327.211	4.13731
327.426	3.89635
327.641	3.26486
327.855	2.31514
328.07	4.22359
328.285	5.16127
328.499	3.15508
328.714	3.73231
328.928	4.18172
329.143	3.52047
329.358	4.57918
329.572	4.56069
329.787	5.01934
330.001	5.92483
330.216	2.53964
330.43	5.57355
330.645	5.01967
330.859	4.39141
331.074	2.93259
331.288	3.81931
331.503	4.95946
331.717	2.77798
331.931	3.78716
332.146	3.88882
332.36	5.34985
332.575	4.02307
332.789	3.93017
333.003	3.96648
333.218	4.24344
333.432	3.14985
333.646	4.60203
333.86	5.25541
334.075	5.28067
334.289	3.29309
334.503	2.86821
334.717	4.25789
334.932	4.16194
335.146	4.61199
335.36	3.15926
335.574	4.40688
335.788	4.1161
336.003	4.50348
336.217	4.4323
336.431	4.24154
336.645	3.24931
336.859	2.61042
337.073	3.57797
337.287	3.93611
337.501	2.70186
337.715	4.12279
337.929	4.62551
338.143	2.86539
338.357	3.69634
338.571	3.22533
338.785	4.44536
338.999	3.41253
339.213	3.43584
339.427	2.69884
339.641	5.06241
339.855	3.4359
340.069	3.20097
340.283	4.52319
340.497	5.36143
340.711	4.20009
340.924	3.73908
341.138	2.92617
341.352	2.68987
341.566	3.91986
341.78	2.63543
341.993	3.47594
342.207	3.03066
342.421	4.11911
342.635	3.66933
342.848	3.45367
343.062	1.86163
343.276	3.22519
343.49	5.41982
343.703	3.1284
343.917	4.78131
344.131	4.71416
344.344	3.09593
344.558	3.47008
344.771	2.74639
344.985	5.16131
345.199	5.23282
345.412	4.11221
345.626	4.11152
345.839	2.4837
346.053	2.85321
346.266	2.98634
346.48	4.45438
346.693	4.19482
346.907	4.07537
347.12	3.09508
347.334	4.11371
347.547	4.11885
347.76	3.72232
347.974	4.7702
348.187	4.09178
348.401	3.4993
348.614	3.07311
348.827	3.47343
349.041	4.14435
349.254	2.42178
349.467	3.44766
349.681	2.90836
349.894	3.17495
350.107	4.67916
350.32	5.33353
350.534	2.64973
350.747	3.42569
350.96	3.07559
351.173	3.2456
351.386	3.54509
351.6	3.27202
351.813	3.31189
352.026	3.4487
352.239	2.72316
352.452	3.55483
352.665	4.65339
352.878	3.65209
353.092	5.45637
353.305	4.37815
353.518	3.96103
353.731	2.98456
353.944	4.74433
354.157	3.47381
354.37	3.33299
354.583	2.87986
354.796	2.64699
355.009	4.53737
355.222	4.02105
355.435	3.78367
355.647	4.61178
355.86	3.18754
356.073	4.00033
356.286	3.31878
356.499	4.35215
356.712	4.20724
356.925	4.34904
357.138	4.45794
357.35	3.1232
357.563	3.55323
357.776	4.00953
357.989	3.74911
358.201	4.25573
358.414	4.19986
358.627	4.92631
358.84	3.72267
359.052	2.91188
359.265	3.23509
359.478	4.66467
359.69	2.07243
359.903	4.48331
360.116	4.69768
360.328	2.67737
360.541	4.52448
360.753	3.22885
360.966	3.60768
361.179	3.72843
361.391	3.66263
361.604	3.41427
361.816	3.70078
362.029	3.62934
362.241	3.40979
362.454	3.67093
362.666	3.30768
362.879	4.31136
363.091	3.73278
363.304	3.56996
363.516	3.68219
363.728	3.22866
363.941	4.24863
364.153	3.88983
364.366	2.47252
364.578	3.0191
364.79	3.96175
365.003	3.86354
365.215	3.39832
365.427	4.20203
365.639	4.4612
365.852	3.84666
366.064	5.29532
366.276	3.66002
366.488	4.07372
366.701	3.67038
366.913	3.71842
367.125	3.59336
367.337	3.21584
367.549	3.42711
367.762	3.84072
367.974	3.8098
368.186	3.48687
368.398	4.41049
368.61	4.13406
368.822	4.25571
369.034	3.68103
369.246	4.28673
369.458	5.90094
369.67	3.13624
369.882	5.08463
370.094	2.52148
370.306	4.92715
370.518	3.48208
370.73	3.35971
370.942	3.32959
371.154	3.78478
371.366	3.52004
371.578	4.16224
371.79	3.47012
372.002	4.64365
372.214	5.30857
372.425	3.83974
372.637	4.8974
372.849	4.17242
373.061	2.50075
373.273	4.17927
373.484	4.04716
373.696	4.52438
373.908	2.42311
374.12	4.75441
374.331	4.15045
374.543	3.39111
374.755	3.2094
374.967	3.9583
375.178	4.44005
375.39	3.47704
375.602	3.97446
375.813	2.88999
376.025	3.21413
376.236	4.06339
376.448	4.15645
376.66	3.67511
376.871	3.70211
377.083	4.84024
377.294	5.177
377.506	3.65194
377.717	4.93406
377.929	4.16887
378.14	3.65039
378.352	4.21371
378.563	4.34494
378.775	4.89388
378.986	3.33639
379.197	3.92392
379.409	3.38344
379.62	4.43609
379.832	4.31317
380.043	3.77474
380.254	3.99306
380.466	3.21117
380.677	5.8918
380.888	5.37866
381.1	5.73924
381.311	5.80432
381.522	4.13716
381.733	5.97751
381.945	4.01179
382.156	3.98602
382.367	3.58864
382.578	5.93532
382.789	5.90373
383.001	3.62748
383.212	5.16936
383.423	5.17593
383.634	4.92998
383.845	4.72181
384.056	3.83241
384.267	4.24627
384.478	4.17791
384.69	3.39699
384.901	4.39862
385.112	4.27522
385.323	5.24851
385.534	4.41478
385.745	4.41016
385.956	4.29431
386.167	3.57393
386.378	4.5512
386.588	3.58195
386.799	3.70566
387.01	3.20996
387.221	4.72219
387.432	4.11851
387.643	5.32658
387.854	3.99459
388.065	3.99792
388.275	4.0187
388.486	3.80971
388.697	4.08801
388.908	3.85984
389.119	4.98454
389.329	5.14952
389.54	4.21135
389.751	4.44451
389.962	5.0272
390.172	4.35787
390.383	4.00618
390.594	3.73614
390.804	3.81479
391.015	3.90531
391.226	4.39463
391.436	4.63378
391.647	4.51874
391.858	4.66897
392.068	3.34012
392.279	3.60469
392.489	4.47079
392.7	5.00774
392.91	3.8557
393.121	3.78579
393.331	4.56141
393.542	5.02443
393.752	4.67319
393.963	4.60553
394.173	4.48748
394.384	4.58908
394.594	4.36012
394.804	3.66228
395.015	4.49596
395.225	4.75142
395.436	3.80685
395.646	4.57438
395.856	3.98977
396.067	3.44743
396.277	4.85569
396.487	4.59202
396.697	4.55487
396.908	4.77523
397.118	4.6411
397.328	4.517
397.538	4.93246
397.749	3.82799
397.959	4.92805
398.169	4.69445
398.379	3.54631
398.589	4.79595
398.8	4.4962
399.01	4.46814
399.22	4.24423
399.43	5.77791
399.64	4.45592
399.85	4.83561
400.06	4.38199
400.27	3.87263
400.48	4.35134
400.69	5.30778
400.9	4.11603
401.11	3.88236
401.32	4.83639
401.53	4.21007
401.74	5.38068
401.95	4.75843
402.16	4.06777
402.37	4.66383
402.58	4.10949
402.79	4.77087
403	5.0882
403.209	4.07439
403.419	5.14489
403.629	3.96744
403.839	5.15347
404.049	5.05589
404.258	4.26362
404.468	4.15754
404.678	4.96817
404.888	5.39766
405.097	4.33332
405.307	4.57967
405.517	4.96383
405.727	4.87479
405.936	4.41818
406.146	4.83006
406.356	5.43987
406.565	4.63854
406.775	4.37655
406.984	4.31481
407.194	5.67517
407.404	4.64752
407.613	5.03563
407.823	5.14037
408.032	5.31587
408.242	5.22682
408.451	4.36468
408.661	4.56373
408.87	5.74428
409.08	4.20113
409.289	4.91341
409.499	4.87084
409.708	4.8425
409.918	3.5843
410.127	4.91845
410.336	5.71391
410.546	5.28197
410.755	4.55548
410.964	4.58622
411.174	4.25816
411.383	5.11604
411.592	5.12352
411.802	4.33968
412.011	5.32558
412.22	4.70247
412.429	5.99008
412.639	5.65462
412.848	5.34068
413.057	5.72293
413.266	5.55926
413.475	4.90511
413.685	5.24744
413.894	5.47002
414.103	5.61212
414.312	5.44112
414.521	4.82776
414.73	4.99664
414.939	6.26816
415.148	5.34289
415.357	5.15202
415.566	4.91716
415.776	4.80768
415.985	4.85263
416.194	5.65689
416.403	6.33211
416.611	4.39186
416.82	4.97272
417.029	5.39433
417.238	4.96724
417.447	4.78167
417.656	5.19983
417.865	4.90776
418.074	5.31757
418.283	5.39359
418.492	5.9518
418.7	5.77753
418.909	6.64612
419.118	5.84455
419.327	6.11401
419.536	5.99437
419.744	5.93947
419.953	6.98851
420.162	7.12145
420.371	6.46531
420.579	6.77257
420.788	7.59497
420.997	7.63658
421.205	7.92344
421.414	7.69279
421.623	7.79729
421.831	7.48919
422.04	8.04757
422.249	7.259
422.457	7.5628
422.666	6.88834
422.874	7.73201
423.083	7.72382
423.291	7.75075
423.5	7.58413
423.708	7.86717
423.917	8.237
424.125	7.88462
424.334	7.65392
424.542	9.23985
424.751	8.79219
424.959	8.42426
425.167	8.69578
425.376	8.48854
425.584	7.47695
425.793	7.53157
426.001	6.67767
426.209	7.03857
426.418	6.05074
426.626	5.88846
426.834	5.77888
427.042	6.19448
427.251	5.80693
427.459	6.51884
427.667	6.09015
427.875	5.41625
428.084	5.77145
428.292	6.74878
428.5	6.33233
428.708	5.46685
428.916	5.44612
429.124	6.07758
429.333	5.79809
429.541	5.89021
429.749	6.21166
429.957	6.00893
430.165	7.61007
430.373	5.28611
430.581	6.16872
430.789	6.98888
430.997	5.95257
431.205	5.70068
431.413	6.32505
431.621	5.9685
431.829	6.52568
432.037	5.99585
432.245	6.46223
432.453	6.45122
432.661	6.22192
432.869	7.28823
433.076	5.97068
433.284	6.27941
433.492	6.75709
433.7	7.0591
433.908	6.28257
434.116	6.44572
434.323	6.66881
434.531	6.4046
434.739	6.86851
434.947	6.95278
435.154	6.89287
435.362	6.46334
435.57	6.32996
435.778	6.09609
435.985	6.59143
436.193	6.18171
436.401	7.17815
436.608	6.43288
436.816	6.14632
437.023	7.2385
437.231	7.39803
437.439	6.64808
437.646	6.86157
437.854	6.67847
438.061	7.00232
438.269	6.59122
438.476	6.95452
438.684	6.63974
438.891	6.50104
439.099	6.36395
439.306	6.18803
439.514	6.23842
439.721	7.14447
439.929	6.76948
440.136	7.61488
440.343	7.60298
440.551	7.47419
440.758	9.02197
440.965	7.92465
441.173	7.65311
441.38	7.41086
441.587	7.44808
441.795	7.12706
442.002	7.02067
442.209	7.04719
442.416	7.14222
442.624	7.15025
442.831	6.98192
443.038	6.63168
443.245	6.23637
443.452	6.63642
443.66	7.10334
443.867	6.5552
444.074	6.5401
444.281	6.50653
444.488	6.78026
444.695	6.85944
444.902	6.75285
445.109	7.56266
445.316	7.39769
445.523	7.65064
445.73	7.74029
445.937	8.6058
446.144	8.93187
446.351	9.30215
446.558	8.39708
446.765	10.00644
446.972	9.57337
447.179	9.04461
447.386	9.6469
447.593	8.41119
447.8	9.0913
448.007	7.99644
448.214	7.56726
448.42	7.1263
448.627	7.65189
448.834	7.06005
449.041	6.96073
449.248	6.94951
449.454	7.40046
449.661	8.02591
449.868	6.87327
450.075	6.79357
450.281	5.98338
450.488	6.46448
450.695	6.44968
450.901	6.56801
451.108	6.77399
451.315	7.45676
451.521	6.78095
451.728	7.57643
451.935	6.64975
452.141	6.93181
452.348	7.00422
452.554	7.04085
452.761	6.72684
452.967	7.93255
453.174	7.17729
453.38	7.22679
453.587	6.43557
453.793	7.18969
454	7.61403
454.206	8.24157
454.413	7.53583
454.619	7.3945
454.825	6.75437
455.032	7.47414
455.238	7.54522
455.445	6.52521
455.651	7.19117
455.857	6.27105
456.064	6.95779
456.27	6.96187
456.476	6.86826
456.682	6.46334
456.889	7.26405
457.095	7.3812
457.301	8.45491
457.507	7.15709
457.714	7.22796
457.92	7.19826
458.126	6.75781
458.332	7.19051
458.538	6.982
458.744	7.12624
458.951	7.18272
459.157	9.03225
459.363	8.28532
459.569	8.54066
459.775	9.25052
459.981	8.83701
460.187	9.37405
460.393	9.59773
460.599	9.84887
460.805	8.94143
461.011	8.3374
461.217	8.37746
461.423	8.15802
461.629	7.47444
461.835	7.72409
462.041	7.34355
462.247	8.37175
462.453	7.3373
462.658	7.35862
462.864	7.75617
463.07	7.54146
463.276	7.5249
463.482	7.44312
463.688	8.08176
463.893	7.14274
464.099	7.37307
464.305	8.17796
464.511	7.25978
464.716	7.33577
464.922	7.9782
465.128	7.08439
465.333	8.33373
465.539	7.78835
465.745	7.60757
465.95	7.59784
466.156	8.98499
466.362	8.16207
466.567	7.58087
466.773	7.25496
466.978	8.35001
467.184	7.12248
467.389	6.66117
467.595	7.85855
467.8	7.28199
468.006	8.29129
468.211	8.21927
468.417	7.01055
468.622	7.90031
468.828	7.9955
469.033	7.9045
469.239	9.15541
469.444	7.47697
469.649	8.14159
469.855	7.68201
470.06	7.69589
470.266	7.28948
470.471	8.03682
470.676	7.86459
470.881	6.78075
471.087	8.48133
471.292	9.23784
471.497	7.06214
471.703	7.62462
471.908	7.41592
472.113	7.77917
472.318	8.21396
472.523	7.29874
472.729	7.92345
472.934	8.09224
473.139	7.42094
473.344	7.97706
473.549	8.42275
473.754	7.57455
473.959	9.36445
474.164	7.43303
474.369	7.68419
474.575	8.05918
474.78	7.77285
474.985	7.48041
475.19	6.87108
475.395	7.42126
475.6	7.78664
475.804	8.61489
476.009	7.91353
476.214	7.89118
476.419	7.72119
476.624	7.07724
476.829	7.49311
477.034	8.36803
477.239	7.58551
477.444	8.33062
477.648	8.25662
477.853	8.28748
478.058	7.87603
478.263	7.5914
478.468	7.47613
478.672	7.56316
478.877	8.75437
479.082	8.82543
479.287	8.28794
479.491	7.9741
479.696	7.6055
479.901	8.3043
480.105	8.48276
480.31	7.78491
480.515	8.04026
480.719	9.17196
480.924	7.88732
481.128	7.59787
481.333	8.22441
481.538	8.27102
481.742	8.43474
481.947	9.31214
482.151	10.145
482.356	10.74407
482.56	12.53566
482.765	13.8645
482.969	16.65043
483.174	18.88281
483.378	21.93449
483.582	22.92915
483.787	24.84956
483.991	25.61153
484.196	26.26309
484.4	26.01242
484.604	26.78353
484.809	24.37143
485.013	23.07806
485.217	20.85149
485.422	18.64903
485.626	16.83043
485.83	15.71527
486.034	14.91523
486.239	15.03004
486.443	15.34834
486.647	15.57184
486.851	16.63806
487.055	17.97969
487.26	17.98556
487.464	18.95094
487.668	18.65961
487.872	19.32628
488.076	19.74007
488.28	18.92234
488.484	17.89261
488.688	17.49826
488.892	16.70428
489.096	15.46742
489.3	14.14008
489.504	13.23866
489.708	12.44938
489.912	12.15868
490.116	11.81566
490.32	11.30111
490.524	12.19416
490.728	12.95866
490.932	13.71709
491.136	14.59778
491.34	15.80961
491.544	16.22277
491.748	16.21557
491.951	16.44916
492.155	16.09816
492.359	15.83593
492.563	14.50256
492.767	13.74429
492.97	12.39091
493.174	11.0508
493.378	10.00633
493.582	8.8337
493.785	8.45659
493.989	8.5304
494.193	8.49646
494.396	8.29617
494.6	8.79178
494.804	8.49051
495.007	8.06981
495.211	8.17816
495.414	8.2754
495.618	8.55223
495.822	9.13693
496.025	8.53952
496.229	8.86279
496.432	8.22822
496.636	8.62739
496.839	8.52698
497.043	9.24811
497.246	8.81318
497.45	8.48286
497.653	8.76175
497.856	8.71465
498.06	8.24029
498.263	8.56403
498.467	8.39639
498.67	8.97793
498.873	8.71563
499.077	8.46441
499.28	8.4837
499.483	8.71608
499.686	8.89045
499.89	8.61669
500.093	8.9936
500.296	8.25904
500.499	9.23354
500.703	8.58361
500.906	8.80835
501.109	9.37809
501.312	8.53083
501.515	8.47031
501.719	8.78029
501.922	9.17901
502.125	8.61457
502.328	8.55479
502.531	8.11943
502.734	8.57874
502.937	7.7931
503.14	8.75086
503.343	8.21798
503.546	8.39896
503.749	8.19308
503.952	8.9973
504.155	8.26162
504.358	8.84004
504.561	8.68631
504.764	8.02424
504.967	8.67373
505.17	8.56618
505.373	9.2809
505.576	8.63123
505.778	8.98703
505.981	8.21853
506.184	9.19978
506.387	7.84787
506.59	9.6095
506.793	9.1431
506.995	8.86801
507.198	7.78477
507.401	8.88667
507.604	8.94756
507.806	8.31542
508.009	8.3786
508.212	9.16336
508.414	8.38918
508.617	8.42302
508.82	8.63514
509.022	9.57328
509.225	8.91579
509.427	8.14437
509.63	9.41729
509.833	8.84909
510.035	8.70215
510.238	8.13477
510.44	9.33224
510.643	8.00374
510.845	9.6739
511.048	9.01423
511.25	8.52508
511.453	8.80905
511.655	8.89884
511.858	8.63029
512.06	9.22917
512.262	8.94688
512.465	9.30021
512.667	8.5648
512.869	8.29516
513.072	9.02462
513.274	9.13685
513.476	9.09605
513.679	9.25571
513.881	8.36187
514.083	9.63456
514.286	8.44712
514.488	8.46823
514.69	8.35116
514.892	8.10456
515.094	9.06278
515.297	8.43062
515.499	8.90135
515.701	8.31356
515.903	9.61815
516.105	9.65853
516.307	9.17092
516.509	7.92388
516.711	8.2723
516.913	8.92002
517.116	8.90652
517.318	8.65594
517.52	9.40802
517.722	9.28182
517.924	8.42216
518.126	9.16574
518.328	8.88321
518.529	9.66646
518.731	10.44031
518.933	9.04949
519.135	9.3519
519.337	9.99144
519.539	9.35976
519.741	8.29599
519.943	8.90152
520.145	8.8578
520.346	9.30701
520.548	8.79042
520.75	9.04798
520.952	8.73645
521.153	9.03758
521.355	9.0854
521.557	8.4984
521.759	9.00324
521.96	8.8326
522.162	8.36857
522.364	9.48822
522.565	8.64972
522.767	9.1726
522.969	9.40435
523.17	9.23635
523.372	9.05024
523.573	8.71317
523.775	8.87512
523.977	8.63233
524.178	9.8823
524.38	8.79349
524.581	9.33526
524.783	8.94619
524.984	9.40401
525.186	9.29536
525.387	9.79835
525.589	9.80963
525.79	9.90968
525.991	10.03183
526.193	10.59058
526.394	10.15015
526.596	10.93974
526.797	11.13794
526.998	10.86231
527.2	11.22126
527.401	13.1483
527.602	14.09123
527.803	16.40994
528.005	17.56555
528.206	19.02493
528.407	20.24367
528.608	20.51549
528.81	21.12212
529.011	20.7681
529.212	21.72041
529.413	20.51662
529.614	19.27789
529.815	18.22304
530.017	16.72569
530.218	14.78422
530.419	13.07763
530.62	12.46384
530.821	11.81625
531.022	10.52884
531.223	11.09578
531.424	10.78823
531.625	10.83847
531.826	10.53171
532.027	11.03441
532.228	12.21069
532.429	12.37565
532.63	12.78361
532.831	13.78035
533.032	14.02605
533.233	14.90991
533.433	14.60356
533.634	14.96107
533.835	14.29005
534.036	13.73397
534.237	13.21591
534.438	12.38164
534.638	11.07514
534.839	10.4778
535.04	10.25155
535.241	9.53385
535.441	10.29854
535.642	9.92783
535.843	9.35905
536.043	9.76656
536.244	9.93173
536.445	10.25025
536.645	10.97527
536.846	10.75597
537.047	11.27388
537.247	10.15373
537.448	9.91336
537.648	9.6875
537.849	9.35293
538.049	9.33322
538.25	9.60701
538.451	9.54045
538.651	8.80409
538.851	9.64066
539.052	9.90727
539.252	9.70033
539.453	9.34548
539.653	9.54611
539.854	9.34683
540.054	9.49451
540.254	11.05955
540.455	12.20837
540.655	12.55197
540.855	14.14817
541.056	15.29387
541.256	15.39913
541.456	16.41722
541.657	16.18406
541.857	16.95002
542.057	15.72174
542.257	15.21583
542.458	15.29653
542.658	14.76796
542.858	12.88895
543.058	12.68371
543.258	11.99617
543.458	10.62612
543.659	10.21391
543.859	10.55972
544.059	10.19594
544.259	9.62013
544.459	10.1766
544.659	9.33929
544.859	9.8331
545.059	9.35939
545.259	9.86742
545.459	9.68996
545.659	9.98863
545.859	9.6476
546.059	9.84542
546.259	9.25997
546.459	8.99385
546.659	9.08226
546.859	9.93408
547.059	9.74505
547.258	9.88656
547.458	9.79601
547.658	9.09658
547.858	8.97639
548.058	9.59104
548.258	9.30149
548.457	9.00879
548.657	10.68775
548.857	9.31504
549.057	9.84016
549.256	9.63728
549.456	9.00404
549.656	8.25406
549.855	10.45818
550.055	8.99469
550.255	10.35477
550.454	9.48853
550.654	9.85205
550.853	10.2324
551.053	9.77269
551.253	9.57253
551.452	9.72489
551.652	8.56541
551.851	8.53871
552.051	9.16171
552.25	9.12717
552.45	9.0732
552.649	9.20659
552.849	8.97772
553.048	9.54589
553.248	9.98074
553.447	8.86052
553.646	9.87234
553.846	10.8246
554.045	10.25033
554.244	8.60314
554.444	10.15095
554.643	8.68402
554.842	10.12652
555.042	10.52411
555.241	8.92588
555.44	8.67201
555.64	9.48284
555.839	10.26239
556.038	9.62944
556.237	8.83389
556.436	9.36515
556.636	9.57161
556.835	8.81312
557.034	10.19181
557.233	9.28331
557.432	8.43928
557.631	9.77916
557.83	9.14575
558.029	8.96693
558.228	8.86567
558.427	8.60409
558.626	9.51365
558.825	8.60785
559.024	9.22552
559.223	10.3719
559.422	9.11942
559.621	9.49067
559.82	7.71301
560.019	9.20958
560.218	8.96705
560.417	7.75046
560.616	8.91645
560.815	11.46953
561.014	8.35016
561.212	10.38953
561.411	9.35798
561.61	8.58379
561.809	9.03478
562.008	10.3718
562.206	9.0638
562.405	9.55214
562.604	9.05992
562.803	9.31012
563.001	9.16887
563.2	8.34665
563.399	9.58345
563.597	8.59702
563.796	9.25316
563.995	8.44981
564.193	9.64543
564.392	9.05626
564.59	10.61729
564.789	8.14322
564.988	9.19112
565.186	9.38149
565.385	9.31798
565.583	9.17408
565.782	9.40418
565.98	9.28355
566.179	9.31112
566.377	8.9147
566.575	8.91601
566.774	10.38879
566.972	10.06026
567.171	10.71917
567.369	10.29517
567.567	9.54228
567.766	9.5109
567.964	8.04861
568.162	9.68817
568.361	10.24608
568.559	9.06324
568.757	9.50285
568.956	9.29765
569.154	9.32429
569.352	9.73252
569.55	9.10648
569.748	9.28965
569.947	8.78826
570.145	8.69057
570.343	8.64138
570.541	10.40008
570.739	8.47236
570.937	9.29482
571.135	9.722
571.333	10.94497
571.532	10.81398
571.73	9.65134
571.928	10.20838
572.126	9.88475
572.324	9.3006
572.522	10.19785
572.72	11.21262
572.918	9.4182
573.116	9.9154
573.313	9.33172
573.511	9.29074
573.709	9.0663
573.907	9.99252
574.105	9.1958
574.303	8.5225
574.501	8.30832
574.699	9.77965
574.896	9.74367
575.094	9.90696
575.292	8.52086
575.49	9.98839
575.688	9.19244
575.885	10.29314
576.083	10.99704
576.281	9.79572
576.478	8.89382
576.676	9.69312
576.874	8.42274
577.071	9.30244
577.269	10.89756
577.467	9.18561
577.664	9.26929
577.862	9.97568
578.059	8.76506
578.257	9.78804
578.455	9.11639
578.652	9.22819
578.85	7.90749
579.047	9.36499
579.245	9.02964
579.442	9.13068
579.64	8.94064
579.837	8.05407
580.034	11.32959
580.232	9.09126
580.429	8.56836
580.627	9.51674
580.824	10.1512
581.021	9.7394
581.219	8.73117
581.416	8.64
581.613	10.14908
581.811	10.16462
582.008	8.54648
582.205	9.99144
582.402	9.61171
582.6	11.12319
582.797	9.32909
582.994	9.59799
583.191	9.95453
583.388	9.09135
583.586	9.86533
583.783	10.15683
583.98	8.45447
584.177	9.30286
584.374	7.24253
584.571	9.07411
584.768	9.22924
584.965	8.93445
585.162	9.87188
585.359	10.58769
585.556	9.31229
585.753	9.46248
585.95	8.28718
586.147	8.64634
586.344	9.55678
586.541	9.06785
586.738	8.41536
586.935	9.10195
587.132	8.69763
587.329	10.09306
587.526	9.17431
587.722	13.6385
587.919	8.25241
588.116	9.68717
588.313	10.3086
588.51	11.11832
588.706	9.22284
588.903	9.95467
589.1	10.2916
589.297	11.7215
589.493	9.37532
589.69	9.91656
589.887	8.90081
590.083	8.47122
590.28	8.83666
590.477	10.35786
590.673	9.87879
590.87	10.69419
591.067	8.86532
591.263	9.63309
591.46	9.47438
591.656	9.11026
591.853	10.77428
592.049	8.74989
592.246	9.07373
592.442	10.12569
592.639	10.30984
592.835	8.60873
593.032	9.68799
593.228	8.09769
593.425	8.19016
593.621	8.13734
593.817	9.57689
594.014	8.9186
594.21	9.72856
594.406	10.41742
594.603	9.81789
594.799	8.88945
594.995	7.64466
595.192	10.28971
595.388	9.18558
595.584	9.13282
595.78	8.45618
595.977	11.72094
596.173	10.89131
596.369	9.37931
596.565	8.70267
596.761	8.5319
596.957	10.5506
597.154	8.94625
597.35	9.28227
597.546	9.08975
597.742	10.04582
597.938	9.73454
598.134	8.96242
598.33	9.56471
598.526	10.59209
598.722	9.69077
598.918	10.95936
599.114	9.7651
599.31	8.28457
599.506	9.48832
599.702	8.7055
599.898	9.7292
600.094	10.20068
600.29	10.19329
600.485	10.17971
600.681	8.73012
600.877	10.95643
601.073	9.64433
601.269	11.53862
601.465	10.74532
601.66	8.76316
601.856	8.01092
602.052	11.65197
602.248	9.25492
602.443	7.95711
602.639	8.54881
602.835	8.92443
603.03	8.74621
603.226	10.3552
603.422	8.92801
603.617	9.47213
603.813	9.49756
604.009	9.31293
604.204	10.72409
604.4	8.57208
604.595	10.72324
604.791	8.88965
604.986	10.00238
605.182	9.05897
605.377	9.43765
605.573	9.41999
605.768	9.68953
605.964	9.96951
606.159	10.22594
606.355	10.32111
606.55	9.1449
606.746	10.49233
606.941	9.54561
607.136	11.12295
607.332	12.04979
607.527	8.56704
607.722	9.84009
607.918	9.30174
608.113	8.91711
608.308	10.35895
608.503	10.17547
608.699	10.15971
608.894	10.19916
609.089	9.04867
609.284	10.1422
609.479	9.40126
609.675	10.39402
609.87	9.60951
610.065	10.46397
610.26	10.55378
610.455	10.71762
610.65	9.78868
610.845	10.09896
611.04	10.7358
611.235	9.68659
611.43	9.57522
611.625	8.85544
611.82	11.28644
612.015	9.2629
612.21	11.33506
612.405	8.53594
612.6	11.69055
612.795	11.16291
612.99	10.29122
613.185	8.69239
613.38	9.08205
613.575	9.95588
613.77	12.84422
613.965	8.15538
614.159	8.9225
614.354	10.95169
614.549	10.92408
614.744	10.2433
614.938	8.82076
615.133	8.3924
615.328	11.31445
615.523	11.14021
615.717	12.77534
615.912	9.32645
616.107	10.08827
616.301	9.50117
616.496	9.24374
616.691	11.64817
616.885	10.79765
617.08	12.94954
617.274	11.00363
617.469	12.07078
617.664	10.78159
617.858	9.35833
618.053	10.2595
618.247	9.72217
618.442	7.41069
618.636	11.31082
618.831	9.15568
619.025	9.16871
619.219	13.15515
619.414	6.56313
619.608	9.50807
619.803	9.28587
619.997	12.30864
620.191	11.16628
620.386	10.28353
620.58	9.55476
620.774	7.96397
620.969	8.03162
621.163	9.99143
621.357	8.62028
621.551	9.81263
621.746	10.2169
621.94	9.5208
622.134	13.57162
622.328	12.33064
622.522	8.41146
622.716	11.18772
622.911	11.13735
623.105	11.0462
623.299	10.3648
623.493	13.5899
623.687	9.0669
623.881	9.18544
624.075	10.86071
624.269	11.25775
624.463	7.73432
624.657	8.15835
624.851	10.65068
625.045	10.79318
625.239	11.00094
625.433	9.3844
625.627	12.06278
625.821	9.63548
626.015	9.05678
626.209	10.19398
626.403	8.4021
626.596	10.39151
626.79	10.99031
626.984	8.86941
627.178	10.80093
627.372	10.50381
627.565	10.76149
627.759	8.64571
627.953	8.82213
628.147	10.33404
628.34	10.90755
628.534	12.48055
628.728	9.56774
628.921	11.04219
629.115	11.02251
629.309	11.26117
629.502	11.33821
629.696	10.14304
629.89	9.97581
630.083	10.40944
630.277	10.64496
630.47	12.17213
630.664	9.80272
630.857	8.56833
631.051	11.01997
631.244	11.64781
631.438	11.3061
631.631	9.58795
631.825	11.8639
632.018	10.74537
632.212	12.60963
632.405	11.54552
632.598	9.31523
632.792	10.2743
632.985	7.3759
633.178	9.98715
633.372	10.01111
633.565	9.86072
633.758	11.8379
633.952	9.21307
634.145	9.15362
634.338	10.15109
634.531	9.7119
634.724	9.289
634.918	10.38326
635.111	9.90428
635.304	9.97
635.497	13.19907
635.69	10.95318
635.883	11.76687
636.077	9.0768
636.27	10.76911
636.463	10.67353
636.656	10.61664
636.849	10.14631
637.042	11.32886
637.235	12.87043
637.428	11.4292
637.621	10.98681
637.814	12.34944
638.007	12.43119
638.2	12.40158
638.393	13.16305
638.586	8.70081
638.778	9.76681
638.971	10.42657
639.164	12.45863
639.357	10.98197
639.55	12.6847
639.743	11.47445
639.935	11.26722
640.128	14.06447
640.321	11.79427
640.514	10.78891
640.707	14.00004
640.899	11.62143
641.092	8.38256
641.285	26.17909
641.477	7.84179
641.67	14.58146
641.863	12.81714
642.055	11.20019
642.248	10.91922
642.441	10.56577
642.633	11.74039
642.826	12.76746
643.018	12.90196
643.211	13.63371
643.403	13.99559
643.596	14.29921
643.788	14.25728
643.981	10.18564
644.173	11.90545
644.366	10.55432
644.558	8.31716
644.751	12.62873
644.943	9.07729
645.135	13.55889
645.328	13.78773
645.52	11.97589
645.712	12.67652
645.905	15.91354
646.097	9.44335
646.289	11.70632
646.482	14.8115
646.674	9.78039
646.866	12.91221
647.058	12.11227
647.251	9.48643
647.443	10.40583
647.635	10.91107
647.827	9.70851
648.019	9.59081
648.211	10.9512
648.404	11.44072
648.596	14.09231
648.788	11.71648
648.98	11.63911
649.172	12.23413
649.364	11.96256
649.556	8.61038
649.748	15.37482
649.94	9.8389
650.132	12.42159
650.324	9.95815
650.516	10.22333
650.708	13.16721
650.9	9.28884
651.092	8.75831
651.284	8.97934
651.476	9.53862
651.667	12.75494
651.859	13.82618
652.051	11.04405
652.243	11.7152
652.435	10.67251
652.627	12.20746
652.818	12.25517
653.01	9.05259
653.202	10.12806
653.394	10.6701
653.585	11.9607
653.777	19.14577
653.969	14.17652
654.16	13.65164
654.352	10.07177
654.544	11.24734
654.735	13.17531
654.927	11.71724
655.118	14.37776
655.31	12.87702
655.502	13.56638
655.693	11.15026
655.885	12.57951
656.076	13.94325
656.268	12.16584
656.459	14.22457
656.651	14.13576
656.842	11.04216
657.034	10.38425
657.225	13.32104
657.416	14.34023
657.608	14.15725
657.799	11.88468
657.99	14.14371
658.182	10.72117
658.373	10.88416
658.564	13.98552
658.756	12.42581
658.947	11.62394
659.138	10.34291
659.33	11.04684
659.521	10.75876
659.712	11.45485
659.903	11.4579
660.094	10.97254
660.286	9.36919
660.477	14.70402
660.668	12.71586
660.859	11.4762
661.05	9.62741
661.241	12.38238
661.432	12.43374
661.623	11.43677
661.814	10.97405
662.006	9.27766
662.197	12.53108
662.388	14.1053
662.579	12.01138
662.77	14.561
662.96	17.31626
663.151	13.83543
663.342	8.92963
663.533	13.28165
663.724	11.82225
663.915	15.5463
664.106	12.31197
664.297	15.7219
664.488	13.44104
664.678	10.9239
664.869	13.77527
665.06	13.95855
665.251	12.87002
665.442	13.54452
665.632	10.36489
665.823	16.13228
666.014	7.19241
666.204	13.79078
666.395	14.81453
666.586	16.77311
666.776	13.98943
666.967	16.5314
667.158	12.40709
667.348	15.49265
667.539	10.70904
667.729	14.50842
667.92	11.20983
668.111	14.33585
668.301	14.15428
668.492	12.10271
668.682	13.03667
668.873	12.27722
669.063	10.02386
669.253	13.02545
669.444	15.83199
669.634	12.71627
669.825	16.26896
670.015	15.0166
670.206	11.2897
670.396	16.97224
670.586	12.40742
670.777	13.79721
670.967	8.67401
671.157	12.52048
671.347	11.21253
671.538	15.93597
671.728	14.49107
671.918	16.39773
672.108	14.70149
672.299	12.52151
672.489	13.58211
672.679	11.31798
672.869	14.20866
673.059	17.88109
673.249	13.79674
673.44	11.06756
673.63	12.69091
673.82	14.99853
674.01	11.17708
674.2	13.91669
674.39	19.10365
674.58	14.28962
674.77	13.32532
674.96	12.74774
675.15	21.95647
675.34	15.29259
675.53	13.48779
675.72	12.36929
675.91	9.62951
676.099	17.8167
676.289	18.96573
676.479	15.91546
676.669	11.84156
676.859	14.30135
677.049	11.79969
677.238	13.48336
677.428	17.34508
677.618	14.43744
677.808	17.99507
677.997	14.71296
678.187	11.88295
678.377	13.49491
678.567	12.25293
678.756	12.48894
678.946	13.7781
679.136	10.59058
679.325	12.33152
679.515	11.6801
679.704	10.92231
679.894	15.51062
680.084	14.05443
680.273	15.87156
680.463	11.46964
680.652	11.69388
680.842	13.25413
681.031	15.49878
681.221	11.69792
681.41	14.65862
681.6	13.23899
681.789	14.8914
681.978	16.12317
682.168	14.13715
682.357	13.948
682.547	14.80417
682.736	13.87728
682.925	16.52634
683.115	16.48801
683.304	15.29376
683.493	14.12786
683.682	15.01164
683.872	14.5183
684.061	16.55089
684.25	15.40195
684.439	19.62203
684.629	16.09966
684.818	22.33379
685.007	14.07336
685.196	13.74986
685.385	18.80802
685.574	15.16314
685.763	15.20229
685.952	14.81428
686.142	11.94077
686.331	17.96919
686.52	11.208
686.709	19.66876
686.898	19.56549
687.087	16.73356
687.276	19.04661
687.465	18.05996
687.654	14.09841
687.842	18.23796
688.031	11.82712
688.22	18.74752
688.409	15.67114
688.598	15.44966
688.787	21.13363
688.976	15.36072
689.165	20.35765
689.353	14.35118
689.542	16.17173
689.731	17.86055
689.92	21.06163
690.108	17.00549
690.297	14.18684
690.486	15.96383
690.675	17.05509
690.863	19.98253
691.052	19.7274
691.241	16.35231
691.429	16.36332
691.618	19.34853
691.806	12.41216
691.995	14.86191
692.184	15.94865
692.372	14.87016
692.561	15.76904
692.749	16.89882
692.938	25.11993
693.126	17.14866
693.315	15.15129
693.503	17.62411
693.692	18.99851
693.88	18.4471
694.068	21.6727
694.257	16.4344
694.445	18.20805
694.634	10.99328
694.822	18.70008
695.01	20.1343
695.199	22.38162
695.387	20.36876
695.575	19.9419
695.763	15.86764
695.952	15.58118
696.14	12.37759
696.328	14.68713
696.516	17.01805
696.705	17.34211
696.893	16.9732
697.081	11.64507
697.269	18.65433
697.457	13.33701
697.645	12.8635
697.833	18.44519
698.021	13.87093
698.21	14.69122
698.398	15.02733
698.586	13.03147
698.774	12.48289
698.962	15.60708
699.15	13.03884
699.338	11.86569
699.526	16.78214
699.714	13.81458
699.901	13.93192
700.089	17.45097
700.277	13.53904
700.465	15.01551
700.653	17.74816
700.841	16.40481
701.029	13.76731
701.217	20.26982
701.404	15.87274
701.592	20.114
701.78	23.17651
701.968	15.46896
702.155	15.23345
702.343	13.21122
702.531	20.38462
702.718	17.53575
702.906	15.232
703.094	15.02233
703.281	20.7518
703.469	16.40498
703.657	20.23952
703.844	27.3678
704.032	23.69599
704.219	15.98955
704.407	19.59574
704.595	22.44648
704.782	19.04578
704.97	17.80399
705.157	17.16552
705.345	24.03537
705.532	30.58252
705.719	21.17013
705.907	24.3549
706.094	20.67186
706.282	27.39091
706.469	21.02291
706.656	22.34268
706.844	20.50831
707.031	26.00858
707.218	23.5781
707.406	28.21909
707.593	25.53656
707.78	25.28843
707.968	23.06358
708.155	21.5032
708.342	25.29075
708.529	25.33377
708.716	24.86456
708.904	28.82386
709.091	25.17497
709.278	19.74911
709.465	29.81718
709.652	28.29628
709.839	27.25981
710.026	22.97293
710.213	17.30148
710.4	22.98843
710.587	24.54184
710.774	26.30596
710.961	26.80718
711.148	22.91133
711.335	26.78229
711.522	22.36569
711.709	24.97636
711.896	29.54917
712.083	26.47037
712.27	20.21181
712.457	24.22789
712.644	17.90396
712.831	30.35584
713.017	23.7853
713.204	25.15807
713.391	20.49612
713.578	26.0894
713.765	27.75863
713.951	23.84275
714.138	33.11696
714.325	22.35115
714.512	21.67537
714.698	18.16434
714.885	26.87529
715.072	21.35276
715.258	21.15548
715.445	18.24584
715.631	25.10076
715.818	11.59085
716.005	18.37532
716.191	22.57477
716.378	18.68366
716.564	23.04299
716.751	16.84663
716.937	18.58272
717.124	23.37845
717.31	16.93648
717.497	28.15347
717.683	17.14848
717.869	28.28929
718.056	18.49396
718.242	22.254
718.429	19.93654
718.615	15.87138
718.801	20.31433
718.988	24.92881
719.174	22.60284
719.36	19.11213
719.547	25.5664
719.733	22.17796
719.919	22.3084
720.105	22.95821
720.291	20.67238
720.478	21.65977
720.664	20.67334
720.85	18.67319
721.036	32.10237
721.222	27.94193
721.408	20.83378
721.595	29.32132
721.781	27.33491
721.967	24.93709
722.153	28.6896
722.339	24.35676
722.525	23.00066
722.711	17.23924
722.897	15.88896
723.083	19.53582
723.269	26.14149
723.455	34.15656
723.641	39.53494
723.827	22.32589
724.012	23.96436
724.198	21.52178
724.384	26.70059
724.57	23.38069
724.756	15.99089
724.942	13.64711
725.127	27.01801
725.313	27.66092
725.499	27.42031
725.685	31.75332
725.87	23.88929
726.056	17.22629
726.242	27.13299
726.428	15.65733
726.613	25.84577
726.799	20.2526
726.985	16.90308
727.17	15.65499
727.356	31.7949
727.541	18.35875
727.727	21.94303
727.913	25.49209
728.098	20.04946
728.284	25.33201
728.469	17.47862
728.655	19.14854
728.84	26.86498
729.026	26.07711
729.211	25.51278
729.397	24.31354
729.582	25.72167
729.767	21.88261
729.953	23.60667
730.138	28.23889
730.323	12.72292
730.509	17.53354
730.694	30.46749
730.879	25.10635
731.065	23.51065
731.25	33.00405
731.435	25.72274
731.621	16.22038
731.806	20.22032
731.991	23.80965
732.176	17.29057
732.361	30.00232
732.547	24.2661
732.732	15.56185
732.917	33.73886
733.102	17.28176
733.287	19.37428
733.472	22.00711
733.657	21.19913
733.842	16.41672
734.027	19.84358
734.212	21.22223
734.397	18.46234
734.582	22.69601
734.767	26.83085
734.952	28.98241
735.137	11.34271
735.322	29.85665
735.507	23.5783
735.692	22.92513
735.877	33.28042
736.062	32.31034
736.247	24.75193
736.431	22.27815
736.616	27.92336
736.801	24.84752
736.986	23.34838
737.171	18.34569
737.355	17.02473
737.54	30.53048
737.725	23.39608
737.909	37.66444
738.094	21.4383
738.279	26.87469
738.463	22.23359
738.648	26.96017
738.833	25.37644
739.017	34.78308
739.202	22.85693
739.386	22.42653
739.571	19.16927
739.756	28.02808
739.94	23.23887
740.125	26.06857
740.309	20.04654
740.494	27.85613
740.678	24.22176
740.863	26.26813
741.047	23.92446
741.231	31.94516
741.416	20.27728
741.6	32.30975
741.785	20.47729
741.969	28.88107
742.153	31.54531
742.338	13.8207
742.522	23.67406
742.706	28.0784
742.89	17.69668
743.075	24.27035
743.259	31.48843
743.443	30.92269
743.627	32.05988
743.812	36.55294
743.996	14.83543
744.18	22.93902
744.364	22.03551
744.548	37.07537
744.732	23.30238
744.916	30.36554
745.1	27.5554
745.285	22.22019
745.469	27.76192
745.653	33.62297
745.837	17.79201
746.021	38.29352
746.205	31.92726
746.389	26.15954
746.573	23.5849
746.757	33.13868
746.94	22.08197
747.124	32.27404
747.308	18.0286
747.492	31.2717
747.676	19.67412
747.86	40.5722
748.044	22.39936
748.227	16.59946
748.411	47.60477
748.595	25.73489
748.779	20.92553
748.963	27.10213
749.146	24.79731
749.33	21.71958
749.514	20.61841
749.697	32.36156
749.881	22.04023
750.065	19.81429
750.248	26.48015
750.432	38.99858
750.616	25.14436
750.799	19.02522
750.983	41.03324
751.166	40.10658
751.35	16.79057
751.533	32.36269
751.717	35.49866
751.9	34.67749
752.084	23.25403
752.267	21.28139
752.451	21.03491
752.634	26.56192
752.818	29.42993
753.001	30.38595
753.184	32.63596
753.368	27.68755
753.551	7.48891
753.734	19.62764
753.918	41.01635
754.101	21.33647
754.284	30.3387
754.467	22.90631
754.651	21.36742
754.834	21.14372
755.017	33.16228
755.2	33.17235
755.384	19.60215
755.567	29.23434
755.75	30.5384
755.933	23.42402
756.116	30.53579
756.299	22.20425
756.482	19.9035
756.665	29.9862
756.848	26.23278
757.032	27.64337
757.215	17.19032
757.398	20.90429
757.581	21.98528
757.764	44.29132
757.947	26.27041
758.129	32.07085
758.312	10.38865
758.495	24.74126
758.678	25.48571
758.861	23.65403
759.044	38.42069
759.227	18.60612
759.41	21.46165
759.592	31.13926
759.775	24.89471
759.958	32.96442
760.141	18.95909
760.324	40.87556
760.506	35.78845
760.689	30.88888
760.872	40.43557
761.054	28.71025
761.237	24.83033
761.42	27.56991
761.602	31.31386
761.785	28.17797
761.968	34.15859
762.15	38.15682
762.333	25.62055
762.515	29.90876
762.698	23.23537
762.88	31.46097
763.063	28.67134
763.245	33.4035
763.428	20.36176
763.61	22.74122
763.793	18.48928
763.975	27.98409
764.158	23.62517
764.34	22.09757
764.522	19.92311
764.705	24.11844
764.887	35.38457
765.069	16.7832
765.252	28.96863
765.434	29.90842
765.616	27.10343
765.799	21.14081
765.981	29.47247
766.163	20.4852
766.345	34.61674
766.528	22.07731
766.71	13.24941
766.892	27.46361
767.074	35.6303
767.256	23.42048
767.438	38.60613
767.62	27.96634
767.802	43.72175
767.985	30.44567
768.167	39.22946
768.349	23.03627
768.531	30.83345
768.713	29.17075
768.895	32.85099
769.077	28.97844
769.259	47.06022
769.441	63.1631
769.623	33.85543
769.804	39.23341
769.986	36.0489
770.168	43.88825
770.35	55.12148
770.532	40.54488
770.714	44.6338
770.896	43.78262
771.077	19.71103
771.259	48.11185
771.441	41.25909
771.623	49.56748
771.804	61.00665
771.986	21.9633
772.168	31.37908
772.35	46.29592
772.531	60.30573
772.713	38.5833
772.894	50.81933
773.076	38.8386
773.258	34.26125
773.439	53.35819
773.621	60.03328
773.802	27.56611
773.984	32.38304
774.166	42.30583
774.347	55.97965
774.529	50.78812
774.71	19.98112
774.891	36.45607
775.073	32.62488
775.254	53.50041
775.436	33.35846
775.617	64.57402
775.799	31.84657
775.98	54.12101
776.161	58.35009
776.343	59.79649
776.524	38.40413
776.705	36.20624
776.886	21.46016
777.068	41.36343
777.249	88.44728
777.43	62.28448
777.611	26.65159
777.793	35.2818
777.974	59.77975
778.155	33.20855
778.336	27.56119
778.517	69.26099
778.698	29.41719
778.879	19.62563
779.061	11.2825
779.242	44.72878
779.423	43.90248
779.604	32.38589
779.785	35.99505
779.966	42.39315
780.147	51.10629
780.328	51.51263
780.509	70.56953
780.69	50.92213
780.871	33.95429
781.051	23.63969
781.232	40.82698
781.413	40.65409
781.594	36.57336
781.775	35.3056
781.956	31.11303
782.137	18.38138
782.317	34.1101
782.498	41.4678
782.679	40.71271
782.86	42.31224
783.04	30.51062
783.221	43.08031
783.402	64.0638
783.583	39.02925
783.763	50.78861
783.944	34.06246
784.124	25.84916
784.305	61.78169
784.486	47.01013
784.666	39.0217
784.847	22.67803
785.027	82.25434
785.208	31.0534
785.388	32.16331
785.569	32.17145
785.749	35.78014
785.93	33.72967
786.11	23.08163
786.291	46.58887
786.471	41.06074
786.652	50.34612
786.832	37.56128
787.012	41.2108
787.193	26.93847
787.373	39.29234
787.553	34.13973
787.734	41.95633
787.914	34.98035
788.094	52.02714
788.275	43.37617
788.455	34.85655
788.635	26.84819
788.815	41.82891
788.995	27.74629
789.176	22.37311
789.356	30.62209
789.536	36.19733
789.716	44.57714
789.896	30.16629
790.076	33.32281
790.256	43.38073
790.436	16.15978
790.616	27.87906
790.796	42.28141
790.976	34.95389
791.156	30.92145
791.336	46.29377
791.516	42.4375
791.696	35.81455
791.876	22.8854
792.056	40.29597
792.236	51.11274
792.416	48.56783
792.596	43.27763
792.776	44.13423
792.956	47.8571
793.135	61.27078
793.315	26.24448
793.495	51.70839
793.675	47.93152
793.854	48.03315
794.034	50.53023
794.214	26.97024
794.394	48.65428
794.573	54.45963
794.753	41.75514
794.933	29.59903
795.112	42.54864
795.292	50.91804
795.472	61.81655
795.651	24.50014
795.831	38.11473
796.01	35.80632
796.19	35.92184
796.369	38.44567
796.549	44.81183
796.728	36.67727
796.908	24.70282
797.087	26.70912
797.267	37.68532
797.446	24.54686
797.626	46.21179
797.805	44.12122
797.984	31.47416
798.164	48.06387
798.343	30.04991
798.522	40.46912
798.702	40.01124
798.881	25.39016
799.06	35.50047
799.239	19.57716
799.419	28.44749
799.598	61.16062
799.777	45.80942
799.956	52.89938
800.136	36.21378
800.315	30.15323
800.494	43.60914
800.673	51.56697
800.852	47.87809
801.031	52.68385
801.21	46.0645
801.389	33.07258
801.568	41.06055
801.747	62.66218
801.926	38.36815
802.105	58.46339
802.284	33.91256
802.463	59.31493
802.642	43.97713
802.821	43.26243
803	56.43456
803.179	51.05763
803.358	53.2633
803.537	32.43319
803.716	39.341
803.895	32.07171
804.073	36.93043
804.252	28.20048
804.431	45.18703
804.61	37.05013
804.789	50.0872
804.967	34.74545
805.146	34.00705
805.325	68.35183
805.503	44.81545
805.682	26.60757
805.861	84.53728
806.039	57.7175
806.218	34.45847
806.397	41.28962
806.575	39.06904
806.754	43.82697
806.932	28.73845
807.111	52.53746
807.289	51.10085
807.468	42.95694
807.646	53.28972
807.825	46.90138
808.003	42.04801
808.182	54.07733
808.36	41.25495
808.539	32.39373
808.717	60.20691
808.895	32.38665
809.074	43.60149
809.252	37.53843
809.43	49.48392
809.609	57.95276
809.787	62.4096
809.965	36.97986
810.144	40.31219
810.322	38.32245
810.5	46.32191
810.678	35.57332
810.856	71.98321
811.035	55.85108
811.213	49.45416
811.391	59.68424
811.569	43.19218
811.747	89.28655
811.925	57.47313
812.103	32.8916
812.281	41.00277
812.459	66.30949
812.637	66.37023
812.816	54.04118
812.994	70.49512
813.171	60.43918
813.349	47.01106
813.527	53.85891
813.705	61.63375
813.883	80.10919
814.061	54.48456
814.239	65.33346
814.417	75.5229
814.595	51.86377
814.773	47.89228
814.95	44.29852
815.128	49.44466
815.306	37.88216
815.484	39.13026
815.662	30.24521
815.839	29.6996
816.017	36.18378
816.195	62.25358
816.372	36.42519
816.55	53.26383
816.728	66.73677
816.905	39.9396
817.083	66.90548
817.261	42.59875
817.438	88.04104
817.616	67.66281
817.793	37.99439
817.971	54.46146
818.148	50.97907
818.326	61.20197
818.503	46.73997
818.681	67.06872
818.858	38.8493
819.036	42.48395
819.213	46.6953
819.391	35.37741
819.568	35.59115
819.745	29.57847
819.923	52.54816
820.1	39.21759
820.277	31.85783
820.455	38.31607
820.632	40.80836
820.809	44.17425
820.986	28.59243
821.164	23.85922
821.341	22.28709
821.518	32.86556
821.695	24.14769
821.872	21.75747
822.05	18.98527
822.227	16.12069
822.404	16.9639
822.581	19.43898
822.758	16.75381
822.935	17.07353
823.112	18.81202
823.289	16.24018
823.466	18.98838
823.643	17.90819
823.82	20.96253
823.997	18.98208
824.174	21.64668
824.351	28.36571
824.528	26.34927
824.705	23.82293
824.882	26.28324
825.059	33.61731
825.236	24.54421
825.412	25.79906
825.589	31.08232
825.766	42.95447
825.943	26.79396
826.12	31.92826
826.296	24.29143
826.473	29.39035
826.65	29.44355
826.827	35.16899
827.003	23.82694
827.18	26.81213
827.357	29.61174
827.533	25.0603
827.71	15.44728
827.887	22.8184
828.063	25.87099
828.24	21.80385
828.416	28.45588
828.593	24.20176
828.769	33.21336
828.946	33.6188
829.122	34.61251
829.299	34.70688
829.475	22.81721
829.652	33.2839
829.828	53.14914
830.005	35.93391
830.181	48.05832
830.357	35.98432
830.534	51.04235
830.71	37.74531
830.886	49.1722
831.063	47.16703
831.239	60.86377
831.415	30.98919
831.592	62.18791
831.768	40.2475
831.944	34.96664
832.12	65.62794
832.296	62.63384
832.473	51.44825
832.649	35.5737
832.825	53.97022
833.001	32.96742
833.177	45.41549
833.353	42.29637
833.529	25.81565
833.705	38.74896
833.881	26.28716
834.058	25.12833
834.234	27.3505
834.41	27.20578
834.586	21.28616
834.761	25.61196
834.937	28.3007
835.113	29.509
835.289	25.45418
835.465	29.58631
835.641	27.45857
835.817	29.70626
835.993	48.19689
836.169	26.5047
836.344	39.31379
836.52	45.68086
836.696	41.39841
836.872	33.99236
837.048	89.50898
837.223	36.89101
837.399	67.02165
837.575	54.80292
837.75	50.77034
837.926	70.52308
838.102	102.33279
838.277	84.83901
838.453	114.19459
838.628	112.77627
838.804	43.82919
838.98	97.79256
839.155	53.07039
839.331	71.06657
839.506	48.5073
839.682	52.84817
839.857	70.45739
840.033	84.85155
840.208	37.70804
840.384	23.28311
840.559	39.67573
840.734	61.45091
840.91	78.99599
841.085	49.50795
841.26	50.47392
841.436	42.24584
841.611	44.13378
841.786	66.16716
841.962	83.56905
842.137	53.85806
842.312	37.74245
842.487	46.46857
842.663	43.89727
842.838	52.24178
843.013	152.28489
843.188	79.63841
843.363	63.56203
843.538	126.57157
843.714	127.53921
843.889	132.35446
844.064	141.55845
844.239	111.03363
844.414	128.12255
844.589	90.00233
844.764	163.13591
844.939	158.70633
845.114	175.38762
845.289	166.22321
845.464	224.67762
845.639	153.30989
845.814	73.43389
845.989	86.99814
846.163	109.57299
846.338	120.61291
846.513	160.17969
846.688	106.03702
846.863	109.32653
847.038	100.17601
847.212	115.22046
847.387	115.30072
847.562	120.01555
847.737	146.89905
847.911	55.15235
848.086	72.54839
848.261	241.77583
848.435	102.25005
848.61	154.22668
848.785	80.09353
848.959	163.73746
849.134	221.76235
849.308	221.78247
849.483	118.45189
849.658	190.10518
849.832	100.82312
850.007	86.79758
850.181	249.05468
850.356	93.7503
850.53	236.6523
850.705	72.90883
850.879	43.97713
851.053	116.11224
851.228	100.78334
851.402	131.65285
851.577	168.96426
851.751	189.71887
851.925	123.65708
852.099	61.261
852.274	91.47723
852.448	116.14743
852.622	142.07459
852.797	117.8191
852.971	110.17895
853.145	128.60137
853.319	352.48262
853.493	183.09791
853.668	99.2881
853.842	225.92768
854.016	184.71013
854.19	198.32163
854.364	126.13756
854.538	139.29106
854.712	191.55906
854.886	116.574
855.06	103.86749
855.234	50.7685
855.408	192.14816
855.582	165.70023
855.756	171.3274
855.93	223.21899
856.104	149.61356
856.278	171.54355
856.452	130.37675
856.626	164.41177
856.8	265.0175
856.973	158.75858
857.147	147.91254
857.321	145.96901
857.495	178.8942
857.669	122.17451
857.842	109.72408
858.016	181.8305
858.19	90.11996
858.364	285.37694
858.537	107.92119
858.711	128.10664
858.885	114.32871
859.058	100.72333
859.232	60.76168
859.405	69.401
859.579	169.32097
859.753	145.38681
859.926	101.85427
860.1	66.83488
860.273	126.1715
860.447	208.00953
860.62	111.67694
860.794	247.131
860.967	143.10899
861.141	181.97256
861.314	263.73439
861.487	152.63071
861.661	201.825
861.834	203.36589
862.008	178.05086
862.181	122.18935
862.354	134.95441
862.528	151.78853
862.701	104.78233
862.874	69.45513
863.047	114.62303
863.221	113.46147
863.394	57.2952
863.567	210.78196
863.74	41.38823
863.913	170.25257
864.087	148.15095
864.26	174.27722
864.433	119.38284
864.606	226.22038
864.779	126.28724
864.952	63.83671
865.125	110.01484
865.298	120.73558
865.471	130.38432
865.644	263.15979
865.817	209.83629
865.99	171.64516
866.163	197.02559
866.336	113.02892
866.509	128.02251
866.682	114.2208
866.855	193.60867
867.028	85.15912
867.2	166.00475
867.373	51.87072
867.546	139.34848
867.719	270.1789
867.892	160.72407
868.064	92.06774
868.237	147.0263
868.41	134.32044
868.583	85.82557
868.755	81.19738
868.928	120.3865
869.101	268.88904
869.273	189.87439
869.446	161.0655
869.619	193.33446
869.791	127.23372
869.964	184.89858
870.136	171.5777
870.309	133.44332
870.481	141.28564
870.654	64.80182
870.826	143.15944
870.999	113.33653
871.171	170.35002
871.344	106.02591
871.516	119.23972
871.689	94.73997
871.861	136.65286
872.033	93.31173
872.206	118.03662
872.378	180.13836
872.55	111.30207
872.723	75.12618
872.895	118.12078
873.067	189.81687
873.24	204.11418
873.412	107.02218
873.584	120.44245
873.756	111.71799
873.928	152.14909
874.101	148.08246
874.273	159.2471
874.445	59.57279
874.617	76.07421
874.789	141.36869
874.961	115.73823
875.133	165.58819
875.305	130.89579
875.477	83.45666
875.649	76.74081
875.821	96.42196
875.993	226.24871
876.165	86.63431
876.337	147.33202
876.509	116.66237
876.681	147.5784
876.853	143.05619
877.025	149.77511
877.197	91.64433
877.369	90.64586
877.541	180.86725
877.712	48.10886
877.884	77.32362
878.056	168.82992
878.228	87.33754
878.4	157.30213
878.571	88.37437
878.743	60.31524
878.915	145.67876
879.086	84.08222
879.258	104.50622
879.43	96.94442
879.601	87.5924
879.773	87.23408
879.945	23.82612
880.116	39.11335
880.288	26.63162
880.459	28.17688
880.631	22.6368
880.802	26.41035
880.974	24.95289
881.145	17.97805
881.317	24.20733
881.488	18.42279
881.66	20.6928
881.831	18.65811
882.002	25.95956
882.174	19.57108
882.345	24.5498
882.517	14.51131
882.688	28.3273
882.859	24.22111
883.03	36.77635
883.202	35.10212
883.373	30.85556
883.544	31.00414
883.715	52.25674
883.887	42.2121
884.058	35.18894
884.229	52.26223
884.4	53.37136
884.571	59.33269
884.742	51.51684
884.914	56.11779
885.085	79.07112
885.256	102.9647
885.427	82.38491
885.598	96.60021
885.769	104.16132
885.94	95.22902
886.111	66.34413
886.282	116.2561
886.453	91.87205
886.624	70.00456
886.795	111.37074
886.966	96.72032
887.136	123.81866
887.307	80.43813
887.478	154.76868
887.649	141.10514
887.82	143.83139
887.991	106.31314
888.161	160.41575
888.332	149.01668
888.503	80.04429
888.674	204.05894
888.844	216.47858
889.015	174.18906
889.186	80.7079
889.356	201.70403
889.527	78.43018
889.698	347.14159
889.868	116.40874
890.039	150.02241
890.209	128.28021
890.38	172.20095
890.551	139.83839
890.721	211.53654
890.892	176.05874
891.062	123.25806
891.233	148.49564
891.403	113.6158
891.574	97.16843
891.744	114.30985
891.914	164.32512
892.085	137.98092
892.255	43.14232
892.425	209.7091
892.596	165.00103
892.766	145.12492
892.936	205.39916
893.107	177.6586
893.277	96.47739
893.447	70.94458
893.618	59.78789
893.788	113.85346
893.958	65.25326
894.128	66.85904
894.298	73.23234
894.468	99.30417
894.639	45.92052
894.809	33.08477
894.979	49.32231
895.149	60.24234
895.319	48.7309
895.489	67.97706
895.659	83.28926
895.829	56.90975
895.999	62.69322
896.169	41.67888
896.339	53.27908
896.509	111.37121
896.679	125.78384
896.849	123.03795
897.019	171.7846
897.189	135.21613
897.358	115.74823
897.528	168.73849
897.698	58.90971
897.868	151.81603
898.038	263.29825
898.208	247.88684
898.377	91.20638
898.547	262.55296
898.717	401.15918
898.886	164.50844
899.056	254.65253
899.226	381.73925
899.395	226.91422
899.565	292.52928
899.735	193.03895
899.904	321.16145
900.074	267.80453
900.244	126.89534
900.413	473.21925
900.583	112.09189
900.752	185.45883
900.922	302.60145
901.091	41.49486
901.261	257.25527
901.43	249.7423
901.599	238.10375
901.769	542.25778
901.938	289.46872
902.108	275.51711
902.277	354.81597
902.446	101.11055
902.616	120.94325
902.785	160.53453
902.954	282.73821
903.124	183.49865
903.293	150.04033
903.462	79.55643
903.631	114.38166
903.801	84.59225
903.97	48.55182
904.139	80.52062
904.308	61.53376
904.477	47.94742
904.646	30.1785
904.816	46.54505
904.985	65.10559
905.154	99.34142
