Data from WindowProjectSample_Transmission__46__00046__02924734502867089.txt Node

Date: Mon May 05 18:02:55 EDT 2025
User: jessi
Spectrometer: SR400872
Trigger mode: 0
Integration Time (sec): 5.000010E-1
Scans to average: 20
Electric dark correction enabled: true
Nonlinearity correction enabled: true
Boxcar width: 0
XAxis mode: Wavelengths
Number of Pixels in Spectrum: 3648
>>>>>Begin Spectral Data<<<<<
184.909	20901.17136
185.132	-5277.77199
185.355	-3233.80853
185.578	-18191.95819
185.801	1570.34397
186.024	10259.05588
186.247	-1978.2775
186.47	1281.22888
186.693	260.88379
186.916	274.53194
187.139	-3775.73421
187.362	3613.48799
187.585	4203.20525
187.808	3745.81912
188.031	80.26553
188.254	-56363.7537
188.476	-765.97252
188.699	6648.66461
188.922	632.82845
189.145	-15786.415
189.368	-725.80066
189.591	-1764.73336
189.813	3147.75645
190.036	-56000.29873
190.259	-880.80229
190.482	-4743.23696
190.705	7087.63353
190.927	-2626.85356
191.15	13583.34825
191.373	3494.34888
191.595	-9270.34603
191.818	-4138.82241
192.041	-7205.55105
192.263	-3676.6705
192.486	-894.41301
192.709	-3958.15252
192.931	8125.13096
193.154	-29515.96734
193.377	-2886.06308
193.599	-2636.01487
193.822	-9613.19393
194.044	-1975.71915
194.267	1234.88406
194.489	230.37684
194.712	-44019.14051
194.934	-32021.62544
195.157	1231.3244
195.379	1507.90033
195.602	-7248.57173
195.824	-1428.74216
196.047	-8891.60075
196.269	2872.51982
196.492	-6714.20477
196.714	29555.26531
196.936	-8864.8264
197.159	-1301.9881
197.381	1293.52579
197.604	465.43001
197.826	12017.10111
198.048	-11642.63538
198.271	-2802.75159
198.493	7992.8356
198.715	2342.8534
198.938	-465.64643
199.16	7592.17771
199.382	-103495.56278
199.604	2778.33469
199.827	-1070.22762
200.049	-2988.89352
200.271	14513.78431
200.493	1237.44553
200.715	-39013.37312
200.938	-6295.84092
201.16	-4214.96696
201.382	23655.63211
201.604	2440.18263
201.826	2312.92725
202.048	-2077.82768
202.27	-2016.91122
202.492	-36846.98799
202.715	2877.59012
202.937	-4630.23926
203.159	-6595.36776
203.381	1547.26372
203.603	6891.89237
203.825	6564.6065
204.047	2395.96584
204.269	-2765.79139
204.491	2231.54762
204.713	6101.03835
204.935	-506708.92567
205.156	1209.94229
205.378	-3110.74361
205.6	1678.31277
205.822	161210.75657
206.044	-1097.97079
206.266	1637.89716
206.488	4910.51616
206.71	-5501.67856
206.932	1087.99053
207.153	13028.38457
207.375	-7107.34056
207.597	-39716.45737
207.819	-3008.75574
208.041	2525.92227
208.262	517.69452
208.484	765.32976
208.706	-847.77213
208.927	-935.63925
209.149	602.93721
209.371	-2923.9639
209.593	-201.45079
209.814	-900.10149
210.036	752.60796
210.258	-688.86504
210.479	1653.91905
210.701	1712.831
210.922	3412.58498
211.144	-3926.16993
211.366	2116.80253
211.587	5874.47228
211.809	-8268.36373
212.03	2554.85641
212.252	494.9201
212.473	2233.79821
212.695	-6613.17956
212.916	3050.20625
213.138	-740.62638
213.359	3868.03991
213.581	5473.22785
213.802	-756.75719
214.024	1181.62778
214.245	2428.84825
214.466	3547.08309
214.688	-3126.22957
214.909	-1306.55885
215.131	-1828.57547
215.352	-3385.24752
215.573	15170.64321
215.795	5395.05513
216.016	5528.24906
216.237	812.87338
216.459	3673.73818
216.68	1942.87378
216.901	5193.43563
217.122	-3109.43296
217.344	-12606.17818
217.565	3612.61188
217.786	9080.76941
218.007	17030.71297
218.228	-789.34084
218.45	6280.48081
218.671	796.49171
218.892	39800.40615
219.113	1513.04673
219.334	-481.67152
219.555	9353.94105
219.776	3231.1721
219.997	21983.89516
220.219	2849.77574
220.44	-10376.51299
220.661	497.67615
220.882	1573.08908
221.103	-1069.02081
221.324	2266.9217
221.545	2386.01722
221.766	-9090.39281
221.987	948.55061
222.208	1650.33759
222.429	4427.13263
222.65	306.33608
222.87	19717.58825
223.091	751.5909
223.312	602.29416
223.533	1380.63221
223.754	1524.18016
223.975	1433.12382
224.196	1946.72657
224.417	1365.68512
224.637	633.5489
224.858	143.43218
225.079	1166.76099
225.3	671.63539
225.521	3757.97431
225.741	477.87578
225.962	513.62981
226.183	147.27708
226.404	693.50369
226.624	469.26909
226.845	687.00883
227.066	417.08561
227.286	268.04763
227.507	127.92624
227.728	128.58734
227.948	242.37145
228.169	74.65443
228.389	87.12671
228.61	50.22212
228.831	63.86314
229.051	3.62131
229.272	40.31279
229.492	58.02387
229.713	14.51636
229.933	38.98632
230.154	33.63905
230.374	55.83412
230.595	39.3081
230.815	24.10763
231.036	41.31896
231.256	-7.221
231.477	69.64094
231.697	40.45335
231.917	41.20537
232.138	58.3212
232.358	110.63587
232.579	103.53272
232.799	20.27453
233.019	107.83559
233.24	115.96166
233.46	38.50927
233.68	64.07923
233.901	45.77233
234.121	26.9789
234.341	13.94316
234.561	-3.14748
234.782	20.59019
235.002	71.71754
235.222	-4.95662
235.442	68.1555
235.662	34.53279
235.883	63.84762
236.103	51.92904
236.323	38.281
236.543	29.2853
236.763	41.7329
236.983	44.88515
237.203	42.57925
237.423	62.14358
237.643	89.75388
237.864	75.69391
238.084	19.25392
238.304	27.19196
238.524	48.09648
238.744	42.10588
238.964	77.5486
239.184	62.75213
239.404	64.95534
239.624	35.05012
239.843	61.58103
240.063	37.13738
240.283	23.31492
240.503	25.15855
240.723	25.70579
240.943	13.75944
241.163	20.61107
241.383	14.05242
241.603	7.51211
241.822	9.11336
242.042	6.6506
242.262	8.3965
242.482	10.19123
242.702	10.94597
242.921	2.74805
243.141	6.84341
243.361	6.45149
243.581	9.32061
243.8	7.82966
244.02	5.38683
244.24	9.54501
244.459	9.5372
244.679	17.88644
244.899	11.69904
245.118	13.41618
245.338	12.19356
245.558	13.51997
245.777	8.31919
245.997	10.64628
246.216	10.5611
246.436	6.67771
246.655	4.8569
246.875	3.21407
247.094	6.41321
247.314	2.17292
247.533	3.60413
247.753	4.5022
247.972	3.57505
248.192	1.38673
248.411	1.95176
248.631	3.70942
248.85	4.77912
249.07	3.78871
249.289	6.14139
249.508	5.36129
249.728	7.57984
249.947	7.46307
250.166	9.65366
250.386	4.6595
250.605	7.11966
250.824	11.13694
251.044	8.02308
251.263	29.32553
251.482	15.26987
251.701	12.20865
251.921	0.18594
252.14	3.56186
252.359	4.37769
252.578	10.70189
252.798	3.52801
253.017	9.44075
253.236	4.10725
253.455	5.88768
253.674	10.56511
253.893	5.04625
254.112	7.58301
254.331	11.83765
254.551	9.25524
254.77	3.62719
254.989	13.74482
255.208	9.74873
255.427	15.44769
255.646	12.03185
255.865	22.22326
256.084	8.79569
256.303	11.02746
256.522	13.86299
256.741	3.61787
256.96	3.62808
257.179	7.42903
257.397	11.21391
257.616	6.18613
257.835	6.21706
258.054	15.2943
258.273	11.29161
258.492	11.67019
258.711	6.90846
258.93	3.43839
259.148	4.90004
259.367	4.69929
259.586	5.94098
259.805	2.45825
260.023	5.35472
260.242	3.99661
260.461	3.01183
260.68	1.44851
260.898	4.55719
261.117	1.40988
261.336	0.95157
261.554	3.50525
261.773	3.53141
261.992	0.80018
262.21	3.48675
262.429	3.5639
262.648	7.62065
262.866	8.31161
263.085	6.09229
263.303	4.86989
263.522	9.01531
263.74	8.92455
263.959	16.17017
264.178	7.13998
264.396	6.79333
264.615	4.76824
264.833	11.2361
265.051	8.97671
265.27	11.31677
265.488	11.49888
265.707	6.66826
265.925	11.19556
266.144	4.95084
266.362	5.85108
266.58	5.66799
266.799	5.1721
267.017	6.12986
267.235	5.32122
267.454	3.34554
267.672	2.04142
267.89	4.27486
268.109	4.42812
268.327	4.67639
268.545	0.93614
268.763	4.12614
268.982	1.70268
269.2	4.51409
269.418	3.29742
269.636	1.76454
269.854	5.10345
270.073	3.33812
270.291	2.0989
270.509	1.97224
270.727	4.44533
270.945	7.51995
271.163	7.4847
271.381	1.49685
271.599	3.17086
271.817	5.68641
272.036	1.96164
272.254	3.20167
272.472	2.51516
272.69	2.62211
272.908	2.40561
273.126	4.61005
273.344	5.54298
273.562	1.93726
273.779	2.63435
273.997	4.03803
274.215	4.23774
274.433	3.0185
274.651	4.44054
274.869	4.73553
275.087	3.12694
275.305	4.23038
275.523	2.59721
275.74	2.95521
275.958	5.68006
276.176	8.23304
276.394	2.71043
276.612	3.47692
276.829	3.31161
277.047	2.68674
277.265	3.13654
277.483	3.5221
277.7	4.52415
277.918	3.64501
278.136	6.52382
278.353	3.2409
278.571	2.01399
278.789	4.58591
279.006	1.01546
279.224	3.02047
279.442	5.37017
279.659	3.70532
279.877	2.35889
280.094	6.11729
280.312	0.99535
280.529	3.41418
280.747	0.9039
280.964	2.61036
281.182	6.21305
281.399	2.9077
281.617	4.19863
281.834	2.62253
282.052	1.90079
282.269	3.25535
282.487	2.56152
282.704	1.98913
282.921	2.3577
283.139	3.54244
283.356	4.08539
283.574	3.9788
283.791	2.01495
284.008	5.77494
284.226	3.00785
284.443	3.37407
284.66	4.51233
284.877	3.75804
285.095	2.20553
285.312	1.73188
285.529	0.97815
285.746	0.86139
285.964	2.04669
286.181	1.41864
286.398	2.00853
286.615	2.78148
286.832	2.61951
287.05	0.53939
287.267	1.86931
287.484	1.91823
287.701	2.75315
287.918	2.64056
288.135	2.86746
288.352	1.36902
288.569	1.43203
288.786	2.40954
289.003	2.12426
289.22	3.03624
289.437	1.66204
289.654	2.9687
289.871	3.06615
290.088	3.00932
290.305	2.25236
290.522	1.91007
290.739	2.09589
290.956	3.30284
291.173	3.6537
291.39	3.5002
291.607	2.53621
291.824	1.7218
292.04	1.27668
292.257	3.03267
292.474	3.44415
292.691	2.0944
292.908	1.00281
293.125	1.72424
293.341	1.12795
293.558	5.17242
293.775	1.93554
293.992	2.25254
294.208	0.90451
294.425	1.31522
294.642	2.01136
294.858	2.37447
295.075	0.70782
295.292	2.0722
295.508	2.403
295.725	4.07312
295.942	1.68221
296.158	1.18328
296.375	2.04271
296.591	1.51422
296.808	1.80577
297.024	1.98771
297.241	2.26704
297.458	2.4771
297.674	0.14193
297.891	1.82218
298.107	1.50865
298.323	1.12659
298.54	3.13935
298.756	1.34691
298.973	0.6251
299.189	3.25304
299.406	1.18356
299.622	2.88187
299.838	2.70815
300.055	2.77578
300.271	0.6268
300.487	1.00098
300.704	1.2247
300.92	0.78965
301.136	4.29051
301.353	2.67847
301.569	1.88153
301.785	2.20157
302.001	2.77943
302.218	2.24066
302.434	2.22256
302.65	0.73534
302.866	1.61674
303.083	3.95256
303.299	3.76923
303.515	1.93793
303.731	2.03654
303.947	0.61844
304.163	1.25909
304.379	2.14773
304.595	2.51432
304.812	1.29936
305.028	1.25138
305.244	1.7533
305.46	2.64174
305.676	2.68325
305.892	3.14341
306.108	2.25012
306.324	1.54472
306.54	3.77307
306.756	2.61194
306.972	2.42976
307.187	1.6777
307.403	3.49292
307.619	1.54942
307.835	3.14825
308.051	3.4424
308.267	1.0926
308.483	2.88585
308.699	2.49383
308.914	1.9464
309.13	1.85129
309.346	0.58783
309.562	0.94983
309.778	0.76064
309.993	2.59446
310.209	1.91919
310.425	0.97742
310.641	1.72692
310.856	0.99218
311.072	0.94901
311.288	1.86672
311.503	2.00954
311.719	0.34233
311.935	0.16357
312.15	2.27949
312.366	1.79571
312.581	2.29289
312.797	1.84081
313.013	2.54809
313.228	1.34396
313.444	1.85998
313.659	1.39264
313.875	2.38555
314.09	1.74276
314.306	3.23865
314.521	2.73597
314.737	2.73474
314.952	2.03719
315.168	1.83934
315.383	2.34021
315.599	1.76679
315.814	1.6509
316.029	2.58991
316.245	0.78306
316.46	0.67339
316.675	3.10932
316.891	3.56944
317.106	4.61929
317.321	2.33382
317.537	2.55673
317.752	2.71763
317.967	2.68782
318.183	1.18342
318.398	1.59826
318.613	2.75788
318.828	3.1972
319.043	2.69632
319.259	1.71024
319.474	2.1025
319.689	3.09346
319.904	0.58101
320.119	2.53935
320.334	2.31565
320.549	1.63835
320.765	2.97178
320.98	2.21906
321.195	2.63583
321.41	1.95487
321.625	2.79037
321.84	3.80404
322.055	3.77537
322.27	1.46041
322.485	1.04376
322.7	2.33061
322.915	2.88377
323.13	1.21095
323.345	3.31708
323.56	2.9293
323.775	2.61347
323.989	2.24494
324.204	2.27736
324.419	3.06364
324.634	0.98508
324.849	1.75686
325.064	5.10385
325.279	2.87529
325.493	2.42873
325.708	2.90984
325.923	1.28982
326.138	1.44314
326.352	3.60053
326.567	2.87714
326.782	1.52198
326.997	1.41485
327.211	2.57082
327.426	2.31212
327.641	1.56222
327.855	0.66572
328.07	2.34131
328.285	3.58173
328.499	1.51265
328.714	2.33048
328.928	2.74953
329.143	1.87869
329.358	3.01805
329.572	3.01378
329.787	3.16753
330.001	4.25912
330.216	1.03253
330.43	3.71048
330.645	3.54675
330.859	2.78364
331.074	1.4156
331.288	2.22226
331.503	3.05514
331.717	1.20465
331.931	2.17674
332.146	2.1042
332.36	3.67786
332.575	2.33911
332.789	2.36146
333.003	2.16623
333.218	2.51901
333.432	1.4452
333.646	2.73955
333.86	3.59526
334.075	3.49408
334.289	1.56477
334.503	1.24005
334.717	2.42148
334.932	2.49399
335.146	3.27997
335.36	1.79465
335.574	2.68876
335.788	2.6185
336.003	3.08794
336.217	2.58673
336.431	2.57058
336.645	1.50857
336.859	1.0133
337.073	1.79644
337.287	2.2158
337.501	1.18346
337.715	2.18396
337.929	2.8605
338.143	1.01102
338.357	2.02333
338.571	1.23193
338.785	2.37359
338.999	1.60876
339.213	1.52371
339.427	0.70583
339.641	3.2633
339.855	1.84847
340.069	1.51847
340.283	2.94352
340.497	3.76022
340.711	2.28778
340.924	1.79515
341.138	1.02011
341.352	0.85204
341.566	2.20412
341.78	0.64321
341.993	1.66166
342.207	1.11643
342.421	2.18485
342.635	1.9195
342.848	1.61231
343.062	0.30975
343.276	1.32727
343.49	3.75731
343.703	1.34815
343.917	2.8033
344.131	2.77609
344.344	1.27606
344.558	1.61209
344.771	1.08139
344.985	3.39171
345.199	3.32182
345.412	2.19241
345.626	2.20563
345.839	0.57425
346.053	0.98543
346.266	1.09592
346.48	2.4583
346.693	2.25859
346.907	2.17163
347.12	1.0782
347.334	2.26067
347.547	2.15324
347.76	1.49023
347.974	2.9784
348.187	2.12221
348.401	1.57565
348.614	1.44169
348.827	1.59023
349.041	2.37063
349.254	0.53821
349.467	1.72857
349.681	0.89268
349.894	1.39959
350.107	2.89666
350.32	3.2485
350.534	0.61906
350.747	1.47853
350.96	1.17785
351.173	1.31169
351.386	1.65528
351.6	1.46716
351.813	1.34191
352.026	1.6672
352.239	0.70328
352.452	1.65587
352.665	2.63915
352.878	1.85657
353.092	3.58342
353.305	2.49267
353.518	2.06495
353.731	1.22006
353.944	2.83393
354.157	1.43321
354.37	1.04952
354.583	1.14415
354.796	0.41672
355.009	2.65371
355.222	2.04601
355.435	1.79982
355.647	2.46377
355.86	1.05483
356.073	1.72636
356.286	1.43509
356.499	2.30325
356.712	2.01874
356.925	2.22429
357.138	2.41818
357.35	0.98727
357.563	1.45271
357.776	1.73088
357.989	1.42792
358.201	1.99513
358.414	1.81116
358.627	2.74734
358.84	1.50084
359.052	0.78697
359.265	1.03259
359.478	2.54723
359.69	-0.16923
359.903	2.2605
360.116	2.42896
360.328	0.46493
360.541	2.36862
360.753	0.85449
360.966	1.23398
361.179	1.30438
361.391	1.21987
361.604	0.91811
361.816	1.26003
362.029	1.11056
362.241	0.9362
362.454	1.1711
362.666	0.92258
362.879	1.63725
363.091	1.33188
363.304	0.97496
363.516	1.44743
363.728	0.783
363.941	1.95168
364.153	1.22804
364.366	0.0304
364.578	0.82146
364.79	1.81145
365.003	1.57307
365.215	1.155
365.427	1.91711
365.639	2.32197
365.852	1.65248
366.064	3.36571
366.276	1.3254
366.488	1.9846
366.701	1.304
366.913	1.51517
367.125	1.3831
367.337	0.97122
367.549	1.20949
367.762	1.70729
367.974	1.64336
368.186	1.09308
368.398	2.29716
368.61	2.05535
368.822	2.06537
369.034	1.53888
369.246	2.02457
369.458	3.85561
369.67	0.89819
369.882	3.03914
370.094	0.30706
370.306	2.92485
370.518	1.37584
370.73	1.12588
370.942	1.10095
371.154	1.46466
371.366	1.20294
371.578	1.75865
371.79	1.02543
372.002	2.46708
372.214	3.02903
372.425	1.67601
372.637	2.53682
372.849	1.89171
373.061	0.24286
373.273	1.89595
373.484	1.86569
373.696	2.16771
373.908	0.20264
374.12	2.45531
374.331	1.96888
374.543	1.20179
374.755	0.94404
374.967	1.86535
375.178	2.17992
375.39	1.46342
375.602	1.72433
375.813	0.63814
376.025	0.86634
376.236	1.71732
376.448	1.89205
376.66	1.32734
376.871	1.26116
377.083	2.5831
377.294	2.59159
377.506	1.35289
377.717	2.61027
377.929	1.91071
378.14	1.16387
378.352	1.96598
378.563	1.97534
378.775	2.64849
378.986	1.13326
379.197	1.75897
379.409	1.22313
379.62	2.2325
379.832	2.17024
380.043	1.60533
380.254	1.70511
380.466	1.00082
380.677	3.83794
380.888	3.22263
381.1	3.58323
381.311	3.53875
381.522	1.77477
381.733	3.87392
381.945	1.75256
382.156	1.89327
382.367	1.42283
382.578	3.86179
382.789	3.75545
383.001	1.50878
383.212	2.92302
383.423	2.9797
383.634	2.69262
383.845	2.30869
384.056	1.54115
384.267	1.90061
384.478	1.86193
384.69	1.08477
384.901	2.08301
385.112	2.1482
385.323	2.94181
385.534	2.27042
385.745	2.14449
385.956	2.17777
386.167	1.22531
386.378	2.23588
386.588	1.26663
386.799	1.36596
387.01	0.86456
387.221	2.52251
387.432	1.87063
387.643	3.26478
387.854	1.79831
388.065	1.80256
388.275	1.92246
388.486	1.69292
388.697	1.81536
388.908	1.65112
389.119	2.80455
389.329	3.04072
389.54	2.05229
389.751	2.24837
389.962	2.95649
390.172	2.22886
390.383	1.72063
390.594	1.68184
390.804	1.55303
391.015	1.66736
391.226	2.13493
391.436	2.34131
391.647	2.26296
391.858	2.48612
392.068	0.98537
392.279	1.29274
392.489	2.08743
392.7	2.78691
392.91	1.49925
393.121	1.65179
393.331	2.37579
393.542	2.92494
393.752	2.3211
393.963	2.43187
394.173	2.1995
394.384	2.55866
394.594	2.13506
394.804	1.4394
395.015	2.33029
395.225	2.43469
395.436	1.48348
395.646	2.54475
395.856	1.7096
396.067	1.32338
396.277	2.81686
396.487	2.54849
396.697	2.43297
396.908	2.60717
397.118	2.72326
397.328	2.43369
397.538	2.84347
397.749	1.80332
397.959	2.81992
398.169	2.73228
398.379	1.4591
398.589	2.75236
398.8	2.32812
399.01	2.3181
399.22	2.06023
399.43	3.86764
399.64	2.17478
399.85	2.84064
400.06	2.34865
400.27	1.90999
400.48	2.39676
400.69	3.38585
400.9	2.09597
401.11	1.88062
401.32	2.85247
401.53	2.16046
401.74	3.47193
401.95	2.84025
402.16	1.81775
402.37	2.63837
402.58	2.06027
402.79	2.85457
403	3.10172
403.209	2.10231
403.419	3.15967
403.629	2.04062
403.839	3.01435
404.049	3.04678
404.258	2.15301
404.468	1.96379
404.678	2.64395
404.888	3.09797
405.097	2.02525
405.307	2.44319
405.517	2.90041
405.727	2.65598
405.936	2.31441
406.146	2.74006
406.356	3.42645
406.565	2.54771
406.775	2.24792
406.984	2.275
407.194	3.61777
407.404	2.5267
407.613	2.95082
407.823	3.07663
408.032	3.27687
408.242	3.2605
408.451	2.26211
408.661	2.59172
408.87	3.80139
409.08	2.20838
409.289	2.9619
409.499	2.83042
409.708	2.79167
409.918	1.46316
410.127	2.73635
410.336	3.8324
410.546	3.15184
410.755	2.44135
410.964	2.47721
411.174	2.13142
411.383	2.95718
411.592	3.03639
411.802	2.14698
412.011	3.20099
412.22	2.63301
412.429	3.86238
412.639	3.67567
412.848	3.36996
413.057	3.65685
413.266	3.65911
413.475	2.85469
413.685	3.34141
413.894	3.39184
414.103	3.63111
414.312	3.44095
414.521	2.75754
414.73	2.8458
414.939	4.20885
415.148	3.26238
415.357	3.11944
415.566	2.69393
415.776	2.70483
415.985	2.65046
416.194	3.47165
416.403	4.05629
416.611	2.20343
416.82	2.65314
417.029	3.03195
417.238	2.56641
417.447	2.51718
417.656	2.75155
417.865	2.56172
418.074	2.79486
418.283	2.96428
418.492	3.42633
418.7	3.27046
418.909	3.96568
419.118	3.21712
419.327	3.462
419.536	3.30414
419.744	3.02361
419.953	4.10764
420.162	4.08793
420.371	3.31223
420.579	3.38029
420.788	4.21048
420.997	4.25341
421.205	4.3831
421.414	4.13542
421.623	4.14627
421.831	3.81408
422.04	4.35933
422.249	3.64182
422.457	4.14023
422.666	3.54441
422.874	4.4256
423.083	4.38509
423.291	4.34036
423.5	4.14079
423.708	4.36101
423.917	4.67418
424.125	4.24456
424.334	4.05889
424.542	5.62985
424.751	4.97487
424.959	4.71572
425.167	4.99588
425.376	4.77844
425.584	4.04812
425.793	4.21535
426.001	3.42011
426.209	3.98788
426.418	3.19987
426.626	3.18304
426.834	2.97521
427.042	3.3289
427.251	3.02434
427.459	3.84545
427.667	3.43356
427.875	2.64672
428.084	3.09883
428.292	4.10493
428.5	3.54931
428.708	2.84976
428.916	2.78527
429.124	3.40303
429.333	3.10754
429.541	3.23094
429.749	3.41814
429.957	3.33127
430.165	4.90337
430.373	2.54451
430.581	3.4892
430.789	4.2654
430.997	3.18521
431.205	3.03336
431.413	3.49143
431.621	3.1654
431.829	3.7214
432.037	3.28122
432.245	3.63337
432.453	3.60722
432.661	3.30629
432.869	4.47033
433.076	2.93432
433.284	3.3993
433.492	3.76405
433.7	4.08595
433.908	3.23499
434.116	3.52263
434.323	3.48004
434.531	3.45279
434.739	3.71021
434.947	4.03207
435.154	3.87824
435.362	3.50101
435.57	3.39934
435.778	3.18712
435.985	3.69139
436.193	3.20634
436.401	4.18268
436.608	3.47392
436.816	3.23507
437.023	4.32919
437.231	4.40254
437.439	3.67631
437.646	3.79015
437.854	3.73602
438.061	3.91784
438.269	3.51389
438.476	3.93114
438.684	3.57614
438.891	3.40467
439.099	3.24332
439.306	2.96862
439.514	3.06386
439.721	3.8464
439.929	3.42084
440.136	4.13883
440.343	4.07291
440.551	3.89508
440.758	5.39414
440.965	4.30768
441.173	3.98141
441.38	3.75843
441.587	3.97685
441.795	3.6007
442.002	3.71343
442.209	3.68752
442.416	3.9455
442.624	3.90253
442.831	3.80806
443.038	3.37893
443.245	3.07329
443.452	3.49638
443.66	3.9522
443.867	3.33703
444.074	3.32876
444.281	3.28402
444.488	3.50175
444.695	3.587
444.902	3.41839
445.109	4.14468
445.316	3.75233
445.523	3.86864
445.73	3.78937
445.937	4.44964
446.144	4.71797
446.351	4.89485
446.558	4.18084
446.765	5.34986
446.972	5.18298
447.179	4.59599
447.386	5.34341
447.593	4.192
447.8	5.02188
448.007	3.97883
448.214	3.86063
448.42	3.52758
448.627	4.22268
448.834	3.57012
449.041	3.54014
449.248	3.52419
449.454	4.10446
449.661	4.66735
449.868	3.48124
450.075	3.38121
450.281	2.60722
450.488	3.04473
450.695	3.20352
450.901	3.27569
451.108	3.37619
451.315	4.16219
451.521	3.46129
451.728	4.19154
451.935	3.30026
452.141	3.57603
452.348	3.62987
452.554	3.51432
452.761	3.3994
452.967	4.459
453.174	3.64981
453.38	3.79843
453.587	3.06054
453.793	3.731
454	4.33567
454.206	4.74884
454.413	4.2629
454.619	3.90125
454.825	3.31304
455.032	4.00514
455.238	4.16528
455.445	3.03545
455.651	3.68861
455.857	2.76122
456.064	3.51523
456.27	3.42168
456.476	3.50379
456.682	2.96991
456.889	3.83897
457.095	3.90645
457.301	5.0839
457.507	3.66455
457.714	3.72257
457.92	3.63191
458.126	3.27166
458.332	3.5536
458.538	3.36871
458.744	3.51056
458.951	3.46718
459.157	5.10112
459.363	4.09639
459.569	4.16831
459.775	4.83293
459.981	4.14686
460.187	4.57387
460.393	4.85849
460.599	5.29064
460.805	4.5684
461.011	4.08897
461.217	4.4627
461.423	4.31696
461.629	3.68474
461.835	4.03247
462.041	3.62024
462.247	4.60626
462.453	3.59736
462.658	3.67751
462.864	4.05964
463.07	3.91892
463.276	3.84643
463.482	3.77457
463.688	4.46581
463.893	3.47434
464.099	3.58366
464.305	4.587
464.511	3.51628
464.716	3.68926
464.922	4.08715
465.128	3.30902
465.333	4.66004
465.539	4.1084
465.745	3.65202
465.95	3.82758
466.156	5.2891
466.362	4.52708
466.567	3.65442
466.773	3.4476
466.978	4.66419
467.184	3.25792
467.389	2.70291
467.595	3.99994
467.8	3.35014
468.006	4.42769
468.211	4.38779
468.417	3.19415
468.622	3.99939
468.828	4.15383
469.033	3.92583
469.239	5.21916
469.444	3.50285
469.649	4.32087
469.855	3.75521
470.06	3.80425
470.266	3.27704
470.471	4.12031
470.676	3.99917
470.881	2.88691
471.087	4.50349
471.292	5.29138
471.497	3.09761
471.703	3.66287
471.908	3.48166
472.113	3.85248
472.318	4.24483
472.523	3.25452
472.729	3.98984
472.934	4.08151
473.139	3.4486
473.344	4.06256
473.549	4.38853
473.754	3.40948
473.959	5.26136
474.164	3.35022
474.369	3.64265
474.575	4.20462
474.78	3.79845
474.985	3.44972
475.19	2.75471
475.395	3.29868
475.6	3.71969
475.804	4.52778
476.009	3.71265
476.214	3.72159
476.419	3.52312
476.624	2.88259
476.829	3.23475
477.034	4.03933
477.239	3.25707
477.444	4.07271
477.648	3.91319
477.853	3.99394
478.058	3.55409
478.263	3.25064
478.468	3.024
478.672	3.13725
478.877	4.30997
479.082	4.40466
479.287	3.87511
479.491	3.63308
479.696	3.10062
479.901	3.97253
480.105	3.99279
480.31	3.32171
480.515	3.49886
480.719	4.68158
480.924	3.38593
481.128	3.05232
481.333	3.66627
481.538	3.63678
481.742	3.54534
481.947	4.16485
482.151	4.5218
482.356	4.56755
482.56	5.55503
482.765	6.00829
482.969	7.26873
483.174	8.18956
483.378	9.7413
483.582	9.83468
483.787	10.97987
483.991	11.06011
484.196	11.31581
484.4	11.18218
484.604	11.82622
484.809	10.2882
485.013	9.89529
485.217	8.9807
485.422	8.04308
485.626	7.27051
485.83	6.75218
486.034	6.42231
486.239	6.47629
486.443	6.56239
486.647	6.44332
486.851	7.08843
487.055	7.73901
487.26	7.27075
487.464	7.8144
487.668	7.37585
487.872	7.53531
488.076	7.95619
488.28	7.59493
488.484	7.06156
488.688	7.00446
488.892	6.86848
489.096	6.46779
489.3	5.72416
489.504	5.40516
489.708	5.2945
489.912	5.14997
490.116	5.04645
490.32	4.38609
490.524	4.9188
490.728	5.3273
490.932	5.35448
491.136	5.46926
491.34	6.35358
491.544	6.52061
491.748	6.30734
491.951	6.46189
492.155	6.09323
492.359	6.20891
492.563	5.39103
492.767	5.11054
492.97	4.74013
493.174	4.12669
493.378	3.90299
493.582	3.20791
493.785	3.33687
493.989	3.35261
494.193	3.46333
494.396	3.15248
494.6	3.71716
494.804	3.3247
495.007	2.98177
495.211	3.02683
495.414	3.17464
495.618	3.38145
495.822	3.94455
496.025	3.2481
496.229	3.64709
496.432	2.82806
496.636	3.27053
496.839	3.08092
497.043	3.9717
497.246	3.38386
497.45	2.95044
497.653	3.18673
497.856	3.22861
498.06	2.73202
498.263	3.12162
498.467	2.92426
498.67	3.5737
498.873	3.30083
499.077	2.99434
499.28	3.03177
499.483	3.22958
499.686	3.47657
499.89	3.31916
500.093	3.62224
500.296	2.84112
500.499	3.89651
500.703	3.10424
500.906	3.30861
501.109	4.00172
501.312	3.16032
501.515	3.0804
501.719	3.28663
501.922	3.89301
502.125	3.23285
502.328	3.07502
502.531	2.56549
502.734	3.08874
502.937	2.23777
503.14	3.22405
503.343	2.63603
503.546	2.87028
503.749	2.64883
503.952	3.43572
504.155	2.59679
504.358	3.29429
504.561	3.00119
504.764	2.46451
504.967	2.97087
505.17	2.98385
505.373	3.80345
505.576	3.1414
505.778	3.33595
505.981	2.64307
506.184	3.62173
506.387	2.24145
506.59	4.04427
506.793	3.56313
506.995	3.2146
507.198	2.13824
507.401	3.12674
507.604	3.20389
507.806	2.48984
508.009	2.56883
508.212	3.35377
508.414	2.56491
508.617	2.63201
508.82	2.95078
509.022	3.58425
509.225	2.95609
509.427	2.19313
509.63	3.53823
509.833	2.98924
510.035	2.72547
510.238	2.09919
510.44	3.50922
510.643	1.95319
510.845	3.92231
511.048	3.08984
511.25	2.6133
511.453	2.7738
511.655	3.00203
511.858	2.62765
512.06	3.27594
512.262	2.85849
512.465	3.22091
512.667	2.42485
512.869	2.33209
513.072	2.94577
513.274	3.20587
513.476	2.99932
513.679	3.2376
513.881	2.27033
514.083	3.64807
514.286	2.49953
514.488	2.56907
514.69	2.3806
514.892	2.21622
515.094	3.04698
515.297	2.61481
515.499	2.90511
515.701	2.42767
515.903	3.64598
516.105	3.5862
516.307	3.23358
516.509	1.80506
516.711	2.2044
516.913	2.85536
517.116	2.7218
517.318	2.51875
517.52	3.20526
517.722	2.96678
517.924	2.07302
518.126	2.81797
518.328	2.355
518.529	2.97628
518.731	3.77943
518.933	2.39236
519.135	2.65896
519.337	3.43957
519.539	2.83369
519.741	1.88736
519.943	2.47884
520.145	2.56416
520.346	2.91514
520.548	2.50774
520.75	2.72948
520.952	2.52164
521.153	2.78803
521.355	2.89214
521.557	2.29674
521.759	2.90885
521.96	2.70802
522.162	2.24202
522.364	3.31316
522.565	2.43435
522.767	3.03434
522.969	3.3071
523.17	2.91803
523.372	2.99935
523.573	2.27406
523.775	2.57294
523.977	2.33274
524.178	3.76325
524.38	2.33658
524.581	2.96633
524.783	2.50502
524.984	2.9149
525.186	2.66896
525.387	2.98328
525.589	2.75535
525.79	2.68457
525.991	2.43619
526.193	3.05788
526.394	2.29254
526.596	3.13056
526.797	3.0929
526.998	2.7761
527.2	2.52113
527.401	3.73281
527.602	3.78456
527.803	4.87617
528.005	4.79911
528.206	5.34951
528.407	5.63839
528.608	5.44089
528.81	5.64618
529.011	5.21261
529.212	6.07719
529.413	5.50946
529.614	5.18861
529.815	5.21434
530.017	4.77188
530.218	4.21263
530.419	3.50564
530.62	3.59676
530.821	3.49809
531.022	2.58861
531.223	3.31896
531.424	3.39807
531.625	3.18881
531.826	3.04011
532.027	3.15056
532.228	3.90709
532.429	3.42896
532.63	3.39148
532.831	3.85656
533.032	3.88665
533.233	4.2589
533.433	4.12324
533.634	4.35331
533.835	3.80244
534.036	3.46473
534.237	3.58239
534.438	3.25012
534.638	2.75917
534.839	2.73524
535.04	3.09456
535.241	2.56029
535.441	3.37675
535.642	2.99517
535.843	2.29511
536.043	2.40688
536.244	2.64825
536.445	2.71137
536.645	3.39466
536.846	3.03035
537.047	3.71414
537.247	2.57439
537.448	2.66645
537.648	2.68754
537.849	2.70013
538.049	2.67098
538.25	3.0036
538.451	2.83704
538.651	2.34836
538.851	3.03955
539.052	3.33263
539.252	3.11397
539.453	2.85381
539.653	2.83669
539.854	2.80094
540.054	2.68397
540.254	3.56815
540.455	3.81755
540.655	3.3296
540.855	4.04024
541.056	4.52971
541.256	4.28285
541.456	5.04546
541.657	4.37445
541.857	5.22295
542.057	4.03626
542.257	3.93108
542.458	4.54125
542.658	4.73702
542.858	3.37134
543.058	4.05923
543.258	3.6909
543.458	2.75481
543.659	2.55064
543.859	3.30774
544.059	3.19795
544.259	2.8441
544.459	3.39979
544.659	2.6574
544.859	3.09209
545.059	2.66827
545.259	3.15095
545.459	3.0668
545.659	3.39543
545.859	2.95234
546.059	3.13775
546.259	2.56071
546.459	2.20064
546.659	2.50651
546.859	3.28772
547.059	3.00646
547.258	3.24508
547.458	3.22947
547.658	2.47481
547.858	2.54042
548.058	3.04218
548.258	2.89391
548.457	2.62335
548.657	4.44721
548.857	2.96908
549.057	3.7569
549.256	3.45537
549.456	3.09415
549.656	2.25722
549.855	4.57621
550.055	3.18889
550.255	4.28232
550.454	3.51094
550.654	4.00381
550.853	4.30119
551.053	3.90083
551.253	3.62132
551.452	3.90476
551.652	2.62874
551.851	2.44848
552.051	3.06104
552.25	3.11905
552.45	2.93865
552.649	3.11269
552.849	2.89717
553.048	3.42189
553.248	3.72606
553.447	2.79415
553.646	3.75205
553.846	5.0436
554.045	4.28592
554.244	2.75328
554.444	4.29307
554.643	3.14403
554.842	4.53056
555.042	4.82594
555.241	3.26794
555.44	3.03896
555.64	3.80079
555.839	4.47787
556.038	3.91248
556.237	3.44128
556.436	3.78526
556.636	3.90879
556.835	3.18821
557.034	4.78693
557.233	3.59676
557.432	2.83675
557.631	4.34955
557.83	3.67518
558.029	3.41221
558.228	3.45753
558.427	3.16532
558.626	4.09326
558.825	3.2187
559.024	3.81415
559.223	5.20853
559.422	3.81558
559.621	4.13713
559.82	2.48609
560.019	3.92685
560.218	3.46975
560.417	2.16654
560.616	3.64437
560.815	6.02506
561.014	2.96615
561.212	4.72766
561.411	3.95172
561.61	2.91549
561.809	3.80101
562.008	5.14371
562.206	3.78795
562.405	4.19726
562.604	3.92222
562.803	4.09408
563.001	3.98533
563.2	3.1013
563.399	4.41922
563.597	3.30494
563.796	4.24299
563.995	3.13127
564.193	4.5167
564.392	3.68881
564.59	5.51972
564.789	2.81192
564.988	3.80835
565.186	4.15209
565.385	3.86983
565.583	3.76367
565.782	4.01934
565.98	3.73647
566.179	3.87173
566.377	3.3345
566.575	3.46483
566.774	4.87091
566.972	4.6626
567.171	5.27117
567.369	5.02683
567.567	4.29392
567.766	4.23133
567.964	2.87366
568.162	4.6903
568.361	5.05107
568.559	4.13266
568.757	4.48455
568.956	4.27751
569.154	4.31589
569.352	4.88117
569.55	4.12975
569.748	4.37699
569.947	3.76057
570.145	3.74848
570.343	3.60937
570.541	5.44728
570.739	3.42258
570.937	4.41823
571.135	4.70814
571.333	5.91424
571.532	5.76628
571.73	4.47767
571.928	5.08331
572.126	4.8239
572.324	4.12909
572.522	5.23169
572.72	6.15259
572.918	4.51162
573.116	4.7367
573.313	4.32088
573.511	4.4351
573.709	4.22003
573.907	5.08188
574.105	4.1965
574.303	3.53848
574.501	3.55689
574.699	4.83104
574.896	4.78166
575.094	5.1046
575.292	3.84428
575.49	5.2209
575.688	4.54422
575.885	5.54354
576.083	6.23759
576.281	5.04105
576.478	4.19658
576.676	5.16023
576.874	3.99487
577.071	4.78724
577.269	6.40482
577.467	4.56264
577.664	4.80059
577.862	5.40216
578.059	4.31782
578.257	5.53767
578.455	4.9211
578.652	4.88967
578.85	3.55231
579.047	5.25547
579.245	4.8372
579.442	4.99126
579.64	4.87404
579.837	3.68134
580.034	7.00933
580.232	4.94404
580.429	4.35845
580.627	5.45782
580.824	6.09815
581.021	5.70509
581.219	4.90429
581.416	4.63383
581.613	6.36366
581.811	6.21107
582.008	4.49233
582.205	6.00493
582.402	5.54519
582.6	6.49418
582.797	5.40375
582.994	5.64351
583.191	6.09621
583.388	5.4311
583.586	6.11142
583.783	6.51549
583.98	4.59843
584.177	5.53159
584.374	3.306
584.571	5.12894
584.768	5.59352
584.965	5.28772
585.162	6.26328
585.359	6.85465
585.556	5.55859
585.753	5.90398
585.95	4.53575
586.147	4.75233
586.344	5.89421
586.541	5.39847
586.738	4.70202
586.935	5.59443
587.132	5.0317
587.329	6.55568
587.526	5.53066
587.722	9.84654
587.919	4.4727
588.116	5.98395
588.313	6.94905
588.51	7.35041
588.706	5.58461
588.903	6.12641
589.1	6.55453
589.297	8.24638
589.493	5.62248
589.69	6.34504
589.887	5.32201
590.083	4.89867
590.28	5.15068
590.477	6.62133
590.673	6.20894
590.87	6.85145
591.067	5.31395
591.263	6.09645
591.46	6.32969
591.656	5.61901
591.853	7.38763
592.049	5.35662
592.246	5.35296
592.442	6.89817
592.639	7.01952
592.835	5.06478
593.032	6.15437
593.228	4.75195
593.425	4.94512
593.621	4.72844
593.817	6.16791
594.014	5.33142
594.21	6.23808
594.406	7.05175
594.603	6.22143
594.799	5.56406
594.995	4.18675
595.192	6.90159
595.388	5.69749
595.584	5.68963
595.78	4.96346
595.977	8.46721
596.173	7.43206
596.369	5.8216
596.565	5.07642
596.761	4.89913
596.957	6.89694
597.154	5.41412
597.35	5.58732
597.546	5.43358
597.742	6.34813
597.938	6.22008
598.134	5.28683
598.33	6.12593
598.526	7.19842
598.722	6.35367
598.918	7.79174
599.114	6.74794
599.31	5.20833
599.506	6.32993
599.702	5.53138
599.898	6.61191
600.094	7.10047
600.29	7.00663
600.485	6.92354
600.681	5.63469
600.877	7.92502
601.073	6.40507
601.269	8.42698
601.465	7.79269
601.66	5.63967
601.856	4.72602
602.052	8.58779
602.248	6.12817
602.443	4.69004
602.639	5.30144
602.835	5.75758
603.03	5.58072
603.226	7.1802
603.422	5.62502
603.617	6.22405
603.813	6.04295
604.009	5.86121
604.204	7.44591
604.4	5.22605
604.595	7.1891
604.791	5.55359
604.986	6.59429
605.182	5.71095
605.377	5.99295
605.573	5.98383
605.768	6.31294
605.964	6.83993
606.159	7.06792
606.355	7.43174
606.55	6.03734
606.746	7.41561
606.941	6.63115
607.136	8.47117
607.332	9.23057
607.527	5.52698
607.722	6.85184
607.918	6.45195
608.113	5.86509
608.308	7.44064
608.503	7.20759
608.699	7.03474
608.894	7.08428
609.089	5.95682
609.284	7.05452
609.479	6.16609
609.675	7.28384
609.87	6.37298
610.065	7.13374
610.26	7.31802
610.455	7.30659
610.65	6.69149
610.845	6.82683
611.04	7.48824
611.235	6.4696
611.43	6.48992
611.625	5.59153
611.82	8.28938
612.015	6.16465
612.21	8.6643
612.405	5.56915
612.6	8.59791
612.795	8.4431
612.99	7.80056
613.185	5.77784
613.38	6.24717
613.575	7.11287
613.77	10.12734
613.965	5.48389
614.159	6.29066
614.354	8.29347
614.549	8.15906
614.744	7.58943
614.938	5.83624
615.133	5.7232
615.328	8.45104
615.523	8.59538
615.717	10.24662
615.912	6.63087
616.107	7.19599
616.301	6.80326
616.496	6.34179
616.691	8.99262
616.885	8.20585
617.08	10.3082
617.274	8.45732
617.469	9.59057
617.664	7.94176
617.858	6.6622
618.053	7.65495
618.247	7.15799
618.442	4.91256
618.636	8.90531
618.831	6.7252
619.025	6.7055
619.219	10.61938
619.414	3.85131
619.608	7.08181
619.803	6.40622
619.997	9.92371
620.191	8.75361
620.386	7.78388
620.58	7.43312
620.774	5.40542
620.969	5.65466
621.163	7.48113
621.357	5.93271
621.551	7.1077
621.746	7.58379
621.94	7.13419
622.134	11.44182
622.328	10.00358
622.522	5.95417
622.716	8.54349
622.911	8.61496
623.105	8.66325
623.299	7.67046
623.493	11.26801
623.687	6.49344
623.881	6.76675
624.075	8.52037
624.269	8.8367
624.463	5.42366
624.657	5.68352
624.851	8.28218
625.045	8.45061
625.239	8.5508
625.433	6.70366
625.627	9.68023
625.821	6.97848
626.015	6.55802
626.209	7.52836
626.403	5.66963
626.596	7.99776
626.79	8.38996
626.984	6.20204
627.178	8.15424
627.372	7.89604
627.565	8.31851
627.759	6.08249
627.953	6.35476
628.147	8.01471
628.34	8.45293
628.534	10.13591
628.728	7.35786
628.921	8.67837
629.115	8.64269
629.309	8.88579
629.502	8.93762
629.696	7.76572
629.89	7.70627
630.083	8.00294
630.277	8.33247
630.47	10.10576
630.664	7.16433
630.857	6.0979
631.051	8.78097
631.244	9.42621
631.438	9.01539
631.631	7.11245
631.825	9.5788
632.018	8.26526
632.212	10.23135
632.405	9.48063
632.598	6.98202
632.792	8.03048
632.985	5.15513
633.178	7.54399
633.372	7.74485
633.565	7.61527
633.758	9.51924
633.952	6.77694
634.145	6.86706
634.338	7.40678
634.531	7.46747
634.724	6.91056
634.918	7.97498
635.111	7.53494
635.304	7.26414
635.497	10.9896
635.69	8.3399
635.883	9.55783
636.077	6.73653
636.27	8.65928
636.463	8.58379
636.656	8.35711
636.849	7.83681
637.042	8.94783
637.235	11.01034
637.428	9.3343
637.621	8.96963
637.814	10.2121
638.007	10.45323
638.2	10.52146
638.393	10.83536
638.586	6.68468
638.778	7.5806
638.971	8.26203
639.164	10.54381
639.357	9.06575
639.55	10.72322
639.743	9.69233
639.935	9.31483
640.128	11.76227
640.321	9.86603
640.514	8.93541
640.707	12.25874
640.899	9.65271
641.092	6.15452
641.285	24.61817
641.477	5.39351
641.67	12.60424
641.863	10.65644
642.055	9.08278
642.248	8.62059
642.441	8.7752
642.633	9.61302
642.826	10.43956
643.018	11.00777
643.211	11.93765
643.403	12.05519
643.596	12.41216
643.788	11.36243
643.981	8.14235
644.173	10.46952
644.366	8.34234
644.558	6.13151
644.751	10.61325
644.943	7.20739
645.135	11.76738
645.328	11.95089
645.52	10.25343
645.712	10.76118
645.905	14.50832
646.097	7.52617
646.289	10.00771
646.482	12.95229
646.674	7.95037
646.866	11.00762
647.058	10.29802
647.251	7.75419
647.443	8.19901
647.635	8.90523
647.827	7.73319
648.019	7.32782
648.211	9.04079
648.404	9.2811
648.596	12.3091
648.788	9.96322
648.98	9.89412
649.172	10.09868
649.364	9.85537
649.556	6.70165
649.748	13.77017
649.94	8.37684
650.132	10.73423
650.324	8.19545
650.516	8.03293
650.708	11.21065
650.9	7.40105
651.092	6.86827
651.284	7.2984
651.476	7.77053
651.667	10.541
651.859	11.92328
652.051	9.39093
652.243	9.79174
652.435	8.7335
652.627	10.40235
652.818	10.22803
653.01	6.93965
653.202	8.38788
653.394	9.15377
653.585	10.28799
653.777	17.55761
653.969	12.72176
654.16	12.0143
654.352	8.1858
654.544	9.8039
654.735	11.94197
654.927	9.86794
655.118	12.48701
655.31	11.37406
655.502	11.71944
655.693	9.30586
655.885	10.66662
656.076	12.47644
656.268	10.54782
656.459	12.28052
656.651	12.37293
656.842	8.94132
657.034	8.46687
657.225	11.41173
657.416	12.48503
657.608	12.42081
657.799	9.99907
657.99	11.65263
658.182	8.53165
658.373	8.7585
658.564	11.97455
658.756	10.14893
658.947	9.51224
659.138	8.04227
659.33	8.80612
659.521	8.42124
659.712	9.49668
659.903	9.14257
660.094	8.79269
660.286	7.28471
660.477	12.78763
660.668	10.83483
660.859	9.70888
661.05	7.75105
661.241	10.88066
661.432	10.32548
661.623	9.47545
661.814	9.19639
662.006	7.33001
662.197	10.92331
662.388	12.21838
662.579	10.66555
662.77	12.79048
662.96	15.51573
663.151	12.10875
663.342	7.03083
663.533	11.66482
663.724	9.969
663.915	14.25466
664.106	10.76021
664.297	13.97088
664.488	11.72142
664.678	9.46577
664.869	11.79655
665.06	12.3158
665.251	11.12169
665.442	11.91382
665.632	8.79544
665.823	14.54485
666.014	5.36806
666.204	12.06084
666.395	13.82658
666.586	15.69318
666.776	12.28725
666.967	14.64416
667.158	10.73049
667.348	14.02601
667.539	8.70383
667.729	12.75939
667.92	9.4298
668.111	12.90904
668.301	12.29653
668.492	10.2916
668.682	11.29648
668.873	10.64084
669.063	8.46693
669.253	11.36505
669.444	14.2135
669.634	10.69316
669.825	14.44928
670.015	13.15784
670.206	9.50577
670.396	15.4091
670.586	10.58557
670.777	11.92071
670.967	7.0424
671.157	11.14272
671.347	9.7479
671.538	14.64147
671.728	12.88652
671.918	14.97869
672.108	13.12852
672.299	11.12925
672.489	11.79555
672.679	10.05187
672.869	12.45873
673.059	16.22251
673.249	12.76479
673.44	9.36468
673.63	11.21463
673.82	13.55086
674.01	9.52152
674.2	12.92978
674.39	17.76481
674.58	12.87872
674.77	12.07628
674.96	11.04896
675.15	21.15235
675.34	14.22061
675.53	11.92357
675.72	10.47686
675.91	8.47289
676.099	15.84368
676.289	17.0667
676.479	13.99571
676.669	10.66321
676.859	12.81358
677.049	10.50347
677.238	12.35463
677.428	15.78762
677.618	12.69404
677.808	16.04317
677.997	13.1433
678.187	9.91071
678.377	11.87524
678.567	10.31307
678.756	11.10242
678.946	11.79185
679.136	9.0641
679.325	10.46366
679.515	9.68265
679.704	8.87355
679.894	13.47068
680.084	12.59391
680.273	14.57914
680.463	9.85621
680.652	9.71298
680.842	11.45726
681.031	13.5138
681.221	9.95988
681.41	13.06127
681.6	11.39287
681.789	13.12327
681.978	14.54963
682.168	12.54121
682.357	12.69891
682.547	13.38472
682.736	12.98414
682.925	14.97975
683.115	15.08043
683.304	13.90449
683.493	12.84476
683.682	13.8135
683.872	13.61183
684.061	15.52021
684.25	13.69824
684.439	18.65401
684.629	14.67402
684.818	20.78475
685.007	13.05055
685.196	12.26094
685.385	17.56135
685.574	13.97977
685.763	13.5352
685.952	13.75699
686.142	10.44579
686.331	16.54027
686.52	9.2682
686.709	18.27943
686.898	17.5305
687.087	14.89016
687.276	17.67865
687.465	16.41005
687.654	12.2391
687.842	16.74676
688.031	9.95358
688.22	16.81209
688.409	13.8108
688.598	14.04198
688.787	19.87726
688.976	13.47404
689.165	18.9398
689.353	12.66948
689.542	14.79361
689.731	16.92657
689.92	19.75681
690.108	16.10128
690.297	13.07259
690.486	13.98846
690.675	15.97459
690.863	18.55469
691.052	18.28084
691.241	14.70404
691.429	14.94365
691.618	17.88379
691.806	11.02019
691.995	13.99998
692.184	14.10982
692.372	13.08417
692.561	14.1989
692.749	15.50789
692.938	23.95894
693.126	16.39333
693.315	13.91617
693.503	16.32126
693.692	17.33371
693.88	16.78349
694.068	20.73897
694.257	15.1093
694.445	16.93452
694.634	9.50768
694.822	17.27227
695.01	17.91874
695.199	21.02347
695.387	19.15087
695.575	18.63727
695.763	14.22074
695.952	14.01123
696.14	10.31301
696.328	12.91965
696.516	15.44062
696.705	15.7786
696.893	15.20222
697.081	10.0151
697.269	17.15241
697.457	11.86727
697.645	10.99301
697.833	16.59648
698.021	12.04534
698.21	12.85958
698.398	13.42126
698.586	11.06064
698.774	10.6198
698.962	13.64323
699.15	11.01609
699.338	9.81219
699.526	14.92691
699.714	11.88036
699.901	11.76646
700.089	15.65292
700.277	11.91369
700.465	13.48637
700.653	15.64159
700.841	15.11315
701.029	12.65167
701.217	18.32258
701.404	15.11648
701.592	19.07327
701.78	22.16924
701.968	14.06617
702.155	14.28804
702.343	11.51856
702.531	19.252
702.718	16.6488
702.906	13.64636
703.094	13.39856
703.281	19.95589
703.469	14.41806
703.657	19.66315
703.844	26.78429
704.032	21.62527
704.219	14.75231
704.407	17.95299
704.595	21.31428
704.782	17.30756
704.97	15.96032
705.157	15.23671
705.345	23.25343
705.532	28.75266
705.719	19.73184
705.907	22.8293
706.094	19.57443
706.282	25.68322
706.469	19.62776
706.656	20.43249
706.844	18.82791
707.031	24.60828
707.218	22.08069
707.406	26.26536
707.593	23.54063
707.78	23.8419
707.968	21.18788
708.155	18.90604
708.342	23.42456
708.529	24.17407
708.716	22.93769
708.904	27.08079
709.091	23.96093
709.278	17.98732
709.465	28.13978
709.652	27.15357
709.839	25.63243
710.026	21.61681
710.213	15.81488
710.4	21.76918
710.587	23.18666
710.774	24.00281
710.961	25.25903
711.148	21.41795
711.335	24.45955
711.522	20.76838
711.709	23.35765
711.896	28.48329
712.083	24.44161
712.27	17.86637
712.457	22.76829
712.644	16.33412
712.831	28.42294
713.017	22.13752
713.204	24.07014
713.391	18.56245
713.578	24.52641
713.765	26.27862
713.951	22.2625
714.138	32.29274
714.325	21.63575
714.512	19.71767
714.698	17.11828
714.885	24.9669
715.072	19.96658
715.258	19.75494
715.445	16.99717
715.631	23.68147
715.818	10.27792
716.005	16.9827
716.191	21.32941
716.378	18.18911
716.564	21.35794
716.751	15.15617
716.937	16.98808
717.124	22.41939
717.31	15.16751
717.497	26.46446
717.683	15.79316
717.869	27.38943
718.056	17.23196
718.242	21.22965
718.429	18.59909
718.615	15.18988
718.801	18.88867
718.988	23.69151
719.174	21.06403
719.36	17.90422
719.547	24.76689
719.733	21.03673
719.919	19.0427
720.105	21.42029
720.291	19.11627
720.478	21.08103
720.664	18.89277
720.85	17.71326
721.036	31.5837
721.222	27.94028
721.408	19.38307
721.595	27.74087
721.781	26.6584
721.967	24.54285
722.153	27.02759
722.339	22.77642
722.525	22.0446
722.711	16.0836
722.897	15.53314
723.083	18.69746
723.269	24.95441
723.455	32.88376
723.641	38.911
723.827	21.31114
724.012	22.94067
724.198	20.74266
724.384	26.80541
724.57	21.7037
724.756	15.18605
724.942	12.14999
725.127	26.2762
725.313	26.29579
725.499	26.41875
725.685	30.26647
725.87	22.65802
726.056	16.60182
726.242	25.9437
726.428	14.03652
726.613	24.95683
726.799	18.79686
726.985	15.88155
727.17	13.97713
727.356	30.98603
727.541	17.46789
727.727	20.6049
727.913	24.83704
728.098	19.04544
728.284	24.24098
728.469	15.83609
728.655	17.66359
728.84	25.69047
729.026	24.59854
729.211	25.03502
729.397	22.54244
729.582	25.36755
729.767	21.05735
729.953	22.88153
730.138	27.29825
730.323	11.47192
730.509	16.84356
730.694	28.76662
730.879	23.97204
731.065	22.66676
731.25	32.39248
731.435	24.62586
731.621	14.71983
731.806	18.18287
731.991	22.62945
732.176	16.11045
732.361	28.63857
732.547	22.51128
732.732	14.05535
732.917	32.15094
733.102	16.02407
733.287	18.19807
733.472	20.71955
733.657	20.6308
733.842	15.0709
734.027	19.03195
734.212	20.38599
734.397	18.00656
734.582	21.22673
734.767	25.97716
734.952	28.2375
735.137	10.24712
735.322	28.72721
735.507	23.42085
735.692	22.72569
735.877	32.31397
736.062	31.2109
736.247	23.93669
736.431	22.45416
736.616	27.64679
736.801	24.21978
736.986	22.55923
737.171	17.33375
737.355	16.13068
737.54	28.39943
737.725	22.52034
737.909	37.51222
738.094	19.8288
738.279	25.54069
738.463	20.77596
738.648	25.23819
738.833	24.59821
739.017	33.98669
739.202	21.06837
739.386	21.29232
739.571	18.26392
739.756	27.51056
739.94	22.95379
740.125	25.53044
740.309	19.26999
740.494	27.02336
740.678	23.98568
740.863	25.07946
741.047	22.93498
741.231	30.31496
741.416	19.31054
741.6	31.99004
741.785	19.5471
741.969	28.10318
742.153	30.90713
742.338	12.18897
742.522	22.69764
742.706	27.41808
742.89	16.50381
743.075	22.78239
743.259	30.75556
743.443	29.28705
743.627	30.27195
743.812	35.81563
743.996	14.5564
744.18	22.15008
744.364	20.64261
744.548	38.20526
744.732	22.05109
744.916	28.45104
745.1	27.4043
745.285	22.11745
745.469	27.67967
745.653	33.55352
745.837	17.74417
746.021	37.07597
746.205	30.82498
746.389	24.58372
746.573	22.64631
746.757	33.10942
746.94	20.48273
747.124	30.55515
747.308	16.8559
747.492	30.80665
747.676	19.72265
747.86	39.28429
748.044	21.46677
748.227	15.15866
748.411	49.00885
748.595	25.43989
748.779	19.36156
748.963	26.99458
749.146	24.32315
749.33	19.81476
749.514	18.97377
749.697	31.5474
749.881	19.96599
750.065	18.32907
750.248	25.17732
750.432	39.72373
750.616	24.53093
750.799	17.81434
750.983	40.94545
751.166	40.86006
751.35	15.10243
751.533	28.734
751.717	35.01302
751.9	33.69474
752.084	22.73404
752.267	19.4763
752.451	19.64101
752.634	25.57742
752.818	27.73227
753.001	30.80883
753.184	32.46814
753.368	26.68262
753.551	5.31228
753.734	20.03046
753.918	41.65177
754.101	20.44376
754.284	29.39793
754.467	22.65245
754.651	20.19338
754.834	19.08739
755.017	31.74828
755.2	32.11894
755.384	17.67451
755.567	29.66994
755.75	30.77823
755.933	22.08895
756.116	30.36066
756.299	21.27979
756.482	19.47526
756.665	29.16026
756.848	24.73254
757.032	27.69239
757.215	16.45801
757.398	18.3602
757.581	19.73103
757.764	44.14844
757.947	25.46259
758.129	30.71155
758.312	9.07028
758.495	24.62839
758.678	23.58341
758.861	23.34548
759.044	38.40247
759.227	18.75481
759.41	19.70756
759.592	30.16594
759.775	23.46888
759.958	30.91832
760.141	18.25448
760.324	40.79167
760.506	35.04986
760.689	29.69303
760.872	40.31278
761.054	28.59083
761.237	23.74733
761.42	26.6911
761.602	30.54012
761.785	27.6017
761.968	33.11391
762.15	37.83278
762.333	24.67821
762.515	28.31055
762.698	23.04215
762.88	30.63312
763.063	27.98803
763.245	32.90152
763.428	19.53986
763.61	21.84811
763.793	17.86857
763.975	27.05722
764.158	23.19906
764.34	20.53427
764.522	18.56936
764.705	22.1478
764.887	34.77528
765.069	15.30004
765.252	28.13536
765.434	29.56622
765.616	25.75019
765.799	19.74988
765.981	29.55633
766.163	19.7831
766.345	33.76805
766.528	20.99204
766.71	11.00078
766.892	26.74451
767.074	35.35214
767.256	23.05115
767.438	38.86698
767.62	26.60367
767.802	43.37565
767.985	30.80031
768.167	38.62719
768.349	21.81128
768.531	29.47786
768.713	27.96007
768.895	33.02465
769.077	28.94013
769.259	47.28632
769.441	62.62014
769.623	32.46661
769.804	38.56
769.986	35.41881
770.168	44.33475
770.35	53.9501
770.532	41.55193
770.714	45.01258
770.896	45.07701
771.077	17.04144
771.259	48.11359
771.441	40.37992
771.623	48.59545
771.804	61.81025
771.986	22.4152
772.168	32.56185
772.35	46.51312
772.531	64.11887
772.713	39.52461
772.894	50.927
773.076	36.91006
773.258	34.00564
773.439	53.58457
773.621	57.72003
773.802	25.08638
773.984	32.38802
774.166	41.37193
774.347	54.12916
774.529	49.38413
774.71	18.97613
774.891	35.50337
775.073	32.87723
775.254	50.73408
775.436	31.86394
775.617	63.59422
775.799	32.19832
775.98	51.81377
776.161	58.47894
776.343	59.02789
776.524	37.90187
776.705	36.56415
776.886	20.51147
777.068	43.14003
777.249	89.62303
777.43	62.86547
777.611	25.43842
777.793	33.98363
777.974	60.34139
778.155	33.25325
778.336	25.10497
778.517	69.51137
778.698	29.18334
778.879	17.9281
779.061	10.71017
779.242	44.70981
779.423	43.38462
779.604	33.79947
779.785	35.82843
779.966	42.53158
780.147	51.19445
780.328	51.55195
780.509	71.84617
780.69	51.12893
780.871	31.76594
781.051	23.3785
781.232	40.39797
781.413	40.04535
781.594	34.78574
781.775	33.67523
781.956	30.93262
782.137	17.37123
782.317	33.48752
782.498	39.63234
782.679	39.18306
782.86	41.7595
783.04	30.77758
783.221	42.38819
783.402	64.13508
783.583	40.55519
783.763	50.42057
783.944	33.02797
784.124	23.85473
784.305	62.18287
784.486	48.14436
784.666	38.68142
784.847	23.00102
785.027	84.13672
785.208	32.1093
785.388	31.20743
785.569	30.73164
785.749	37.16781
785.93	33.80412
786.11	22.58639
786.291	45.63264
786.471	41.28356
786.652	48.80818
786.832	38.13832
787.012	41.87667
787.193	25.19081
787.373	40.03868
787.553	33.32323
787.734	41.43979
787.914	33.60465
788.094	52.64858
788.275	42.17917
788.455	35.33537
788.635	25.37376
788.815	42.42605
788.995	27.04167
789.176	22.35623
789.356	28.72769
789.536	36.33329
789.716	44.48963
789.896	30.42088
790.076	31.57563
790.256	42.698
790.436	15.64047
790.616	27.61376
790.796	41.5433
790.976	33.76792
791.156	29.11949
791.336	45.50463
791.516	41.46688
791.696	35.46282
791.876	22.73983
792.056	40.29483
792.236	51.38392
792.416	48.77487
792.596	42.40888
792.776	43.5774
792.956	47.80818
793.135	61.10663
793.315	26.8769
793.495	52.38439
793.675	46.84955
793.854	49.20577
794.034	51.06141
794.214	26.16947
794.394	48.89129
794.573	54.43502
794.753	40.70083
794.933	28.29581
795.112	41.60643
795.292	51.29124
795.472	61.70552
795.651	24.07456
795.831	37.59136
796.01	35.08881
796.19	35.08234
796.369	37.24221
796.549	45.12881
796.728	35.54363
796.908	22.81925
797.087	26.00075
797.267	34.86968
797.446	26.29551
797.626	44.82858
797.805	43.85528
797.984	29.67652
798.164	47.8256
798.343	28.87183
798.522	40.5245
798.702	40.59118
798.881	25.2949
799.06	35.4851
799.239	17.83828
799.419	27.90663
799.598	61.37545
799.777	44.92509
799.956	51.94825
800.136	33.63265
800.315	28.07735
800.494	42.39154
800.673	50.66882
800.852	48.35946
801.031	53.90187
801.21	45.05443
801.389	31.63254
801.568	40.71935
801.747	63.25535
801.926	39.43979
802.105	57.64813
802.284	34.00979
802.463	59.61024
802.642	41.47562
802.821	40.40481
803	57.85446
803.179	50.31804
803.358	52.49736
803.537	30.61025
803.716	39.89243
803.895	32.02228
804.073	37.2691
804.252	29.72427
804.431	44.401
804.61	38.19213
804.789	49.9862
804.967	34.85361
805.146	32.60798
805.325	67.88135
805.503	43.86702
805.682	23.9674
805.861	84.11256
806.039	58.22592
806.218	32.31291
806.397	42.28767
806.575	39.99067
806.754	43.82248
806.932	27.9106
807.111	53.47072
807.289	49.37667
807.468	39.68575
807.646	52.31788
807.825	44.29774
808.003	41.85644
808.182	54.35581
808.36	40.37518
808.539	29.23527
808.717	60.88326
808.895	31.18511
809.074	43.07794
809.252	38.48032
809.43	47.77145
809.609	57.18738
809.787	60.97366
809.965	37.25817
810.144	41.21997
810.322	37.91231
810.5	46.8784
810.678	37.50846
810.856	69.50122
811.035	55.63878
811.213	49.34796
811.391	60.20911
811.569	42.67848
811.747	93.20253
811.925	55.35846
812.103	30.85719
812.281	39.49618
812.459	65.68404
812.637	64.53044
812.816	51.17413
812.994	73.07903
813.171	58.77064
813.349	49.29259
813.527	55.94099
813.705	59.62621
813.883	79.69634
814.061	53.86858
814.239	67.79966
814.417	75.57529
814.595	50.22484
814.773	48.20324
814.95	43.80549
815.128	49.8652
815.306	44.38507
815.484	39.49211
815.662	31.71049
815.839	26.84774
816.017	35.68833
816.195	57.70367
816.372	37.16541
816.55	54.60901
816.728	67.61066
816.905	42.11712
817.083	67.53754
817.261	41.82577
817.438	86.74655
817.616	67.86466
817.793	38.1064
817.971	54.88504
818.148	53.61094
818.326	60.85717
818.503	46.88946
818.681	67.46757
818.858	40.01374
819.036	43.78709
819.213	45.06935
819.391	33.32359
819.568	34.60353
819.745	29.32031
819.923	52.01678
820.1	39.59356
820.277	31.60624
820.455	37.42349
820.632	40.56325
820.809	43.41541
820.986	27.70863
821.164	22.45718
821.341	20.69276
821.518	31.40517
821.695	22.45588
821.872	20.0204
822.05	17.33843
822.227	13.59713
822.404	14.67002
822.581	17.24356
822.758	14.41759
822.935	14.43625
823.112	15.67999
823.289	13.43334
823.466	16.43093
823.643	15.29861
823.82	18.57991
823.997	16.18123
824.174	18.78002
824.351	25.90759
824.528	24.24573
824.705	21.37716
824.882	23.74805
825.059	31.58285
825.236	22.19827
825.412	23.76985
825.589	28.02214
825.766	41.68715
825.943	25.5213
826.12	31.13823
826.296	21.61916
826.473	27.87926
826.65	27.07571
826.827	33.23611
827.003	21.53535
827.18	24.87069
827.357	27.77602
827.533	23.51325
827.71	13.32547
827.887	20.30666
828.063	23.35136
828.24	19.57672
828.416	26.56127
828.593	22.16691
828.769	31.61993
828.946	32.74581
829.122	33.18906
829.299	33.16747
829.475	21.10702
829.652	32.22613
829.828	52.5346
830.005	35.08144
830.181	46.70128
830.357	34.19389
830.534	51.18443
830.71	37.71472
830.886	48.02468
831.063	46.27085
831.239	61.20901
831.415	29.11359
831.592	61.15607
831.768	37.83257
831.944	34.49974
832.12	66.23141
832.296	60.60525
832.473	52.03645
832.649	36.21058
832.825	53.09002
833.001	31.31259
833.177	45.52446
833.353	41.2937
833.529	25.22055
833.705	37.43293
833.881	24.20572
834.058	23.8626
834.234	26.01213
834.41	25.69482
834.586	19.60317
834.761	23.91596
834.937	27.09734
835.113	27.94446
835.289	23.69973
835.465	29.39544
835.641	25.17785
835.817	28.3372
835.993	47.83043
836.169	25.17011
836.344	38.92128
836.52	43.56887
836.696	41.46873
836.872	32.48412
837.048	91.52074
837.223	36.08501
837.399	68.04981
837.575	52.38999
837.75	51.53134
837.926	70.19327
838.102	106.95544
838.277	81.94645
838.453	116.02977
838.628	114.50086
838.804	46.644
838.98	100.65129
839.155	52.67286
839.331	71.03784
839.506	50.27465
839.682	48.99847
839.857	71.58334
840.033	83.72909
840.208	38.45155
840.384	22.34041
840.559	39.21558
840.734	61.15909
840.91	82.32999
841.085	49.88662
841.26	49.7179
841.436	44.18249
841.611	43.0264
841.786	66.4846
841.962	84.29018
842.137	52.84604
842.312	34.85674
842.487	48.0239
842.663	39.47842
842.838	48.34849
843.013	155.00994
843.188	72.75717
843.363	80.13565
843.538	131.89642
843.714	132.00423
843.889	133.83171
844.064	145.56036
844.239	114.59217
844.414	137.22897
844.589	91.27405
844.764	165.82269
844.939	162.00736
845.114	180.1013
845.289	167.67713
845.464	232.58528
845.639	158.15911
845.814	78.82655
845.989	91.26901
846.163	119.75764
846.338	119.71548
846.513	163.48403
846.688	111.61592
846.863	112.32663
847.038	97.01165
847.212	114.19462
847.387	128.42453
847.562	124.82312
847.737	159.91826
847.911	57.95165
848.086	69.23801
848.261	247.33092
848.435	107.54024
848.61	157.41921
848.785	78.96717
848.959	163.8154
849.134	223.14847
849.308	229.77701
849.483	120.08276
849.658	197.84014
849.832	108.17496
850.007	93.10124
850.181	257.53617
850.356	97.2309
850.53	242.65289
850.705	83.20881
850.879	46.50239
851.053	113.07125
851.228	100.84247
851.402	133.52571
851.577	179.20792
851.751	191.01606
851.925	126.55204
852.099	57.55381
852.274	87.569
852.448	115.76292
852.622	134.50804
852.797	122.87118
852.971	118.15101
853.145	124.63012
853.319	348.59919
853.493	179.11956
853.668	99.16483
853.842	229.30006
854.016	183.39417
854.19	218.45985
854.364	133.72246
854.538	132.11622
854.712	191.32189
854.886	118.75074
855.06	105.96853
855.234	42.61595
855.408	202.06083
855.582	167.65478
855.756	163.11655
855.93	213.11538
856.104	148.64277
856.278	172.71862
856.452	124.90303
856.626	169.79819
856.8	274.45591
856.973	156.93367
857.147	144.73542
857.321	150.43304
857.495	181.48022
857.669	121.72499
857.842	105.0612
858.016	185.26978
858.19	98.47553
858.364	293.95839
858.537	111.72494
858.711	134.49927
858.885	115.15104
859.058	100.91113
859.232	53.29635
859.405	67.84467
859.579	178.55166
859.753	147.41498
859.926	96.91934
860.1	69.60055
860.273	128.87901
860.447	213.58373
860.62	111.86562
860.794	255.32853
860.967	141.83638
861.141	183.50939
861.314	264.08018
861.487	164.30224
861.661	207.80735
861.834	203.25305
862.008	183.7979
862.181	133.00742
862.354	139.42137
862.528	150.32069
862.701	108.80747
862.874	70.451
863.047	113.40037
863.221	102.25114
863.394	59.63187
863.567	213.08764
863.74	47.90692
863.913	174.28522
864.087	152.64125
864.26	180.95158
864.433	130.04106
864.606	232.36215
864.779	137.31061
864.952	68.44193
865.125	110.02147
865.298	126.91995
865.471	125.73769
865.644	264.45675
865.817	217.2372
865.99	177.9729
866.163	192.40653
866.336	114.71435
866.509	131.20578
866.682	113.77756
866.855	194.26287
867.028	89.37753
867.2	164.09656
867.373	57.33638
867.546	142.64354
867.719	267.65022
867.892	167.03533
868.064	92.18014
868.237	158.93505
868.41	137.34369
868.583	74.28514
868.755	83.85425
868.928	127.59151
869.101	278.81469
869.273	191.09228
869.446	159.74123
869.619	194.4343
869.791	131.19214
869.964	188.84628
870.136	184.09223
870.309	142.24355
870.481	145.69509
870.654	69.60503
870.826	140.64138
870.999	115.74286
871.171	180.97094
871.344	110.39737
871.516	133.79454
871.689	93.32536
871.861	138.57269
872.033	99.04441
872.206	120.28952
872.378	181.86452
872.55	121.08183
872.723	76.61196
872.895	123.93248
873.067	191.78191
873.24	207.47606
873.412	110.2129
873.584	118.31947
873.756	120.03717
873.928	160.86302
874.101	148.35351
874.273	163.79634
874.445	56.60949
874.617	82.90017
874.789	143.78895
874.961	116.05561
875.133	164.9069
875.305	135.22021
875.477	87.6656
875.649	74.47054
875.821	93.44142
875.993	235.36351
876.165	90.47485
876.337	145.90674
876.509	117.47247
876.681	149.56113
876.853	146.23391
877.025	145.95368
877.197	89.58239
877.369	87.73791
877.541	176.50222
877.712	49.64314
877.884	87.94083
878.056	166.46611
878.228	87.18254
878.4	158.21949
878.571	86.58159
878.743	63.04741
878.915	147.4001
879.086	81.84128
879.258	106.70972
879.43	95.43845
879.601	86.09122
879.773	89.55657
879.945	23.26845
880.116	37.97578
880.288	25.64811
880.459	27.73929
880.631	20.07169
880.802	25.30731
880.974	23.10477
881.145	16.41521
881.317	22.05328
881.488	16.36861
881.66	18.57024
881.831	16.24775
882.002	24.05943
882.174	16.95566
882.345	21.91793
882.517	11.86463
882.688	25.62487
882.859	20.97704
883.03	34.37709
883.202	31.81971
883.373	27.49967
883.544	27.62326
883.715	48.53211
883.887	39.32602
884.058	32.64572
884.229	48.82111
884.4	49.37001
884.571	58.77902
884.742	49.45435
884.914	54.53183
885.085	80.16691
885.256	98.24813
885.427	81.78901
885.598	94.23236
885.769	103.47588
885.94	90.26651
886.111	67.20401
886.282	115.61778
886.453	92.13557
886.624	62.54319
886.795	111.58674
886.966	96.57062
887.136	124.55981
887.307	83.6852
887.478	153.54441
887.649	139.89246
887.82	142.3218
887.991	109.33868
888.161	154.51326
888.332	150.48963
888.503	75.1357
888.674	204.21329
888.844	217.11604
889.015	167.9743
889.186	78.82486
889.356	204.4678
889.527	76.62855
889.698	350.3221
889.868	115.37558
890.039	147.83237
890.209	130.72322
890.38	175.45279
890.551	150.69945
890.721	213.21398
890.892	174.92908
891.062	117.15579
891.233	160.3703
891.403	111.65783
891.574	93.94774
891.744	121.77931
891.914	162.37725
892.085	137.79369
892.255	49.31766
892.425	205.46383
892.596	164.80082
892.766	156.17932
892.936	210.52697
893.107	176.82936
893.277	98.57042
893.447	80.81496
893.618	51.44003
893.788	116.38995
893.958	57.54779
894.128	62.1704
894.298	72.15727
894.468	100.92654
894.639	44.75678
894.809	31.17862
894.979	49.94468
895.149	58.99245
895.319	45.68
895.489	66.78033
895.659	83.44882
895.829	56.39991
895.999	57.1022
896.169	42.70381
896.339	54.87893
896.509	112.77193
896.679	127.17877
896.849	116.60008
897.019	174.14724
897.189	127.84509
897.358	117.07487
897.528	171.73903
897.698	58.99817
897.868	157.42418
898.038	280.26312
898.208	251.45002
898.377	79.94591
898.547	263.39234
898.717	414.95008
898.886	160.41832
899.056	251.10705
899.226	395.48634
899.395	236.14838
899.565	293.90279
899.735	200.81007
899.904	329.79083
900.074	276.26845
900.244	131.83025
900.413	494.96631
900.583	114.39901
900.752	191.09767
900.922	316.35705
901.091	34.09053
901.261	269.14921
901.43	253.78142
901.599	246.74033
901.769	549.42183
901.938	293.38281
902.108	295.62212
902.277	363.17873
902.446	104.61355
902.616	109.65564
902.785	174.75925
902.954	283.47148
903.124	189.57178
903.293	151.20573
903.462	81.74935
903.631	117.02059
903.801	87.57365
903.97	45.23821
904.139	79.37975
904.308	58.88555
904.477	47.19324
904.646	26.95908
904.816	44.52908
904.985	64.27533
905.154	99.99334
