Data from WindowProjectSample3_Transmission__49__00049.txt Node

Date: Sun May 04 11:19:46 EDT 2025
User: jessi
Spectrometer: SR400872
Trigger mode: 0
Integration Time (sec): 5.000050E-1
Scans to average: 20
Electric dark correction enabled: true
Nonlinearity correction enabled: true
Boxcar width: 0
XAxis mode: Wavelengths
Number of Pixels in Spectrum: 3648
>>>>>Begin Spectral Data<<<<<
184.909	-1273.73539
185.132	-1454.803
185.355	-1155.80229
185.578	-1067.61351
185.801	967.21629
186.024	-922.94942
186.247	-5289.15638
186.47	-1995.59925
186.693	-140.34005
186.916	-364.50017
187.139	-788.67116
187.362	-2986.69153
187.585	-679.06759
187.808	-4828.23796
188.031	6226.0766
188.254	-2354.89876
188.476	-9246.49629
188.699	-1024.55379
188.922	615.78542
189.145	-1209.62037
189.368	3429.02246
189.591	-2153.56534
189.813	-1492.72896
190.036	-885.00594
190.259	-1202.78639
190.482	-1619.30617
190.705	-2370.78787
190.927	-701.11513
191.15	-1485.14084
191.373	-1129.05031
191.595	-1276.68335
191.818	-1337.54009
192.041	-686.69622
192.263	-1149.9666
192.486	-539.21593
192.709	-1528.35511
192.931	-3126.04819
193.154	-1185.25411
193.377	-1631.34295
193.599	-3363.18687
193.822	-3476.77751
194.044	-3205.71705
194.267	-1768.09233
194.489	-73.77202
194.712	-968.26282
194.934	-1725.93252
195.157	-776.19189
195.379	-1207.34222
195.602	-854.29873
195.824	-1313.49767
196.047	-2096.74591
196.269	-1084.29868
196.492	-1449.97219
196.714	-1218.01259
196.936	-1262.28096
197.159	-872.26761
197.381	-789.07242
197.604	-471.30261
197.826	-2135.2341
198.048	-1053.6679
198.271	-1638.67102
198.493	-1179.74841
198.715	-940.89744
198.938	-3062.26647
199.16	-4055.70835
199.382	-1259.40269
199.604	-1182.2495
199.827	-1875.03937
200.049	-1596.11505
200.271	-1231.22736
200.493	-1407.21841
200.715	-1004.50238
200.938	-848.20716
201.16	-952.42844
201.382	-1034.72235
201.604	-1193.47525
201.826	-755.64453
202.048	-834.43433
202.27	-1403.01695
202.492	-1443.11403
202.715	-1957.29919
202.937	-2112.68242
203.159	-1373.30328
203.381	-1583.19275
203.603	-987.21874
203.825	-5354.57679
204.047	-1610.0642
204.269	-1344.80663
204.491	-1294.27307
204.713	-1519.5088
204.935	-1347.72056
205.156	-2681.22199
205.378	-2726.57037
205.6	-1520.71643
205.822	-1091.81278
206.044	1283.90998
206.266	-1319.38863
206.488	-936.34568
206.71	-1753.7521
206.932	-1740.78838
207.153	-1090.30322
207.375	-1370.26018
207.597	-1090.27589
207.819	-1123.10068
208.041	-1184.44437
208.262	-1557.96327
208.484	-854.96859
208.706	-2093.34481
208.927	-810.51213
209.149	-1363.90622
209.371	-1239.03295
209.593	-1544.2292
209.814	-572.71033
210.036	-847.98203
210.258	-765.88419
210.479	-1004.80349
210.701	-1838.78692
210.922	-1240.10309
211.144	-1029.19739
211.366	-1112.98285
211.587	1346.06365
211.809	-1112.80388
212.03	-6679.37869
212.252	1003.69213
212.473	-933.16036
212.695	-19551.52899
212.916	-3597.70181
213.138	-1465.71763
213.359	-989.14181
213.581	-1450.95509
213.802	-843.1049
214.024	-1402.16282
214.245	-11807.35001
214.466	-999.55139
214.688	-1433.41134
214.909	-987.50318
215.131	-2774.99542
215.352	-3725.73204
215.573	-1095.75928
215.795	-1876.26376
216.016	-1461.02816
216.237	-3119.73137
216.459	-1470.92436
216.68	-1068.69824
216.901	-1506.04125
217.122	12240.96752
217.344	-938.67438
217.565	-1320.22309
217.786	-1300.47257
218.007	-984.097
218.228	-1222.87168
218.45	-1145.75887
218.671	-1103.58471
218.892	-992.41463
219.113	-1568.01933
219.334	-115.71639
219.555	-1557.48445
219.776	-1511.85537
219.997	-1254.21529
220.219	17143.85943
220.44	-1222.55141
220.661	-3151.84533
220.882	-946.31912
221.103	1651.25346
221.324	-2791.87603
221.545	-1146.35737
221.766	-1290.32473
221.987	-1884.10287
222.208	-2032.41852
222.429	-745.63802
222.65	-1098.26416
222.87	-1789.57609
223.091	-3338.22654
223.312	3123.05714
223.533	-1120.33373
223.754	-1570.26779
223.975	-2209.65768
224.196	8613.13922
224.417	-8065.4938
224.637	3760.99049
224.858	191.83306
225.079	-1950.63684
225.3	26840.17994
225.521	-1029.40058
225.741	-5532.0275
225.962	7279.40659
226.183	383.84614
226.404	-3741.17022
226.624	2510.1259
226.845	-84970.1723
227.066	-640385.53006
227.286	907.88443
227.507	310.5011
227.728	281.57677
227.948	686.99096
228.169	168.61429
228.389	177.45002
228.61	94.97246
228.831	132.8724
229.051	13.22618
229.272	75.0008
229.492	103.72998
229.713	30.05138
229.933	71.14753
230.154	60.70443
230.374	101.07654
230.595	74.1084
230.815	45.26264
231.036	76.73421
231.256	-10.57955
231.477	135.6628
231.697	78.83574
231.917	82.54983
232.138	113.38488
232.358	238.82736
232.579	191.78464
232.799	32.51256
233.019	193.47667
233.24	239.12285
233.46	89.08818
233.68	125.80584
233.901	83.84886
234.121	56.71285
234.341	19.34306
234.561	-5.55849
234.782	45.77685
235.002	130.47985
235.222	-1.24293
235.442	116.4672
235.662	54.53775
235.883	115.39399
236.103	95.8562
236.323	69.71204
236.543	57.02777
236.763	75.65594
236.983	80.8604
237.203	77.26896
237.423	110.50199
237.643	168.30594
237.864	147.42682
238.084	39.74377
238.304	46.91121
238.524	82.38199
238.744	73.54706
238.964	144.22848
239.184	115.09856
239.404	122.84341
239.624	65.74575
239.843	107.12338
240.063	64.89562
240.283	41.38249
240.503	46.02935
240.723	45.24182
240.943	26.24433
241.163	35.34823
241.383	25.08539
241.603	14.00987
241.822	15.65039
242.042	9.94115
242.262	14.56751
242.482	15.30468
242.702	17.21349
242.921	5.86758
243.141	10.74578
243.361	10.54961
243.581	15.72626
243.8	12.83722
244.02	8.28762
244.24	15.13939
244.459	14.83016
244.679	29.31052
244.899	18.94405
245.118	23.11236
245.338	21.28581
245.558	24.50487
245.777	14.52169
245.997	17.48709
246.216	17.43545
246.436	10.42908
246.655	7.66913
246.875	5.98411
247.094	10.13736
247.314	3.49048
247.533	6.2972
247.753	7.11844
247.972	5.53793
248.192	2.34546
248.411	3.25854
248.631	5.7072
248.85	7.0666
249.07	6.86818
249.289	9.79573
249.508	7.13451
249.728	11.96419
249.947	11.36622
250.166	14.66847
250.386	7.19019
250.605	11.99698
250.824	18.49108
251.044	12.56859
251.263	38.94409
251.482	22.99171
251.701	19.38746
251.921	0.10242
252.14	6.32822
252.359	8.04512
252.578	16.08753
252.798	6.28701
253.017	14.29327
253.236	7.30522
253.455	9.71233
253.674	17.86602
253.893	8.67978
254.112	13.0705
254.331	18.92376
254.551	15.8211
254.77	7.88132
254.989	21.98088
255.208	17.451
255.427	26.7521
255.646	23.12516
255.865	34.18132
256.084	15.58621
256.303	18.05619
256.522	22.9004
256.741	5.94296
256.96	6.33527
257.179	15.22915
257.397	18.25458
257.616	9.66561
257.835	11.27038
258.054	25.50751
258.273	17.31946
258.492	17.6179
258.711	11.75394
258.93	5.30805
259.148	7.97161
259.367	7.31107
259.586	9.11837
259.805	4.22983
260.023	7.91712
260.242	5.82985
260.461	4.28093
260.68	2.2494
260.898	6.50095
261.117	2.28824
261.336	1.69909
261.554	5.5395
261.773	5.72342
261.992	1.41265
262.21	5.26515
262.429	6.62496
262.648	10.69399
262.866	12.74247
263.085	9.41122
263.303	7.97777
263.522	13.92132
263.74	13.84489
263.959	23.93712
264.178	12.30706
264.396	11.02614
264.615	7.27221
264.833	17.58982
265.051	15.54973
265.27	17.77507
265.488	18.21996
265.707	11.04577
265.925	17.42825
266.144	8.57425
266.362	9.61009
266.58	10.10662
266.799	8.52341
267.017	9.81636
267.235	8.95557
267.454	6.0972
267.672	3.02873
267.89	7.07529
268.109	7.32397
268.327	7.31848
268.545	1.75986
268.763	6.81679
268.982	2.83257
269.2	7.79431
269.418	4.95264
269.636	4.03815
269.854	7.43073
270.073	5.58035
270.291	3.32054
270.509	2.96611
270.727	7.40009
270.945	11.88627
271.163	11.48561
271.381	2.87805
271.599	5.1596
271.817	8.147
272.036	3.02571
272.254	5.66945
272.472	3.95015
272.69	4.09002
272.908	4.18057
273.126	6.63343
273.344	8.43723
273.562	3.07637
273.779	4.68082
273.997	6.83224
274.215	6.28384
274.433	4.78619
274.651	7.36066
274.869	7.26414
275.087	4.2465
275.305	6.6288
275.523	4.52736
275.74	5.06882
275.958	9.16948
276.176	12.87819
276.394	4.163
276.612	5.52923
276.829	5.56886
277.047	5.01374
277.265	4.77108
277.483	5.49606
277.7	6.65433
277.918	5.83176
278.136	10.12794
278.353	4.91749
278.571	2.99102
278.789	7.82773
279.006	1.91792
279.224	4.92425
279.442	7.8814
279.659	5.88762
279.877	3.9234
280.094	8.27192
280.312	2.13203
280.529	5.83984
280.747	1.97099
280.964	4.87833
281.182	8.98857
281.399	5.07225
281.617	5.86232
281.834	4.43582
282.052	3.14675
282.269	5.50129
282.487	4.27644
282.704	3.86282
282.921	3.46535
283.139	5.33401
283.356	6.84886
283.574	6.65915
283.791	3.2722
284.008	8.54726
284.226	4.94502
284.443	5.30243
284.66	6.90097
284.877	5.92725
285.095	3.73898
285.312	2.86852
285.529	1.67612
285.746	1.59586
285.964	3.4132
286.181	2.50616
286.398	3.20366
286.615	4.54757
286.832	4.36695
287.05	1.19267
287.267	2.99398
287.484	3.2118
287.701	4.50428
287.918	4.30972
288.135	4.49302
288.352	2.09987
288.569	2.50902
288.786	4.15773
289.003	3.25529
289.22	4.95479
289.437	2.81472
289.654	4.66675
289.871	4.89324
290.088	4.86757
290.305	3.67898
290.522	3.12507
290.739	3.33456
290.956	4.94746
291.173	5.8934
291.39	5.7154
291.607	3.77113
291.824	3.2323
292.04	2.4282
292.257	4.89664
292.474	5.16961
292.691	3.3423
292.908	1.78209
293.125	2.84933
293.341	1.99888
293.558	7.99987
293.775	3.71875
293.992	3.9926
294.208	1.4658
294.425	2.32388
294.642	3.12075
294.858	4.63857
295.075	1.23715
295.292	3.40723
295.508	4.05552
295.725	5.5912
295.942	2.99838
296.158	2.10251
296.375	3.47337
296.591	2.79164
296.808	2.74663
297.024	3.22986
297.241	3.65253
297.458	3.82503
297.674	0.48548
297.891	2.98135
298.107	2.39901
298.323	1.8242
298.54	4.32947
298.756	2.29362
298.973	0.99479
299.189	4.61882
299.406	2.09367
299.622	4.61404
299.838	4.57571
300.055	4.15375
300.271	1.1282
300.487	1.86772
300.704	2.24966
300.92	1.33652
301.136	6.32622
301.353	4.71151
301.569	3.36644
301.785	3.59118
302.001	4.41457
302.218	3.87286
302.434	4.05089
302.65	1.47729
302.866	2.57379
303.083	6.63749
303.299	6.32901
303.515	3.30795
303.731	3.72515
303.947	1.25811
304.163	2.25842
304.379	3.70312
304.595	4.03911
304.812	2.25933
305.028	1.98448
305.244	2.76193
305.46	4.24719
305.676	4.40496
305.892	5.37409
306.108	3.91971
306.324	2.79452
306.54	5.91884
306.756	4.3345
306.972	3.94868
307.187	2.961
307.403	5.85261
307.619	2.54018
307.835	5.11227
308.051	5.32223
308.267	1.85738
308.483	4.70984
308.699	4.06571
308.914	3.23132
309.13	3.23337
309.346	0.99481
309.562	1.75428
309.778	1.07092
309.993	4.00158
310.209	3.08645
310.425	1.51886
310.641	2.72718
310.856	1.73426
311.072	1.6492
311.288	3.05132
311.503	3.25155
311.719	0.67034
311.935	0.66919
312.15	3.48755
312.366	3.10054
312.581	3.73346
312.797	2.92161
313.013	4.04645
313.228	2.26224
313.444	3.33342
313.659	1.97581
313.875	3.75143
314.09	2.91367
314.306	5.48947
314.521	4.43886
314.737	4.25472
314.952	3.59377
315.168	3.54101
315.383	3.84829
315.599	3.02561
315.814	2.79869
316.029	4.66384
316.245	1.45845
316.46	1.04891
316.675	5.15192
316.891	6.26012
317.106	7.59565
317.321	4.2706
317.537	4.01386
317.752	4.67662
317.967	4.69019
318.183	2.412
318.398	2.89054
318.613	4.92269
318.828	5.62223
319.043	4.64365
319.259	3.05636
319.474	3.67894
319.689	5.14495
319.904	0.90019
320.119	4.63085
320.334	3.97294
320.549	3.09547
320.765	5.23196
320.98	3.93652
321.195	4.99446
321.41	3.44003
321.625	4.71979
321.84	6.31579
322.055	6.20996
322.27	2.62526
322.485	1.9656
322.7	3.80839
322.915	5.08561
323.13	2.21219
323.345	5.81951
323.56	4.56229
323.775	4.58188
323.989	4.31262
324.204	3.73096
324.419	4.73094
324.634	1.48864
324.849	3.32634
325.064	6.38564
325.279	4.92126
325.493	4.15784
325.708	5.14008
325.923	2.36187
326.138	2.46181
326.352	5.93898
326.567	4.73415
326.782	2.96713
326.997	2.40286
327.211	4.42506
327.426	4.13339
327.641	2.97494
327.855	1.36397
328.07	4.36697
328.285	6.08727
328.499	3.10126
328.714	4.16785
328.928	4.72359
329.143	3.64252
329.358	5.24898
329.572	5.08226
329.787	5.47988
330.001	7.65449
330.216	1.6122
330.43	6.17115
330.645	6.00645
330.859	4.93363
331.074	2.6971
331.288	3.81648
331.503	6.04703
331.717	2.08467
331.931	3.51747
332.146	3.90082
332.36	6.81875
332.575	4.28021
332.789	3.97818
333.003	3.42991
333.218	4.46089
333.432	2.48239
333.646	4.79132
333.86	6.20397
334.075	6.48137
334.289	2.89858
334.503	2.29052
334.717	4.4062
334.932	4.50068
335.146	5.10919
335.36	3.05697
335.574	4.37456
335.788	4.22797
336.003	5.22616
336.217	4.94205
336.431	4.24716
336.645	3.00096
336.859	1.97502
337.073	3.65935
337.287	3.99861
337.501	2.36369
337.715	4.10574
337.929	4.62154
338.143	2.09128
338.357	3.5562
338.571	2.37043
338.785	4.36017
338.999	2.87766
339.213	2.83709
339.427	1.71111
339.641	5.35324
339.855	3.17554
340.069	2.63357
340.283	5.08277
340.497	5.9332
340.711	4.20391
340.924	3.29196
341.138	2.06141
341.352	1.84577
341.566	3.81493
341.78	1.2334
341.993	2.62244
342.207	2.29752
342.421	3.96634
342.635	3.46426
342.848	2.70436
343.062	0.45053
343.276	2.60606
343.49	6.49187
343.703	2.73302
343.917	4.73404
344.131	4.9505
344.344	2.47563
344.558	2.8186
344.771	2.16252
344.985	5.20438
345.199	5.73288
345.412	3.88294
345.626	3.83337
345.839	1.05605
346.053	1.78331
346.266	2.04589
346.48	4.31138
346.693	3.72605
346.907	4.04267
347.12	2.05682
347.334	3.69637
347.547	3.93138
347.76	3.14397
347.974	5.0538
348.187	3.89751
348.401	3.22805
348.614	2.5714
348.827	2.96414
349.041	4.24198
349.254	1.11987
349.467	3.26165
349.681	1.88865
349.894	2.62036
350.107	4.96378
350.32	5.98741
350.534	1.28798
350.747	3.04228
350.96	2.16443
351.173	2.36288
351.386	2.75301
351.6	2.74709
351.813	2.64704
352.026	3.28703
352.239	1.61524
352.452	2.99427
352.665	4.6859
352.878	2.86487
353.092	6.37685
353.305	4.18539
353.518	3.40964
353.731	2.21273
353.944	4.79339
354.157	2.6195
354.37	2.25756
354.583	1.90028
354.796	1.11686
355.009	4.87445
355.222	3.33369
355.435	3.37437
355.647	4.58515
355.86	2.00949
356.073	3.06938
356.286	2.39887
356.499	4.15684
356.712	3.69921
356.925	3.59716
357.138	4.45616
357.35	1.75171
357.563	2.51802
357.776	3.17313
357.989	2.68702
358.201	3.72495
358.414	3.36918
358.627	4.55489
358.84	2.7032
359.052	1.69371
359.265	1.70066
359.478	4.22392
359.69	-0.14133
359.903	4.1695
360.116	4.12206
360.328	0.96424
360.541	3.95641
360.753	1.77038
360.966	2.26604
361.179	2.32649
361.391	2.24493
361.604	1.60955
361.816	2.33845
362.029	1.98881
362.241	1.57008
362.454	2.18715
362.666	1.72202
362.879	2.81845
363.091	2.35838
363.304	1.76477
363.516	2.54792
363.728	1.3716
363.941	3.46102
364.153	2.32831
364.366	0.19976
364.578	1.52469
364.79	3.45702
365.003	2.80373
365.215	2.22434
365.427	3.51615
365.639	4.32588
365.852	3.13261
366.064	4.97365
366.276	2.26488
366.488	3.52445
366.701	2.39537
366.913	2.57404
367.125	2.70821
367.337	2.11416
367.549	2.27839
367.762	2.82809
367.974	2.98102
368.186	2.13605
368.398	4.31969
368.61	3.5524
368.822	3.78263
369.034	2.82233
369.246	3.74793
369.458	5.80942
369.67	1.8354
369.882	5.35784
370.094	0.53979
370.306	4.96801
370.518	2.60057
370.73	2.40028
370.942	2.06443
371.154	2.73223
371.366	2.42614
371.578	3.38798
371.79	2.11342
372.002	4.31566
372.214	5.15832
372.425	3.26822
372.637	4.62474
372.849	3.41712
373.061	0.418
373.273	3.70077
373.484	3.66149
373.696	4.03881
373.908	0.39652
374.12	4.49337
374.331	3.68799
374.543	2.1578
374.755	2.06178
374.967	3.35136
375.178	4.063
375.39	2.66313
375.602	3.07214
375.813	1.43034
376.025	1.68511
376.236	3.00854
376.448	3.21232
376.66	2.65408
376.871	2.46674
377.083	4.09289
377.294	4.47411
377.506	2.58184
377.717	4.68908
377.929	3.32398
378.14	2.33469
378.352	3.71603
378.563	3.73247
378.775	4.71646
378.986	2.3476
379.197	3.21125
379.409	2.39316
379.62	4.14557
379.832	3.3727
380.043	2.93512
380.254	3.49634
380.466	1.6947
380.677	6.48842
380.888	5.8857
381.1	6.39115
381.311	6.35435
381.522	3.26274
381.733	6.7782
381.945	3.04185
382.156	3.50395
382.367	2.61807
382.578	6.78128
382.789	6.64903
383.001	2.67489
383.212	5.12693
383.423	5.42891
383.634	4.80112
383.845	4.15823
384.056	2.99637
384.267	3.53982
384.478	3.49681
384.69	2.27432
384.901	4.16296
385.112	4.00167
385.323	5.56298
385.534	4.1405
385.745	3.77147
385.956	3.97845
386.167	2.52577
386.378	4.20657
386.588	2.45749
386.799	2.82035
387.01	1.70453
387.221	4.735
387.432	3.58941
387.643	6.01009
387.854	3.33861
388.065	3.35019
388.275	3.62807
388.486	3.23613
388.697	3.72995
388.908	3.38246
389.119	5.35426
389.329	5.80942
389.54	3.95267
389.751	4.40071
389.962	5.40294
390.172	4.34118
390.383	3.49012
390.594	3.21366
390.804	3.26057
391.015	3.45715
391.226	4.09126
391.436	4.76878
391.647	4.33585
391.858	4.82427
392.068	2.14272
392.279	2.78693
392.489	4.33645
392.7	5.16371
392.91	2.85838
393.121	3.34636
393.331	4.76841
393.542	5.63602
393.752	4.62525
393.963	4.45862
394.173	4.47326
394.384	5.18621
394.594	4.32099
394.804	3.00723
395.015	4.42275
395.225	5.21212
395.436	3.16351
395.646	5.03819
395.856	3.69868
396.067	3.06621
396.277	5.68891
396.487	5.13443
396.697	4.54408
396.908	5.69068
397.118	5.3143
397.328	4.7987
397.538	5.69499
397.749	4.00326
397.959	5.89749
398.169	5.44512
398.379	3.23833
398.589	5.63918
398.8	4.88296
399.01	5.08158
399.22	4.47827
399.43	7.39409
399.64	4.72871
399.85	5.60716
400.06	4.93889
400.27	4.36955
400.48	5.00023
400.69	6.7106
400.9	4.53681
401.11	4.22874
401.32	6.11133
401.53	4.75116
401.74	7.0034
401.95	5.84217
402.16	4.41083
402.37	6.02808
402.58	4.74532
402.79	6.20507
403	6.41495
403.209	4.71801
403.419	6.53133
403.629	4.81346
403.839	6.48688
404.049	6.39372
404.258	4.88063
404.468	4.63549
404.678	6.36725
404.888	6.59839
405.097	5.0499
405.307	5.4573
405.517	6.19383
405.727	6.09443
405.936	5.21943
406.146	5.93658
406.356	7.15623
406.565	5.7195
406.775	5.30167
406.984	5.31406
407.194	7.91498
407.404	5.916
407.613	6.33425
407.823	6.74799
408.032	7.36542
408.242	7.05617
408.451	5.35831
408.661	6.0247
408.87	8.0536
409.08	5.50825
409.289	6.68962
409.499	6.41116
409.708	6.26668
409.918	4.03579
410.127	6.43423
410.336	7.8884
410.546	6.99946
410.755	5.99719
410.964	5.78936
411.174	5.62565
411.383	6.9595
411.592	6.67709
411.802	5.26829
412.011	7.42791
412.22	6.43796
412.429	8.11768
412.639	8.02556
412.848	7.96683
413.057	8.46134
413.266	7.85673
413.475	6.58109
413.685	7.48437
413.894	7.75241
414.103	8.01018
414.312	7.50121
414.521	6.62142
414.73	7.18657
414.939	8.77952
415.148	7.40731
415.357	7.24596
415.566	6.69351
415.776	6.609
415.985	6.61082
416.194	7.77909
416.403	8.87372
416.611	5.76831
416.82	6.59461
417.029	7.30347
417.238	6.54229
417.447	6.39716
417.656	6.92152
417.865	6.61533
418.074	6.98597
418.283	7.25498
418.492	8.20299
418.7	7.98609
418.909	8.98599
419.118	7.58562
419.327	7.8765
419.536	7.62797
419.744	7.05843
419.953	8.45714
420.162	8.3783
420.371	7.06674
420.579	6.94517
420.788	7.98623
420.997	8.14465
421.205	8.01233
421.414	7.69184
421.623	7.70937
421.831	7.31069
422.04	8.07531
422.249	7.26752
422.457	7.92154
422.666	7.37263
422.874	8.58541
423.083	8.51352
423.291	8.41444
423.5	8.09991
423.708	8.12466
423.917	8.70536
424.125	8.10054
424.334	7.83152
424.542	9.73462
424.751	8.86121
424.959	8.57504
425.167	9.03407
425.376	8.93068
425.584	8.31028
425.793	8.70255
426.001	7.67785
426.209	8.9161
426.418	7.70159
426.626	7.95698
426.834	7.59869
427.042	8.36506
427.251	7.67465
427.459	9.15232
427.667	8.4874
427.875	7.17253
428.084	7.81911
428.292	9.44076
428.5	8.89676
428.708	7.33849
428.916	7.55624
429.124	8.48865
429.333	8.19888
429.541	8.39009
429.749	8.37885
429.957	8.42927
430.165	10.5773
430.373	7.15279
430.581	8.55935
430.789	9.73982
430.997	8.19486
431.205	7.83553
431.413	8.75667
431.621	8.17196
431.829	9.13265
432.037	8.37615
432.245	9.06006
432.453	8.9536
432.661	8.58566
432.869	10.44768
433.076	7.93371
433.284	8.55192
433.492	9.27582
433.7	9.77724
433.908	8.39916
434.116	8.74075
434.323	8.87337
434.531	8.7368
434.739	9.30158
434.947	9.41729
435.154	9.59887
435.362	8.8765
435.57	8.59939
435.778	8.25211
435.985	9.29802
436.193	8.26671
436.401	9.94294
436.608	8.87102
436.816	8.52458
437.023	10.38804
437.231	10.60055
437.439	9.04699
437.646	9.53564
437.854	9.4591
438.061	9.62864
438.269	8.85626
438.476	9.725
438.684	9.26174
438.891	8.81692
439.099	8.59571
439.306	7.98422
439.514	8.2286
439.721	9.56166
439.929	8.62814
440.136	9.51834
440.343	9.37227
440.551	8.88871
440.758	10.67724
440.965	9.66486
441.173	9.15847
441.38	8.64539
441.587	9.40903
441.795	8.75955
442.002	9.35208
442.209	9.52077
442.416	9.71083
442.624	9.67562
442.831	9.65344
443.038	8.8273
443.245	8.43862
443.452	8.94382
443.66	10.05893
443.867	8.80489
444.074	8.88152
444.281	8.72463
444.488	9.07657
444.695	9.41267
444.902	8.85187
445.109	9.89567
445.316	9.11447
445.523	9.0766
445.73	8.60181
445.937	9.40748
446.144	9.69404
446.351	9.56703
446.558	8.59868
446.765	9.9073
446.972	10.10345
447.179	9.15696
447.386	10.35268
447.593	9.01703
447.8	10.26199
448.007	9.18112
448.214	9.33316
448.42	8.895
448.627	10.35828
448.834	9.25523
449.041	9.11609
449.248	9.11377
449.454	10.20432
449.661	11.21351
449.868	9.04344
450.075	8.99407
450.281	7.60261
450.488	8.58795
450.695	8.82731
450.901	8.67038
451.108	9.13274
451.315	10.36471
451.521	9.22079
451.728	10.38897
451.935	8.97328
452.141	9.43044
452.348	9.3844
452.554	9.23211
452.761	9.17163
452.967	10.88552
453.174	9.69317
453.38	9.79614
453.587	8.47461
453.793	9.5935
454	10.15447
454.206	11.4616
454.413	10.49943
454.619	9.98003
454.825	8.93335
455.032	10.09348
455.238	10.53519
455.445	8.40962
455.651	9.6288
455.857	7.92105
456.064	9.25603
456.27	9.38104
456.476	9.3185
456.682	8.28801
456.889	9.97646
457.095	10.08371
457.301	11.79817
457.507	9.88972
457.714	9.86634
457.92	9.64459
458.126	8.98877
458.332	9.50097
458.538	9.24177
458.744	9.45086
458.951	9.37976
459.157	11.06399
459.363	9.71515
459.569	9.51901
459.775	10.35741
459.981	9.10659
460.187	9.58953
460.393	10.24134
460.599	10.66223
460.805	9.95148
461.011	9.77234
461.217	10.49666
461.423	10.75685
461.629	9.65815
461.835	10.39131
462.041	9.76456
462.247	11.28299
462.453	9.61302
462.658	9.64246
462.864	10.59913
463.07	10.05818
463.276	10.10273
463.482	10.18854
463.688	11.22841
463.893	9.36945
464.099	9.69183
464.305	11.51097
464.511	9.5838
464.716	9.82267
464.922	10.60665
465.128	9.19349
465.333	11.44664
465.539	10.56012
465.745	10.02401
465.95	10.35702
466.156	12.64761
466.362	11.24451
466.567	9.98563
466.773	9.60224
466.978	11.38969
467.184	9.21666
467.389	8.20978
467.595	10.41716
467.8	9.2831
468.006	11.06735
468.211	11.11653
468.417	8.96998
468.622	10.54094
468.828	10.68878
469.033	10.44065
469.239	12.72496
469.444	9.59403
469.649	10.96251
469.855	10.08763
470.06	10.42029
470.266	9.41788
470.471	10.7374
470.676	10.55778
470.881	8.63546
471.087	11.71381
471.292	11.82544
471.497	9.10836
471.703	10.05867
471.908	9.67935
472.113	10.43635
472.318	10.92635
472.523	9.18819
472.729	10.68687
472.934	10.72965
473.139	9.88561
473.344	10.71342
473.549	11.58372
473.754	9.63107
473.959	11.99337
474.164	9.61722
474.369	10.31905
474.575	11.00858
474.78	10.36611
474.985	9.78591
475.19	8.5938
475.395	9.64669
475.6	10.15841
475.804	11.49577
476.009	10.35104
476.214	10.25917
476.419	9.8903
476.624	8.71308
476.829	9.65513
477.034	10.84987
477.239	9.55526
477.444	10.5832
477.648	10.74075
477.853	10.87529
478.058	10.02985
478.263	9.6525
478.468	9.34536
478.672	9.42986
478.877	11.41184
479.082	12.0775
479.287	10.63615
479.491	10.29735
479.696	9.54365
479.901	11.17701
480.105	10.97336
480.31	9.78755
480.515	10.26203
480.719	12.41287
480.924	9.85886
481.128	9.26952
481.333	10.46591
481.538	10.60448
481.742	10.09981
481.947	10.61139
482.151	10.73803
482.356	10.28145
482.56	11.3607
482.765	12.45686
482.969	15.03629
483.174	16.95043
483.378	19.54594
483.582	19.92013
483.787	21.29257
483.991	21.53969
484.196	21.62656
484.4	21.17375
484.604	21.23054
484.809	19.05064
485.013	18.03784
485.217	16.26884
485.422	14.43841
485.626	13.19157
485.83	12.45846
486.034	12.20531
486.239	12.53571
486.443	12.87958
486.647	13.09311
486.851	14.36126
487.055	15.35259
487.26	15.15865
487.464	15.96779
487.668	15.45796
487.872	15.63779
488.076	15.94772
488.28	15.20755
488.484	14.26495
488.688	13.62938
488.892	13.12389
489.096	12.2139
489.3	11.15895
489.504	10.57355
489.708	11.01021
489.912	11.18129
490.116	10.93666
490.32	10.23157
490.524	10.89753
490.728	11.20368
490.932	11.79424
491.136	12.3452
491.34	13.5796
491.544	13.85311
491.748	13.48736
491.951	13.42058
492.155	12.97437
492.359	12.65588
492.563	11.18667
492.767	10.56776
492.97	10.18992
493.174	10.09475
493.378	10.37893
493.582	10.04841
493.785	10.71593
493.989	10.92777
494.193	10.82041
494.396	10.45778
494.6	11.43025
494.804	10.62219
495.007	10.20643
495.211	10.19055
495.414	10.56136
495.618	10.836
495.822	11.67285
496.025	10.77172
496.229	11.34045
496.432	10.06978
496.636	10.57305
496.839	10.34571
497.043	11.73583
497.246	10.68667
497.45	10.14526
497.653	10.44726
497.856	10.82809
498.06	9.84295
498.263	10.34364
498.467	10.27561
498.67	11.29686
498.873	10.97269
499.077	10.37511
499.28	10.44247
499.483	10.95788
499.686	11.32029
499.89	10.86581
500.093	11.28151
500.296	9.88624
500.499	11.9532
500.703	10.59858
500.906	10.67114
501.109	12.15866
501.312	10.69505
501.515	10.50539
501.719	10.98429
501.922	11.93238
502.125	10.88498
502.328	10.48171
502.531	9.58407
502.734	10.78449
502.937	9.21939
503.14	10.95476
503.343	9.95138
503.546	10.53003
503.749	10.14758
503.952	11.25195
504.155	9.86723
504.358	11.10814
504.561	10.61584
504.764	9.57305
504.967	10.68147
505.17	10.64287
505.373	12.18675
505.576	10.72615
505.778	11.18045
505.981	10.07042
506.184	11.81193
506.387	9.31546
506.59	12.25106
506.793	11.77007
506.995	11.25528
507.198	8.92404
507.401	11.11339
507.604	11.10434
507.806	9.80991
508.009	10.22429
508.212	11.24049
508.414	10.15431
508.617	10.09131
508.82	10.60977
509.022	11.82571
509.225	10.98532
509.427	9.33424
509.63	11.70258
509.833	10.6592
510.035	10.41163
510.238	9.51929
510.44	11.61023
510.643	8.97262
510.845	12.53323
511.048	11.18777
511.25	10.3033
511.453	10.6809
511.655	11.12738
511.858	10.44369
512.06	11.44263
512.262	10.74641
512.465	11.54153
512.667	10.2277
512.869	9.70262
513.072	11.01566
513.274	11.3924
513.476	11.32541
513.679	11.36613
513.881	9.64848
514.083	12.23821
514.286	10.09223
514.488	10.1743
514.69	9.78275
514.892	9.7174
515.094	11.3563
515.297	10.31417
515.499	10.79236
515.701	10.06864
515.903	12.35424
516.105	12.2329
516.307	11.40345
516.509	9.15617
516.711	9.62058
516.913	10.83632
517.116	10.68523
517.318	10.3915
517.52	11.76673
517.722	11.24787
517.924	9.79111
518.126	11.09893
518.328	10.00691
518.529	10.8335
518.731	12.00299
518.933	10.23963
519.135	10.54595
519.337	11.53248
519.539	11.0329
519.741	9.2962
519.943	10.47959
520.145	10.32572
520.346	11.14651
520.548	10.41268
520.75	11.08784
520.952	10.49122
521.153	11.00267
521.355	11.25141
521.557	9.82081
521.759	10.96169
521.96	10.91866
522.162	9.84731
522.364	11.86369
522.565	9.99861
522.767	11.52938
522.969	11.92393
523.17	11.18224
523.372	11.11015
523.573	10.44428
523.775	10.72381
523.977	9.88403
524.178	12.22507
524.38	10.25535
524.581	11.54849
524.783	10.49926
524.984	11.30743
525.186	10.70899
525.387	11.17794
525.589	10.68418
525.79	10.37735
525.991	10.09103
526.193	10.90418
526.394	9.5352
526.596	10.87725
526.797	10.85374
526.998	10.35368
527.2	9.79296
527.401	11.15225
527.602	11.64073
527.803	13.93207
528.005	14.56879
528.206	15.73266
528.407	16.51196
528.608	16.3242
528.81	16.53524
529.011	15.75743
529.212	16.62697
529.413	15.36409
529.614	14.2362
529.815	13.56279
530.017	12.30587
530.218	10.99167
530.419	10.65018
530.62	10.98383
530.821	11.2539
531.022	10.08076
531.223	11.45795
531.424	11.37274
531.625	11.12044
531.826	11.10205
532.027	11.11283
532.228	11.88246
532.429	11.00475
532.63	10.72695
532.831	11.19681
533.032	11.23914
533.233	11.90984
533.433	11.56503
533.634	11.74945
533.835	10.81957
534.036	10.45113
534.237	10.67523
534.438	10.54675
534.638	10.20706
534.839	10.45364
535.04	11.23999
535.241	10.62767
535.441	12.39483
535.642	11.40325
535.843	10.17546
536.043	10.15205
536.244	10.352
536.445	10.36072
536.645	11.60714
536.846	10.85139
537.047	11.72526
537.247	10.21864
537.448	10.47221
537.648	10.87709
537.849	10.80797
538.049	10.74783
538.25	11.59549
538.451	11.31959
538.651	10.25135
538.851	11.32877
539.052	12.2102
539.252	11.78042
539.453	10.94614
539.653	11.24709
539.854	11.02593
540.054	11.03665
540.254	11.81147
540.455	11.56912
540.655	10.51027
540.855	11.59043
541.056	12.37449
541.256	12.04689
541.456	13.1318
541.657	12.35655
541.857	13.09637
542.057	11.47403
542.257	11.05946
542.458	11.48319
542.658	11.47271
542.858	10.34304
543.058	11.85358
543.258	11.51592
543.458	10.28282
543.659	10.13515
543.859	11.72961
544.059	11.67249
544.259	10.91416
544.459	11.70322
544.659	10.64607
544.859	11.51691
545.059	10.73494
545.259	11.83287
545.459	11.22224
545.659	11.97025
545.859	11.09242
546.059	11.40964
546.259	10.41919
546.459	9.85008
546.659	10.26506
546.859	11.72948
547.059	11.39086
547.258	11.55053
547.458	11.48997
547.658	10.17335
547.858	10.12736
548.058	11.36716
548.258	10.84062
548.457	10.14856
548.657	13.64414
548.857	10.98049
549.057	12.01791
549.256	11.9879
549.456	10.98857
549.656	9.3111
549.855	13.17751
550.055	11.04953
550.255	13.54152
550.454	11.87224
550.654	12.43132
550.853	13.04653
551.053	12.53475
551.253	11.82904
551.452	11.84203
551.652	10.4175
551.851	9.73693
552.051	11.14611
552.25	10.7751
552.45	10.4672
552.649	11.09067
552.849	10.47215
553.048	11.45054
553.248	12.14865
553.447	10.53752
553.646	12.30704
553.846	12.95711
554.045	12.39491
554.244	10.07947
554.444	13.3615
554.643	10.71574
554.842	13.06306
555.042	14.20584
555.241	10.95685
555.44	10.32114
555.64	12.06037
555.839	14.20863
556.038	12.49965
556.237	11.00063
556.436	11.53636
556.636	12.0664
556.835	10.76586
557.034	13.69466
557.233	11.73673
557.432	10.25396
557.631	13.05725
557.83	11.45603
558.029	11.02192
558.228	11.14154
558.427	10.50507
558.626	12.37763
558.825	10.64746
559.024	11.91374
559.223	13.87788
559.422	11.55515
559.621	12.24577
559.82	8.80499
560.019	11.87312
560.218	11.40274
560.417	8.68996
560.616	11.42149
560.815	15.79789
561.014	9.94343
561.212	13.45785
561.411	12.06311
561.61	9.94644
561.809	11.51922
562.008	13.48359
562.206	11.57822
562.405	12.63833
562.604	11.66961
562.803	11.8823
563.001	11.54951
563.2	10.13089
563.399	12.31266
563.597	10.33475
563.796	11.86959
563.995	10.41172
564.193	12.69412
564.392	11.56515
564.59	14.57468
564.789	9.55616
564.988	11.20349
565.186	12.05758
565.385	11.62424
565.583	11.38671
565.782	11.69246
565.98	11.32131
566.179	11.68019
566.377	10.37053
566.575	10.94169
566.774	13.0069
566.972	12.6663
567.171	13.91492
567.369	13.0058
567.567	11.87772
567.766	12.29416
567.964	9.30605
568.162	12.39516
568.361	12.95129
568.559	11.60124
568.757	12.57333
568.956	12.05202
569.154	11.85893
569.352	12.79215
569.55	11.85007
569.748	11.89478
569.947	10.93209
570.145	10.90798
570.343	10.58027
570.541	13.21009
570.739	10.39024
570.937	12.06676
571.135	12.55771
571.333	13.92237
571.532	13.60272
571.73	12.37808
571.928	13.18097
572.126	12.31828
572.324	11.49188
572.522	13.31633
572.72	15.04088
572.918	11.82973
573.116	12.33818
573.313	11.99627
573.511	11.68999
573.709	11.46015
573.907	12.743
574.105	11.68096
574.303	10.16967
574.501	10.29659
574.699	12.43085
574.896	12.43603
575.094	12.69416
575.292	10.51427
575.49	13.10332
575.688	11.6581
575.885	13.71236
576.083	14.69798
576.281	12.80029
576.478	11.3243
576.676	12.62222
576.874	10.63867
577.071	11.97529
577.269	15.17412
577.467	12.30207
577.664	12.18873
577.862	13.56197
578.059	11.15649
578.257	13.72582
578.455	12.00634
578.652	12.47293
578.85	9.84575
579.047	12.48944
579.245	12.30327
579.442	12.25232
579.64	12.39047
579.837	9.86192
580.034	16.02895
580.232	11.78328
580.429	11.1161
580.627	13.39342
580.824	14.67374
581.021	13.29966
581.219	11.94177
581.416	11.22423
581.613	14.74945
581.811	14.3827
582.008	11.64156
582.205	14.12886
582.402	12.74051
582.6	15.71713
582.797	12.94806
582.994	13.2313
583.191	13.86824
583.388	12.79234
583.586	14.07353
583.783	14.3328
583.98	11.42421
584.177	12.99851
584.374	8.77964
584.571	12.82397
584.768	12.51409
584.965	12.25678
585.162	13.63362
585.359	15.37598
585.556	12.73795
585.753	13.47633
585.95	11.20701
586.147	11.53959
586.344	13.56379
586.541	12.20857
586.738	11.00753
586.935	12.45112
587.132	11.74625
587.329	14.39247
587.526	12.67196
587.722	20.56028
587.919	10.78513
588.116	13.45352
588.313	15.19151
588.51	16.51001
588.706	12.31367
588.903	13.62444
589.1	14.3888
589.297	17.03912
589.493	12.65875
589.69	13.93757
589.887	12.0426
590.083	11.23013
590.28	11.62437
590.477	14.2239
590.673	14.177
590.87	14.96083
591.067	12.25534
591.263	13.74654
591.46	13.69426
591.656	12.5754
591.853	15.17527
592.049	11.73617
592.246	12.1555
592.442	14.81365
592.639	14.8073
592.835	11.46935
593.032	13.98473
593.228	11.1573
593.425	10.97173
593.621	10.62781
593.817	13.29982
594.014	11.81392
594.21	13.10745
594.406	14.48705
594.603	13.98367
594.799	12.15227
594.995	9.70187
595.192	14.77563
595.388	12.27786
595.584	12.67277
595.78	10.69498
595.977	15.83221
596.173	15.72017
596.369	12.57924
596.565	11.49604
596.761	10.81737
596.957	14.64219
597.154	11.73243
597.35	11.98227
597.546	11.65818
597.742	13.60351
597.938	12.94929
598.134	11.51049
598.33	12.87371
598.526	15.31767
598.722	13.71573
598.918	15.74783
599.114	14.03771
599.31	11.92746
599.506	13.4007
599.702	12.25339
599.898	13.78634
600.094	15.09987
600.29	14.62446
600.485	15.04749
600.681	12.44981
600.877	16.3357
601.073	13.49886
601.269	16.42143
601.465	15.68841
601.66	11.88743
601.856	10.42773
602.052	15.89658
602.248	12.80422
602.443	10.23276
602.639	11.31676
602.835	11.5448
603.03	11.75824
603.226	14.49153
603.422	11.67184
603.617	12.49855
603.813	12.19431
604.009	12.13029
604.204	14.44117
604.4	10.63272
604.595	14.14657
604.791	11.1679
604.986	13.00164
605.182	11.6583
605.377	12.19766
605.573	12.00995
605.768	12.90925
605.964	13.84955
606.159	13.86968
606.355	14.95429
606.55	12.49158
606.746	14.85417
606.941	13.15721
607.136	16.68802
607.332	18.23424
607.527	11.06518
607.722	14.02578
607.918	13.31268
608.113	12.22318
608.308	14.59979
608.503	14.189
608.699	14.14298
608.894	14.04982
609.089	11.72616
609.284	13.61014
609.479	12.48097
609.675	14.2559
609.87	12.35282
610.065	14.29147
610.26	14.61698
610.455	14.53476
610.65	12.58898
610.845	13.4999
611.04	15.08959
611.235	13.35949
611.43	12.98932
611.625	11.46618
611.82	15.99733
612.015	11.97651
612.21	16.47583
612.405	11.04128
612.6	17.30523
612.795	16.06145
612.99	15.25228
613.185	11.90577
613.38	12.33012
613.575	14.56953
613.77	19.09335
613.965	11.3648
614.159	12.45013
614.354	16.5735
614.549	15.95407
614.744	15.68626
614.938	12.2999
615.133	11.02747
615.328	16.69329
615.523	16.58304
615.717	20.03445
615.912	12.81439
616.107	14.4856
616.301	13.37168
616.496	12.83251
616.691	17.54335
616.885	15.53765
617.08	19.94822
617.274	16.52694
617.469	18.74532
617.664	15.7915
617.858	13.29831
618.053	14.74169
618.247	13.41953
618.442	10.11606
618.636	16.91662
618.831	13.29625
619.025	13.01333
619.219	19.7614
619.414	7.78082
619.608	14.50449
619.803	13.1508
619.997	19.04384
620.191	17.06847
620.386	15.49816
620.58	14.75124
620.774	11.00453
620.969	11.5166
621.163	14.76377
621.357	11.69387
621.551	13.7242
621.746	14.75271
621.94	14.21755
622.134	22.3738
622.328	18.87088
622.522	11.12525
622.716	16.7109
622.911	16.89976
623.105	16.76701
623.299	15.81497
623.493	21.6776
623.687	13.2447
623.881	13.89936
624.075	16.11393
624.269	17.23788
624.463	10.8144
624.657	11.46295
624.851	15.75404
625.045	16.81827
625.239	17.03238
625.433	13.49106
625.627	17.70573
625.821	13.76473
626.015	12.90884
626.209	14.46023
626.403	11.7894
626.596	15.21287
626.79	15.70825
626.984	11.7221
627.178	15.14417
627.372	15.11747
627.565	15.99647
627.759	11.27689
627.953	11.7537
628.147	15.20924
628.34	15.55042
628.534	19.0902
628.728	14.03732
628.921	16.78212
629.115	15.7934
629.309	16.94483
629.502	16.70452
629.696	15.45583
629.89	14.63391
630.083	15.57267
630.277	16.37825
630.47	19.13998
630.664	14.65845
630.857	11.84011
631.051	16.96666
631.244	17.83314
631.438	17.22528
631.631	13.74262
631.825	18.1066
632.018	17.17426
632.212	19.73469
632.405	17.81609
632.598	13.84718
632.792	15.93185
632.985	9.92566
633.178	14.97303
633.372	15.20804
633.565	15.30472
633.758	18.55862
633.952	13.69013
634.145	13.0911
634.338	14.18373
634.531	13.8513
634.724	14.0168
634.918	15.6865
635.111	14.83083
635.304	14.27401
635.497	20.03359
635.69	15.7382
635.883	18.44317
636.077	12.85736
636.27	16.81104
636.463	15.95515
636.656	16.84573
636.849	14.86643
637.042	16.91516
637.235	19.83615
637.428	17.67885
637.621	16.78824
637.814	19.26915
638.007	19.83091
638.2	20.1359
638.393	21.73001
638.586	12.70867
638.778	14.92731
638.971	16.10517
639.164	20.97162
639.357	17.61603
639.55	20.05274
639.743	18.86379
639.935	18.78541
640.128	21.71935
640.321	18.47633
640.514	17.40715
640.707	22.99046
640.899	18.6635
641.092	12.5921
641.285	37.35882
641.477	10.96465
641.67	23.34221
641.863	20.72596
642.055	17.93544
642.248	16.51324
642.441	16.0496
642.633	18.37741
642.826	20.63247
643.018	21.43131
643.211	22.65392
643.403	21.96208
643.596	23.93918
643.788	22.8181
643.981	16.49832
644.173	19.88824
644.366	16.38866
644.558	12.50201
644.751	20.21444
644.943	13.61141
645.135	22.69769
645.328	23.06792
645.52	19.91766
645.712	20.45741
645.905	27.53193
646.097	14.55318
646.289	18.78836
646.482	24.11626
646.674	16.70194
646.866	21.37082
647.058	19.84781
647.251	14.77793
647.443	16.12628
647.635	17.66581
647.827	14.57187
648.019	15.21419
648.211	18.36917
648.404	18.3346
648.596	22.64923
648.788	18.7484
648.98	18.94342
649.172	19.21526
649.364	19.33833
649.556	12.73114
649.748	26.79889
649.94	15.05704
650.132	19.96592
650.324	15.18856
650.516	16.30661
650.708	22.03522
650.9	13.51049
651.092	16.65631
651.284	13.62416
651.476	15.1925
651.667	20.38277
651.859	21.831
652.051	17.93772
652.243	18.67543
652.435	16.51855
652.627	19.44161
652.818	19.75563
653.01	12.85887
653.202	15.38257
653.394	17.20383
653.585	20.19234
653.777	33.17047
653.969	22.86773
654.16	22.75831
654.352	15.66537
654.544	18.43953
654.735	22.09729
654.927	19.42508
655.118	24.44164
655.31	21.44947
655.502	22.42789
655.693	17.38183
655.885	21.27749
656.076	24.24255
656.268	19.4403
656.459	23.56268
656.651	23.43601
656.842	17.32938
657.034	16.49539
657.225	21.42057
657.416	23.89083
657.608	23.59346
657.799	18.29333
657.99	22.29378
658.182	16.26587
658.373	16.41518
658.564	20.77264
658.756	18.25017
658.947	17.70712
659.138	15.11651
659.33	16.10327
659.521	15.87562
659.712	17.59538
659.903	17.11722
660.094	16.17392
660.286	13.24974
660.477	24.37117
660.668	20.2568
660.859	18.57614
661.05	14.03929
661.241	20.88918
661.432	21.24779
661.623	18.16849
661.814	17.74471
662.006	13.35742
662.197	20.24007
662.388	23.46348
662.579	20.48122
662.77	24.72887
662.96	29.71119
663.151	23.25545
663.342	14.09022
663.533	22.69406
663.724	19.53425
663.915	26.82452
664.106	20.02076
664.297	27.09062
664.488	23.2621
664.678	18.56628
664.869	23.43846
665.06	24.33629
665.251	21.69564
665.442	22.85317
665.632	16.78613
665.823	27.63656
666.014	10.31824
666.204	23.1743
666.395	26.40356
666.586	31.69333
666.776	24.19728
666.967	28.05962
667.158	22.18689
667.348	26.84911
667.539	16.9286
667.729	24.66336
667.92	18.48523
668.111	25.13467
668.301	23.61083
668.492	20.14277
668.682	20.90387
668.873	19.76038
669.063	16.39974
669.253	21.40446
669.444	23.63014
669.634	20.61795
669.825	28.5318
670.015	25.05479
670.206	18.006
670.396	29.19274
670.586	20.64712
670.777	23.48043
670.967	13.31298
671.157	21.14364
671.347	18.96188
671.538	27.92781
671.728	23.47882
671.918	29.5801
672.108	26.04432
672.299	21.99538
672.489	23.78171
672.679	19.27095
672.869	23.92824
673.059	29.53673
673.249	24.19421
673.44	18.28512
673.63	21.93114
673.82	25.89907
674.01	18.79889
674.2	24.4568
674.39	34.72145
674.58	25.10915
674.77	23.5206
674.96	22.25297
675.15	40.63521
675.34	27.36827
675.53	22.89814
675.72	21.25161
675.91	17.08593
676.099	30.78984
676.289	32.19323
676.479	27.51148
676.669	21.37245
676.859	25.19473
677.049	18.46486
677.238	23.12857
677.428	31.37361
677.618	23.82257
677.808	26.75213
677.997	25.26276
678.187	17.90015
678.377	22.3342
678.567	21.10875
678.756	20.23867
678.946	21.86252
679.136	16.65364
679.325	19.10148
679.515	18.31835
679.704	16.80632
679.894	23.84398
680.084	22.20495
680.273	25.8128
680.463	17.87675
680.652	17.87179
680.842	21.21632
681.031	25.2029
681.221	17.4668
681.41	24.42299
681.6	21.0414
681.789	25.33156
681.978	27.85652
682.168	23.1429
682.357	23.60725
682.547	25.32241
682.736	23.28453
682.925	28.61468
683.115	27.93168
683.304	27.7136
683.493	25.22529
683.682	26.16227
683.872	25.19386
684.061	29.92389
684.25	27.13985
684.439	33.01191
684.629	27.48209
684.818	40.23918
685.007	23.83723
685.196	23.55124
685.385	31.88292
685.574	27.03918
685.763	27.27228
685.952	25.33863
686.142	19.09623
686.331	32.22131
686.52	16.86035
686.709	32.73386
686.898	32.46723
687.087	28.37756
687.276	33.50742
687.465	28.94838
687.654	24.01394
687.842	32.98374
688.031	19.43962
688.22	32.09124
688.409	26.20371
688.598	26.40667
688.787	38.39771
688.976	25.78233
689.165	33.95211
689.353	23.62531
689.542	27.38237
689.731	29.43757
689.92	35.74058
690.108	31.08593
690.297	23.97989
690.486	26.94234
690.675	30.40868
690.863	34.93357
691.052	35.28294
691.241	29.35767
691.429	28.2144
691.618	34.73701
691.806	21.64195
691.995	25.98273
692.184	27.06006
692.372	25.7655
692.561	28.03242
692.749	28.02764
692.938	40.75521
693.126	31.26104
693.315	25.88785
693.503	31.01495
693.692	31.65957
693.88	34.67606
694.068	40.72247
694.257	27.89174
694.445	31.37852
694.634	17.82458
694.822	34.69114
695.01	35.62591
695.199	35.924
695.387	37.60457
695.575	35.15216
695.763	28.902
695.952	27.03829
696.14	21.6082
696.328	25.45095
696.516	28.73322
696.705	30.6514
696.893	29.91762
697.081	18.39824
697.269	30.86147
697.457	22.13525
697.645	20.74172
697.833	30.67981
698.021	22.08528
698.21	23.03876
698.398	24.41738
698.586	20.10191
698.774	19.17272
698.962	23.0309
699.15	20.46287
699.338	17.54265
699.526	26.48745
699.714	21.75316
699.901	22.16491
700.089	30.24659
700.277	22.01363
700.465	25.05716
700.653	31.06097
700.841	29.99002
701.029	23.38093
701.217	33.88165
701.404	29.40065
701.592	37.37838
701.78	39.37899
701.968	26.5425
702.155	27.32489
702.343	21.64548
702.531	37.06131
702.718	32.45394
702.906	28.36991
703.094	26.42197
703.281	37.51697
703.469	30.52839
703.657	37.19728
703.844	52.17257
704.032	40.46992
704.219	27.08187
704.407	33.98516
704.595	40.04769
704.782	32.21075
704.97	29.31827
705.157	29.45527
705.345	41.31441
705.532	48.396
705.719	34.45045
705.907	41.66927
706.094	32.6982
706.282	43.64849
706.469	29.91062
706.656	32.32065
706.844	30.43426
707.031	38.26815
707.218	34.03079
707.406	43.53114
707.593	36.96377
707.78	36.55457
707.968	32.0848
708.155	27.61984
708.342	36.87758
708.529	36.4872
708.716	34.12123
708.904	45.64769
709.091	37.88108
709.278	25.33771
709.465	46.45652
709.652	45.5741
709.839	42.38022
710.026	35.77114
710.213	23.09239
710.4	36.48253
710.587	39.48949
710.774	41.25439
710.961	41.21444
711.148	34.17409
711.335	41.64288
711.522	32.54085
711.709	36.74216
711.896	49.58901
712.083	40.88021
712.27	27.14786
712.457	35.72004
712.644	23.88011
712.831	49.1231
713.017	35.64879
713.204	40.06
713.391	31.10233
713.578	44.17061
713.765	44.53452
713.951	38.57215
714.138	58.0212
714.325	40.91397
714.512	35.97359
714.698	30.13134
714.885	48.61536
715.072	37.67647
715.258	36.65638
715.445	31.51641
715.631	46.08745
715.818	18.97318
716.005	31.09707
716.191	39.64761
716.378	33.30311
716.564	43.22919
716.751	29.65923
716.937	32.33865
717.124	45.26819
717.31	30.38772
717.497	47.67331
717.683	31.58265
717.869	56.87077
718.056	34.75344
718.242	41.41136
718.429	36.29085
718.615	28.91978
718.801	39.57903
718.988	46.62838
719.174	42.62812
719.36	37.01625
719.547	50.0345
719.733	41.95644
719.919	42.21692
720.105	45.66004
720.291	39.43439
720.478	42.82221
720.664	39.44343
720.85	37.28131
721.036	64.33446
721.222	53.21116
721.408	40.8176
721.595	58.22963
721.781	56.06178
721.967	51.27567
722.153	56.64551
722.339	48.55202
722.525	45.92494
722.711	32.9179
722.897	31.05519
723.083	39.34861
723.269	51.05005
723.455	64.88929
723.641	68.45255
723.827	44.26531
724.012	47.51181
724.198	40.20287
724.384	53.49982
724.57	47.84039
724.756	30.5459
724.942	26.44408
725.127	52.24211
725.313	56.37415
725.499	55.76889
725.685	60.95802
725.87	47.63645
726.056	36.09538
726.242	55.9205
726.428	29.89756
726.613	50.82052
726.799	41.14762
726.985	34.00667
727.17	29.36505
727.356	57.78943
727.541	34.99726
727.727	38.89147
727.913	50.20661
728.098	37.74832
728.284	50.20218
728.469	30.74451
728.655	35.50903
728.84	49.75552
729.026	51.79255
729.211	51.59655
729.397	45.67705
729.582	48.94547
729.767	42.02517
729.953	47.00619
730.138	52.32209
730.323	24.27847
730.509	32.58657
730.694	58.83104
730.879	47.79109
731.065	44.18674
731.25	65.94327
731.435	50.05019
731.621	30.10394
731.806	38.32149
731.991	46.75377
732.176	30.2536
732.361	55.34228
732.547	44.70491
732.732	28.25957
732.917	66.22966
733.102	32.28334
733.287	35.97039
733.472	43.56894
733.657	45.38891
733.842	28.94067
734.027	40.6492
734.212	41.19985
734.397	35.92785
734.582	45.48888
734.767	53.34176
734.952	59.42596
735.137	21.8304
735.322	60.34053
735.507	49.39643
735.692	49.20557
735.877	69.96729
736.062	64.41834
736.247	50.68095
736.431	46.47159
736.616	60.95071
736.801	50.28174
736.986	45.93713
737.171	39.80531
737.355	34.99362
737.54	59.06415
737.725	46.69309
737.909	78.53795
738.094	41.20544
738.279	56.90319
738.463	43.93809
738.648	52.98153
738.833	51.85526
739.017	67.99975
739.202	42.74986
739.386	44.6628
739.571	31.01896
739.756	54.59688
739.94	46.72093
740.125	59.04415
740.309	38.35327
740.494	56.19849
740.678	48.32334
740.863	53.27975
741.047	50.23474
741.231	61.92744
741.416	38.17609
741.6	67.03032
741.785	40.04211
741.969	59.97888
742.153	62.43867
742.338	27.59887
742.522	49.96773
742.706	59.9815
742.89	36.54492
743.075	53.74365
743.259	66.51122
743.443	60.81132
743.627	65.84777
743.812	78.27834
743.996	32.90039
744.18	48.90457
744.364	44.83182
744.548	83.38838
744.732	50.19375
744.916	61.88681
745.1	58.23132
745.285	47.99945
745.469	59.36182
745.653	75.4641
745.837	36.24847
746.021	85.48572
746.205	67.49565
746.389	52.14566
746.573	49.91339
746.757	74.27684
746.94	46.85756
747.124	66.28443
747.308	38.17166
747.492	70.55255
747.676	44.29713
747.86	83.66082
748.044	47.40875
748.227	31.3934
748.411	100.57343
748.595	56.46234
748.779	41.75495
748.963	57.82534
749.146	53.42137
749.33	43.77137
749.514	39.81542
749.697	67.63346
749.881	43.76346
750.065	41.41397
750.248	52.68218
750.432	86.55404
750.616	51.93417
750.799	35.70894
750.983	80.31563
751.166	92.8042
751.35	34.5254
751.533	62.01499
751.717	71.20881
751.9	73.03814
752.084	48.25129
752.267	40.67018
752.451	44.20931
752.634	55.78091
752.818	62.0677
753.001	65.17833
753.184	66.81454
753.368	61.7405
753.551	14.61481
753.734	44.29023
753.918	80.34949
754.101	44.34487
754.284	65.24683
754.467	49.23425
754.651	44.06088
754.834	42.50505
755.017	71.35965
755.2	67.67791
755.384	38.93498
755.567	64.82956
755.75	69.83098
755.933	51.91377
756.116	58.06417
756.299	48.66301
756.482	42.83226
756.665	63.78877
756.848	55.6404
757.032	61.885
757.215	36.71622
757.398	44.6596
757.581	43.40407
757.764	96.59669
757.947	51.8672
758.129	72.19428
758.312	20.69726
758.495	52.93977
758.678	52.73905
758.861	50.34696
759.044	83.12729
759.227	44.94879
759.41	43.8051
759.592	62.43275
759.775	53.06519
759.958	67.88402
760.141	37.81503
760.324	89.3486
760.506	76.47543
760.689	68.88696
760.872	90.79994
761.054	61.54949
761.237	53.40517
761.42	62.71569
761.602	70.08994
761.785	59.2421
761.968	70.32774
762.15	84.23588
762.333	51.76285
762.515	59.26086
762.698	48.39435
762.88	65.1502
763.063	56.61407
763.245	60.54466
763.428	39.40463
763.61	43.46842
763.793	32.4601
763.975	51.54534
764.158	43.301
764.34	41.90138
764.522	36.19905
764.705	43.97758
764.887	62.97045
765.069	32.48703
765.252	59.6964
765.434	61.93866
765.616	53.52966
765.799	44.18646
765.981	64.27682
766.163	43.52265
766.345	67.85407
766.528	46.7429
766.71	24.38031
766.892	57.99475
767.074	74.28434
767.256	54.3547
767.438	84.72724
767.62	59.36811
767.802	92.2692
767.985	68.32745
768.167	90.66646
768.349	47.8446
768.531	69.17482
768.713	64.83192
768.895	74.73734
769.077	66.14278
769.259	101.21569
769.441	149.88722
769.623	77.25215
769.804	90.21079
769.986	88.35952
770.168	107.46064
770.35	125.57481
770.532	91.46887
770.714	100.47377
770.896	109.07955
771.077	46.07561
771.259	105.53572
771.441	90.05929
771.623	115.17978
771.804	139.84331
771.986	41.64974
772.168	71.58019
772.35	110.95197
772.531	155.97826
772.713	82.50374
772.894	117.79572
773.076	83.89286
773.258	72.86368
773.439	114.61818
773.621	126.73284
773.802	57.94378
773.984	73.09955
774.166	90.72788
774.347	119.03174
774.529	113.63402
774.71	42.01362
774.891	81.53538
775.073	73.16884
775.254	123.54775
775.436	70.89233
775.617	140.5811
775.799	73.72988
775.98	127.50774
776.161	131.56184
776.343	136.35949
776.524	87.54845
776.705	77.09107
776.886	42.72991
777.068	97.39993
777.249	162.18242
777.43	151.04804
777.611	59.91019
777.793	82.51635
777.974	128.77689
778.155	76.32549
778.336	67.38386
778.517	151.15957
778.698	66.01393
778.879	41.4708
779.061	26.28399
779.242	95.68305
779.423	100.03147
779.604	73.44433
779.785	85.75779
779.966	89.59451
780.147	108.22785
780.328	120.58967
780.509	166.13739
780.69	108.55089
780.871	69.04264
781.051	51.84964
781.232	93.41372
781.413	90.33472
781.594	82.11358
781.775	75.06862
781.956	71.24779
782.137	41.16221
782.317	68.4058
782.498	96.93246
782.679	96.82981
782.86	91.13957
783.04	70.02316
783.221	99.76615
783.402	147.5187
783.583	89.25947
783.763	113.03107
783.944	78.07499
784.124	52.15649
784.305	144.32941
784.486	104.17453
784.666	83.64107
784.847	46.78266
785.027	171.4024
785.208	68.97578
785.388	71.09836
785.569	69.55626
785.749	81.12277
785.93	72.10374
786.11	51.68506
786.291	102.9825
786.471	92.31844
786.652	109.6437
786.832	86.42004
787.012	98.39766
787.193	58.17873
787.373	92.88396
787.553	76.82822
787.734	95.04605
787.914	76.27125
788.094	103.38117
788.275	97.09874
788.455	76.4958
788.635	54.42348
788.815	89.11797
788.995	60.3199
789.176	50.176
789.356	67.02535
789.536	78.21391
789.716	100.11518
789.896	65.09749
790.076	72.53417
790.256	89.04897
790.436	31.96046
790.616	66.32545
790.796	91.57633
790.976	76.09303
791.156	67.22284
791.336	108.81984
791.516	98.79692
791.696	77.30031
791.876	51.30234
792.056	89.0907
792.236	112.31886
792.416	107.79969
792.596	98.42002
792.776	101.36361
792.956	104.95762
793.135	132.9286
793.315	62.74835
793.495	123.27792
793.675	101.91615
793.854	112.77347
794.034	110.06804
794.214	59.77521
794.394	114.62615
794.573	127.55492
794.753	89.35993
794.933	67.40596
795.112	95.21558
795.292	112.27157
795.472	143.53059
795.651	54.89364
795.831	85.30503
796.01	80.48297
796.19	78.53466
796.369	84.38957
796.549	102.48133
796.728	80.95943
796.908	50.72224
797.087	61.40043
797.267	75.16074
797.446	57.31036
797.626	103.25227
797.805	101.68067
797.984	65.49212
798.164	103.54166
798.343	64.07872
798.522	93.94219
798.702	87.68599
798.881	56.7538
799.06	80.97459
799.239	36.83737
799.419	60.51005
799.598	133.50981
799.777	98.91035
799.956	122.9545
800.136	74.94128
800.315	65.78909
800.494	103.16787
800.673	117.64802
800.852	104.64526
801.031	111.48075
801.21	102.93938
801.389	74.62913
801.568	91.5403
801.747	144.358
801.926	87.60937
802.105	136.44811
802.284	75.1339
802.463	135.63586
802.642	96.42432
802.821	95.25954
803	128.97323
803.179	115.44721
803.358	124.89929
803.537	70.20071
803.716	88.53742
803.895	69.47937
804.073	85.00154
804.252	68.81505
804.431	99.50485
804.61	86.31742
804.789	124.8147
804.967	74.10004
805.146	70.94673
805.325	149.79456
805.503	101.81989
805.682	49.48508
805.861	170.87448
806.039	126.236
806.218	76.99564
806.397	93.89837
806.575	87.52489
806.754	98.15685
806.932	63.52943
807.111	141.54434
807.289	117.62801
807.468	92.65535
807.646	121.93562
807.825	103.42818
808.003	94.19433
808.182	114.36294
808.36	92.80432
808.539	67.15336
808.717	141.87832
808.895	68.23844
809.074	99.1145
809.252	90.71017
809.43	112.55129
809.609	128.87864
809.787	141.07745
809.965	88.29913
810.144	94.70563
810.322	86.10182
810.5	106.42729
810.678	82.65232
810.856	164.27478
811.035	126.47961
811.213	116.31343
811.391	135.53896
811.569	99.12253
811.747	198.29663
811.925	134.73765
812.103	72.418
812.281	88.35101
812.459	155.72232
812.637	149.53478
812.816	121.83876
812.994	153.0156
813.171	133.35158
813.349	110.1389
813.527	133.93156
813.705	142.23015
813.883	184.39142
814.061	131.08086
814.239	160.97145
814.417	170.76911
814.595	109.30413
814.773	110.15677
814.95	100.00758
815.128	116.95095
815.306	84.40059
815.484	94.29136
815.662	71.60909
815.839	67.75448
816.017	76.59842
816.195	150.85925
816.372	89.59337
816.55	126.99772
816.728	149.69607
816.905	88.03637
817.083	154.93523
817.261	98.54253
817.438	177.79503
817.616	168.26556
817.793	84.51451
817.971	123.3343
818.148	128.19724
818.326	144.83995
818.503	114.40399
818.681	148.2729
818.858	84.24961
819.036	98.48682
819.213	104.71768
819.391	78.63586
819.568	72.29026
819.745	71.62918
819.923	119.70274
820.1	80.90145
820.277	70.76711
820.455	83.31929
820.632	83.48756
820.809	84.71214
820.986	58.98223
821.164	45.75665
821.341	41.35891
821.518	53.8697
821.695	39.20742
821.872	37.06819
822.05	31.85965
822.227	24.17422
822.404	25.76796
822.581	28.39659
822.758	25.02176
822.935	24.25536
823.112	28.0858
823.289	22.38557
823.466	27.46792
823.643	25.21848
823.82	30.42548
823.997	27.36538
824.174	32.82097
824.351	42.47753
824.528	41.50719
824.705	38.58685
824.882	43.63788
825.059	57.58028
825.236	39.43955
825.412	42.47969
825.589	55.64546
825.766	75.40835
825.943	50.00132
826.12	58.63197
826.296	38.58026
826.473	51.41005
826.65	51.26646
826.827	61.59669
827.003	41.16922
827.18	44.99737
827.357	50.9347
827.533	44.78314
827.71	25.14636
827.887	37.99434
828.063	43.36525
828.24	37.82485
828.416	51.58068
828.593	40.14724
828.769	58.45146
828.946	66.83062
829.122	68.02217
829.299	62.83195
829.475	40.26241
829.652	68.78248
829.828	113.55857
830.005	70.34646
830.181	104.32381
830.357	71.23445
830.534	107.95426
830.71	82.25182
830.886	103.87837
831.063	100.95894
831.239	136.3016
831.415	61.119
831.592	139.3861
831.768	85.41379
831.944	70.3211
832.12	138.09492
832.296	126.63337
832.473	112.18912
832.649	81.04091
832.825	104.07553
833.001	63.62495
833.177	95.80584
833.353	84.74145
833.529	47.89117
833.705	66.2913
833.881	48.80686
834.058	48.46538
834.234	49.98105
834.41	50.82147
834.586	38.29742
834.761	49.02071
834.937	53.50364
835.113	54.03437
835.289	48.39427
835.465	58.72333
835.641	50.46696
835.817	59.24749
835.993	107.10348
836.169	54.54176
836.344	81.34257
836.52	94.17439
836.696	93.1225
836.872	67.31293
837.048	191.42134
837.223	75.32845
837.399	162.5579
837.575	123.50315
837.75	117.12101
837.926	154.81184
838.102	272.55103
838.277	194.41765
838.453	266.01484
838.628	244.28947
838.804	112.40184
838.98	251.00011
839.155	124.37497
839.331	170.20484
839.506	121.82075
839.682	114.12013
839.857	151.73741
840.033	178.65072
840.208	83.09661
840.384	44.43546
840.559	88.70374
840.734	134.56423
840.91	196.84372
841.085	115.52364
841.26	109.37636
841.436	93.62163
841.611	100.35904
841.786	151.5157
841.962	211.34928
842.137	123.68404
842.312	78.21654
842.487	106.3339
842.663	88.44241
842.838	112.39593
843.013	402.06417
843.188	197.41143
843.363	143.73776
843.538	360.48136
843.714	341.7494
843.889	345.31918
844.064	338.86225
844.239	313.24964
844.414	413.85814
844.589	240.93318
844.764	493.95033
844.939	438.46978
845.114	530.66546
845.289	569.49885
845.464	547.23197
845.639	426.84229
845.814	200.79366
845.989	264.32292
846.163	274.56602
846.338	311.84208
846.513	491.24961
846.688	302.94796
846.863	278.13312
847.038	241.61094
847.212	334.57584
847.387	312.99321
847.562	315.04092
847.737	416.90889
847.911	159.41165
848.086	175.75288
848.261	609.86394
848.435	268.90249
848.61	451.18879
848.785	185.46496
848.959	436.01694
849.134	622.14324
849.308	739.69347
849.483	341.97886
849.658	524.79046
849.832	247.15732
850.007	214.89326
850.181	994.51265
850.356	251.57583
850.53	776.07188
850.705	204.15889
850.879	112.75041
851.053	273.78488
851.228	254.54881
851.402	416.15335
851.577	470.56761
851.751	693.98537
851.925	319.55341
852.099	148.47142
852.274	199.43686
852.448	279.97441
852.622	436.53343
852.797	297.76189
852.971	316.6954
853.145	321.96709
853.319	1066.79349
853.493	490.93146
853.668	254.0714
853.842	720.39873
854.016	521.81881
854.19	638.01532
854.364	332.82838
854.538	366.63003
854.712	562.44716
854.886	294.08552
855.06	262.62381
855.234	112.82198
855.408	625.35518
855.582	585.85915
855.756	518.48157
855.93	653.82997
856.104	353.82846
856.278	500.77818
856.452	331.05748
856.626	420.69249
856.8	957.00406
856.973	412.63928
857.147	389.3877
857.321	427.40964
857.495	539.28019
857.669	353.14073
857.842	277.45103
858.016	527.36805
858.19	205.46638
858.364	1291.6397
858.537	282.05969
858.711	334.19339
858.885	284.29845
859.058	254.32018
859.232	118.78352
859.405	159.20811
859.579	473.60006
859.753	421.2359
859.926	248.77484
860.1	151.22188
860.273	309.70233
860.447	578.85499
860.62	311.55331
860.794	727.47235
860.967	351.80608
861.141	627.3245
861.314	1037.97281
861.487	460.20521
861.661	623.86509
861.834	676.78591
862.008	484.19239
862.181	359.798
862.354	367.67293
862.528	404.3444
862.701	300.98864
862.874	177.13746
863.047	279.0349
863.221	301.33829
863.394	151.22247
863.567	571.66516
863.74	109.75407
863.913	479.95318
864.087	462.88611
864.26	563.08706
864.433	300.6724
864.606	898.67649
864.779	304.44474
864.952	153.53203
865.125	255.82456
865.298	338.44583
865.471	313.02375
865.644	815.60523
865.817	533.60077
865.99	524.51625
866.163	721.28978
866.336	299.03122
866.509	294.47733
866.682	270.3516
866.855	598.29987
867.028	181.712
867.2	434.689
867.373	113.00492
867.546	349.47858
867.719	812.28501
867.892	434.80708
868.064	267.47265
868.237	377.33353
868.41	377.27404
868.583	163.90006
868.755	215.70475
868.928	293.14262
869.101	922.33753
869.273	549.91512
869.446	402.17148
869.619	631.21996
869.791	313.3337
869.964	520.74255
870.136	519.51028
870.309	420.41572
870.481	343.52926
870.654	173.39561
870.826	437.75282
870.999	259.85671
871.171	412.63486
871.344	257.96034
871.516	316.86404
871.689	216.65136
871.861	395.16841
872.033	225.93152
872.206	276.5008
872.378	465.11872
872.55	284.93004
872.723	189.74853
872.895	307.25389
873.067	509.66979
873.24	523.14897
873.412	267.1759
873.584	296.58997
873.756	271.56387
873.928	328.80354
874.101	371.01453
874.273	409.47815
874.445	130.4202
874.617	179.03358
874.789	321.29103
874.961	291.84497
875.133	396.17574
875.305	322.99473
875.477	223.54058
875.649	170.56732
875.821	186.91766
875.993	592.20079
876.165	203.2509
876.337	345.61515
876.509	295.81217
876.681	328.89689
876.853	381.10772
877.025	371.79214
877.197	211.50122
877.369	192.07282
877.541	456.1315
877.712	118.96651
877.884	195.40578
878.056	366.71233
878.228	187.77631
878.4	396.24311
878.571	202.88814
878.743	138.72689
878.915	326.04084
879.086	190.43893
879.258	225.95669
879.43	204.60031
879.601	181.01107
879.773	196.67412
879.945	49.35297
880.116	77.17699
880.288	47.14844
880.459	51.87815
880.631	39.61524
880.802	47.29948
880.974	43.41879
881.145	30.58499
881.317	40.18131
881.488	29.27333
881.66	31.82141
881.831	29.23239
882.002	39.03313
882.174	28.01034
882.345	36.27463
882.517	19.73199
882.688	43.39452
882.859	33.48653
883.03	54.51124
883.202	51.79984
883.373	45.45955
883.544	43.71317
883.715	73.48704
883.887	64.41466
884.058	55.25557
884.229	80.20211
884.4	82.41301
884.571	97.26163
884.742	83.10233
884.914	86.13444
885.085	139.61125
885.256	184.56996
885.427	156.62835
885.598	162.31326
885.769	181.21935
885.94	181.63924
886.111	120.87671
886.282	233.51412
886.453	162.09786
886.624	124.39656
886.795	228.00299
886.966	180.59889
887.136	242.35774
887.307	163.23278
887.478	380.06185
887.649	302.2411
887.82	325.31452
887.991	252.80885
888.161	325.89154
888.332	301.63724
888.503	141.33679
888.674	502.01434
888.844	596.46154
889.015	399.76628
889.186	166.65247
889.356	540.01991
889.527	149.71312
889.698	1068.98731
889.868	264.12472
890.039	359.81861
890.209	299.36751
890.38	393.00201
890.551	331.06
890.721	457.56945
890.892	460.8129
891.062	266.65471
891.233	331.29563
891.403	314.12106
891.574	207.45913
891.744	283.02926
891.914	343.89211
892.085	304.39004
892.255	105.358
892.425	603.08001
892.596	385.05407
892.766	401.91664
892.936	463.32081
893.107	387.98548
893.277	204.02105
893.447	168.03977
893.618	124.99481
893.788	267.16119
893.958	134.65197
894.128	134.27397
894.298	152.69762
894.468	192.06442
894.639	95.70152
894.809	63.78796
894.979	100.45217
895.149	116.20874
895.319	92.09906
895.489	131.09362
895.659	164.38781
895.829	102.8115
895.999	107.29917
896.169	79.83249
896.339	105.36693
896.509	223.70584
896.679	238.98263
896.849	243.69154
897.019	365.53775
897.189	267.06596
897.358	254.58641
897.528	357.95728
897.698	121.1986
897.868	319.54882
898.038	905.00869
898.208	727.12746
898.377	142.8238
898.547	779.3295
898.717	1030.79839
898.886	409.49719
899.056	616.91167
899.226	1487.58255
899.395	467.31387
899.565	850.75562
899.735	439.26878
899.904	1027.50171
900.074	1008.30242
900.244	272.3824
900.413	1203.64549
900.583	244.52706
900.752	410.38129
900.922	2075.38036
901.091	63.2899
901.261	643.69776
901.43	640.73056
901.599	593.07014
901.769	7140.93096
901.938	742.90393
902.108	782.75617
902.277	1560.90011
902.446	248.94832
902.616	235.83516
902.785	335.0188
902.954	679.47697
903.124	485.89098
903.293	326.46158
903.462	176.48083
903.631	241.27612
903.801	186.47344
903.97	92.0519
904.139	151.64917
904.308	111.59371
904.477	92.51502
904.646	55.00008
904.816	71.42723
904.985	122.89369
905.154	186.96315
