Data from WindowProjectSample3_Transmission__24__00024.txt Node

Date: Sun May 04 10:21:34 EDT 2025
User: jessi
Spectrometer: SR400872
Trigger mode: 0
Integration Time (sec): 5.000050E-1
Scans to average: 20
Electric dark correction enabled: true
Nonlinearity correction enabled: true
Boxcar width: 0
XAxis mode: Wavelengths
Number of Pixels in Spectrum: 3648
>>>>>Begin Spectral Data<<<<<
184.909	-1623.74819
185.132	-1256.94132
185.355	-1312.12264
185.578	-1066.91555
185.801	-4106.96206
186.024	-1034.83336
186.247	-1447.61764
186.47	-2712.14449
186.693	-187.76608
186.916	-251.08181
187.139	-991.86163
187.362	-1640.43821
187.585	-1015.40903
187.808	-836.52646
188.031	-226440.71526
188.254	-1297.7531
188.476	-974.80274
188.699	-1054.86777
188.922	604.01243
189.145	-1239.13057
189.368	-1167.33479
189.591	-3334.1802
189.813	-704.39036
190.036	-1290.66522
190.259	-3171.72194
190.482	-1584.4496
190.705	-1729.80301
190.927	-969.52768
191.15	-1672.17663
191.373	-2284.92708
191.595	-2410.5095
191.818	-1225.45753
192.041	-13389.80742
192.263	-1508.01037
192.486	-430.48342
192.709	-1653.99669
192.931	-4188.8409
193.154	-1187.45825
193.377	-1184.11278
193.599	12645.15796
193.822	-779.77257
194.044	-3938.3165
194.267	-4347.15277
194.489	-785.24041
194.712	-1765.13578
194.934	-1625.91487
195.157	-980.87399
195.379	-736.7667
195.602	-817.56696
195.824	-1005.40252
196.047	-877.84357
196.269	-1049.05721
196.492	-1114.65915
196.714	-1029.15649
196.936	-1556.47742
197.159	-899.27908
197.381	-888.71586
197.604	-1155.81451
197.826	-1893.16625
198.048	-1643.9748
198.271	-1267.75896
198.493	-1095.30414
198.715	-868.25905
198.938	-5837.38823
199.16	-1196.71804
199.382	-919.15589
199.604	-9327.9306
199.827	-1603.6148
200.049	-959.24238
200.271	-850.27018
200.493	-2129.49007
200.715	-945.60861
200.938	-757.60816
201.16	-1328.54636
201.382	-2621.07205
201.604	-1263.85381
201.826	-1229.24806
202.048	-555.92799
202.27	-874.80472
202.492	-1932.94296
202.715	-1979.02136
202.937	-2256.26658
203.159	-1155.0474
203.381	-1654.0762
203.603	-1310.99195
203.825	4135.69939
204.047	-1142.29714
204.269	-3130.93033
204.491	-1495.806
204.713	-784.32806
204.935	-1221.44418
205.156	-1272.58247
205.378	-3924.68438
205.6	-935.41584
205.822	-1096.8801
206.044	2778.12246
206.266	-1296.5149
206.488	-744.74592
206.71	-1889.69285
206.932	-2434.50778
207.153	-1158.38176
207.375	-943.5098
207.597	-1101.00138
207.819	-904.05392
208.041	-1332.50572
208.262	-1019.81575
208.484	-1943.61545
208.706	-827.8895
208.927	-830.58548
209.149	-2149.30667
209.371	-798.85113
209.593	-753.85299
209.814	-587.05278
210.036	-857.39561
210.258	-558.5957
210.479	-1350.42179
210.701	11091.08125
210.922	-860.36456
211.144	-921.82428
211.366	-1998.22377
211.587	10852.91111
211.809	-1006.8508
212.03	-3110.32401
212.252	1620.47123
212.473	-1189.16204
212.695	-4763.21922
212.916	-2960.26202
213.138	-6039.85456
213.359	-971.26882
213.581	-1472.81277
213.802	-1024.92056
214.024	-1315.04139
214.245	-10902.19771
214.466	-724.0836
214.688	-1351.8696
214.909	-1474.7736
215.131	-2030.14635
215.352	-921.691
215.573	-1221.71509
215.795	-3052.22527
216.016	-1108.05073
216.237	-4601.92686
216.459	-13559.04964
216.68	-1528.31066
216.901	-1412.84812
217.122	-3299.92743
217.344	-1203.72881
217.565	-1541.63107
217.786	-1483.44871
218.007	-1278.42851
218.228	-5256.59774
218.45	-1170.0781
218.671	-1455.2678
218.892	-1678.351
219.113	-2134.1491
219.334	-100.61473
219.555	-1335.27992
219.776	-865.34269
219.997	-1352.15313
220.219	-2791.87544
220.44	-989.41246
220.661	-813.87481
220.882	-1041.20479
221.103	-3259.69916
221.324	5746.77387
221.545	-1889.59693
221.766	-1310.78698
221.987	-2436.09827
222.208	-2871.38577
222.429	-920.96448
222.65	-1736.09782
222.87	5029.25873
223.091	-8187.96813
223.312	4159.93904
223.533	-1746.82252
223.754	-1664.85644
223.975	-2422.27749
224.196	151877.1993
224.417	-10123.21531
224.637	2119.49958
224.858	213.75826
225.079	-7173.58588
225.3	2411.47341
225.521	-872.38459
225.741	8295.6706
225.962	6462.43261
226.183	256.86618
226.404	8749.25149
226.624	1693.01527
226.845	7765.71379
227.066	1718.66189
227.286	744.11255
227.507	260.76644
227.728	273.98927
227.948	494.70381
228.169	151.62837
228.389	151.28153
228.61	83.33065
228.831	117.75319
229.051	8.2311
229.272	67.21524
229.492	104.15952
229.713	30.54982
229.933	71.00403
230.154	63.34032
230.374	103.75667
230.595	71.62335
230.815	44.46192
231.036	80.07002
231.256	-12.33842
231.477	141.81287
231.697	81.83389
231.917	84.28897
232.138	121.37855
232.358	238.23394
232.579	205.48835
232.799	36.64919
233.019	199.19298
233.24	233.58677
233.46	76.33356
233.68	131.60629
233.901	81.12637
234.121	55.78775
234.341	22.30431
234.561	-5.23924
234.782	53.02146
235.002	139.09655
235.222	-1.36235
235.442	128.78249
235.662	60.32765
235.883	119.07132
236.103	97.09748
236.323	71.07063
236.543	53.79856
236.763	79.13505
236.983	76.03229
237.203	83.12154
237.423	120.58886
237.643	178.68272
237.864	145.68444
238.084	37.85923
238.304	46.22338
238.524	85.24882
238.744	74.85764
238.964	132.50142
239.184	116.4503
239.404	120.18757
239.624	61.4239
239.843	106.77168
240.063	60.26317
240.283	40.7719
240.503	44.04592
240.723	44.06144
240.943	27.64018
241.163	33.74427
241.383	22.97878
241.603	11.88445
241.822	14.48119
242.042	10.46861
242.262	14.28245
242.482	15.19479
242.702	17.09376
242.921	5.97108
243.141	11.8945
243.361	11.16115
243.581	15.90229
243.8	14.02199
244.02	8.60639
244.24	16.95107
244.459	15.37111
244.679	32.23794
244.899	19.83746
245.118	23.97626
245.338	22.00164
245.558	23.35826
245.777	13.20378
245.997	16.59883
246.216	16.16838
246.436	9.74097
246.655	6.61907
246.875	5.34629
247.094	9.99362
247.314	3.88851
247.533	6.27903
247.753	7.15529
247.972	5.7504
248.192	2.17093
248.411	3.48608
248.631	5.76896
248.85	7.57726
249.07	7.25805
249.289	10.73309
249.508	7.53065
249.728	12.80924
249.947	12.32072
250.166	16.02765
250.386	8.39653
250.605	11.98395
250.824	20.5023
251.044	12.73253
251.263	39.28837
251.482	21.60013
251.701	18.64443
251.921	0.09844
252.14	6.20814
252.359	7.50461
252.578	16.38701
252.798	6.27644
253.017	14.4477
253.236	7.48662
253.455	9.71913
253.674	19.3251
253.893	9.01944
254.112	13.73055
254.331	20.46277
254.551	16.0622
254.77	7.7383
254.989	23.41826
255.208	18.21239
255.427	27.75044
255.646	23.25075
255.865	33.75928
256.084	15.12752
256.303	19.0991
256.522	22.02526
256.741	6.28987
256.96	6.57471
257.179	14.13725
257.397	17.62911
257.616	9.8893
257.835	10.15024
258.054	24.2506
258.273	16.68383
258.492	16.81905
258.711	10.32825
258.93	4.87952
259.148	7.43257
259.367	6.76291
259.586	8.47197
259.805	3.85009
260.023	7.35428
260.242	5.58291
260.461	4.42548
260.68	2.2318
260.898	6.6371
261.117	2.40588
261.336	1.64102
261.554	5.44179
261.773	6.00061
261.992	1.61316
262.21	5.4013
262.429	6.46982
262.648	11.28717
262.866	12.94217
263.085	8.96361
263.303	7.74336
263.522	14.46156
263.74	13.8964
263.959	23.50569
264.178	12.46972
264.396	10.87581
264.615	7.91454
264.833	17.69553
265.051	14.71161
265.27	17.06597
265.488	17.10396
265.707	10.43366
265.925	16.34029
266.144	8.16695
266.362	8.92041
266.58	9.35323
266.799	7.72186
267.017	9.13726
267.235	8.57119
267.454	5.82894
267.672	3.00838
267.89	6.79435
268.109	7.39434
268.327	7.61331
268.545	1.54596
268.763	6.47685
268.982	3.13409
269.2	7.57
269.418	5.03583
269.636	4.19412
269.854	7.14624
270.073	4.94151
270.291	2.93331
270.509	2.97077
270.727	6.77169
270.945	10.85399
271.163	11.03845
271.381	2.81651
271.599	4.7596
271.817	7.59363
272.036	2.80004
272.254	5.19314
272.472	3.91564
272.69	3.81279
272.908	3.99225
273.126	6.12895
273.344	8.09367
273.562	2.93506
273.779	4.37902
273.997	6.6628
274.215	6.67061
274.433	4.61481
274.651	6.85738
274.869	6.62858
275.087	4.16042
275.305	6.58804
275.523	3.88095
275.74	4.57568
275.958	8.54948
276.176	12.2622
276.394	4.1714
276.612	5.04976
276.829	4.99894
277.047	4.48361
277.265	4.99181
277.483	5.30598
277.7	6.45377
277.918	5.41193
278.136	9.66756
278.353	4.67228
278.571	2.9225
278.789	7.53494
279.006	1.90661
279.224	4.5321
279.442	7.85709
279.659	5.50886
279.877	3.39753
280.094	7.90444
280.312	1.63884
280.529	5.34959
280.747	1.95782
280.964	4.45766
281.182	8.46209
281.399	4.50923
281.617	5.45175
281.834	3.98195
282.052	2.93009
282.269	4.82897
282.487	4.10361
282.704	3.516
282.921	3.3287
283.139	5.09974
283.356	6.65274
283.574	6.20182
283.791	2.90206
284.008	8.03228
284.226	4.7577
284.443	5.18839
284.66	6.24065
284.877	5.40045
285.095	3.39144
285.312	2.50283
285.529	1.4516
285.746	1.36388
285.964	3.28994
286.181	2.12298
286.398	2.98537
286.615	4.36382
286.832	4.03972
287.05	1.20982
287.267	2.9306
287.484	3.09339
287.701	4.29491
287.918	3.97808
288.135	4.28004
288.352	1.94298
288.569	2.26539
288.786	3.81703
289.003	2.8676
289.22	4.57222
289.437	2.61416
289.654	4.26876
289.871	4.49017
290.088	4.27315
290.305	3.43344
290.522	3.07511
290.739	3.08512
290.956	4.65776
291.173	5.45272
291.39	5.09232
291.607	3.47696
291.824	3.12634
292.04	2.18683
292.257	4.61014
292.474	4.87565
292.691	3.08678
292.908	1.63201
293.125	2.56223
293.341	1.69757
293.558	7.60479
293.775	3.35027
293.992	3.16923
294.208	1.38838
294.425	2.11704
294.642	2.81145
294.858	4.05616
295.075	1.19804
295.292	3.05401
295.508	3.59378
295.725	5.11914
295.942	2.60405
296.158	1.86227
296.375	3.03577
296.591	2.40646
296.808	2.43377
297.024	2.95257
297.241	3.32143
297.458	3.48332
297.674	0.41978
297.891	2.70105
298.107	2.23115
298.323	1.69514
298.54	4.13684
298.756	2.1885
298.973	1.06808
299.189	4.36574
299.406	2.07794
299.622	4.29591
299.838	4.51834
300.055	3.95643
300.271	1.12238
300.487	1.87252
300.704	2.05882
300.92	1.08343
301.136	5.87784
301.353	4.55743
301.569	3.08968
301.785	3.5468
302.001	4.07981
302.218	3.67097
302.434	3.92505
302.65	1.48969
302.866	2.35311
303.083	6.13496
303.299	5.83442
303.515	3.20681
303.731	3.51404
303.947	1.32732
304.163	2.44511
304.379	3.353
304.595	3.60646
304.812	2.44405
305.028	2.18552
305.244	2.67055
305.46	3.97291
305.676	4.26362
305.892	4.98759
306.108	3.848
306.324	2.95778
306.54	5.76203
306.756	3.78895
306.972	3.72001
307.187	2.88193
307.403	5.31251
307.619	2.52431
307.835	4.70891
308.051	5.04109
308.267	1.86053
308.483	4.61766
308.699	3.83355
308.914	3.2323
309.13	3.30621
309.346	1.23258
309.562	1.9169
309.778	1.33786
309.993	3.84205
310.209	3.16236
310.425	1.65725
310.641	2.86353
310.856	1.79907
311.072	1.75904
311.288	2.9033
311.503	3.18355
311.719	1.10839
311.935	0.95251
312.15	3.63681
312.366	3.32009
312.581	3.82992
312.797	2.96906
313.013	4.10918
313.228	2.46976
313.444	3.2121
313.659	2.11631
313.875	3.86753
314.09	2.99986
314.306	5.08391
314.521	4.16703
314.737	4.22911
314.952	3.61993
315.168	3.41623
315.383	3.81785
315.599	2.98805
315.814	2.98707
316.029	4.47661
316.245	1.77093
316.46	1.17247
316.675	4.98075
316.891	5.81601
317.106	7.02601
317.321	4.13064
317.537	4.05624
317.752	4.47466
317.967	4.58916
318.183	2.6242
318.398	2.96448
318.613	4.74044
318.828	5.27044
319.043	4.50355
319.259	3.01997
319.474	3.59168
319.689	4.83223
319.904	1.11676
320.119	4.55164
320.334	3.83239
320.549	3.0505
320.765	5.12834
320.98	3.96995
321.195	4.56903
321.41	3.56387
321.625	4.4909
321.84	5.73104
322.055	5.69761
322.27	2.49007
322.485	2.0716
322.7	3.84726
322.915	4.81481
323.13	2.43833
323.345	5.33922
323.56	4.27651
323.775	4.43712
323.989	4.23203
324.204	3.72402
324.419	4.57729
324.634	1.80995
324.849	3.29746
325.064	6.12033
325.279	4.75082
325.493	4.23615
325.708	4.76228
325.923	2.48931
326.138	2.77003
326.352	5.53258
326.567	4.73335
326.782	3.10693
326.997	2.63285
327.211	4.35651
327.426	3.97868
327.641	3.33069
327.855	1.67434
328.07	4.38848
328.285	5.8997
328.499	3.22771
328.714	3.9449
328.928	4.44449
329.143	3.65734
329.358	5.07195
329.572	4.90043
329.787	5.42837
330.001	7.17512
330.216	2.16486
330.43	6.12304
330.645	5.67255
330.859	4.73507
331.074	2.59785
331.288	3.87911
331.503	5.68367
331.717	2.35373
331.931	3.68876
332.146	3.98248
332.36	6.23727
332.575	4.17184
332.789	4.01285
333.003	3.55615
333.218	4.40435
333.432	2.89507
333.646	4.7244
333.86	5.82676
334.075	6.2292
334.289	3.0287
334.503	2.2843
334.717	4.50242
334.932	4.40923
335.146	5.02175
335.36	3.06166
335.574	4.81175
335.788	4.62261
336.003	5.21865
336.217	5.15079
336.431	4.50614
336.645	3.3493
336.859	2.58716
337.073	3.82768
337.287	3.90321
337.501	2.44327
337.715	4.04353
337.929	4.35645
338.143	2.41153
338.357	3.49368
338.571	2.83948
338.785	4.53241
338.999	3.07747
339.213	3.16287
339.427	2.21915
339.641	5.30949
339.855	3.27308
340.069	3.01048
340.283	4.98873
340.497	5.74077
340.711	4.3447
340.924	3.64321
341.138	2.63553
341.352	2.25144
341.566	3.82703
341.78	1.72063
341.993	3.00116
342.207	2.75195
342.421	4.13896
342.635	3.62995
342.848	3.1222
343.062	1.02238
343.276	3.04314
343.49	6.29181
343.703	2.96625
343.917	4.76349
344.131	4.91073
344.344	2.83762
344.558	3.16197
344.771	2.51587
344.985	5.00906
345.199	5.62544
345.412	4.0286
345.626	4.08918
345.839	1.73062
346.053	2.46116
346.266	2.51009
346.48	4.48199
346.693	4.03553
346.907	4.08285
347.12	2.55903
347.334	3.82596
347.547	4.04045
347.76	3.45711
347.974	4.88854
348.187	4.11319
348.401	3.49994
348.614	2.77512
348.827	3.51625
349.041	4.21327
349.254	1.8338
349.467	3.395
349.681	2.38811
349.894	2.89433
350.107	4.86892
350.32	5.85651
350.534	1.99095
350.747	3.4176
350.96	2.64015
351.173	2.84504
351.386	3.11671
351.6	3.05866
351.813	2.99999
352.026	3.63457
352.239	2.30188
352.452	3.34648
352.665	4.76745
352.878	3.27375
353.092	6.03649
353.305	4.37049
353.518	3.7519
353.731	2.49182
353.944	4.58409
354.157	3.08992
354.37	2.7433
354.583	2.3115
354.796	1.90192
355.009	4.91292
355.222	3.66722
355.435	3.61984
355.647	4.65134
355.86	2.67903
356.073	3.57883
356.286	3.15329
356.499	4.43369
356.712	4.2239
356.925	3.94461
357.138	4.53447
357.35	2.51454
357.563	3.15096
357.776	3.64867
357.989	3.4253
358.201	4.1992
358.414	3.8837
358.627	4.72994
358.84	3.36558
359.052	2.29581
359.265	2.39459
359.478	4.43166
359.69	0.97945
359.903	4.40407
360.116	4.34981
360.328	1.82347
360.541	4.23115
360.753	2.54513
360.966	3.03255
361.179	3.05139
361.391	2.91929
361.604	2.5072
361.816	3.03003
362.029	2.87139
362.241	2.5353
362.454	3.00192
362.666	2.63769
362.879	3.74927
363.091	3.12468
363.304	2.80021
363.516	3.38661
363.728	2.1983
363.941	4.04239
364.153	3.20755
364.366	1.18808
364.578	2.3446
364.79	3.83145
365.003	3.35223
365.215	2.90427
365.427	3.88824
365.639	4.61143
365.852	3.58536
366.064	5.12321
366.276	2.90249
366.488	3.83589
366.701	3.07377
366.913	3.13229
367.125	3.30153
367.337	2.78634
367.549	2.83634
367.762	3.37925
367.974	3.30894
368.186	3.05616
368.398	4.38635
368.61	4.05021
368.822	4.12996
369.034	3.30877
369.246	4.1111
369.458	5.97357
369.67	2.47003
369.882	5.27378
370.094	1.50654
370.306	4.91835
370.518	2.97667
370.73	2.85718
370.942	2.68154
371.154	3.20109
371.366	3.05844
371.578	3.9066
371.79	2.82974
372.002	4.58555
372.214	5.333
372.425	3.51372
372.637	4.94716
372.849	3.93202
373.061	1.30907
373.273	4.03828
373.484	3.95219
373.696	4.32958
373.908	1.17507
374.12	4.61998
374.331	3.82542
374.543	2.7319
374.755	2.62383
374.967	3.52498
375.178	4.3045
375.39	3.24689
375.602	3.47206
375.813	2.03708
376.025	2.30639
376.236	3.47276
376.448	3.51851
376.66	3.20467
376.871	3.04083
377.083	4.24166
377.294	4.62163
377.506	3.00816
377.717	4.77921
377.929	3.71613
378.14	2.94038
378.352	4.02362
378.563	3.95021
378.775	4.78378
378.986	2.82059
379.197	3.74515
379.409	2.92615
379.62	4.33615
379.832	3.61253
380.043	3.3065
380.254	3.65946
380.466	2.31613
380.677	6.10007
380.888	5.66867
381.1	6.12751
381.311	6.01715
381.522	3.5099
381.733	6.2897
381.945	3.32826
382.156	3.45049
382.367	3.06713
382.578	6.24913
382.789	6.08284
383.001	2.94876
383.212	4.97334
383.423	5.20749
383.634	4.51799
383.845	4.08546
384.056	3.10117
384.267	3.61741
384.478	3.52023
384.69	2.51814
384.901	4.04085
385.112	3.89397
385.323	5.28892
385.534	3.96728
385.745	3.79689
385.956	4.02774
386.167	2.69874
386.378	4.23187
386.588	2.56644
386.799	2.687
387.01	2.06613
387.221	4.41922
387.432	3.62848
387.643	5.49205
387.854	3.25327
388.065	3.27168
388.275	3.34231
388.486	3.19735
388.697	3.57639
388.908	3.20677
389.119	4.63169
389.329	5.23192
389.54	3.65699
389.751	3.85806
389.962	4.75281
390.172	3.72322
390.383	3.1811
390.594	2.8709
390.804	2.8575
391.015	2.95841
391.226	3.49993
391.436	4.14915
391.647	3.87436
391.858	4.17037
392.068	2.02706
392.279	2.66679
392.489	3.66333
392.7	4.50777
392.91	2.56283
393.121	2.91978
393.331	4.00162
393.542	4.71235
393.752	4.19039
393.963	3.80307
394.173	3.64374
394.384	4.23225
394.594	3.59195
394.804	2.62607
395.015	3.70586
395.225	4.29682
395.436	2.63291
395.646	4.0676
395.856	3.00496
396.067	2.4009
396.277	4.5139
396.487	4.08018
396.697	3.9063
396.908	4.38295
397.118	4.30713
397.328	3.77467
397.538	4.55316
397.749	3.1071
397.959	4.4479
398.169	4.23507
398.379	2.45486
398.589	4.28399
398.8	3.70506
399.01	3.84516
399.22	3.40963
399.43	5.63407
399.64	3.47134
399.85	4.17258
400.06	3.70207
400.27	3.11646
400.48	3.6193
400.69	4.92518
400.9	3.22252
401.11	2.9751
401.32	4.43038
401.53	3.2714
401.74	5.12921
401.95	4.22833
402.16	3.08514
402.37	4.24166
402.58	3.09236
402.79	4.17893
403	4.27769
403.209	3.10532
403.419	4.36569
403.629	3.21115
403.839	4.3401
404.049	4.47748
404.258	3.06023
404.468	2.85444
404.678	4.24397
404.888	4.43492
405.097	3.05601
405.307	3.60598
405.517	4.27436
405.727	3.98743
405.936	3.45009
406.146	3.98721
406.356	4.86375
406.565	3.75542
406.775	3.3976
406.984	3.47906
407.194	5.23396
407.404	3.83922
407.613	4.09374
407.823	4.45262
408.032	5.02772
408.242	4.68336
408.451	3.32308
408.661	3.72224
408.87	5.41405
409.08	3.19031
409.289	4.12377
409.499	3.97435
409.708	3.87246
409.918	2.06404
410.127	3.8147
410.336	5.18533
410.546	4.40468
410.755	3.57323
410.964	3.46412
411.174	3.31403
411.383	4.38159
411.592	4.35629
411.802	3.16962
412.011	4.72502
412.22	3.85096
412.429	5.22535
412.639	5.0988
412.848	5.08899
413.057	5.38276
413.266	4.96903
413.475	3.84453
413.685	4.72202
413.894	4.70792
414.103	5.07996
414.312	4.63401
414.521	3.92939
414.73	4.25754
414.939	5.53809
415.148	4.47269
415.357	4.28885
415.566	3.71007
415.776	3.64014
415.985	3.55549
416.194	4.66352
416.403	5.43957
416.611	2.97305
416.82	3.48768
417.029	4.02887
417.238	3.37916
417.447	3.23525
417.656	3.55469
417.865	3.38992
418.074	3.59055
418.283	3.84781
418.492	4.5937
418.7	4.35101
418.909	5.15237
419.118	4.00861
419.327	4.20939
419.536	4.0744
419.744	3.62197
419.953	4.61219
420.162	4.67981
420.371	3.65591
420.579	3.74175
420.788	4.80018
420.997	4.79345
421.205	4.93786
421.414	4.62397
421.623	4.72861
421.831	4.20976
422.04	4.99496
422.249	4.0879
422.457	4.5441
422.666	4.01515
422.874	4.95314
423.083	4.92478
423.291	4.78216
423.5	4.64015
423.708	4.83911
423.917	5.34832
424.125	4.72592
424.334	4.48117
424.542	6.34197
424.751	5.54187
424.959	5.32352
425.167	5.53623
425.376	5.42408
425.584	4.58188
425.793	4.9146
426.001	4.09525
426.209	5.14624
426.418	4.10347
426.626	4.23203
426.834	4.09112
427.042	4.57487
427.251	4.123
427.459	5.18873
427.667	4.77874
427.875	3.68976
428.084	4.18685
428.292	5.43137
428.5	4.92189
428.708	3.8272
428.916	3.84694
429.124	4.66153
429.333	4.31743
429.541	4.34483
429.749	4.59343
429.957	4.39711
430.165	6.2363
430.373	3.60152
430.581	4.7106
430.789	5.63674
430.997	4.38124
431.205	4.10057
431.413	4.65789
431.621	4.254
431.829	4.96067
432.037	4.3718
432.245	4.99957
432.453	4.83776
432.661	4.40865
432.869	6.01442
433.076	3.95982
433.284	4.50447
433.492	5.06279
433.7	5.59717
433.908	4.41122
434.116	4.79896
434.323	4.87072
434.531	4.70177
434.739	5.15926
434.947	5.36592
435.154	5.45234
435.362	4.86784
435.57	4.6144
435.778	4.48775
435.985	5.0576
436.193	4.51637
436.401	5.66795
436.608	4.83504
436.816	4.48011
437.023	6.04603
437.231	6.12418
437.439	4.97415
437.646	5.25151
437.854	5.18767
438.061	5.38186
438.269	4.65728
438.476	5.27402
438.684	4.92772
438.891	4.61668
439.099	4.48994
439.306	3.91945
439.514	4.25488
439.721	5.12102
439.929	4.49496
440.136	5.18442
440.343	5.05948
440.551	4.58081
440.758	6.16797
440.965	5.4068
441.173	5.09127
441.38	4.59293
441.587	5.28749
441.795	4.73768
442.002	5.19383
442.209	5.32715
442.416	5.49796
442.624	5.49393
442.831	5.41703
443.038	4.72394
443.245	4.39683
443.452	4.86557
443.66	5.63224
443.867	4.58663
444.074	4.67224
444.281	4.51932
444.488	4.84691
444.695	5.0155
444.902	4.56215
445.109	5.35299
445.316	4.73041
445.523	4.65596
445.73	4.56326
445.937	5.374
446.144	5.69808
446.351	5.82831
446.558	4.91507
446.765	6.35179
446.972	6.06959
447.179	5.42814
447.386	6.29632
447.593	4.98296
447.8	5.96063
448.007	5.07564
448.214	5.22631
448.42	4.86034
448.627	6.0513
448.834	5.2124
449.041	5.03929
449.248	5.08462
449.454	5.87485
449.661	6.56333
449.868	4.92732
450.075	4.78047
450.281	3.84103
450.488	4.45744
450.695	4.64644
450.901	4.55538
451.108	5.07105
451.315	5.92479
451.521	5.13691
451.728	5.89037
451.935	4.68237
452.141	5.15745
452.348	5.07432
452.554	5.16144
452.761	5.02546
452.967	6.36042
453.174	5.43223
453.38	5.44166
453.587	4.46133
453.793	5.42185
454	5.90497
454.206	6.77866
454.413	6.25783
454.619	5.58051
454.825	4.84242
455.032	5.71886
455.238	5.96782
455.445	4.42264
455.651	5.42714
455.857	3.99182
456.064	5.12758
456.27	5.11465
456.476	5.16402
456.682	4.42169
456.889	5.58878
457.095	5.70426
457.301	6.9007
457.507	5.34917
457.714	5.33287
457.92	5.34859
458.126	4.76392
458.332	5.07622
458.538	4.78743
458.744	4.87648
458.951	4.89041
459.157	6.21351
459.363	5.31094
459.569	5.28708
459.775	6.11266
459.981	5.18793
460.187	5.74159
460.393	6.1162
460.599	6.36826
460.805	5.74553
461.011	5.66106
461.217	6.39334
461.423	6.50555
461.629	5.51507
461.835	6.21616
462.041	5.53117
462.247	6.76536
462.453	5.55013
462.658	5.57239
462.864	6.15798
463.07	5.82693
463.276	5.7948
463.482	5.79579
463.688	6.50821
463.893	5.33211
464.099	5.27711
464.305	6.89189
464.511	5.27811
464.716	5.6362
464.922	6.2115
465.128	5.05881
465.333	6.95468
465.539	6.10537
465.745	5.77893
465.95	5.86194
466.156	7.75835
466.362	6.58369
466.567	5.57321
466.773	5.24285
466.978	6.92901
467.184	5.10817
467.389	4.23776
467.595	6.14831
467.8	5.15577
468.006	6.78822
468.211	6.57513
468.417	5.03059
468.622	6.12204
468.828	6.32728
469.033	5.97329
469.239	7.93184
469.444	5.50997
469.649	6.49333
469.855	5.70645
470.06	5.92249
470.266	5.08224
470.471	6.38882
470.676	6.25642
470.881	4.64317
471.087	6.98721
471.292	7.19014
471.497	5.01984
471.703	5.754
471.908	5.52893
472.113	5.9077
472.318	6.39787
472.523	5.16574
472.729	6.26093
472.934	6.24748
473.139	5.73067
473.344	6.35085
473.549	6.96224
473.754	5.39307
473.959	7.36241
474.164	5.53989
474.369	5.88745
474.575	6.54376
474.78	6.15113
474.985	5.57145
475.19	4.7324
475.395	5.37252
475.6	5.86429
475.804	6.87214
476.009	5.96299
476.214	5.8555
476.419	5.70603
476.624	4.71377
476.829	5.41446
477.034	6.42313
477.239	5.46284
477.444	6.09768
477.648	6.32427
477.853	6.42357
478.058	5.76384
478.263	5.50826
478.468	5.1219
478.672	5.30084
478.877	6.78536
479.082	7.29926
479.287	6.25408
479.491	5.9966
479.696	5.26578
479.901	6.65414
480.105	6.5006
480.31	5.55647
480.515	5.81107
480.719	7.51909
480.924	5.3876
481.128	5.11933
481.333	5.94109
481.538	5.9825
481.742	5.51618
481.947	6.06025
482.151	6.50092
482.356	6.74154
482.56	8.14063
482.765	8.70777
482.969	10.62378
483.174	12.21696
483.378	14.30844
483.582	14.45389
483.787	15.81853
483.991	15.87369
484.196	16.05711
484.4	15.70901
484.604	15.9071
484.809	14.23417
485.013	13.62406
485.217	12.25183
485.422	10.83288
485.626	9.7979
485.83	9.12561
486.034	8.83631
486.239	9.12428
486.443	9.28196
486.647	9.47622
486.851	10.4711
487.055	11.29377
487.26	10.95468
487.464	11.82797
487.668	11.29371
487.872	11.40254
488.076	11.91222
488.28	11.22829
488.484	10.45199
488.688	10.13719
488.892	9.88234
489.096	9.26737
489.3	8.27448
489.504	7.85245
489.708	7.74679
489.912	7.52399
490.116	7.30932
490.32	6.67007
490.524	7.73799
490.728	8.16635
490.932	8.51428
491.136	8.96294
491.34	10.22356
491.544	10.38747
491.748	10.07247
491.951	9.99533
492.155	9.78627
492.359	9.55633
492.563	8.40045
492.767	7.98469
492.97	7.22416
493.174	6.38805
493.378	6.44235
493.582	6.05256
493.785	6.5439
493.989	6.64477
494.193	6.57708
494.396	6.28056
494.6	6.99214
494.804	6.3253
495.007	6.02707
495.211	5.89083
495.414	6.17417
495.618	6.39113
495.822	6.90338
496.025	6.257
496.229	6.94263
496.432	5.81397
496.636	6.31352
496.839	6.21213
497.043	7.3025
497.246	6.48756
497.45	6.15193
497.653	6.27174
497.856	6.60129
498.06	5.80233
498.263	6.27285
498.467	6.135
498.67	7.09571
498.873	6.77698
499.077	6.18766
499.28	6.20711
499.483	6.72091
499.686	7.0339
499.89	6.86665
500.093	6.9761
500.296	5.96114
500.499	7.53228
500.703	6.44925
500.906	6.56092
501.109	7.72009
501.312	6.60238
501.515	6.41121
501.719	6.82393
501.922	7.50729
502.125	6.67767
502.328	6.441
502.531	5.71992
502.734	6.51834
502.937	5.26361
503.14	6.45143
503.343	5.79265
503.546	6.22629
503.749	6.09928
503.952	6.94223
504.155	5.77839
504.358	7.00734
504.561	6.51381
504.764	5.66709
504.967	6.63335
505.17	6.51267
505.373	7.70999
505.576	6.60054
505.778	7.01463
505.981	6.13115
506.184	7.42771
506.387	5.46893
506.59	7.7715
506.793	7.3395
506.995	6.9408
507.198	5.12663
507.401	6.73435
507.604	6.92066
507.806	5.85883
508.009	6.12483
508.212	6.86172
508.414	6.13188
508.617	5.96561
508.82	6.45949
509.022	7.39545
509.225	6.89366
509.427	5.53245
509.63	7.5481
509.833	6.6341
510.035	6.45424
510.238	5.66353
510.44	7.43544
510.643	5.33729
510.845	8.08214
511.048	6.84137
511.25	6.31356
511.453	6.58616
511.655	6.92052
511.858	6.37038
512.06	7.19743
512.262	6.62991
512.465	7.22598
512.667	6.42495
512.869	5.92617
513.072	6.95933
513.274	7.32803
513.476	7.161
513.679	7.26969
513.881	6.09854
514.083	7.86376
514.286	6.20296
514.488	6.31442
514.69	6.00602
514.892	5.726
515.094	7.17422
515.297	6.26653
515.499	6.71853
515.701	6.09408
515.903	7.80747
516.105	7.83383
516.307	7.20982
516.509	5.27789
516.711	5.73255
516.913	6.66018
517.116	6.48339
517.318	6.35191
517.52	7.29543
517.722	6.97166
517.924	5.80947
518.126	6.85512
518.328	6.22959
518.529	6.92252
518.731	7.75965
518.933	6.40865
519.135	6.66234
519.337	7.50645
519.539	7.13431
519.741	5.84909
519.943	6.74745
520.145	6.57429
520.346	7.16525
520.548	6.59265
520.75	7.03523
520.952	6.5609
521.153	6.95053
521.355	7.01535
521.557	6.09432
521.759	6.95328
521.96	6.76827
522.162	6.04991
522.364	7.51559
522.565	6.18113
522.767	7.23242
522.969	7.57388
523.17	7.0551
523.372	7.10854
523.573	6.37233
523.775	6.5866
523.977	5.88885
524.178	7.70828
524.38	6.21337
524.581	7.16493
524.783	6.35087
524.984	7.05595
525.186	6.58898
525.387	7.05242
525.589	6.76033
525.79	6.52644
525.991	6.31006
526.193	6.90222
526.394	6.01877
526.596	7.00961
526.797	7.07219
526.998	6.80163
527.2	6.74263
527.401	8.54086
527.602	8.96484
527.803	11.04566
528.005	11.44898
528.206	12.58072
528.407	13.17106
528.608	13.15658
528.81	13.26252
529.011	12.58375
529.212	13.53226
529.413	12.32043
529.614	11.46456
529.815	11.01581
530.017	9.96898
530.218	8.84964
530.419	7.75004
530.62	7.50394
530.821	7.26694
531.022	6.42601
531.223	7.41864
531.424	7.33258
531.625	7.21125
531.826	7.02593
532.027	7.13435
532.228	8.24192
532.429	8.05075
532.63	8.22476
532.831	8.92558
533.032	9.00399
533.233	9.67584
533.433	9.31979
533.634	9.53374
533.835	8.69911
534.036	8.24514
534.237	8.15412
534.438	7.4877
534.638	6.80883
534.839	6.86362
535.04	7.46933
535.241	6.80639
535.441	8.09233
535.642	7.18786
535.843	6.26328
536.043	6.44053
536.244	6.58215
536.445	6.59271
536.645	7.42831
536.846	7.14744
537.047	7.77105
537.247	6.66522
537.448	6.99657
537.648	7.25125
537.849	7.27588
538.049	7.1804
538.25	7.71567
538.451	7.48961
538.651	6.55206
538.851	7.45138
539.052	7.94853
539.252	7.59548
539.453	6.83947
539.653	7.09278
539.854	6.82088
540.054	6.66245
540.254	7.54152
540.455	8.27433
540.655	8.08855
540.855	9.33553
541.056	10.12591
541.256	9.74318
541.456	10.84673
541.657	9.97955
541.857	10.78265
542.057	9.29223
542.257	8.95317
542.458	9.37838
542.658	9.0636
542.858	7.41192
543.058	8.16465
543.258	7.70205
543.458	6.62655
543.659	6.50903
543.859	7.84732
544.059	7.6695
544.259	7.19709
544.459	7.83019
544.659	6.9428
544.859	7.62326
545.059	6.82129
545.259	7.61781
545.459	7.28132
545.659	7.77669
545.859	7.07405
546.059	7.3041
546.259	6.59829
546.459	6.22865
546.659	6.56004
546.859	7.72543
547.059	7.5046
547.258	7.71647
547.458	7.58036
547.658	6.72811
547.858	6.72826
548.058	7.59854
548.258	7.23219
548.457	6.69809
548.657	9.49075
548.857	7.20392
549.057	7.85769
549.256	7.80936
549.456	7.00754
549.656	5.85181
549.855	8.87068
550.055	7.10863
550.255	9.02041
550.454	7.8426
550.654	8.15306
550.853	8.55774
551.053	8.16713
551.253	7.6048
551.452	7.67287
551.652	6.34331
551.851	5.89679
552.051	7.02679
552.25	6.90008
552.45	6.67266
552.649	7.11317
552.849	6.6935
553.048	7.24472
553.248	7.88194
553.447	6.69339
553.646	8.13838
553.846	8.75689
554.045	8.31812
554.244	6.57326
554.444	9.05644
554.643	6.68399
554.842	8.73682
555.042	9.41364
555.241	6.98426
555.44	6.70229
555.64	7.80116
555.839	9.24973
556.038	8.27239
556.237	6.96009
556.436	7.54316
556.636	7.79716
556.835	6.87106
557.034	9.15845
557.233	7.46744
557.432	6.54788
557.631	8.66827
557.83	7.37422
558.029	7.18151
558.228	7.20674
558.427	6.65265
558.626	7.99278
558.825	6.65827
559.024	7.61615
559.223	9.30068
559.422	7.60058
559.621	7.95835
559.82	5.37007
560.019	7.49038
560.218	7.3099
560.417	5.14537
560.616	7.23703
560.815	10.72466
561.014	6.28518
561.212	8.76292
561.411	7.82615
561.61	6.12362
561.809	7.38591
562.008	8.95685
562.206	7.86874
562.405	8.1757
562.604	7.4108
562.803	7.66984
563.001	7.4115
563.2	6.30905
563.399	8.16752
563.597	6.44421
563.796	7.71406
563.995	6.61964
564.193	8.06538
564.392	7.07299
564.59	9.60392
564.789	5.77751
564.988	7.15451
565.186	7.55423
565.385	7.77921
565.583	6.95151
565.782	7.43731
565.98	7.16183
566.179	7.50509
566.377	6.49023
566.575	6.86391
566.774	8.68833
566.972	8.25642
567.171	9.54661
567.369	8.7004
567.567	7.82453
567.766	8.04999
567.964	5.67914
568.162	8.34968
568.361	8.58741
568.559	7.59543
568.757	8.17752
568.956	7.76196
569.154	7.57357
569.352	8.44077
569.55	7.51216
569.748	7.68755
569.947	6.79245
570.145	6.78415
570.343	6.44728
570.541	8.63749
570.739	6.5084
570.937	7.59171
571.135	7.99011
571.333	9.11165
571.532	8.94438
571.73	7.90632
571.928	8.63045
572.126	7.9303
572.324	7.18811
572.522	8.85759
572.72	10.29996
572.918	7.65155
573.116	7.99456
573.313	7.6265
573.511	7.59567
573.709	7.49524
573.907	8.41256
574.105	7.20636
574.303	6.24106
574.501	6.2347
574.699	7.95537
574.896	8.1199
575.094	8.25564
575.292	6.51285
575.49	8.66289
575.688	7.49967
575.885	9.15195
576.083	9.75632
576.281	8.26519
576.478	7.26988
576.676	8.48822
576.874	6.65873
577.071	7.5921
577.269	10.36003
577.467	7.83783
577.664	7.9703
577.862	8.74605
578.059	7.12175
578.257	8.89359
578.455	7.7929
578.652	7.88615
578.85	6.05118
579.047	7.98994
579.245	7.91768
579.442	7.64846
579.64	8.0803
579.837	6.07351
580.034	10.68038
580.232	7.50964
580.429	7.01526
580.627	8.73293
580.824	9.48617
581.021	8.77801
581.219	7.66633
581.416	7.09739
581.613	9.73675
581.811	9.501
582.008	7.19953
582.205	9.17918
582.402	8.15011
582.6	10.4429
582.797	8.3558
582.994	8.70917
583.191	9.14459
583.388	8.20336
583.586	9.16397
583.783	9.3456
583.98	7.42741
584.177	8.36825
584.374	5.18643
584.571	8.03996
584.768	8.19119
584.965	7.72592
585.162	9.06837
585.359	10.06179
585.556	8.16835
585.753	8.73236
585.95	6.82465
586.147	7.30478
586.344	8.86038
586.541	7.87552
586.738	6.95392
586.935	8.14692
587.132	7.54064
587.329	9.48561
587.526	7.97563
587.722	14.17138
587.919	6.54618
588.116	8.74466
588.313	10.01902
588.51	10.9716
588.706	8.01475
588.903	8.85436
589.1	9.58922
589.297	11.47787
589.493	8.09496
589.69	8.88362
589.887	7.5646
590.083	6.89546
590.28	7.41525
590.477	9.50195
590.673	9.25117
590.87	9.8715
591.067	7.927
591.263	9.05684
591.46	8.95842
591.656	8.12781
591.853	10.11212
592.049	7.30357
592.246	7.9371
592.442	9.80682
592.639	9.93195
592.835	6.98361
593.032	9.22518
593.228	6.77718
593.425	6.74198
593.621	6.45116
593.817	8.52172
594.014	7.29072
594.21	8.5045
594.406	9.35646
594.603	8.82956
594.799	7.67387
594.995	5.54294
595.192	9.58949
595.388	7.75235
595.584	7.73171
595.78	6.33792
595.977	10.3297
596.173	10.07861
596.369	7.73496
596.565	6.979
596.761	6.83644
596.957	9.69888
597.154	7.26636
597.35	7.585
597.546	7.17169
597.742	8.87923
597.938	8.66067
598.134	7.33224
598.33	8.53209
598.526	10.47159
598.722	9.06255
598.918	10.88443
599.114	9.23433
599.31	7.43863
599.506	8.65608
599.702	7.55084
599.898	8.83386
600.094	9.87879
600.29	9.58556
600.485	9.68724
600.681	7.96536
600.877	10.71524
601.073	8.7423
601.269	10.97245
601.465	10.24832
601.66	7.53447
601.856	6.2417
602.052	10.53575
602.248	7.97689
602.443	5.88283
602.639	6.77261
602.835	7.06718
603.03	7.09887
603.226	9.25081
603.422	6.95311
603.617	7.68303
603.813	7.26404
604.009	7.48356
604.204	9.41846
604.4	6.24836
604.595	9.21468
604.791	6.8685
604.986	8.36079
605.182	7.38353
605.377	7.59788
605.573	7.74264
605.768	8.28509
605.964	9.14723
606.159	9.24617
606.355	10.28389
606.55	8.02984
606.746	9.81251
606.941	8.28855
607.136	11.20643
607.332	12.68979
607.527	6.87073
607.722	8.86755
607.918	8.43789
608.113	7.4081
608.308	9.20232
608.503	8.94096
608.699	8.91459
608.894	8.9508
609.089	7.24948
609.284	8.62432
609.479	7.74826
609.675	9.15958
609.87	7.83125
610.065	9.28171
610.26	9.87301
610.455	9.53394
610.65	8.32608
610.845	8.95539
611.04	10.18035
611.235	8.68949
611.43	8.13177
611.625	7.17152
611.82	11.03396
612.015	7.79141
612.21	11.13751
612.405	6.64042
612.6	11.78682
612.795	10.52094
612.99	10.17412
613.185	7.47452
613.38	7.92491
613.575	9.44384
613.77	13.22048
613.965	6.81761
614.159	7.58816
614.354	11.06941
614.549	10.6935
614.744	10.15109
614.938	7.61712
615.133	6.78934
615.328	10.95862
615.523	10.9601
615.717	13.74562
615.912	8.32574
616.107	9.60193
616.301	8.73424
616.496	8.41347
616.691	11.72245
616.885	10.35066
617.08	13.56835
617.274	11.24054
617.469	12.52963
617.664	10.48437
617.858	8.52328
618.053	9.87583
618.247	9.00093
618.442	6.00596
618.636	11.43251
618.831	8.419
619.025	8.78505
619.219	13.65607
619.414	4.30523
619.608	9.4553
619.803	8.2875
619.997	12.9181
620.191	11.47163
620.386	10.24137
620.58	9.80654
620.774	6.63575
620.969	7.14073
621.163	10.14762
621.357	7.49455
621.551	9.00411
621.746	9.51264
621.94	9.44046
622.134	15.46049
622.328	13.02578
622.522	7.11001
622.716	11.39134
622.911	11.19265
623.105	11.27699
623.299	10.27198
623.493	15.11825
623.687	8.3832
623.881	8.88073
624.075	10.69397
624.269	11.58368
624.463	6.66205
624.657	6.9374
624.851	10.27498
625.045	11.35968
625.239	11.08308
625.433	8.4417
625.627	11.95313
625.821	8.5922
626.015	8.13274
626.209	9.46427
626.403	7.13007
626.596	9.68469
626.79	10.63159
626.984	7.45399
627.178	10.00633
627.372	10.01782
627.565	10.81362
627.759	7.02299
627.953	7.46972
628.147	10.25807
628.34	10.46052
628.534	13.41132
628.728	9.1936
628.921	11.12426
629.115	10.77348
629.309	11.35327
629.502	11.55022
629.696	10.12839
629.89	9.65018
630.083	10.34659
630.277	10.68115
630.47	13.20609
630.664	9.40398
630.857	7.66544
631.051	11.24993
631.244	12.17664
631.438	11.90868
631.631	8.60501
631.825	12.46181
632.018	11.33031
632.212	13.3785
632.405	12.2093
632.598	8.61329
632.792	10.36853
632.985	5.95929
633.178	9.45862
633.372	10.057
633.565	9.88797
633.758	12.54486
633.952	8.50332
634.145	8.50032
634.338	9.18796
634.531	9.14464
634.724	9.07805
634.918	10.32302
635.111	9.95075
635.304	10.09646
635.497	14.45625
635.69	10.65863
635.883	12.73412
636.077	8.28699
636.27	11.29492
636.463	10.76548
636.656	11.21958
636.849	9.6981
637.042	11.14848
637.235	13.93811
637.428	11.89757
637.621	11.44534
637.814	13.29066
638.007	13.68072
638.2	13.8616
638.393	15.02722
638.586	8.3205
638.778	9.89029
638.971	10.99877
639.164	14.75155
639.357	11.8207
639.55	14.02634
639.743	12.90552
639.935	12.85368
640.128	15.27509
640.321	12.29366
640.514	11.58265
640.707	16.4488
640.899	12.81742
641.092	7.76835
641.285	26.41736
641.477	6.89022
641.67	16.13837
641.863	14.08633
642.055	11.81966
642.248	11.49686
642.441	10.61023
642.633	12.53261
642.826	14.1637
643.018	14.36964
643.211	15.25818
643.403	15.35449
643.596	16.60709
643.788	17.18062
643.981	11.40123
644.173	13.68145
644.366	11.21166
644.558	7.82654
644.751	13.80586
644.943	8.92307
645.135	16.17172
645.328	16.25992
645.52	13.62437
645.712	14.36433
645.905	19.92972
646.097	9.76239
646.289	13.0681
646.482	16.47094
646.674	10.76972
646.866	14.64684
647.058	13.48742
647.251	9.56662
647.443	11.00027
647.635	11.79394
647.827	9.67198
648.019	10.01192
648.211	12.45959
648.404	12.62438
648.596	15.86825
648.788	12.82381
648.98	13.21524
649.172	13.36028
649.364	13.2421
649.556	8.14567
649.748	18.76385
649.94	9.55048
650.132	13.52872
650.324	10.2353
650.516	10.78209
650.708	15.55716
650.9	9.02485
651.092	8.6011
651.284	8.84348
651.476	9.68155
651.667	13.60337
651.859	15.61528
652.051	12.32792
652.243	12.39355
652.435	10.87753
652.627	13.45813
652.818	13.61639
653.01	8.54329
653.202	10.26043
653.394	11.77849
653.585	13.99041
653.777	24.39419
653.969	16.21233
654.16	15.36651
654.352	10.19662
654.544	12.79326
654.735	15.43382
654.927	13.36789
655.118	16.85265
655.31	14.89323
655.502	15.22743
655.693	11.55606
655.885	14.43834
656.076	16.78313
656.268	13.23089
656.459	16.31133
656.651	16.64276
656.842	11.50899
657.034	11.1628
657.225	15.04461
657.416	16.4291
657.608	15.98817
657.799	12.18701
657.99	14.74919
658.182	10.34082
658.373	10.60853
658.564	13.98708
658.756	12.17303
658.947	11.99156
659.138	9.62053
659.33	10.8245
659.521	10.31836
659.712	12.08775
659.903	11.54062
660.094	10.70994
660.286	8.56261
660.477	17.31104
660.668	14.46275
660.859	12.85954
661.05	9.23792
661.241	14.90123
661.432	14.42758
661.623	12.47692
661.814	11.27145
662.006	9.08845
662.197	14.72181
662.388	16.42739
662.579	14.55306
662.77	17.9855
662.96	21.7722
663.151	15.91117
663.342	9.23341
663.533	15.59374
663.724	13.31407
663.915	18.51143
664.106	13.66871
664.297	19.53753
664.488	15.90215
664.678	12.85354
664.869	16.4107
665.06	16.72339
665.251	14.98739
665.442	15.54619
665.632	11.37206
665.823	20.19603
666.014	6.3132
666.204	15.85854
666.395	18.33535
666.586	22.98825
666.776	16.49596
666.967	19.44332
667.158	14.5986
667.348	19.56974
667.539	10.59611
667.729	16.95375
667.92	12.2142
668.111	17.35499
668.301	15.83855
668.492	13.78735
668.682	14.14651
668.873	13.81796
669.063	10.99093
669.253	14.78594
669.444	16.92176
669.634	13.97543
669.825	20.07648
670.015	17.80866
670.206	12.64953
670.396	21.27053
670.586	14.45035
670.777	16.37224
670.967	8.88894
671.157	14.71695
671.347	13.48467
671.538	19.66918
671.728	16.27969
671.918	21.14732
672.108	18.77015
672.299	15.15774
672.489	16.52426
672.679	13.32366
672.869	16.58987
673.059	20.77638
673.249	16.54704
673.44	12.07211
673.63	14.81638
673.82	18.48141
674.01	12.5682
674.2	16.73607
674.39	25.30417
674.58	17.20416
674.77	16.43061
674.96	15.18142
675.15	29.1818
675.34	19.55698
675.53	15.94333
675.72	14.65359
675.91	11.41394
676.099	21.73543
676.289	22.67682
676.479	19.03383
676.669	14.45944
676.859	17.7422
677.049	12.35276
677.238	15.96237
677.428	21.92764
677.618	16.47071
677.808	18.77354
677.997	17.91625
678.187	11.59919
678.377	15.7574
678.567	14.00868
678.756	14.09779
678.946	14.31431
679.136	10.60062
679.325	12.2634
679.515	12.3784
679.704	10.81235
679.894	16.29533
680.084	14.96475
680.273	18.59742
680.463	11.94337
680.652	12.31502
680.842	14.78038
681.031	17.62488
681.221	12.43017
681.41	17.56984
681.6	14.54094
681.789	17.9086
681.978	20.11637
682.168	16.3997
682.357	16.42098
682.547	17.98104
682.736	16.75889
682.925	20.66037
683.115	19.97963
683.304	19.69956
683.493	17.75614
683.682	18.35994
683.872	17.71913
684.061	21.59177
684.25	19.16363
684.439	23.41713
684.629	19.36232
684.818	30.16301
685.007	17.0092
685.196	16.41306
685.385	22.68045
685.574	19.04399
685.763	19.24807
685.952	17.69859
686.142	13.31743
686.331	22.90047
686.52	11.46991
686.709	23.32807
686.898	22.64343
687.087	20.03869
687.276	24.22839
687.465	20.98062
687.654	16.42153
687.842	23.66541
688.031	13.13123
688.22	22.87197
688.409	18.47598
688.598	18.90932
688.787	27.55394
688.976	18.47345
689.165	24.71692
689.353	16.36357
689.542	19.53405
689.731	20.72616
689.92	26.13956
690.108	22.37195
690.297	17.37839
690.486	19.2805
690.675	21.93282
690.863	26.17237
691.052	25.97295
691.241	20.86724
691.429	20.55048
691.618	25.97135
691.806	15.22084
691.995	18.38094
692.184	19.80385
692.372	17.84624
692.561	19.67828
692.749	19.90774
692.938	29.68938
693.126	22.24212
693.315	18.10025
693.503	22.69598
693.692	22.53576
693.88	24.08441
694.068	29.8858
694.257	19.45648
694.445	21.94816
694.634	11.83413
694.822	25.17737
695.01	25.89417
695.199	25.50547
695.387	27.39447
695.575	25.96755
695.763	20.85808
695.952	19.11577
696.14	14.31477
696.328	17.59118
696.516	20.66137
696.705	21.15954
696.893	20.66733
697.081	12.69381
697.269	21.44827
697.457	14.93692
697.645	13.31067
697.833	21.37509
698.021	15.05177
698.21	16.03955
698.398	17.1426
698.586	13.35479
698.774	12.93586
698.962	16.73556
699.15	13.61788
699.338	12.16425
699.526	19.65442
699.714	15.61829
699.901	16.62307
700.089	22.54182
700.277	15.8394
700.465	18.50582
700.653	23.14609
700.841	21.93432
701.029	16.52521
701.217	25.46204
701.404	21.04466
701.592	27.4537
701.78	29.6882
701.968	19.18847
702.155	19.76647
702.343	16.0467
702.531	27.72227
702.718	23.40091
702.906	20.60754
703.094	18.48172
703.281	26.88632
703.469	21.33735
703.657	26.79657
703.844	38.57497
704.032	29.21163
704.219	19.91378
704.407	24.42183
704.595	28.32694
704.782	23.33297
704.97	20.54283
705.157	20.79189
705.345	30.52143
705.532	35.84075
705.719	24.49934
705.907	30.8051
706.094	23.7593
706.282	32.38521
706.469	21.35013
706.656	24.00154
706.844	22.16866
707.031	27.72754
707.218	24.01349
707.406	31.74094
707.593	26.57889
707.78	27.18013
707.968	22.43282
708.155	19.18997
708.342	26.90369
708.529	25.96031
708.716	24.73505
708.904	31.76073
709.091	26.41599
709.278	18.65045
709.465	33.70335
709.652	33.11592
709.839	31.54969
710.026	25.18628
710.213	16.5398
710.4	26.00637
710.587	29.18619
710.774	30.59615
710.961	29.45499
711.148	24.37262
711.335	31.02714
711.522	24.22855
711.709	25.67512
711.896	36.45673
712.083	29.44503
712.27	20.29916
712.457	25.48153
712.644	17.06169
712.831	36.35096
713.017	25.69955
713.204	28.70587
713.391	22.18002
713.578	32.73361
713.765	32.32738
713.951	28.99613
714.138	43.37241
714.325	28.85094
714.512	26.46282
714.698	21.27212
714.885	35.06167
715.072	27.4326
715.258	26.73267
715.445	22.49667
715.631	33.4816
715.818	12.80786
716.005	23.14638
716.191	29.58407
716.378	24.6317
716.564	31.6952
716.751	21.84718
716.937	23.46034
717.124	33.5845
717.31	23.18803
717.497	35.458
717.683	23.10178
717.869	41.72569
718.056	24.79433
718.242	29.57432
718.429	27.74677
718.615	21.94224
718.801	29.265
718.988	33.8045
719.174	32.4673
719.36	27.80283
719.547	36.78998
719.733	31.10515
719.919	30.84711
720.105	33.55964
720.291	30.07
720.478	30.10447
720.664	29.00363
720.85	26.92826
721.036	48.07101
721.222	38.44193
721.408	29.15908
721.595	42.97948
721.781	41.03961
721.967	35.73571
722.153	41.36862
722.339	34.0543
722.525	33.41486
722.711	23.37512
722.897	21.6413
723.083	27.74755
723.269	37.78599
723.455	48.27644
723.641	49.72757
723.827	32.32405
724.012	34.12843
724.198	27.50837
724.384	39.86852
724.57	34.40417
724.756	21.49466
724.942	18.82756
725.127	37.114
725.313	41.7655
725.499	41.36215
725.685	44.12616
725.87	34.24924
726.056	25.77668
726.242	40.25648
726.428	20.87698
726.613	37.63514
726.799	29.78549
726.985	23.4949
727.17	21.05356
727.356	42.39551
727.541	25.65923
727.727	28.18019
727.913	35.90313
728.098	27.32022
728.284	36.1005
728.469	22.46466
728.655	24.79941
728.84	36.53967
729.026	36.86185
729.211	38.10868
729.397	33.65491
729.582	36.38252
729.767	31.22678
729.953	34.23366
730.138	38.25449
730.323	16.34875
730.509	23.76406
730.694	41.93742
730.879	34.54765
731.065	32.55775
731.25	47.83971
731.435	36.30626
731.621	20.64523
731.806	27.2381
731.991	32.86367
732.176	22.90502
732.361	40.84893
732.547	32.27626
732.732	21.06117
732.917	48.80685
733.102	23.71432
733.287	26.67527
733.472	31.97941
733.657	33.714
733.842	21.50727
734.027	29.42558
734.212	31.60129
734.397	26.9969
734.582	32.83253
734.767	40.29035
734.952	44.62073
735.137	14.33051
735.322	44.97014
735.507	36.28018
735.692	36.08108
735.877	51.35812
736.062	47.94867
736.247	37.19667
736.431	32.88777
736.616	44.12731
736.801	35.19427
736.986	34.41569
737.171	26.78186
737.355	24.48824
737.54	42.95045
737.725	32.53082
737.909	56.82135
738.094	28.62011
738.279	41.97561
738.463	32.43324
738.648	39.58144
738.833	36.64835
739.017	50.07573
739.202	30.91782
739.386	33.64267
739.571	26.15236
739.756	39.56043
739.94	34.70466
740.125	42.35668
740.309	28.14171
740.494	41.72395
740.678	35.53516
740.863	39.48529
741.047	36.57306
741.231	46.40698
741.416	27.47663
741.6	51.35971
741.785	30.18554
741.969	42.40118
742.153	46.34117
742.338	18.99298
742.522	36.97072
742.706	42.37977
742.89	25.88898
743.075	36.80117
743.259	49.66588
743.443	43.28741
743.627	46.27938
743.812	57.17061
743.996	21.63494
744.18	35.53029
744.364	32.32775
744.548	61.4803
744.732	35.68114
744.916	45.26324
745.1	40.67067
745.285	34.92543
745.469	41.3025
745.653	53.60382
745.837	25.21354
746.021	60.91223
746.205	48.81196
746.389	39.6174
746.573	34.60395
746.757	52.32194
746.94	32.78145
747.124	48.8317
747.308	27.39382
747.492	50.09784
747.676	32.15623
747.86	61.19051
748.044	32.27912
748.227	22.87241
748.411	73.7683
748.595	39.86827
748.779	28.9091
748.963	41.68724
749.146	39.18476
749.33	29.67279
749.514	28.2251
749.697	48.79884
749.881	33.76049
750.065	29.11684
750.248	38.37908
750.432	62.14947
750.616	38.49605
750.799	26.60177
750.983	58.1699
751.166	67.98084
751.35	24.42509
751.533	43.95939
751.717	50.20455
751.9	54.60127
752.084	34.69119
752.267	29.4461
752.451	31.08562
752.634	40.31238
752.818	45.94474
753.001	47.88997
753.184	49.98008
753.368	43.00605
753.551	10.13188
753.734	31.09227
753.918	58.69089
754.101	32.79238
754.284	46.61978
754.467	34.97751
754.651	32.90823
754.834	34.36883
755.017	52.17151
755.2	49.67387
755.384	27.43209
755.567	48.01919
755.75	49.49396
755.933	35.88992
756.116	42.08709
756.299	34.8367
756.482	30.73295
756.665	46.11443
756.848	39.3672
757.032	43.31406
757.215	26.38426
757.398	30.80579
757.581	31.17646
757.764	67.92225
757.947	38.53242
758.129	50.66282
758.312	13.6151
758.495	37.42179
758.678	37.10019
758.861	36.24561
759.044	59.69687
759.227	32.06662
759.41	31.25549
759.592	44.6604
759.775	37.78894
759.958	48.95625
760.141	27.1045
760.324	65.31221
760.506	53.74729
760.689	47.79636
760.872	66.74075
761.054	44.48207
761.237	35.99581
761.42	44.05199
761.602	48.62967
761.785	42.60883
761.968	50.16698
762.15	58.38432
762.333	36.45653
762.515	42.32671
762.698	32.48807
762.88	43.0565
763.063	38.9934
763.245	43.81678
763.428	27.98083
763.61	30.04652
763.793	23.47847
763.975	37.35164
764.158	30.58657
764.34	30.12989
764.522	26.09969
764.705	32.57935
764.887	48.52879
765.069	22.02881
765.252	45.32634
765.434	45.09287
765.616	37.91573
765.799	33.43256
765.981	47.63222
766.163	31.33258
766.345	49.29607
766.528	33.01785
766.71	17.26565
766.892	41.07536
767.074	54.71494
767.256	36.57032
767.438	60.91991
767.62	44.8126
767.802	67.12871
767.985	49.64453
768.167	66.54056
768.349	36.83273
768.531	47.83795
768.713	48.56636
768.895	53.17923
769.077	49.09009
769.259	74.7504
769.441	106.68539
769.623	55.95731
769.804	62.33334
769.986	64.03763
770.168	77.39438
770.35	92.01548
770.532	64.82199
770.714	72.38465
770.896	74.67395
771.077	35.33787
771.259	76.75648
771.441	64.42296
771.623	82.78137
771.804	102.59296
771.986	33.50197
772.168	49.50056
772.35	77.07652
772.531	101.17523
772.713	61.03215
772.894	86.87293
773.076	62.16603
773.258	52.42418
773.439	80.19707
773.621	95.78521
773.802	45.44657
773.984	49.68864
774.166	67.96875
774.347	94.31064
774.529	82.67924
774.71	30.76445
774.891	60.77296
775.073	57.30746
775.254	93.45837
775.436	52.4319
775.617	103.2438
775.799	51.6016
775.98	94.40244
776.161	93.9859
776.343	97.24924
776.524	60.20665
776.705	56.63212
776.886	33.57334
777.068	65.36116
777.249	120.24984
777.43	106.30577
777.611	42.33193
777.793	54.85221
777.974	94.85803
778.155	54.73276
778.336	49.53416
778.517	108.84335
778.698	49.11331
778.879	29.16755
779.061	17.97597
779.242	71.42632
779.423	72.66092
779.604	52.55415
779.785	60.04798
779.966	69.67259
780.147	84.12817
780.328	88.36419
780.509	119.148
780.69	74.7551
780.871	49.49712
781.051	36.65224
781.232	68.2066
781.413	66.73611
781.594	58.98975
781.775	53.07268
781.956	50.94404
782.137	30.99486
782.317	51.97183
782.498	73.23929
782.679	63.25296
782.86	66.7439
783.04	49.48599
783.221	73.26912
783.402	105.5027
783.583	63.7291
783.763	79.63874
783.944	55.94438
784.124	36.56525
784.305	96.67392
784.486	77.12984
784.666	58.69156
784.847	35.99788
785.027	123.02692
785.208	49.30276
785.388	51.50937
785.569	51.75434
785.749	59.75143
785.93	55.3366
786.11	36.31974
786.291	72.99898
786.471	67.74677
786.652	81.23777
786.832	61.32553
787.012	67.87596
787.193	42.58023
787.373	64.10385
787.553	56.40713
787.734	67.70433
787.914	53.86122
788.094	71.43739
788.275	68.0992
788.455	56.41475
788.635	39.11462
788.815	65.42323
788.995	41.01099
789.176	35.04198
789.356	49.25049
789.536	57.47908
789.716	74.5559
789.896	49.25044
790.076	53.85851
790.256	67.44965
790.436	21.44685
790.616	47.45491
790.796	68.76835
790.976	55.49741
791.156	48.16978
791.336	81.62588
791.516	73.87337
791.696	55.62846
791.876	36.24919
792.056	65.73659
792.236	80.31287
792.416	77.87818
792.596	73.76109
792.776	70.44979
792.956	77.85335
793.135	97.15606
793.315	45.03659
793.495	89.40417
793.675	78.36043
793.854	79.40581
794.034	83.39556
794.214	42.57645
794.394	80.16091
794.573	87.22227
794.753	63.91751
794.933	48.50375
795.112	69.29888
795.292	80.1315
795.472	102.68273
795.651	40.8446
795.831	61.11262
796.01	55.31286
796.19	54.70762
796.369	60.92551
796.549	72.28253
796.728	58.71369
796.908	38.04911
797.087	43.04173
797.267	56.06971
797.446	40.73539
797.626	73.27548
797.805	73.6375
797.984	48.14929
798.164	76.88104
798.343	46.37627
798.522	68.64307
798.702	63.84094
798.881	40.6701
799.06	59.05471
799.239	28.78394
799.419	46.14438
799.598	94.39052
799.777	73.76978
799.956	88.74601
800.136	52.17995
800.315	51.09299
800.494	72.59835
800.673	84.61989
800.852	76.11029
801.031	85.95744
801.21	76.41615
801.389	54.80049
801.568	67.51291
801.747	105.27865
801.926	67.4093
802.105	98.04055
802.284	55.00833
802.463	95.09961
802.642	68.63063
802.821	70.04607
803	91.76885
803.179	82.692
803.358	90.3676
803.537	52.68244
803.716	64.71907
803.895	53.32026
804.073	62.34097
804.252	51.67116
804.431	75.60377
804.61	59.69349
804.789	87.6672
804.967	51.57856
805.146	51.48999
805.325	108.76913
805.503	75.16411
805.682	34.88133
805.861	123.33681
806.039	90.63402
806.218	54.39115
806.397	68.11554
806.575	66.77477
806.754	69.54618
806.932	47.59246
807.111	99.51068
807.289	82.18677
807.468	67.15481
807.646	89.49448
807.825	77.35656
808.003	72.14725
808.182	85.59463
808.36	66.87469
808.539	48.16241
808.717	101.22504
808.895	46.55642
809.074	76.56633
809.252	65.74518
809.43	80.51809
809.609	91.76042
809.787	100.26877
809.965	62.2743
810.144	68.05583
810.322	62.88076
810.5	75.70094
810.678	61.77497
810.856	122.14046
811.035	94.86966
811.213	85.43864
811.391	95.01297
811.569	74.48068
811.747	146.50962
811.925	98.03987
812.103	52.89215
812.281	65.62883
812.459	113.92493
812.637	117.68074
812.816	92.66831
812.994	116.25256
813.171	96.05391
813.349	82.50578
813.527	100.96907
813.705	102.21468
813.883	130.4153
814.061	95.88964
814.239	125.26873
814.417	126.92935
814.595	79.16311
814.773	80.28211
814.95	74.47093
815.128	83.36656
815.306	74.14643
815.484	69.52063
815.662	56.53109
815.839	47.51537
816.017	57.31123
816.195	102.39402
816.372	64.70677
816.55	87.29924
816.728	105.44335
816.905	65.19035
817.083	115.5351
817.261	68.24575
817.438	125.74997
817.616	117.57315
817.793	59.05695
817.971	94.31954
818.148	88.85412
818.326	105.09477
818.503	77.21865
818.681	105.47402
818.858	62.46202
819.036	66.8626
819.213	71.61483
819.391	53.86791
819.568	52.35823
819.745	48.03068
819.923	83.96363
820.1	55.4038
820.277	47.61522
820.455	58.38848
820.632	59.52621
820.809	58.54652
820.986	38.44116
821.164	30.63334
821.341	26.61584
821.518	35.64395
821.695	25.08362
821.872	23.90794
822.05	20.92426
822.227	15.88768
822.404	17.10905
822.581	20.83694
822.758	16.90786
822.935	17.33322
823.112	20.34593
823.289	16.05699
823.466	21.11516
823.643	19.74642
823.82	24.37877
823.997	22.52899
824.174	27.25778
824.351	36.00818
824.528	35.47629
824.705	32.5187
824.882	35.73415
825.059	46.8461
825.236	32.06907
825.412	33.84527
825.589	42.58702
825.766	58.87328
825.943	36.45791
826.12	44.50863
826.296	28.04553
826.473	35.16897
826.65	35.45784
826.827	44.85327
827.003	29.29108
827.18	31.70582
827.357	36.87767
827.533	32.83027
827.71	18.69751
827.887	28.86356
828.063	33.60069
828.24	28.88277
828.416	41.88073
828.593	33.70092
828.769	48.58196
828.946	56.329
829.122	58.3439
829.299	54.20677
829.475	33.97687
829.652	57.4421
829.828	92.58165
830.005	59.89579
830.181	80.26966
830.357	57.54793
830.534	85.80997
830.71	63.68108
830.886	79.79473
831.063	80.9464
831.239	101.83157
831.415	46.69336
831.592	100.23445
831.768	64.76929
831.944	53.25227
832.12	98.20808
832.296	89.64237
832.473	81.10578
832.649	57.52498
832.825	72.66731
833.001	41.07816
833.177	65.60729
833.353	56.55175
833.529	31.16668
833.705	45.69977
833.881	33.84735
834.058	34.94191
834.234	36.79271
834.41	37.32015
834.586	28.39721
834.761	36.23078
834.937	39.70775
835.113	42.21376
835.289	39.29023
835.465	47.04247
835.641	41.28019
835.817	47.77081
835.993	88.23025
836.169	44.77472
836.344	64.40777
836.52	74.43269
836.696	74.51294
836.872	54.57256
837.048	146.43777
837.223	59.85362
837.399	120.94131
837.575	97.0112
837.75	90.82579
837.926	121.34791
838.102	202.03955
838.277	146.0275
838.453	187.83235
838.628	193.57832
838.804	80.67604
838.98	180.96425
839.155	88.3282
839.331	121.99235
839.506	79.50857
839.682	86.41963
839.857	105.94268
840.033	124.07653
840.208	57.76207
840.384	33.24189
840.559	62.94747
840.734	92.88728
840.91	138.2236
841.085	81.42753
841.26	86.30791
841.436	80.09207
841.611	75.98429
841.786	118.72912
841.962	163.75271
842.137	97.06796
842.312	58.31973
842.487	81.99054
842.663	70.68733
842.838	79.46573
843.013	280.01164
843.188	135.91471
843.363	130.98874
843.538	235.3677
843.714	237.4146
843.889	248.81618
844.064	247.12657
844.239	218.21046
844.414	267.30647
844.589	171.39647
844.764	325.5131
844.939	303.29176
845.114	377.45183
845.289	372.06577
845.464	390.17421
845.639	299.28516
845.814	146.36522
845.989	182.08339
846.163	191.28665
846.338	236.34671
846.513	343.17136
846.688	208.83813
846.863	210.85105
847.038	186.22413
847.212	215.13196
847.387	255.71721
847.562	261.86432
847.737	271.38203
847.911	101.26366
848.086	136.9803
848.261	395.46472
848.435	186.29359
848.61	286.77911
848.785	142.57278
848.959	316.37442
849.134	432.8555
849.308	521.66646
849.483	231.69952
849.658	339.01275
849.832	191.69436
850.007	153.85406
850.181	630.44338
850.356	175.013
850.53	516.76372
850.705	135.55968
850.879	74.91982
851.053	201.75262
851.228	184.80098
851.402	293.74639
851.577	331.75578
851.751	428.43311
851.925	238.14195
852.099	105.96181
852.274	151.75196
852.448	213.62823
852.622	264.3683
852.797	225.95411
852.971	249.0167
853.145	239.35325
853.319	667.56111
853.493	349.66047
853.668	203.67089
853.842	426.25191
854.016	334.51732
854.19	406.58814
854.364	229.80725
854.538	272.41901
854.712	343.38496
854.886	222.9532
855.06	197.87222
855.234	78.42228
855.408	432.418
855.582	357.96481
855.756	360.73765
855.93	453.61322
856.104	243.80987
856.278	345.86364
856.452	215.90076
856.626	312.43336
856.8	540.34284
856.973	291.19233
857.147	276.56147
857.321	293.28535
857.495	355.01338
857.669	241.77942
857.842	201.76396
858.016	339.71593
858.19	147.04047
858.364	841.20386
858.537	193.74621
858.711	234.7496
858.885	215.67181
859.058	199.50037
859.232	110.33412
859.405	120.13588
859.579	337.57284
859.753	292.08327
859.926	160.07926
860.1	98.3827
860.273	224.78469
860.447	445.65925
860.62	218.91319
860.794	464.68618
860.967	266.45863
861.141	357.90177
861.314	679.45236
861.487	287.69905
861.661	395.68508
861.834	522.06774
862.008	352.9015
862.181	247.21513
862.354	239.52887
862.528	318.71045
862.701	191.44141
862.874	137.53109
863.047	197.12843
863.221	196.33382
863.394	105.38439
863.567	372.06331
863.74	84.54658
863.913	345.71584
864.087	287.83906
864.26	317.47226
864.433	192.62535
864.606	529.65749
864.779	228.33164
864.952	113.48955
865.125	190.16901
865.298	237.35845
865.471	223.67288
865.644	502.81427
865.817	371.08278
865.99	327.07979
866.163	474.61839
866.336	190.13911
866.509	219.0468
866.682	189.4255
866.855	401.27512
867.028	138.31424
867.2	272.57204
867.373	93.79778
867.546	231.62202
867.719	583.54168
867.892	285.95459
868.064	158.61298
868.237	267.03939
868.41	260.16071
868.583	116.62442
868.755	135.3117
868.928	209.60203
869.101	586.41651
869.273	339.40874
869.446	273.77239
869.619	394.858
869.791	218.52466
869.964	372.54763
870.136	356.08417
870.309	256.15044
870.481	245.95594
870.654	109.34314
870.826	270.37156
870.999	179.79611
871.171	276.294
871.344	175.96783
871.516	218.3963
871.689	141.17364
871.861	206.49279
872.033	153.8052
872.206	191.26752
872.378	337.09861
872.55	185.97004
872.723	132.66159
872.895	193.57969
873.067	338.56979
873.24	340.96499
873.412	179.82722
873.584	200.5045
873.756	194.30749
873.928	251.51145
874.101	249.4704
874.273	267.41063
874.445	100.46003
874.617	133.35139
874.789	232.30393
874.961	199.23994
875.133	268.04965
875.305	217.59296
875.477	134.58565
875.649	112.13405
875.821	140.75485
875.993	407.49654
876.165	143.13751
876.337	234.55133
876.509	217.85411
876.681	247.96146
876.853	239.65749
877.025	240.81982
877.197	148.24556
877.369	130.70141
877.541	292.227
877.712	79.81787
877.884	129.79576
878.056	259.87119
878.228	123.8382
878.4	244.69336
878.571	127.40765
878.743	89.90928
878.915	198.27006
879.086	120.78337
879.258	151.58526
879.43	132.54021
879.601	111.07842
879.773	123.38608
879.945	31.11233
880.116	47.44356
880.288	30.00215
880.459	32.47706
880.631	24.54104
880.802	29.72002
880.974	27.33861
881.145	18.72719
881.317	26.21431
881.488	18.75943
881.66	22.03384
881.831	19.87639
882.002	27.26371
882.174	19.70682
882.345	27.31933
882.517	14.55456
882.688	34.37898
882.859	27.40511
883.03	45.10527
883.202	44.45405
883.373	37.5464
883.544	38.63418
883.715	64.899
883.887	56.00571
884.058	47.54336
884.229	67.93713
884.4	69.31756
884.571	81.65355
884.742	67.13091
884.914	71.93157
885.085	104.04716
885.256	135.65792
885.427	110.24826
885.598	139.15379
885.769	138.59503
885.94	140.32409
886.111	88.64807
886.282	163.00866
886.453	123.80216
886.624	96.43379
886.795	174.27947
886.966	137.63053
887.136	184.98526
887.307	119.32792
887.478	253.2257
887.649	192.51716
887.82	227.11881
887.991	177.4307
888.161	246.06395
888.332	235.25245
888.503	112.32425
888.674	315.92194
888.844	389.9353
889.015	275.43177
889.186	121.40029
889.356	335.12054
889.527	109.12803
889.698	579.66798
889.868	158.43109
890.039	246.20466
890.209	198.04953
890.38	286.27135
890.551	246.80446
890.721	318.22051
890.892	282.19919
891.062	183.5993
891.233	259.08826
891.403	179.83252
891.574	132.57633
891.744	183.60001
891.914	213.12452
892.085	224.03601
892.255	73.22475
892.425	368.26134
892.596	225.56425
892.766	227.65994
892.936	298.81508
893.107	256.07522
893.277	143.05792
893.447	105.17341
893.618	74.94266
893.788	158.59497
893.958	84.8532
894.128	76.30816
894.298	92.18971
894.468	121.02635
894.639	55.03701
894.809	38.35201
894.979	61.25314
895.149	70.58713
895.319	59.03069
895.489	81.32858
895.659	110.56565
895.829	72.38401
895.999	77.86115
896.169	64.20081
896.339	81.35879
896.509	168.85569
896.679	192.31829
896.849	183.48103
897.019	263.59635
897.189	206.66747
897.358	175.16123
897.528	250.48715
897.698	95.55832
897.868	234.87912
898.038	460.77493
898.208	458.93395
898.377	101.99235
898.547	462.97069
898.717	651.09902
898.886	239.89313
899.056	420.88606
899.226	657.59955
899.395	327.06599
899.565	572.29773
899.735	322.12811
899.904	543.62944
900.074	551.11126
900.244	181.51227
900.413	797.5242
900.583	156.27046
900.752	305.99653
900.922	759.50412
901.091	32.05263
901.261	466.51849
901.43	399.3166
901.599	338.60349
901.769	1356.07437
901.938	562.11358
902.108	443.23197
902.277	768.27497
902.446	128.35749
902.616	149.62936
902.785	195.20128
902.954	395.8178
903.124	244.38151
903.293	172.79474
903.462	91.79118
903.631	137.34463
903.801	100.52711
903.97	50.67824
904.139	87.17231
904.308	68.98081
904.477	58.19683
904.646	34.46965
904.816	54.49933
904.985	81.67432
905.154	131.34005
