Data from WindowProjectSample_Transmission__13__00013.txt Node

Date: Sat May 03 15:05:29 EDT 2025
User: jessi
Spectrometer: SR400872
Trigger mode: 0
Integration Time (sec): 5.000010E-1
Scans to average: 6
Electric dark correction enabled: true
Nonlinearity correction enabled: true
Boxcar width: 0
XAxis mode: Wavelengths
Number of Pixels in Spectrum: 3648
>>>>>Begin Spectral Data<<<<<
184.909	18040.33808
185.132	2603.33291
185.355	23968.2278
185.578	-7997.61674
185.801	264.85927
186.024	-1528.03531
186.247	851.91965
186.47	1977.64408
186.693	-179.39754
186.916	-2176.1691
187.139	-2659.56734
187.362	1697.99935
187.585	2763.59638
187.808	-3322.61486
188.031	-1389.56273
188.254	-1228.17095
188.476	-729.65397
188.699	2720.33074
188.922	-896.50774
189.145	-10128.7283
189.368	-348.01886
189.591	-1176.47894
189.813	-1729.92474
190.036	1401.339
190.259	1665.53224
190.482	622.27911
190.705	10504.41408
190.927	-1048.24237
191.15	3584.4033
191.373	2164.03361
191.595	-2343.19243
191.818	2481.68708
192.041	-308.96308
192.263	2596.13641
192.486	2107.92589
192.709	-5179.76771
192.931	2890.5301
193.154	-6231.61763
193.377	198085.62805
193.599	1322.65439
193.822	1909.30202
194.044	-2172.99286
194.267	456.34148
194.489	-307.6941
194.712	1400.36443
194.934	3369.60218
195.157	-14544.15903
195.379	722.44587
195.602	2259.90656
195.824	2046.54685
196.047	2111.10572
196.269	2750.68246
196.492	3240.19859
196.714	2725.03428
196.936	1139.3136
197.159	1449.04813
197.381	-2163.35845
197.604	-1425.22655
197.826	6672.14216
198.048	3053.55781
198.271	3995.01735
198.493	2140.46901
198.715	-5930.1041
198.938	-495.47623
199.16	1880.57868
199.382	1480.0907
199.604	-681.20712
199.827	8987.4539
200.049	965.6876
200.271	-2956.7196
200.493	-54502.64053
200.715	2263.96286
200.938	6806.88955
201.16	-7087.2531
201.382	-2942.02116
201.604	-1900.72658
201.826	6541.90459
202.048	856.96092
202.27	-16407.89503
202.492	4470.93027
202.715	-1138.00693
202.937	4426.92348
203.159	-2239.02758
203.381	931.36723
203.603	-3632.32999
203.825	-2667.876
204.047	3396.11677
204.269	-2297.17009
204.491	2127.1962
204.713	1964.31205
204.935	15217.77405
205.156	1758.42086
205.378	-8064.49636
205.6	-4200.30769
205.822	9154.428
206.044	-661.11133
206.266	4165.74138
206.488	1099.6009
206.71	29884.22266
206.932	2360.44724
207.153	-4579.88009
207.375	-1822.6895
207.597	8808.14263
207.819	4445.79795
208.041	2184.50054
208.262	-2334.62645
208.484	-1070.36626
208.706	-2635.17532
208.927	28013.97912
209.149	1025.85169
209.371	-6282.9493
209.593	1149.20996
209.814	5324.50859
210.036	-2950.81554
210.258	-5039.68241
210.479	-1257.27063
210.701	988.16898
210.922	7019.94312
211.144	-1308.91924
211.366	-5934.92757
211.587	-732.68073
211.809	8857.8022
212.03	-1331.45688
212.252	-2353.41681
212.473	807.84771
212.695	-2241.60594
212.916	2675.04403
213.138	3667.17666
213.359	-1752.15826
213.581	6613.04901
213.802	-1488.59922
214.024	16972.54399
214.245	-3418.19641
214.466	-585.60979
214.688	1668.04174
214.909	928.07159
215.131	-100014.43799
215.352	1562.5862
215.573	2495.09256
215.795	3071.84672
216.016	4110.26273
216.237	-561.81437
216.459	6605.05878
216.68	103173.05675
216.901	-82403.13815
217.122	1884.04537
217.344	6082.75233
217.565	-57535.89999
217.786	1578.06337
218.007	1758.82105
218.228	-997.84911
218.45	-1228.88262
218.671	-1131.59558
218.892	1210.04223
219.113	-18202.34689
219.334	-317.11435
219.555	-5609.56007
219.776	1582.05846
219.997	3456.9054
220.219	1153.86541
220.44	2357.29279
220.661	-2459.95675
220.882	3648.11628
221.103	-1229.64614
221.324	986.51464
221.545	2248.57729
221.766	-5859.36171
221.987	4252.12018
222.208	-2011.70445
222.429	3548.01662
222.65	-213.58875
222.87	-586.65082
223.091	8469.30492
223.312	2465.93989
223.533	6777.89812
223.754	1813.38883
223.975	1423.36862
224.196	-11623.04662
224.417	1012.5329
224.637	934.54418
224.858	-889.23093
225.079	6629.44917
225.3	580.11325
225.521	2081.15639
225.741	1556.47697
225.962	770.03879
226.183	279.79334
226.404	653.34591
226.624	563.543
226.845	369.27385
227.066	402.24128
227.286	192.97047
227.507	91.3294
227.728	78.20311
227.948	129.7951
228.169	36.89866
228.389	44.69936
228.61	24.93866
228.831	35.24136
229.051	3.1456
229.272	20.8274
229.492	29.45773
229.713	8.88811
229.933	22.3069
230.154	18.50007
230.374	31.8627
230.595	22.55384
230.815	15.37769
231.036	24.32312
231.256	-6.27462
231.477	42.66844
231.697	25.47615
231.917	20.22648
232.138	36.46723
232.358	76.94568
232.579	63.34216
232.799	10.07969
233.019	64.06939
233.24	77.99732
233.46	25.20137
233.68	40.25923
233.901	30.78689
234.121	16.93166
234.341	7.69365
234.561	-2.76749
234.782	14.16754
235.002	45.64729
235.222	-1.64277
235.442	43.85597
235.662	20.60791
235.883	41.01273
236.103	35.6732
236.323	25.63088
236.543	19.50612
236.763	28.63809
236.983	28.34037
237.203	31.03693
237.423	44.76647
237.643	61.39829
237.864	53.24681
238.084	14.71809
238.304	22.15842
238.524	31.70913
238.744	30.60872
238.964	45.64914
239.184	42.96736
239.404	42.63093
239.624	22.87166
239.843	38.10686
240.063	25.15916
240.283	17.16754
240.503	17.40582
240.723	16.40513
240.943	9.37169
241.163	13.49246
241.383	9.59389
241.603	4.73394
241.822	6.07839
242.042	4.64194
242.262	5.95668
242.482	6.61767
242.702	8.20247
242.921	2.63017
243.141	5.70821
243.361	5.04812
243.581	7.32249
243.8	6.29595
244.02	4.65774
244.24	7.78689
244.459	7.56054
244.679	14.16756
244.899	8.8307
245.118	10.18808
245.338	8.18797
245.558	11.10682
245.777	6.50003
245.997	7.19399
246.216	7.5535
246.436	4.16795
246.655	3.47646
246.875	2.22769
247.094	5.00164
247.314	1.45606
247.533	2.79583
247.753	3.63182
247.972	2.79011
248.192	0.83144
248.411	1.7379
248.631	3.2294
248.85	3.90871
249.07	3.06481
249.289	4.98635
249.508	3.66675
249.728	6.20569
249.947	6.32746
250.166	6.77979
250.386	4.41646
250.605	5.53772
250.824	8.17394
251.044	6.23648
251.263	20.22925
251.482	10.38342
251.701	10.10023
251.921	-0.23331
252.14	3.05149
252.359	3.47508
252.578	8.47014
252.798	3.00427
253.017	7.73076
253.236	3.9345
253.455	4.59487
253.674	9.76334
253.893	3.99165
254.112	6.17586
254.331	8.44193
254.551	8.17381
254.77	3.27625
254.989	11.04473
255.208	9.92341
255.427	12.68487
255.646	9.65025
255.865	17.3513
256.084	7.58177
256.303	8.52479
256.522	11.52561
256.741	2.09582
256.96	2.76764
257.179	6.96237
257.397	8.4057
257.616	4.3922
257.835	5.02344
258.054	11.75555
258.273	7.52838
258.492	8.92496
258.711	5.35001
258.93	2.46674
259.148	3.24746
259.367	3.39778
259.586	4.38301
259.805	2.14022
260.023	4.17963
260.242	3.215
260.461	2.24624
260.68	1.15662
260.898	3.78385
261.117	1.29428
261.336	0.90974
261.554	3.28899
261.773	3.24605
261.992	0.5959
262.21	3.02671
262.429	3.88438
262.648	6.28644
262.866	7.15255
263.085	4.44707
263.303	4.36135
263.522	7.35552
263.74	7.7903
263.959	12.33052
264.178	6.44434
264.396	5.19361
264.615	3.73864
264.833	9.62807
265.051	8.41503
265.27	8.52843
265.488	9.64249
265.707	5.46806
265.925	8.80028
266.144	3.96842
266.362	5.28521
266.58	5.00376
266.799	4.23645
267.017	5.37121
267.235	4.64579
267.454	2.87751
267.672	2.04335
267.89	3.65944
268.109	3.88712
268.327	3.8886
268.545	0.77405
268.763	3.39365
268.982	1.472
269.2	4.42341
269.418	2.53868
269.636	1.9071
269.854	3.73632
270.073	2.73097
270.291	1.94933
270.509	1.60188
270.727	3.6991
270.945	5.96537
271.163	6.01586
271.381	1.58606
271.599	2.47676
271.817	4.55592
272.036	1.54041
272.254	2.643
272.472	2.35425
272.69	2.1457
272.908	1.99421
273.126	3.78372
273.344	4.52919
273.562	1.78909
273.779	2.33543
273.997	3.3229
274.215	3.92551
274.433	2.57778
274.651	3.7902
274.869	4.04169
275.087	2.69304
275.305	3.94123
275.523	1.88437
275.74	2.85623
275.958	4.75928
276.176	6.94731
276.394	2.39819
276.612	2.89768
276.829	2.89761
277.047	2.28105
277.265	2.72145
277.483	3.39474
277.7	3.83792
277.918	2.99029
278.136	5.66129
278.353	2.74128
278.571	1.22015
278.789	4.46335
279.006	0.82376
279.224	2.55953
279.442	4.30675
279.659	2.80367
279.877	2.15197
280.094	4.70948
280.312	1.17937
280.529	2.95729
280.747	0.95838
280.964	2.36621
281.182	5.21293
281.399	2.45823
281.617	3.40846
281.834	2.32758
282.052	1.76669
282.269	2.59965
282.487	2.32869
282.704	1.68723
282.921	2.30479
283.139	2.80434
283.356	3.78503
283.574	3.10967
283.791	1.76019
284.008	4.59766
284.226	2.55235
284.443	2.82869
284.66	3.5149
284.877	2.93171
285.095	1.9575
285.312	1.4313
285.529	0.95376
285.746	0.7527
285.964	1.83988
286.181	1.28482
286.398	1.70145
286.615	2.33174
286.832	2.31962
287.05	0.77685
287.267	1.52064
287.484	1.73084
287.701	2.47554
287.918	2.35929
288.135	2.4958
288.352	1.04352
288.569	1.32534
288.786	2.10826
289.003	1.63366
289.22	2.46346
289.437	1.58273
289.654	2.72667
289.871	2.83776
290.088	2.5619
290.305	2.02986
290.522	1.60827
290.739	2.00735
290.956	2.83013
291.173	3.3865
291.39	3.25499
291.607	2.35503
291.824	1.86169
292.04	1.14056
292.257	2.50525
292.474	2.75687
292.691	1.99318
292.908	0.98251
293.125	1.61757
293.341	1.02537
293.558	4.5776
293.775	1.66411
293.992	2.10703
294.208	0.74386
294.425	1.01127
294.642	1.56459
294.858	2.96967
295.075	0.70776
295.292	1.7764
295.508	2.35344
295.725	3.40675
295.942	1.65282
296.158	1.18269
296.375	1.94116
296.591	1.56351
296.808	1.57081
297.024	1.79821
297.241	1.97895
297.458	2.23149
297.674	0.29688
297.891	1.77049
298.107	1.58829
298.323	1.02589
298.54	2.83873
298.756	1.36149
298.973	0.62489
299.189	2.89271
299.406	1.48201
299.622	2.84174
299.838	2.73074
300.055	2.55047
300.271	1.03799
300.487	0.99485
300.704	1.48805
300.92	1.06846
301.136	4.10819
301.353	2.77789
301.569	2.11088
301.785	2.40035
302.001	2.88842
302.218	2.44561
302.434	2.60713
302.65	1.186
302.866	1.85532
303.083	4.1109
303.299	4.1138
303.515	2.44907
303.731	2.78645
303.947	1.45108
304.163	1.95967
304.379	2.59621
304.595	2.89922
304.812	1.8839
305.028	1.75209
305.244	2.25159
305.46	2.99005
305.676	3.39052
305.892	3.75669
306.108	3.01759
306.324	2.1981
306.54	4.08916
306.756	3.09642
306.972	2.98563
307.187	2.75494
307.403	3.62448
307.619	2.00863
307.835	3.41389
308.051	3.75551
308.267	1.63055
308.483	3.87241
308.699	3.25455
308.914	2.85295
309.13	2.55334
309.346	1.71736
309.562	2.03557
309.778	1.59007
309.993	3.15952
310.209	3.05132
310.425	1.79349
310.641	2.9596
310.856	2.21093
311.072	1.9478
311.288	2.79709
311.503	3.45899
311.719	1.60825
311.935	1.75597
312.15	3.63463
312.366	3.33834
312.581	3.41532
312.797	3.26118
313.013	3.76777
313.228	2.51451
313.444	2.69484
313.659	2.39743
313.875	3.18392
314.09	2.77883
314.306	3.76804
314.521	3.64745
314.737	3.66643
314.952	3.11758
315.168	3.03925
315.383	3.55055
315.599	2.48022
315.814	2.88132
316.029	3.54427
316.245	2.18965
316.46	1.32767
316.675	3.93257
316.891	4.42107
317.106	5.44491
317.321	3.18958
317.537	3.50963
317.752	3.9447
317.967	3.74583
318.183	2.27799
318.398	2.74138
318.613	3.72444
318.828	4.43105
319.043	3.54104
319.259	2.79935
319.474	3.3821
319.689	3.83753
319.904	1.5073
320.119	4.1723
320.334	3.1977
320.549	3.07166
320.765	4.26649
320.98	3.48353
321.195	3.53411
321.41	3.05171
321.625	3.70661
321.84	4.55053
322.055	4.35095
322.27	2.40613
322.485	2.22707
322.7	3.52743
322.915	4.12772
323.13	2.91139
323.345	4.79228
323.56	4.27622
323.775	3.90949
323.989	3.85225
324.204	3.54239
324.419	4.16966
324.634	2.29233
324.849	3.39407
325.064	5.93981
325.279	4.46279
325.493	3.94244
325.708	4.16425
325.923	2.67976
326.138	3.44971
326.352	4.80388
326.567	4.29161
326.782	3.13717
326.997	3.21031
327.211	4.08775
327.426	3.71186
327.641	3.54432
327.855	2.47621
328.07	4.38548
328.285	5.31734
328.499	3.24067
328.714	4.03553
328.928	4.04574
329.143	3.80152
329.358	4.66129
329.572	4.74622
329.787	5.17549
330.001	5.96682
330.216	2.23166
330.43	5.72065
330.645	4.91503
330.859	4.53874
331.074	2.80091
331.288	3.90756
331.503	5.50577
331.717	2.70497
331.931	3.97356
332.146	4.20971
332.36	5.91504
332.575	4.44929
332.789	4.03317
333.003	4.25157
333.218	4.63272
333.432	3.91205
333.646	5.04722
333.86	5.79168
334.075	5.69763
334.289	3.79565
334.503	3.01234
334.717	5.15066
334.932	4.40344
335.146	4.81527
335.36	3.23657
335.574	4.40361
335.788	4.2671
336.003	4.95086
336.217	5.35792
336.431	4.6301
336.645	3.93799
336.859	3.56658
337.073	4.43387
337.287	4.76721
337.501	3.34811
337.715	5.29869
337.929	5.02263
338.143	3.88703
338.357	4.54766
338.571	4.53977
338.785	5.72081
338.999	4.27516
339.213	4.41426
339.427	3.9
339.641	5.93564
339.855	4.36714
340.069	3.92182
340.283	5.63514
340.497	6.13502
340.711	5.43078
340.924	5.12542
341.138	4.33967
341.352	3.79367
341.566	5.25849
341.78	4.05451
341.993	4.64909
342.207	4.50637
342.421	5.60909
342.635	5.15544
342.848	4.81767
343.062	2.96753
343.276	4.73497
343.49	6.92163
343.703	4.64146
343.917	6.0654
344.131	6.44078
344.344	4.48661
344.558	5.0464
344.771	4.42345
344.985	6.40756
345.199	7.01726
345.412	5.72834
345.626	6.29044
345.839	4.42931
346.053	4.75605
346.266	4.81935
346.48	6.1294
346.693	6.05763
346.907	6.19787
347.12	4.8742
347.334	5.73382
347.547	5.93179
347.76	5.70038
347.974	6.35449
348.187	5.92093
348.401	5.33416
348.614	4.80806
348.827	5.54378
349.041	6.13949
349.254	4.2708
349.467	5.48913
349.681	5.34716
349.894	5.1504
350.107	7.12864
350.32	7.87883
350.534	4.88228
350.747	5.7592
350.96	5.50353
351.173	5.5847
351.386	5.7773
351.6	5.397
351.813	5.94207
352.026	5.90955
352.239	5.58335
352.452	5.68702
352.665	7.1896
352.878	5.91121
353.092	8.12111
353.305	6.94002
353.518	6.72353
353.731	5.57771
353.944	7.29833
354.157	6.19625
354.37	6.17256
354.583	5.29143
354.796	5.80368
355.009	7.494
355.222	7.02366
355.435	6.88062
355.647	7.61037
355.86	6.37541
356.073	7.10003
356.286	6.4714
356.499	7.92515
356.712	7.89483
356.925	7.68119
357.138	8.07771
357.35	6.83163
357.563	6.94558
357.776	7.65171
357.989	7.65621
358.201	7.97119
358.414	7.91828
358.627	8.65552
358.84	7.48485
359.052	6.78344
359.265	7.00487
359.478	8.43192
359.69	5.64618
359.903	8.59953
360.116	8.69132
360.328	6.76946
360.541	8.66695
360.753	7.73068
360.966	8.10799
361.179	8.37939
361.391	8.17339
361.604	8.12501
361.816	8.1302
362.029	8.33678
362.241	8.05604
362.454	8.52668
362.666	7.98023
362.879	9.11702
363.091	8.45176
363.304	8.38983
363.516	8.25532
363.728	7.76842
363.941	9.06256
364.153	9.0493
364.366	7.35653
364.578	7.93642
364.79	9.05304
365.003	9.15069
365.215	8.48416
365.427	9.40972
365.639	9.73983
365.852	9.03807
366.064	10.12232
366.276	8.85161
366.488	9.32508
366.701	8.98451
366.913	8.93654
367.125	9.16862
367.337	8.74458
367.549	9.04774
367.762	9.10845
367.974	9.27542
368.186	9.28412
368.398	10.17671
368.61	9.59084
368.822	9.92366
369.034	9.15518
369.246	10.4416
369.458	11.79211
369.67	9.00354
369.882	11.01604
370.094	8.42102
370.306	10.91287
370.518	9.6609
370.73	9.61503
370.942	9.80022
371.154	10.2222
371.366	10.1531
371.578	10.87227
371.79	10.45969
372.002	11.22621
372.214	12.36269
372.425	10.47897
372.637	12.03142
372.849	11.08473
373.061	9.23685
373.273	10.84941
373.484	11.20472
373.696	11.49531
373.908	9.26494
374.12	11.46165
374.331	11.63657
374.543	10.39365
374.755	10.41986
374.967	11.3653
375.178	12.27499
375.39	11.14976
375.602	11.68528
375.813	10.31907
376.025	10.9125
376.236	11.78919
376.448	11.99069
376.66	11.86029
376.871	12.03859
377.083	12.88492
377.294	13.6099
377.506	11.79089
377.717	13.12195
377.929	12.65362
378.14	12.38802
378.352	12.85271
378.563	13.15048
378.775	13.62083
378.986	12.01899
379.197	12.70766
379.409	11.98958
379.62	13.06428
379.832	13.18496
380.043	12.74162
380.254	13.33069
380.466	12.32354
380.677	15.22369
380.888	14.73456
381.1	15.62843
381.311	15.38885
381.522	13.88487
381.733	15.69894
381.945	13.49949
382.156	13.33962
382.367	13.78396
382.578	16.01577
382.789	16.27391
383.001	13.20483
383.212	15.56254
383.423	15.4183
383.634	14.89187
383.845	14.91418
384.056	14.32523
384.267	14.5661
384.478	14.83632
384.69	13.88241
384.901	15.24004
385.112	14.98358
385.323	16.38722
385.534	15.42631
385.745	15.68442
385.956	15.39398
386.167	14.72412
386.378	15.97521
386.588	15.27104
386.799	14.59477
387.01	14.61894
387.221	16.41561
387.432	15.91963
387.643	17.07991
387.854	15.70063
388.065	15.80324
388.275	15.78084
388.486	15.51547
388.697	16.4808
388.908	15.97949
389.119	17.13627
389.329	17.46795
389.54	16.47939
389.751	16.98765
389.962	17.67563
390.172	16.70386
390.383	16.94047
390.594	16.35769
390.804	16.67127
391.015	16.90333
391.226	17.53824
391.436	17.96031
391.647	17.6973
391.858	17.61064
392.068	16.43998
392.279	17.06781
392.489	18.03683
392.7	18.4519
392.91	17.55358
393.121	17.53642
393.331	18.14958
393.542	19.00766
393.752	18.68708
393.963	18.85294
394.173	18.92286
394.384	19.00156
394.594	18.63551
394.804	17.72554
395.015	18.63568
395.225	19.27398
395.436	17.87054
395.646	18.93785
395.856	18.45998
396.067	17.92951
396.277	19.3642
396.487	19.30619
396.697	19.52285
396.908	19.87301
397.118	19.53556
397.328	19.21578
397.538	19.90876
397.749	19.00819
397.959	20.01119
398.169	19.68771
398.379	18.78567
398.589	19.86071
398.8	20.03928
399.01	20.14057
399.22	19.70017
399.43	21.27425
399.64	19.93579
399.85	20.35813
400.06	20.2327
400.27	19.61864
400.48	19.96749
400.69	20.78604
400.9	19.91117
401.11	19.34894
401.32	20.67861
401.53	19.99767
401.74	21.28065
401.95	20.88196
402.16	20.60023
402.37	20.97343
402.58	20.69827
402.79	20.97054
403	21.40253
403.209	20.72654
403.419	21.93377
403.629	20.63616
403.839	21.98346
404.049	22.0568
404.258	21.39331
404.468	21.02632
404.678	22.06253
404.888	22.45938
405.097	21.76346
405.307	21.49084
405.517	22.24384
405.727	21.87233
405.936	21.22476
406.146	21.80658
406.356	22.73809
406.565	21.41947
406.775	21.30344
406.984	21.52796
407.194	23.24525
407.404	21.79581
407.613	22.57326
407.823	22.32852
408.032	22.99581
408.242	22.53814
408.451	21.61382
408.661	22.06875
408.87	23.44616
409.08	21.67872
409.289	22.53933
409.499	22.75507
409.708	22.52799
409.918	21.23595
410.127	22.83647
410.336	23.62334
410.546	23.16053
410.755	22.47938
410.964	22.35938
411.174	21.86891
411.383	23.04336
411.592	22.81511
411.802	22.36838
412.011	23.05762
412.22	22.60993
412.429	24.05963
412.639	23.97291
412.848	23.53698
413.057	24.13789
413.266	23.89162
413.475	22.93244
413.685	23.3609
413.894	23.70601
414.103	23.74022
414.312	23.63801
414.521	23.12574
414.73	23.4984
414.939	24.61116
415.148	23.7213
415.357	23.5765
415.566	23.58852
415.776	23.45458
415.985	23.65015
416.194	24.06687
416.403	25.03557
416.611	23.06396
416.82	23.72858
417.029	24.1164
417.238	23.71495
417.447	23.74867
417.656	24.20402
417.865	24.31048
418.074	25.05551
418.283	26.48671
418.492	28.39353
418.7	27.77128
418.909	30.9585
419.118	29.55523
419.327	30.5678
419.536	30.59548
419.744	31.68232
419.953	33.72989
420.162	34.60798
420.371	34.48539
420.579	36.62982
420.788	37.2955
420.997	37.53739
421.205	38.35113
421.414	37.81657
421.623	38.15437
421.831	37.269
422.04	37.63564
422.249	35.80454
422.457	35.92924
422.666	34.44536
422.874	35.20777
423.083	35.86406
423.291	36.52172
423.5	37.19101
423.708	38.04195
423.917	38.88997
424.125	37.77016
424.334	38.05143
424.542	40.02689
424.751	39.17877
424.959	38.08714
425.167	37.67481
425.376	37.1289
425.584	34.08804
425.793	33.46163
426.001	31.76934
426.209	30.65751
426.418	28.90156
426.626	27.06888
426.834	26.37212
427.042	25.52498
427.251	24.83309
427.459	25.82354
427.667	25.30344
427.875	24.44281
428.084	24.95708
428.292	26.02225
428.5	25.88562
428.708	24.63754
428.916	24.91046
429.124	25.5829
429.333	25.30583
429.541	25.27529
429.749	25.5701
429.957	25.63582
430.165	27.05231
430.373	24.56874
430.581	25.57087
430.789	26.2216
430.997	25.38771
431.205	25.16182
431.413	25.95035
431.621	25.66289
431.829	26.1878
432.037	25.70534
432.245	26.17969
432.453	26.40539
432.661	26.03375
432.869	27.91996
433.076	27.03113
433.284	27.97673
433.492	28.88958
433.7	29.05477
433.908	28.03087
434.116	28.57322
434.323	27.42947
434.531	27.1702
434.739	26.67373
434.947	26.54361
435.154	26.69173
435.362	26.07771
435.57	25.97227
435.778	25.86633
435.985	26.3652
436.193	25.94936
436.401	26.90336
436.608	26.36019
436.816	26.07631
437.023	27.10544
437.231	27.55808
437.439	26.53077
437.646	26.95957
437.854	26.78266
438.061	27.17555
438.269	26.95523
438.476	27.2122
438.684	27.53273
438.891	28.65262
439.099	28.80326
439.306	29.10521
439.514	29.24943
439.721	31.90178
439.929	32.12812
440.136	33.73223
440.343	34.14104
440.551	34.02677
440.758	35.94009
440.965	33.64643
441.173	33.32233
441.38	33.00541
441.587	31.54123
441.795	31.05263
442.002	29.49595
442.209	28.80508
442.416	28.23647
442.624	27.71589
442.831	27.08406
443.038	26.60854
443.245	26.38643
443.452	26.55941
443.66	27.35173
443.867	26.89064
444.074	27.09237
444.281	27.99671
444.488	28.62287
444.695	29.49367
444.902	30.8935
445.109	33.36912
445.316	34.02355
445.523	35.4849
445.73	36.45209
445.937	37.74263
446.144	38.99507
446.351	39.91375
446.558	37.89093
446.765	41.17736
446.972	39.12467
447.179	38.77245
447.386	38.7283
447.593	35.40261
447.8	36.32922
448.007	33.4065
448.214	31.43251
448.42	30.10059
448.627	29.58177
448.834	28.80925
449.041	28.15002
449.248	27.02635
449.454	27.34581
449.661	27.8258
449.868	26.67058
450.075	26.79662
450.281	26.01673
450.488	26.41877
450.695	26.54124
450.901	26.76575
451.108	26.80818
451.315	27.84074
451.521	27.13716
451.728	28.1612
451.935	27.10939
452.141	27.35002
452.348	27.59377
452.554	27.39594
452.761	26.75452
452.967	28.1258
453.174	27.4594
453.38	27.25608
453.587	26.88222
453.793	27.30465
454	27.62042
454.206	28.60364
454.413	28.07954
454.619	27.90029
454.825	26.99796
455.032	27.82013
455.238	28.09361
455.445	26.93387
455.651	27.37183
455.857	26.44324
456.064	27.19917
456.27	27.33662
456.476	27.28052
456.682	26.49047
456.889	27.64513
457.095	27.84609
457.301	28.7384
457.507	27.92384
457.714	27.75764
457.92	27.78551
458.126	27.47372
458.332	27.79467
458.538	28.33414
458.744	30.02783
458.951	31.89605
459.157	35.63387
459.363	36.2039
459.569	37.15799
459.775	37.5366
459.981	38.24252
460.187	38.44342
460.393	37.56156
460.599	37.05393
460.805	35.03663
461.011	32.13031
461.217	30.54124
461.423	28.34071
461.629	27.47832
461.835	27.86806
462.041	27.5575
462.247	28.57063
462.453	27.6489
462.658	27.68285
462.864	28.22226
463.07	28.06742
463.276	27.81768
463.482	27.75103
463.688	28.94906
463.893	27.59564
464.099	27.90726
464.305	29.14876
464.511	27.57094
464.716	27.77636
464.922	28.46728
465.128	27.41108
465.333	28.86826
465.539	28.55177
465.745	28.14811
465.95	28.09256
466.156	29.94351
466.362	28.97937
466.567	28.04557
466.773	28.2099
466.978	29.16897
467.184	27.75617
467.389	27.44213
467.595	28.79882
467.8	27.96817
468.006	29.1912
468.211	29.03322
468.417	27.61366
468.622	28.51486
468.828	28.47353
469.033	28.46731
469.239	29.99188
469.444	27.85907
469.649	28.92262
469.855	28.19996
470.06	28.45371
470.266	27.94972
470.471	28.75526
470.676	28.51327
470.881	27.2136
471.087	29.6913
471.292	29.59782
471.497	27.39828
471.703	28.34626
471.908	28.12196
472.113	28.32817
472.318	29.31044
472.523	28.12258
472.729	28.62849
472.934	28.5839
473.139	28.35906
473.344	29.05767
473.549	29.34483
473.754	27.99314
473.959	30.1439
474.164	28.23157
474.369	28.50767
474.575	28.99613
474.78	28.3469
474.985	28.14547
475.19	27.28734
475.395	28.32417
475.6	28.65596
475.804	29.63717
476.009	28.66701
476.214	28.5355
476.419	28.25462
476.624	27.9159
476.829	28.26768
477.034	29.25068
477.239	28.32756
477.444	28.85655
477.648	29.28148
477.853	29.1754
478.058	28.46559
478.263	28.28658
478.468	28.1471
478.672	28.27774
478.877	29.46078
479.082	29.76966
479.287	29.07731
479.491	28.67622
479.696	28.12334
479.901	29.19586
480.105	28.91318
480.31	28.40267
480.515	28.97552
480.719	30.28037
480.924	28.83139
481.128	29.35315
481.333	31.02624
481.538	31.80989
481.742	34.1954
481.947	36.89425
482.151	40.4979
482.356	44.54106
482.56	51.96022
482.765	59.11441
482.969	69.57913
483.174	78.13626
483.378	88.47299
483.582	91.81693
483.787	95.92599
483.991	96.35083
484.196	95.83135
484.4	93.2117
484.604	90.51314
484.809	82.24885
485.013	75.66243
485.217	67.81414
485.422	60.36716
485.626	55.30491
485.83	52.90302
486.034	52.34673
486.239	54.56562
486.443	57.13085
486.647	60.24689
486.851	63.40923
487.055	67.54097
487.26	69.19149
487.464	71.93874
487.668	70.64339
487.872	71.88823
488.076	70.77915
488.28	66.97712
488.484	62.48207
488.688	59.7186
488.892	55.28255
489.096	50.93725
489.3	47.09453
489.504	43.94577
489.708	41.73659
489.912	40.97244
490.116	41.01641
490.32	42.25881
490.524	45.87812
490.728	49.33713
490.932	53.18375
491.136	56.92445
491.34	59.00999
491.544	59.82378
491.748	60.00995
491.951	58.53872
492.155	56.8738
492.359	53.95992
492.563	49.12681
492.767	45.1738
492.97	39.85827
493.174	35.24926
493.378	32.35371
493.582	29.23594
493.785	28.08743
493.989	27.73898
494.193	26.54699
494.396	25.71634
494.6	26.45068
494.804	26.51079
495.007	27.96018
495.211	28.0642
495.414	28.20578
495.618	28.80332
495.822	29.43462
496.025	28.69763
496.229	29.55795
496.432	29.69013
496.636	30.00483
496.839	30.45839
497.043	31.46967
497.246	30.72935
497.45	29.97427
497.653	30.51529
497.856	29.67432
498.06	28.81675
498.263	28.45046
498.467	28.49488
498.67	28.77705
498.873	28.44997
499.077	28.43057
499.28	28.24234
499.483	28.80874
499.686	28.97498
499.89	28.24186
500.093	29.04402
500.296	28.02609
500.499	29.45091
500.703	28.36536
500.906	28.52353
501.109	29.62587
501.312	28.4773
501.515	28.34902
501.719	28.85809
501.922	29.15708
502.125	28.61652
502.328	28.38682
502.531	28.08963
502.734	28.56353
502.937	27.58061
503.14	28.68185
503.343	28.43152
503.546	28.54731
503.749	28.37243
503.952	28.95074
504.155	28.07355
504.358	28.92434
504.561	28.82111
504.764	27.61764
504.967	28.71845
505.17	28.44024
505.373	29.40118
505.576	28.39488
505.778	29.03811
505.981	27.8159
506.184	29.00225
506.387	27.40224
506.59	29.68112
506.793	29.16564
506.995	28.81345
507.198	27.55902
507.401	29.07027
507.604	29.04833
507.806	28.05726
508.009	28.20402
508.212	29.24106
508.414	28.33815
508.617	28.1202
508.82	28.70632
509.022	29.78445
509.225	28.89455
509.427	27.63855
509.63	29.05174
509.833	28.27187
510.035	28.30033
510.238	27.63218
510.44	29.17575
510.643	27.33844
510.845	29.7405
511.048	28.88382
511.25	28.21225
511.453	28.42113
511.655	28.85384
511.858	28.57071
512.06	28.97249
512.262	28.85627
512.465	29.27234
512.667	28.35196
512.869	27.82423
513.072	28.58712
513.274	28.98851
513.476	28.68744
513.679	28.91236
513.881	27.7995
514.083	29.24592
514.286	28.14012
514.488	27.68473
514.69	27.78957
514.892	27.80843
515.094	28.74397
515.297	28.0623
515.499	28.48117
515.701	27.85601
515.903	29.50594
516.105	29.76969
516.307	29.02257
516.509	27.46942
516.711	27.8806
516.913	28.54266
517.116	28.77315
517.318	28.47004
517.52	29.25815
517.722	29.3171
517.924	29.50253
518.126	31.18042
518.328	31.22751
518.529	32.37701
518.731	33.00549
518.933	30.67337
519.135	30.75046
519.337	31.04301
519.539	29.48064
519.741	27.25983
519.943	28.12118
520.145	27.97244
520.346	28.55741
520.548	28.18471
520.75	28.26959
520.952	28.13865
521.153	28.69215
521.355	28.62353
521.557	28.02658
521.759	28.55308
521.96	28.45829
522.162	27.64944
522.364	28.96994
522.565	28.16154
522.767	28.95892
522.969	29.1269
523.17	28.62924
523.372	28.66718
523.573	28.41465
523.775	28.56057
523.977	27.98177
524.178	30.01143
524.38	28.57488
524.581	29.22512
524.783	28.81602
524.984	30.78205
525.186	31.648
525.387	33.19234
525.589	33.63307
525.79	33.9247
525.991	34.19462
526.193	35.15662
526.394	34.52552
526.596	35.6874
526.797	37.14337
526.998	37.16615
527.2	40.53794
527.401	46.00881
527.602	50.84547
527.803	57.9931
528.005	63.16613
528.206	67.04736
528.407	70.05157
528.608	70.01595
528.81	69.93272
529.011	67.85611
529.212	67.22293
529.413	62.66752
529.614	57.78398
529.815	52.34641
530.017	47.49984
530.218	41.89408
530.419	38.3889
530.62	36.48056
530.821	34.7395
531.022	32.6091
531.223	33.7371
531.424	33.27132
531.625	34.28833
531.826	34.59153
532.027	36.75332
532.228	40.27061
532.429	42.40024
532.63	44.69508
532.831	47.32603
533.032	47.34199
533.233	48.83935
533.433	47.6953
533.634	47.32391
533.835	45.51799
534.036	43.0644
534.237	39.97062
534.438	37.28166
534.638	33.37651
534.839	31.66009
535.04	30.64476
535.241	29.819
535.441	31.46773
535.642	31.41465
535.843	31.98906
536.043	32.84871
536.244	33.45417
536.445	34.04683
536.645	35.15636
536.846	34.38012
537.047	34.04917
537.247	32.26785
537.448	30.86222
537.648	29.78723
537.849	28.17317
538.049	28.30511
538.25	28.88626
538.451	28.98959
538.651	28.074
538.851	29.16439
539.052	29.82475
539.252	29.75911
539.453	28.99452
539.653	29.5785
539.854	30.07001
540.054	33.34292
540.254	37.98071
540.455	42.29956
540.655	44.99931
540.855	49.19964
541.056	51.6712
541.256	52.09928
541.456	53.28021
541.657	52.41063
541.857	51.90955
542.057	49.19271
542.257	46.86078
542.458	45.24606
542.658	42.15843
542.858	38.72344
543.058	36.75517
543.258	35.12797
543.458	32.29768
543.659	31.37585
543.859	31.37301
544.059	30.56274
544.259	29.02453
544.459	29.50044
544.659	28.92445
544.859	29.18018
545.059	28.96662
545.259	29.80766
545.459	29.72412
545.659	30.11694
545.859	29.73723
546.059	29.93031
546.259	29.64362
546.459	29.18123
546.659	29.16075
546.859	30.20979
547.059	30.02298
547.258	29.88701
547.458	30.09962
547.658	28.71788
547.858	28.49259
548.058	29.41353
548.258	28.78677
548.457	28.5053
548.657	30.7443
548.857	28.98025
549.057	29.88009
549.256	29.87842
549.456	29.03008
549.656	27.95386
549.855	30.97752
550.055	29.06272
550.255	31.01324
550.454	29.74137
550.654	30.39664
550.853	30.87138
551.053	30.65939
551.253	30.15759
551.452	30.38921
551.652	29.60091
551.851	29.4207
552.051	30.10054
552.25	29.88728
552.45	29.57697
552.649	30.08797
552.849	29.65416
553.048	29.94947
553.248	30.46009
553.447	29.19039
553.646	30.66765
553.846	31.31714
554.045	30.66228
554.244	28.87798
554.444	31.49081
554.643	29.46145
554.842	31.46111
555.042	31.81384
555.241	29.738
555.44	29.30874
555.64	30.80871
555.839	31.97225
556.038	30.96711
556.237	29.91012
556.436	30.51261
556.636	30.95853
556.835	30.03021
557.034	32.13677
557.233	30.27209
557.432	29.54083
557.631	31.62122
557.83	30.55438
558.029	29.92087
558.228	29.66745
558.427	29.73402
558.626	31.03386
558.825	29.647
559.024	30.69824
559.223	32.31025
559.422	30.47608
559.621	30.79702
559.82	28.68018
560.019	30.54828
560.218	30.82035
560.417	28.70315
560.616	30.39643
560.815	33.5729
561.014	30.00153
561.212	32.27215
561.411	31.22201
561.61	29.7344
561.809	30.41076
562.008	31.89037
562.206	31.18013
562.405	31.68083
562.604	30.65611
562.803	31.24015
563.001	30.94232
563.2	29.98164
563.399	31.4249
563.597	30.16559
563.796	31.09083
563.995	30.43348
564.193	32.10916
564.392	31.31032
564.59	33.5621
564.789	29.99349
564.988	31.35781
565.186	31.94952
565.385	31.62847
565.583	31.23056
565.782	31.79142
565.98	31.67471
566.179	31.67718
566.377	30.69415
566.575	31.21913
566.774	32.89499
566.972	32.08578
567.171	33.22755
567.369	32.5407
567.567	31.65765
567.766	31.37193
567.964	29.54349
568.162	32.18953
568.361	32.71375
568.559	31.71301
568.757	32.26004
568.956	31.9785
569.154	31.76717
569.352	32.46082
569.55	31.86062
569.748	32.00222
569.947	31.26483
570.145	31.29009
570.343	31.36568
570.541	33.24371
570.739	31.3842
570.937	32.40697
571.135	32.81407
571.333	33.90162
571.532	33.63215
571.73	32.79778
571.928	33.39932
572.126	32.65088
572.324	31.8742
572.522	33.48711
572.72	34.21612
572.918	32.56698
573.116	32.52071
573.313	32.57096
573.511	32.61729
573.709	31.55771
573.907	33.01485
574.105	32.38005
574.303	31.10447
574.501	31.46913
574.699	32.83642
574.896	33.16772
575.094	32.91159
575.292	31.39125
575.49	33.26685
575.688	32.38427
575.885	33.7425
576.083	34.23192
576.281	33.38014
576.478	31.5624
576.676	32.74042
576.874	30.71995
577.071	32.46386
577.269	34.58089
577.467	32.64329
577.664	32.48554
577.862	33.52507
578.059	31.58127
578.257	33.38166
578.455	32.32727
578.652	33.17852
578.85	30.60625
579.047	33.15184
579.245	32.38388
579.442	32.46972
579.64	32.84676
579.837	31.32496
580.034	35.83627
580.232	32.7837
580.429	31.66392
580.627	33.67742
580.824	34.33029
581.021	33.6778
581.219	32.76369
581.416	32.13078
581.613	34.90022
581.811	34.56014
582.008	32.11131
582.205	33.62335
582.402	33.98493
582.6	35.43149
582.797	32.75447
582.994	33.43223
583.191	33.84708
583.388	32.60365
583.586	34.06294
583.783	33.76963
583.98	32.62881
584.177	33.96551
584.374	30.13739
584.571	33.36326
584.768	33.35383
584.965	32.53002
585.162	34.42628
585.359	35.10482
585.556	33.12273
585.753	33.8253
585.95	32.24248
586.147	32.49774
586.344	33.85109
586.541	33.27027
586.738	32.07728
586.935	33.18404
587.132	32.90746
587.329	34.76977
587.526	33.27454
587.722	38.64841
587.919	32.11885
588.116	34.10792
588.313	34.89072
588.51	36.15806
588.706	32.85679
588.903	34.54927
589.1	34.80184
589.297	36.41848
589.493	33.77358
589.69	34.24732
589.887	33.42217
590.083	32.96373
590.28	32.7364
590.477	34.4362
590.673	35.08557
590.87	34.99337
591.067	33.65608
591.263	34.55692
591.46	33.79559
591.656	33.13607
591.853	35.21233
592.049	32.81001
592.246	33.34193
592.442	34.92964
592.639	35.69032
592.835	33.02619
593.032	34.84559
593.228	32.65715
593.425	32.45374
593.621	32.1424
593.817	34.41708
594.014	33.31901
594.21	34.50223
594.406	35.23004
594.603	34.43424
594.799	33.2989
594.995	31.78596
595.192	35.16667
595.388	33.66687
595.584	33.98844
595.78	33.04297
595.977	36.9648
596.173	36.31177
596.369	34.60085
596.565	33.71448
596.761	33.16338
596.957	36.08538
597.154	33.82064
597.35	33.98563
597.546	33.62239
597.742	35.04243
597.938	34.32554
598.134	33.22508
598.33	34.09043
598.526	35.39953
598.722	33.74328
598.918	36.24775
599.114	34.67531
599.31	32.7377
599.506	34.47881
599.702	33.07862
599.898	34.5741
600.094	35.08946
600.29	35.23956
600.485	35.7909
600.681	33.54102
600.877	36.80736
601.073	34.18495
601.269	36.34365
601.465	35.85544
601.66	33.40155
601.856	32.3963
602.052	37.00907
602.248	34.3542
602.443	33.58288
602.639	33.79429
602.835	34.00834
603.03	33.88823
603.226	35.99029
603.422	33.89057
603.617	34.28652
603.813	34.73061
604.009	34.77357
604.204	36.01895
604.4	33.39567
604.595	35.84642
604.791	33.72431
604.986	34.78876
605.182	34.00401
605.377	34.24924
605.573	33.9208
605.768	34.36314
605.964	34.72454
606.159	35.32337
606.355	35.43105
606.55	33.75978
606.746	35.53054
606.941	34.66799
607.136	37.47915
607.332	38.65467
607.527	32.7695
607.722	35.38773
607.918	34.5889
608.113	34.67146
608.308	36.39951
608.503	36.55543
608.699	35.95088
608.894	36.21651
609.089	34.38219
609.284	35.55398
609.479	34.84178
609.675	36.09204
609.87	34.82576
610.065	35.83504
610.26	35.96771
610.455	35.50671
610.65	34.17167
610.845	34.63315
611.04	35.93242
611.235	34.34969
611.43	34.03488
611.625	32.48655
611.82	36.46767
612.015	33.6833
612.21	36.17077
612.405	32.51862
612.6	36.51469
612.795	36.47587
612.99	35.48169
613.185	33.13491
613.38	33.26916
613.575	34.77709
613.77	39.18448
613.965	33.1368
614.159	33.84254
614.354	36.89416
614.549	35.59724
614.744	36.31823
614.938	33.3541
615.133	32.70716
615.328	37.5391
615.523	36.1506
615.717	38.82951
615.912	33.87534
616.107	35.41798
616.301	34.94273
616.496	34.71188
616.691	36.79027
616.885	36.44178
617.08	39.37894
617.274	36.49322
617.469	38.02902
617.664	36.40644
617.858	34.78777
618.053	36.209
618.247	34.68771
618.442	31.67164
618.636	37.72859
618.831	33.98262
619.025	34.31373
619.219	39.73505
619.414	30.72241
619.608	35.17851
619.803	34.23801
619.997	38.65528
620.191	36.81277
620.386	36.03408
620.58	35.00418
620.774	33.1213
620.969	32.81768
621.163	35.09926
621.357	33.54201
621.551	34.32979
621.746	34.825
621.94	34.66314
622.134	40.40471
622.328	39.06736
622.522	32.73209
622.716	36.711
622.911	37.05092
623.105	36.66752
623.299	36.59421
623.493	40.83667
623.687	34.30117
623.881	34.64919
624.075	35.80898
624.269	37.4223
624.463	32.44937
624.657	33.54912
624.851	36.18687
625.045	37.22131
625.239	37.69006
625.433	36.06466
625.627	37.98664
625.821	35.3036
626.015	34.79549
626.209	36.58047
626.403	34.20399
626.596	36.72787
626.79	37.21677
626.984	34.46665
627.178	36.75192
627.372	37.07047
627.565	36.74213
627.759	33.59879
627.953	33.95263
628.147	36.499
628.34	36.37162
628.534	38.85484
628.728	35.64003
628.921	36.82499
629.115	36.08338
629.309	37.23279
629.502	37.26986
629.696	35.98116
629.89	35.54874
630.083	36.19558
630.277	36.70987
630.47	38.29001
630.664	34.67264
630.857	32.98145
631.051	36.80653
631.244	37.36181
631.438	37.0616
631.631	34.78623
631.825	38.09681
632.018	37.2834
632.212	38.98884
632.405	37.93271
632.598	34.79306
632.792	36.2889
632.985	32.60225
633.178	35.86182
633.372	35.55033
633.565	36.09307
633.758	38.12416
633.952	34.7165
634.145	33.99937
634.338	35.95409
634.531	35.0079
634.724	34.80062
634.918	35.10171
635.111	34.87491
635.304	34.10885
635.497	40.24435
635.69	35.55485
635.883	37.90019
636.077	33.74445
636.27	36.80302
636.463	35.89142
636.656	36.3556
636.849	34.79902
637.042	37.57731
637.235	38.03184
637.428	37.16629
637.621	37.16654
637.814	38.40131
638.007	39.0056
638.2	38.50276
638.393	39.58807
638.586	33.66752
638.778	35.46913
638.971	35.9351
639.164	38.76197
639.357	35.83441
639.55	39.24641
639.743	38.06418
639.935	36.72406
640.128	39.78698
640.321	37.21747
640.514	36.6089
640.707	40.18643
640.899	37.18069
641.092	33.0019
641.285	52.10162
641.477	32.5531
641.67	40.27513
641.863	38.8099
642.055	36.40816
642.248	35.11536
642.441	34.78301
642.633	37.40815
642.826	38.99033
643.018	38.29327
643.211	40.97696
643.403	40.39736
643.596	41.39365
643.788	39.75655
643.981	36.66543
644.173	38.2624
644.366	36.05009
644.558	32.29764
644.751	39.29688
644.943	34.01005
645.135	39.7551
645.328	40.12502
645.52	37.92116
645.712	39.13207
645.905	43.73278
646.097	34.08165
646.289	36.83361
646.482	42.40132
646.674	35.93025
646.866	39.97269
647.058	37.97005
647.251	34.36706
647.443	34.76026
647.635	36.88525
647.827	34.06452
648.019	36.43546
648.211	35.89667
648.404	36.74274
648.596	40.67616
648.788	37.41997
648.98	37.43695
649.172	37.92553
649.364	37.76794
649.556	32.8131
649.748	44.13605
649.94	35.06209
650.132	38.54343
650.324	35.52671
650.516	35.91414
650.708	40.04181
650.9	33.98198
651.092	36.82697
651.284	34.18186
651.476	35.00666
651.667	39.48036
651.859	39.63061
652.051	36.37707
652.243	36.63505
652.435	35.09573
652.627	38.92763
652.818	37.80905
653.01	33.8252
653.202	34.31209
653.394	35.2817
653.585	38.10077
653.777	47.23274
653.969	40.07808
654.16	39.77433
654.352	33.43645
654.544	36.31004
654.735	39.77992
654.927	38.03632
655.118	40.18481
655.31	38.8837
655.502	40.36813
655.693	35.86497
655.885	40.07839
656.076	40.49205
656.268	37.84912
656.459	40.84846
656.651	40.00364
656.842	36.59822
657.034	36.33677
657.225	39.67469
657.416	40.54593
657.608	41.91685
657.799	38.2081
657.99	41.29742
658.182	37.4374
658.373	37.60912
658.564	40.15222
658.756	38.66258
658.947	38.06416
659.138	36.09356
659.33	36.80041
659.521	36.61149
659.712	37.10874
659.903	37.5941
660.094	36.03655
660.286	33.85014
660.477	40.35922
660.668	39.13299
660.859	37.38133
661.05	33.70284
661.241	38.79406
661.432	38.60962
661.623	35.97958
661.814	36.50192
662.006	33.86913
662.197	38.1048
662.388	40.69658
662.579	37.71965
662.77	40.72598
662.96	44.05053
663.151	39.67527
663.342	34.12098
663.533	39.06427
663.724	37.92946
663.915	41.76907
664.106	37.83323
664.297	42.4237
664.488	38.79847
664.678	35.22241
664.869	40.35838
665.06	40.11195
665.251	38.65747
665.442	39.18429
665.632	34.66598
665.823	43.03545
666.014	30.24227
666.204	39.50225
666.395	42.43154
666.586	46.77727
666.776	39.98095
666.967	42.7439
667.158	39.60495
667.348	40.91354
667.539	36.28037
667.729	41.5358
667.92	36.11998
668.111	41.39134
668.301	40.68646
668.492	38.44034
668.682	39.02258
668.873	38.99143
669.063	36.22492
669.253	40.32358
669.444	40.69153
669.634	37.6166
669.825	43.63089
670.015	41.046
670.206	35.39173
670.396	43.34999
670.586	37.65675
670.777	40.04678
670.967	31.71006
671.157	36.41583
671.347	36.15849
671.538	42.48118
671.728	40.23824
671.918	43.85405
672.108	40.32948
672.299	37.38094
672.489	39.40466
672.679	35.94195
672.869	38.89057
673.059	44.76995
673.249	41.66528
673.44	34.65875
673.63	37.86218
673.82	41.62917
674.01	36.32899
674.2	39.89773
674.39	46.77532
674.58	42.35599
674.77	37.94131
674.96	37.5937
675.15	51.74271
675.34	43.70554
675.53	39.46881
675.72	38.02887
675.91	34.09051
676.099	45.06023
676.289	46.3685
676.479	42.74591
676.669	37.73007
676.859	40.72059
677.049	36.68406
677.238	38.83096
677.428	44.97973
677.618	41.23275
677.808	44.7016
677.997	41.60114
678.187	36.56442
678.377	40.48583
678.567	38.79723
678.756	38.02348
678.946	39.35635
679.136	35.42616
679.325	38.65706
679.515	36.57591
679.704	35.90027
679.894	41.94889
680.084	40.66069
680.273	42.43461
680.463	37.99958
680.652	36.96574
680.842	38.75116
681.031	42.31292
681.221	37.0159
681.41	40.92641
681.6	39.27854
681.789	41.63208
681.978	42.97021
682.168	40.28831
682.357	38.98612
682.547	41.61524
682.736	40.45176
682.925	44.35482
683.115	44.45366
683.304	42.18483
683.493	41.4892
683.682	41.24011
683.872	42.21203
684.061	44.41573
684.25	42.2883
684.439	46.24319
684.629	42.72052
684.818	52.26855
685.007	41.79082
685.196	41.19901
685.385	46.67421
685.574	41.66989
685.763	42.51176
685.952	42.78271
686.142	37.43846
686.331	45.20586
686.52	34.80227
686.709	46.31131
686.898	45.87987
687.087	43.9002
687.276	47.93759
687.465	45.55074
687.654	41.39729
687.842	47.1524
688.031	37.54169
688.22	47.02478
688.409	41.55248
688.598	41.57068
688.787	50.93889
688.976	42.19346
689.165	48.55611
689.353	40.40383
689.542	42.29972
689.731	45.63667
689.92	49.81658
690.108	44.1699
690.297	40.69447
690.486	42.11258
690.675	45.29002
690.863	48.92629
691.052	47.82399
691.241	43.84001
691.429	42.49943
691.618	48.03655
691.806	36.59329
691.995	39.77147
692.184	42.03241
692.372	39.76376
692.561	44.23741
692.749	42.30396
692.938	52.74859
693.126	44.38604
693.315	42.91277
693.503	46.45494
693.692	44.75209
693.88	46.94507
694.068	51.2136
694.257	42.28894
694.445	45.51839
694.634	34.60375
694.822	46.36766
695.01	47.95327
695.199	48.7609
695.387	48.36775
695.575	47.29836
695.763	41.41032
695.952	40.19264
696.14	38.31872
696.328	43.15516
696.516	43.88507
696.705	45.6864
696.893	45.54483
697.081	36.74125
697.269	46.45491
697.457	40.13086
697.645	40.09299
697.833	46.75667
698.021	41.26299
698.21	43.75028
698.398	42.72493
698.586	39.68585
698.774	39.75889
698.962	42.34882
699.15	39.98149
699.338	38.17768
699.526	43.92499
699.714	40.12309
699.901	40.02502
700.089	45.51804
700.277	39.54569
700.465	42.09089
700.653	45.78163
700.841	43.62566
701.029	39.4819
701.217	47.88826
701.404	42.31662
701.592	50.16118
701.78	51.42319
701.968	42.71994
702.155	43.42753
702.343	37.21553
702.531	50.03956
702.718	44.47865
702.906	41.75583
703.094	39.924
703.281	49.52217
703.469	45.48161
703.657	48.73295
703.844	57.90747
704.032	53.87806
704.219	39.84665
704.407	44.34836
704.595	49.31151
704.782	43.85639
704.97	42.6392
705.157	41.88455
705.345	51.51341
705.532	58.48944
705.719	47.4534
705.907	49.51072
706.094	44.61854
706.282	53.74459
706.469	44.61521
706.656	45.73151
706.844	45.1693
707.031	50.36842
707.218	45.43609
707.406	53.62731
707.593	47.93103
707.78	49.21111
707.968	45.32385
708.155	42.22195
708.342	47.2387
708.529	47.78225
708.716	46.90301
708.904	54.30373
709.091	48.42607
709.278	39.80881
709.465	58.02216
709.652	53.7633
709.839	52.82465
710.026	48.51889
710.213	38.86539
710.4	48.80952
710.587	51.02433
710.774	53.55798
710.961	52.29735
711.148	47.55084
711.335	52.88722
711.522	44.68224
711.709	48.41754
711.896	59.0909
712.083	51.75745
712.27	43.50442
712.457	47.44786
712.644	41.34625
712.831	58.49756
713.017	48.08242
713.204	51.98692
713.391	45.81852
713.578	53.91246
713.765	56.54304
713.951	49.08733
714.138	67.23112
714.325	52.32129
714.512	48.65698
714.698	44.60669
714.885	56.25052
715.072	49.87694
715.258	49.42398
715.445	46.13686
715.631	55.055
715.818	36.86475
716.005	44.75041
716.191	51.92936
716.378	46.4234
716.564	53.98183
716.751	45.74779
716.937	45.66324
717.124	53.72082
717.31	44.70298
717.497	58.4975
717.683	44.98775
717.869	62.60097
718.056	47.2958
718.242	51.53199
718.429	47.9873
718.615	42.6123
718.801	50.8118
718.988	55.42835
719.174	53.48016
719.36	49.16441
719.547	55.36681
719.733	49.81664
719.919	50.12468
720.105	56.04917
720.291	49.00131
720.478	50.37254
720.664	50.1604
720.85	46.89563
721.036	68.34508
721.222	61.54532
721.408	49.61394
721.595	62.10432
721.781	62.00738
721.967	57.26783
722.153	61.89042
722.339	52.89494
722.525	51.37258
722.711	45.28689
722.897	43.15625
723.083	47.15351
723.269	54.51608
723.455	66.26391
723.641	72.38573
723.827	51.83983
724.012	55.41569
724.198	48.7171
724.384	60.24537
724.57	55.5
724.756	41.79573
724.942	39.87257
725.127	57.84921
725.313	61.51916
725.499	59.22192
725.685	63.70713
725.87	54.32599
726.056	47.04547
726.242	63.3521
726.428	39.33209
726.613	57.34239
726.799	48.54745
726.985	45.74137
727.17	40.60677
727.356	63.51798
727.541	45.36117
727.727	51.52656
727.913	55.11231
728.098	49.0193
728.284	58.66886
728.469	45.49643
728.655	45.56905
728.84	57.0017
729.026	56.716
729.211	57.6923
729.397	56.9956
729.582	56.50047
729.767	53.08085
729.953	54.53973
730.138	60.51833
730.323	38.60212
730.509	48.45542
730.694	64.61472
730.879	56.7705
731.065	52.70045
731.25	67.91526
731.435	60.06856
731.621	43.24865
731.806	50.5703
731.991	54.03453
732.176	45.26555
732.361	62.72601
732.547	56.50127
732.732	41.93394
732.917	69.71329
733.102	44.80576
733.287	46.20188
733.472	52.27588
733.657	52.83606
733.842	43.20287
734.027	48.09795
734.212	48.58828
734.397	48.13767
734.582	52.96806
734.767	58.68656
734.952	62.62133
735.137	35.01715
735.322	62.77129
735.507	54.54514
735.692	53.31101
735.877	68.48699
736.062	67.54809
736.247	58.37203
736.431	49.68492
736.616	60.17616
736.801	54.85203
736.986	51.74477
737.171	46.98945
737.355	41.97706
737.54	61.17745
737.725	52.60387
737.909	75.94541
738.094	50.69573
738.279	62.42895
738.463	52.06458
738.648	57.69576
738.833	57.6953
739.017	68.57969
739.202	52.83541
739.386	52.92922
739.571	47.31317
739.756	61.31778
739.94	54.05038
740.125	60.93314
740.309	45.40224
740.494	59.43023
740.678	54.11042
740.863	59.85988
741.047	54.57092
741.231	64.23557
741.416	49.01381
741.6	66.1369
741.785	44.60601
741.969	64.12723
742.153	64.80489
742.338	38.49012
742.522	56.28804
742.706	60.29585
742.89	43.83702
743.075	56.45439
743.259	65.17299
743.443	64.31539
743.627	65.45379
743.812	75.91073
743.996	39.70856
744.18	53.54644
744.364	49.51915
744.548	78.3426
744.732	53.89799
744.916	65.51072
745.1	62.84398
745.285	52.17823
745.469	59.83821
745.653	70.76439
745.837	42.59741
746.021	79.52877
746.205	66.02261
746.389	57.74799
746.573	53.47292
746.757	70.38704
746.94	53.85755
747.124	67.96631
747.308	43.8318
747.492	64.6106
747.676	50.93264
747.86	78.72328
748.044	51.09891
748.227	40.1389
748.411	93.46361
748.595	58.45402
748.779	48.37666
748.963	60.30444
749.146	55.43722
749.33	46.48741
749.514	47.73215
749.697	63.67882
749.881	52.60205
750.065	47.77256
750.248	56.99441
750.432	80.35549
750.616	57.27539
750.799	43.02601
750.983	75.8211
751.166	81.69081
751.35	42.98967
751.533	65.37171
751.717	72.09332
751.9	69.46306
752.084	52.10967
752.267	47.2748
752.451	51.14961
752.634	58.42707
752.818	62.02619
753.001	66.67088
753.184	70.14366
753.368	62.57138
753.551	28.22244
753.734	48.44813
753.918	76.81984
754.101	49.92074
754.284	62.9648
754.467	52.28188
754.651	52.39753
754.834	48.40667
755.017	68.15917
755.2	68.26484
755.384	46.27982
755.567	65.80313
755.75	66.75997
755.933	55.51139
756.116	58.24232
756.299	52.83362
756.482	47.13532
756.665	64.46271
756.848	57.66797
757.032	63.72261
757.215	40.96186
757.398	50.01266
757.581	49.17508
757.764	90.29796
757.947	54.46396
758.129	71.45922
758.312	31.27207
758.495	58.21698
758.678	57.96094
758.861	53.5568
759.044	77.14209
759.227	51.81127
759.41	51.50714
759.592	66.46138
759.775	55.98412
759.958	68.79867
760.141	45.94661
760.324	84.6476
760.506	75.50266
760.689	68.89257
760.872	84.74725
761.054	64.96596
761.237	55.5789
761.42	61.39088
761.602	69.53107
761.785	61.79481
761.968	69.15294
762.15	75.2506
762.333	54.56296
762.515	62.37418
762.698	54.72223
762.88	65.43356
763.063	61.36993
763.245	67.79597
763.428	51.4542
763.61	54.02611
763.793	46.45967
763.975	61.48014
764.158	56.73895
764.34	53.51162
764.522	51.2546
764.705	57.27373
764.887	71.9807
765.069	43.81451
765.252	63.9016
765.434	66.21834
765.616	57.74033
765.799	54.65371
765.981	63.86378
766.163	52.84893
766.345	70.10071
766.528	55.46942
766.71	37.45622
766.892	59.40744
767.074	77.92474
767.256	56.7427
767.438	76.94201
767.62	66.76049
767.802	78.53652
767.985	72.05435
768.167	83.47038
768.349	57.71692
768.531	66.33335
768.713	60.71871
768.895	72.21802
769.077	64.50906
769.259	90.05544
769.441	119.18543
769.623	70.20426
769.804	86.59746
769.986	81.14384
770.168	96.83231
770.35	98.31433
770.532	86.47296
770.714	86.77002
770.896	90.69314
771.077	47.43176
771.259	100.51094
771.441	75.51538
771.623	101.54782
771.804	115.70317
771.986	47.20015
772.168	64.63323
772.35	94.76408
772.531	116.4531
772.713	79.53763
772.894	103.44799
773.076	79.04165
773.258	71.88818
773.439	101.80418
773.621	112.64988
773.802	62.06738
773.984	79.73997
774.166	83.01524
774.347	108.54225
774.529	99.58613
774.71	46.41538
774.891	78.14868
775.073	67.67725
775.254	108.39923
775.436	64.3921
775.617	123.4913
775.799	64.44087
775.98	108.46058
776.161	116.35634
776.343	116.39577
776.524	78.92474
776.705	76.54697
776.886	44.19938
777.068	81.3912
777.249	142.68913
777.43	121.72733
777.611	61.40063
777.793	81.2709
777.974	106.01875
778.155	70.7766
778.336	64.02623
778.517	121.12572
778.698	66.01311
778.879	46.03062
779.061	32.6933
779.242	87.47473
779.423	86.29525
779.604	71.76591
779.785	81.96419
779.966	80.47946
780.147	103.19263
780.328	101.27583
780.509	133.59908
780.69	98.35261
780.871	64.17785
781.051	55.79234
781.232	85.28297
781.413	80.77915
781.594	71.96257
781.775	73.47555
781.956	65.59526
782.137	41.37929
782.317	68.77959
782.498	85.37891
782.679	89.01152
782.86	90.34333
783.04	66.8104
783.221	90.65068
783.402	120.54162
783.583	90.85418
783.763	99.12192
783.944	76.26036
784.124	51.35842
784.305	113.21354
784.486	90.79139
784.666	84.00755
784.847	52.72718
785.027	142.41707
785.208	69.78185
785.388	69.96036
785.569	69.32146
785.749	76.46309
785.93	73.0249
786.11	55.5366
786.291	94.81885
786.471	83.32874
786.652	98.4044
786.832	78.92244
787.012	87.96689
787.193	61.0869
787.373	86.60789
787.553	75.61255
787.734	91.21352
787.914	74.05574
788.094	96.66165
788.275	93.216
788.455	74.8254
788.635	60.46653
788.815	84.59564
788.995	62.0841
789.176	57.03679
789.356	66.88746
789.536	72.93029
789.716	91.72929
789.896	63.07437
790.076	68.58322
790.256	87.1718
790.436	40.96583
790.616	65.49811
790.796	87.83948
790.976	73.57847
791.156	67.10459
791.336	97.42775
791.516	91.92039
791.696	76.74182
791.876	51.81695
792.056	81.90015
792.236	98.46795
792.416	98.29713
792.596	88.64938
792.776	87.87828
792.956	95.70182
793.135	112.484
793.315	58.82039
793.495	109.49289
793.675	99.28115
793.854	100.16345
794.034	105.23411
794.214	66.13745
794.394	98.15728
794.573	107.97668
794.753	88.82556
794.933	66.60024
795.112	87.45494
795.292	96.71023
795.472	120.865
795.651	55.09843
795.831	76.12822
796.01	77.3315
796.19	73.96346
796.369	85.38999
796.549	94.7249
796.728	80.50251
796.908	61.55149
797.087	59.46094
797.267	70.70305
797.446	58.43383
797.626	90.32527
797.805	86.77795
797.984	68.94203
798.164	97.64951
798.343	63.73957
798.522	85.40395
798.702	84.45666
798.881	58.16111
799.06	76.81025
799.239	47.16942
799.419	68.35992
799.598	115.3357
799.777	91.79707
799.956	107.81197
800.136	72.79898
800.315	67.03832
800.494	88.71166
800.673	103.08472
800.852	96.58448
801.031	104.08812
801.21	89.97317
801.389	76.73999
801.568	85.10732
801.747	118.74341
801.926	85.80119
802.105	120.21603
802.284	72.9805
802.463	118.93085
802.642	96.05349
802.821	83.08866
803	105.33876
803.179	104.72537
803.358	108.08392
803.537	71.11654
803.716	82.37176
803.895	67.68438
804.073	82.61414
804.252	71.5614
804.431	86.74683
804.61	72.29667
804.789	104.46376
804.967	71.11964
805.146	68.42936
805.325	126.4395
805.503	95.99637
805.682	54.49303
805.861	152.69821
806.039	114.33527
806.218	71.4834
806.397	97.29023
806.575	85.45185
806.754	92.36924
806.932	66.061
807.111	111.07811
807.289	110.83064
807.468	84.30006
807.646	104.71815
807.825	98.90148
808.003	93.68748
808.182	109.26545
808.36	87.55758
808.539	69.01831
808.717	117.86938
808.895	66.56016
809.074	88.19278
809.252	84.56429
809.43	112.81357
809.609	111.62548
809.787	123.77288
809.965	82.28659
810.144	86.18231
810.322	90.31366
810.5	99.21504
810.678	77.53289
810.856	134.11405
811.035	115.72667
811.213	102.56147
811.391	116.27718
811.569	91.52996
811.747	171.4938
811.925	117.34008
812.103	63.63786
812.281	92.28352
812.459	139.64845
812.637	139.72305
812.816	110.46216
812.994	142.52012
813.171	124.6622
813.349	102.83737
813.527	124.50411
813.705	121.74563
813.883	144.88082
814.061	125.15647
814.239	136.35591
814.417	150.258
814.595	103.57097
814.773	97.87958
814.95	97.17143
815.128	106.91093
815.306	98.84705
815.484	94.73428
815.662	74.65002
815.839	69.06947
816.017	77.41398
816.195	120.54948
816.372	80.27664
816.55	114.7791
816.728	128.22078
816.905	85.90876
817.083	131.89783
817.261	89.40073
817.438	165.82638
817.616	140.19729
817.793	78.65367
817.971	114.61884
818.148	108.48058
818.326	136.56696
818.503	99.54732
818.681	136.42933
818.858	85.27962
819.036	90.49753
819.213	91.88787
819.391	82.2634
819.568	76.76281
819.745	73.04995
819.923	112.95281
820.1	83.95887
820.277	73.70734
820.455	85.97007
820.632	85.84802
820.809	86.84668
820.986	66.87734
821.164	60.49787
821.341	56.45129
821.518	68.48348
821.695	60.18346
821.872	60.46104
822.05	54.42432
822.227	51.59498
822.404	52.35614
822.581	54.53373
822.758	51.48682
822.935	51.1992
823.112	53.99032
823.289	49.98752
823.466	53.94843
823.643	51.83724
823.82	56.48655
823.997	53.37861
824.174	57.50444
824.351	66.4162
824.528	65.09494
824.705	61.47638
824.882	67.90379
825.059	77.80668
825.236	67.79036
825.412	67.99401
825.589	75.17436
825.766	93.90221
825.943	70.19433
826.12	76.09394
826.296	64.18362
826.473	71.79415
826.65	72.11211
826.827	81.77418
827.003	64.1298
827.18	67.38638
827.357	72.48168
827.533	64.04906
827.71	50.69689
827.887	60.23697
828.063	64.91813
828.24	57.97641
828.416	69.08488
828.593	62.57998
828.769	76.78682
828.946	76.84791
829.122	82.26957
829.299	84.61716
829.475	54.46272
829.652	82.65026
829.828	116.81896
830.005	81.38881
830.181	103.48348
830.357	84.3521
830.534	107.81273
830.71	96.28451
830.886	106.77429
831.063	106.80942
831.239	126.84652
831.415	72.49051
831.592	133.38851
831.768	88.76728
831.944	80.08454
832.12	134.82385
832.296	125.17787
832.473	107.99132
832.649	75.73266
832.825	103.23766
833.001	71.0812
833.177	92.3504
833.353	85.74965
833.529	60.867
833.705	75.94525
833.881	63.93069
834.058	63.7509
834.234	65.79025
834.41	62.8072
834.586	56.98669
834.761	60.51422
834.937	65.6173
835.113	65.67757
835.289	61.01137
835.465	67.26095
835.641	61.2008
835.817	67.18819
835.993	105.85571
836.169	67.55559
836.344	85.33615
836.52	95.28045
836.696	103.36511
836.872	77.82333
837.048	172.50903
837.223	91.3647
837.399	149.68311
837.575	122.71765
837.75	122.85144
837.926	155.50214
838.102	238.46032
838.277	199.87044
838.453	251.17351
838.628	249.00334
838.804	101.4903
838.98	226.21738
839.155	119.9939
839.331	159.79428
839.506	117.26312
839.682	117.26939
839.857	141.43338
840.033	165.4979
840.208	94.32643
840.384	53.67683
840.559	89.96637
840.734	127.74471
840.91	172.75574
841.085	115.18202
841.26	112.91685
841.436	100.13452
841.611	108.31792
841.786	139.9885
841.962	186.39946
842.137	139.0727
842.312	83.80509
842.487	111.54637
842.663	105.18343
842.838	112.86609
843.013	332.5616
843.188	210.7238
843.363	166.31574
843.538	323.47824
843.714	357.68794
843.889	325.66592
844.064	310.93804
844.239	266.97904
844.414	451.20358
844.589	261.18385
844.764	413.01581
844.939	394.01861
845.114	448.56149
845.289	451.85095
845.464	509.25974
845.639	372.77366
845.814	229.13103
845.989	335.65096
846.163	258.57369
846.338	323.46813
846.513	458.53164
846.688	262.8213
846.863	314.76233
847.038	263.69016
847.212	296.0713
847.387	350.47446
847.562	312.39893
847.737	486.09434
847.911	186.22997
848.086	191.22714
848.261	510.36068
848.435	291.76924
848.61	382.68437
848.785	224.5649
848.959	426.48979
849.134	503.2716
849.308	670.58201
849.483	330.01548
849.658	547.93295
849.832	251.3294
850.007	270.86237
850.181	697.99716
850.356	301.79083
850.53	798.44195
850.705	328.87567
850.879	161.39657
851.053	339.22763
851.228	317.6408
851.402	464.71817
851.577	508.80773
851.751	592.30746
851.925	379.73127
852.099	188.50057
852.274	233.92365
852.448	314.54438
852.622	475.6478
852.797	358.59804
852.971	330.22957
853.145	419.38518
853.319	767.71384
853.493	634.29977
853.668	482.51322
853.842	782.68826
854.016	483.8197
854.19	671.42553
854.364	339.68371
854.538	358.08018
854.712	755.61912
854.886	447.31969
855.06	312.85957
855.234	118.48161
855.408	668.72272
855.582	410.83413
855.756	649.03942
855.93	591.53269
856.104	648.46503
856.278	554.1566
856.452	387.34413
856.626	396.90008
856.8	896.83726
856.973	386.45253
857.147	484.92052
857.321	493.182
857.495	519.13376
857.669	331.74227
857.842	436.2399
858.016	597.8443
858.19	244.53406
858.364	789.73008
858.537	411.83319
858.711	506.25954
858.885	429.0247
859.058	273.35063
859.232	172.14132
859.405	168.92598
859.579	496.04273
859.753	545.95106
859.926	242.63609
860.1	210.39017
860.273	374.91011
860.447	492.62605
860.62	408.92636
860.794	627.06756
860.967	370.29156
861.141	508.465
861.314	816.07658
861.487	482.11605
861.661	479.90341
861.834	523.15169
862.008	708.80371
862.181	431.12625
862.354	528.49969
862.528	500.37785
862.701	323.78512
862.874	210.60845
863.047	329.35428
863.221	286.04372
863.394	193.2962
863.567	435.57467
863.74	139.20533
863.913	528.54353
864.087	510.0104
864.26	482.03334
864.433	394.71191
864.606	611.86763
864.779	359.15955
864.952	163.32764
865.125	390.70046
865.298	327.70063
865.471	367.2931
865.644	764.9601
865.817	525.44226
865.99	496.16608
866.163	453.87319
866.336	272.85366
866.509	363.64973
866.682	600.32237
866.855	723.7448
867.028	212.23264
867.2	409.90619
867.373	134.81398
867.546	390.68797
867.719	678.94541
867.892	477.4657
868.064	308.6662
868.237	333.49583
868.41	367.41864
868.583	184.75336
868.755	245.4857
868.928	459.02558
869.101	828.20711
869.273	563.12666
869.446	533.87828
869.619	560.82079
869.791	373.76105
869.964	478.64191
870.136	860.85452
870.309	377.30759
870.481	417.83674
870.654	215.12473
870.826	356.16492
870.999	207.81098
871.171	420.64215
871.344	255.72856
871.516	336.54068
871.689	263.46186
871.861	357.94161
872.033	299.12319
872.206	259.16201
872.378	355.64835
872.55	361.16408
872.723	216.64784
872.895	324.82358
873.067	464.48753
873.24	422.75655
873.412	371.18021
873.584	387.42809
873.756	345.82227
873.928	458.31224
874.101	380.58425
874.273	421.9311
874.445	121.16183
874.617	249.5118
874.789	326.51787
874.961	334.63664
875.133	368.67791
875.305	386.94266
875.477	302.24649
875.649	172.07172
875.821	215.01565
875.993	623.10208
876.165	377.60028
876.337	383.90907
876.509	316.99588
876.681	417.04352
876.853	372.93921
877.025	365.34187
877.197	255.59245
877.369	186.15805
877.541	352.01887
877.712	122.64467
877.884	200.34475
878.056	376.68335
878.228	216.09816
878.4	392.82618
878.571	202.44369
878.743	133.09449
878.915	300.83988
879.086	164.42636
879.258	206.40735
879.43	192.26506
879.601	168.6664
879.773	164.74743
879.945	59.37644
880.116	87.90297
880.288	62.73382
880.459	64.05615
880.631	60.06594
880.802	66.51156
880.974	64.48392
881.145	55.49356
881.317	63.44506
881.488	56.03681
881.66	58.12922
881.831	55.56994
882.002	63.78225
882.174	55.81373
882.345	60.27089
882.517	48.194
882.688	67.40955
882.859	61.15807
883.03	77.86583
883.202	75.0619
883.373	70.75928
883.544	68.05515
883.715	97.27206
883.887	91.38115
884.058	85.41469
884.229	114.30791
884.4	117.77418
884.571	129.13009
884.742	118.99041
884.914	124.67282
885.085	159.28385
885.256	212.59689
885.427	182.42346
885.598	228.68048
885.769	213.74021
885.94	227.96818
886.111	152.90883
886.282	250.49665
886.453	224.92643
886.624	166.07056
886.795	251.06989
886.966	232.19074
887.136	280.57826
887.307	190.41487
887.478	356.14762
887.649	314.54782
887.82	314.05841
887.991	268.17439
888.161	390.71627
888.332	379.578
888.503	165.42781
888.674	423.34611
888.844	580.76985
889.015	367.83009
889.186	231.14849
889.356	521.91612
889.527	220.1838
889.698	695.09033
889.868	264.01943
890.039	427.84899
890.209	325.65906
890.38	404.12322
890.551	356.24169
890.721	447.19773
890.892	471.92346
891.062	437.0219
891.233	559.33869
891.403	472.17295
891.574	341.3781
891.744	314.06124
891.914	359.05056
892.085	418.59079
892.255	124.28846
892.425	475.62381
892.596	360.1642
892.766	426.7246
892.936	475.63003
893.107	431.78155
893.277	216.93163
893.447	234.94561
893.618	138.8954
893.788	234.75938
893.958	139.79664
894.128	134.1104
894.298	152.08024
894.468	187.28315
894.639	96.8069
894.809	74.12327
894.979	96.86043
895.149	118.87781
895.319	100.22815
895.489	134.24297
895.659	169.26167
895.829	113.94655
895.999	114.94429
896.169	105.2301
896.339	120.01475
896.509	227.41625
896.679	231.88702
896.849	266.71083
897.019	318.50398
897.189	266.39975
897.358	267.07453
897.528	390.61143
897.698	203.08041
897.868	360.74998
898.038	666.40226
898.208	680.98061
898.377	274.56792
898.547	995.12901
898.717	1462.97281
898.886	464.52569
899.056	691.35494
899.226	1533.5355
899.395	784.83164
899.565	1286.49016
899.735	834.91055
899.904	940.28027
900.074	1035.21901
900.244	330.84917
900.413	1312.4975
900.583	427.47867
900.752	1255.77608
900.922	1067.49626
901.091	228.5394
901.261	1760.49083
901.43	540.43322
901.599	2370.70422
901.769	1447.23736
901.938	1135.568
902.108	1647.73353
902.277	798.36839
902.446	454.06015
902.616	431.38766
902.785	587.54765
902.954	720.72468
903.124	542.45148
903.293	316.48275
903.462	163.01381
903.631	223.56372
903.801	168.23042
903.97	90.67841
904.139	136.94628
904.308	112.82532
904.477	94.78271
904.646	65.30387
904.816	95.03358
904.985	129.57254
905.154	177.08634
