Data from WindowProjectSample3_Transmission__2__00002.txt Node

Date: Sun May 04 09:39:04 EDT 2025
User: jessi
Spectrometer: SR400872
Trigger mode: 0
Integration Time (sec): 5.000070E-1
Scans to average: 20
Electric dark correction enabled: true
Nonlinearity correction enabled: true
Boxcar width: 0
XAxis mode: Wavelengths
Number of Pixels in Spectrum: 3648
>>>>>Begin Spectral Data<<<<<
184.909	-5726.15173
185.132	11033.68365
185.355	-8366.41573
185.578	-52777.1525
185.801	3914.15007
186.024	-131949.70735
186.247	-769.84079
186.47	1401.85229
186.693	1175.91974
186.916	-561.06385
187.139	-2493492.58643
187.362	-3030.20537
187.585	7975.17204
187.808	1943.99198
188.031	-178.87946
188.254	5126.79436
188.476	-1525.11412
188.699	2429.84847
188.922	479.61793
189.145	-5854.05331
189.368	-4162.13649
189.591	1740.15482
189.813	-142289.64208
190.036	8777.4418
190.259	1538.28062
190.482	5943.714
190.705	16930.98622
190.927	17510.66537
191.15	-3951.31972
191.373	1988.70772
191.595	1556.41414
191.818	17699.69633
192.041	945.85543
192.263	-7786.90617
192.486	-1651.59482
192.709	2909.38555
192.931	-3445.35859
193.154	13177.72785
193.377	2670.41692
193.599	26655.31962
193.822	2294.01498
194.044	2102.78828
194.267	1072.34218
194.489	-226.67576
194.712	3686.5109
194.934	33396.39394
195.157	-568.32885
195.379	11441.01968
195.602	1801.32705
195.824	4478.41941
196.047	6696.49424
196.269	13886.87136
196.492	-11197.07572
196.714	3894.70187
196.936	7046.31418
197.159	11111.3067
197.381	4249.14182
197.604	1669993.77822
197.826	1927.18233
198.048	2187.68909
198.271	9524.94886
198.493	2016.26702
198.715	2752.3208
198.938	8085.76706
199.16	3397.15206
199.382	9890.64897
199.604	9806.48756
199.827	1811.71356
200.049	2855.09109
200.271	19907.96923
200.493	1774.5914
200.715	7396.80282
200.938	7824.29442
201.16	-3726.30156
201.382	32402.62542
201.604	4156.95109
201.826	8516.18429
202.048	4668.4563
202.27	1788.68794
202.492	5966.23155
202.715	19240.83166
202.937	3904.62714
203.159	1509.17564
203.381	2096.20923
203.603	2817.30187
203.825	-1445.37575
204.047	-22660.30683
204.269	3479.74372
204.491	7040.14664
204.713	-1719002.24268
204.935	2305.64183
205.156	4032.89073
205.378	1662.39568
205.6	37016.94507
205.822	4778.16773
206.044	3498.20629
206.266	5924.57738
206.488	1515.65102
206.71	9153.63295
206.932	1508.28975
207.153	27735.24526
207.375	16194.06329
207.597	12200.19679
207.819	39999.36539
208.041	-45209.63709
208.262	1219.97328
208.484	13346.40783
208.706	3806.38747
208.927	2390.18266
209.149	842.4224
209.371	3671.02281
209.593	1055.681
209.814	10334.22058
210.036	-481226.77939
210.258	1563.3536
210.479	2346.84512
210.701	3301.56497
210.922	-5452.32699
211.144	-3132.94125
211.366	5022.48493
211.587	2717.61799
211.809	5995.77224
212.03	-66418.26194
212.252	523.14398
212.473	939.66857
212.695	722.76022
212.916	1266.0194
213.138	613.13525
213.359	5161.13773
213.581	2976.20458
213.802	859.35194
214.024	7587.70174
214.245	-13419.37662
214.466	485.88813
214.688	3872.07553
214.909	10180.478
215.131	4279.20613
215.352	2572.69073
215.573	11783.98055
215.795	2167.86016
216.016	2012.79167
216.237	-737224.32261
216.459	2050.24692
216.68	5514.26372
216.901	3184.57519
217.122	790.21821
217.344	2960.80727
217.565	7183.33025
217.786	3640.91209
218.007	895.76261
218.228	2540.65084
218.45	-17223.09563
218.671	49140.44603
218.892	18531.46595
219.113	1702.86418
219.334	6407.57283
219.555	-8598.53499
219.776	1821.11759
219.997	3953.51226
220.219	1179.54629
220.44	1493.68326
220.661	1536.59371
220.882	5916.27936
221.103	1430.05975
221.324	7868.95805
221.545	3188.79195
221.766	3008.39643
221.987	1535.91078
222.208	963.55284
222.429	2270.00178
222.65	150.14073
222.87	792.04229
223.091	1707.29272
223.312	1096.02537
223.533	2006.94253
223.754	1588.54608
223.975	1719.31154
224.196	1034.72261
224.417	5114.33038
224.637	616.38505
224.858	110.86068
225.079	1187.50854
225.3	658.58729
225.521	2308.04987
225.741	578.79641
225.962	599.63353
226.183	192.17379
226.404	1040.40951
226.624	557.34408
226.845	631.39897
227.066	464.74867
227.286	313.64014
227.507	187.02447
227.728	149.41493
227.948	269.94398
228.169	92.62979
228.389	101.15811
228.61	58.60245
228.831	76.51529
229.051	8.89014
229.272	50.39322
229.492	74.41119
229.713	19.76176
229.933	52.05858
230.154	45.89108
230.374	75.15735
230.595	58.82883
230.815	33.82372
231.036	58.86976
231.256	-11.23233
231.477	97.85814
231.697	58.34624
231.917	65.49461
232.138	84.34858
232.358	157.84887
232.579	150.77632
232.799	22.54696
233.019	133.9946
233.24	160.30743
233.46	64.02648
233.68	87.77396
233.901	56.98582
234.121	43.86446
234.341	19.1243
234.561	-6.27827
234.782	32.78446
235.002	98.95965
235.222	-0.72968
235.442	90.77056
235.662	45.16825
235.883	90.22648
236.103	74.59391
236.323	50.76183
236.543	41.58691
236.763	59.39762
236.983	65.19966
237.203	63.0994
237.423	85.37867
237.643	125.98025
237.864	109.42264
238.084	33.6465
238.304	39.49441
238.524	65.52233
238.744	58.35986
238.964	97.8047
239.184	82.23813
239.404	97.51707
239.624	49.87933
239.843	82.61732
240.063	49.72256
240.283	30.13501
240.503	35.34908
240.723	34.949
240.943	21.85685
241.163	27.82144
241.383	19.17711
241.603	10.42351
241.822	12.82321
242.042	8.85271
242.262	12.29958
242.482	13.36212
242.702	15.70882
242.921	4.88235
243.141	10.64046
243.361	9.48059
243.581	14.15567
243.8	11.61577
244.02	8.32624
244.24	14.42459
244.459	14.02621
244.679	28.91829
244.899	18.86492
245.118	21.30422
245.338	19.88899
245.558	20.86997
245.777	12.82942
245.997	14.20939
246.216	14.39469
246.436	8.50327
246.655	5.98636
246.875	4.69498
247.094	8.84575
247.314	3.59407
247.533	5.53888
247.753	6.15245
247.972	5.63378
248.192	1.86226
248.411	2.97127
248.631	5.50361
248.85	7.17869
249.07	6.54566
249.289	9.79073
249.508	7.16153
249.728	10.86895
249.947	11.33938
250.166	14.06452
250.386	7.52826
250.605	10.94509
250.824	17.73389
251.044	11.83692
251.263	35.41983
251.482	21.02041
251.701	17.43745
251.921	0.05828
252.14	6.42083
252.359	6.67385
252.578	14.62915
252.798	5.9076
253.017	13.48794
253.236	6.70353
253.455	9.41837
253.674	17.96837
253.893	8.37454
254.112	13.12387
254.331	18.2565
254.551	15.13372
254.77	7.44395
254.989	21.46147
255.208	15.74521
255.427	24.32941
255.646	20.75488
255.865	32.04816
256.084	14.45106
256.303	17.21622
256.522	20.97576
256.741	3.56883
256.96	5.6456
257.179	13.4068
257.397	16.01503
257.616	9.63893
257.835	9.77957
258.054	22.24789
258.273	15.5946
258.492	15.91328
258.711	9.67447
258.93	4.71132
259.148	6.80694
259.367	5.96329
259.586	7.99475
259.805	3.43769
260.023	6.95748
260.242	5.47393
260.461	4.39421
260.68	2.25572
260.898	6.51008
261.117	2.33314
261.336	1.37025
261.554	5.75399
261.773	5.80858
261.992	1.55057
262.21	5.43846
262.429	6.62391
262.648	10.45305
262.866	12.22263
263.085	9.17111
263.303	7.34217
263.522	13.413
263.74	13.10951
263.959	22.91718
264.178	12.25705
264.396	9.43925
264.615	7.87529
264.833	16.76113
265.051	14.07641
265.27	15.64758
265.488	15.87771
265.707	9.50877
265.925	15.28207
266.144	7.18722
266.362	8.43334
266.58	8.96602
266.799	7.07511
267.017	9.07042
267.235	7.36894
267.454	5.00619
267.672	2.83247
267.89	6.80195
268.109	6.81779
268.327	6.99328
268.545	1.63653
268.763	6.22095
268.982	3.16099
269.2	7.38785
269.418	4.37804
269.636	3.86441
269.854	7.09058
270.073	5.10545
270.291	3.01582
270.509	2.92304
270.727	6.66411
270.945	10.73001
271.163	10.28423
271.381	2.47295
271.599	4.80262
271.817	7.67354
272.036	2.87031
272.254	4.96904
272.472	3.608
272.69	3.78931
272.908	4.00341
273.126	6.18333
273.344	7.85726
273.562	2.83245
273.779	4.35769
273.997	6.3076
274.215	6.38709
274.433	4.54485
274.651	7.03545
274.869	7.08175
275.087	4.51452
275.305	6.31154
275.523	4.16757
275.74	4.71563
275.958	8.16261
276.176	11.81642
276.394	4.04652
276.612	4.9634
276.829	5.21113
277.047	4.52851
277.265	4.4905
277.483	5.31383
277.7	6.17571
277.918	4.90222
278.136	9.25606
278.353	4.74383
278.571	2.94856
278.789	7.03523
279.006	1.72138
279.224	4.21202
279.442	7.35069
279.659	5.56645
279.877	3.74254
280.094	8.20015
280.312	2.12506
280.529	5.54297
280.747	1.846
280.964	4.29048
281.182	8.72103
281.399	4.23277
281.617	5.41117
281.834	3.84498
282.052	3.14184
282.269	4.89605
282.487	3.893
282.704	3.44751
282.921	3.22896
283.139	5.09457
283.356	6.27901
283.574	5.84689
283.791	3.05552
284.008	7.80663
284.226	4.83781
284.443	5.03077
284.66	6.19122
284.877	5.20113
285.095	3.10986
285.312	2.38879
285.529	1.61087
285.746	1.25591
285.964	3.16249
286.181	2.20933
286.398	2.90898
286.615	4.16972
286.832	3.93271
287.05	1.07465
287.267	2.92244
287.484	2.91266
287.701	4.08953
287.918	4.01112
288.135	4.26272
288.352	1.76616
288.569	2.32795
288.786	3.72405
289.003	2.9742
289.22	4.45975
289.437	2.56598
289.654	4.52477
289.871	4.52134
290.088	4.41691
290.305	3.37576
290.522	2.69175
290.739	3.17405
290.956	4.76369
291.173	5.54749
291.39	5.27894
291.607	3.59232
291.824	3.10247
292.04	2.03945
292.257	4.64387
292.474	5.11222
292.691	3.46245
292.908	1.85619
293.125	2.81731
293.341	1.97751
293.558	7.63362
293.775	3.26343
293.992	3.45317
294.208	1.56136
294.425	2.70914
294.642	3.15184
294.858	4.77813
295.075	1.64667
295.292	3.34593
295.508	4.21235
295.725	6.17638
295.942	3.51918
296.158	2.93065
296.375	4.21798
296.591	3.52834
296.808	3.7082
297.024	4.26881
297.241	4.69851
297.458	4.92629
297.674	2.09175
297.891	4.287
298.107	4.20305
298.323	3.34668
298.54	6.1783
298.756	4.08985
298.973	2.95924
299.189	6.69226
299.406	4.0956
299.622	6.57694
299.838	6.70324
300.055	6.06392
300.271	3.36917
300.487	3.93927
300.704	4.48044
300.92	3.81601
301.136	8.5398
301.353	6.89726
301.569	5.64111
301.785	6.07068
302.001	6.89326
302.218	6.48748
302.434	6.6125
302.65	4.15922
302.866	5.17441
303.083	9.09388
303.299	9.15273
303.515	6.08811
303.731	6.7778
303.947	4.53473
304.163	5.59806
304.379	6.45249
304.595	6.93992
304.812	5.38226
305.028	5.29152
305.244	5.92796
305.46	7.32691
305.676	7.54933
305.892	8.52194
306.108	7.38578
306.324	6.52129
306.54	9.13172
306.756	7.28156
306.972	7.18069
307.187	6.53228
307.403	8.64204
307.619	6.10727
307.835	8.21706
308.051	8.6282
308.267	5.49499
308.483	8.61208
308.699	7.59596
308.914	7.21895
309.13	7.00555
309.346	5.3611
309.562	5.99444
309.778	5.43637
309.993	7.93974
310.209	7.48851
310.425	5.77106
310.641	7.14031
310.856	6.19214
311.072	6.13713
311.288	7.39863
311.503	8.1121
311.719	5.45008
311.935	5.56499
312.15	8.35769
312.366	8.00382
312.581	8.30813
312.797	7.75004
313.013	8.65721
313.228	6.82996
313.444	7.27289
313.659	6.43639
313.875	8.30336
314.09	7.47167
314.306	9.3128
314.521	8.76913
314.737	8.5446
314.952	7.94925
315.168	7.94692
315.383	8.28698
315.599	7.35862
315.814	7.4022
316.029	8.55228
316.245	6.48392
316.46	5.37277
316.675	9.3161
316.891	10.22005
317.106	11.98726
317.321	8.25257
317.537	8.76532
317.752	8.91855
317.967	8.90071
318.183	6.71849
318.398	7.54712
318.613	9.29712
318.828	9.81823
319.043	9.158
319.259	7.71348
319.474	8.36743
319.689	9.47604
319.904	5.51122
320.119	9.39723
320.334	8.3349
320.549	7.77051
320.765	9.76452
320.98	8.5682
321.195	8.76149
321.41	7.82705
321.625	9.0796
321.84	10.42874
322.055	10.24101
322.27	7.11527
322.485	6.71417
322.7	8.91471
322.915	9.48774
323.13	7.54379
323.345	10.51485
323.56	9.66795
323.775	9.44477
323.989	9.16816
324.204	8.85176
324.419	9.81359
324.634	7.01497
324.849	8.33696
325.064	11.93838
325.279	10.09821
325.493	9.19965
325.708	9.8998
325.923	7.73203
326.138	8.26538
326.352	10.85197
326.567	9.90091
326.782	8.14357
326.997	8.06521
327.211	9.78375
327.426	9.23695
327.641	8.46869
327.855	6.61271
328.07	9.7571
328.285	11.43209
328.499	8.4466
328.714	9.14112
328.928	9.55498
329.143	8.85179
329.358	10.4149
329.572	10.40843
329.787	11.06952
330.001	12.43093
330.216	7.05981
330.43	11.64439
330.645	10.70296
330.859	10.11096
331.074	7.55125
331.288	9.20612
331.503	11.36864
331.717	7.48071
331.931	8.97653
332.146	9.35026
332.36	11.88731
332.575	9.70916
332.789	9.39403
333.003	9.50366
333.218	10.01652
333.432	8.57334
333.646	10.42148
333.86	11.61018
334.075	11.47353
334.289	8.61074
334.503	7.59021
334.717	10.50764
334.932	9.6879
335.146	10.62365
335.36	8.62397
335.574	10.54028
335.788	10.21852
336.003	10.90538
336.217	10.89056
336.431	9.98922
336.645	8.70295
336.859	7.84283
337.073	9.14865
337.287	9.70506
337.501	7.88111
337.715	10.25175
337.929	10.09374
338.143	8.13922
338.357	9.2725
338.571	8.79478
338.785	10.91773
338.999	9.14967
339.213	9.045
339.427	8.33956
339.641	11.32532
339.855	9.20055
340.069	8.77042
340.283	11.04482
340.497	11.86238
340.711	10.58874
340.924	9.87067
341.138	8.66273
341.352	8.06988
341.566	9.90818
341.78	8.06636
341.993	9.19768
342.207	8.80052
342.421	10.19917
342.635	9.68982
342.848	9.22364
343.062	6.98652
343.276	9.15881
343.49	12.44246
343.703	8.89224
343.917	11.03825
344.131	11.38826
344.344	9.01598
344.558	9.50593
344.771	8.57167
344.985	11.6035
345.199	12.35332
345.412	10.52568
345.626	10.80661
345.839	8.08439
346.053	8.79868
346.266	9.22931
346.48	10.94364
346.693	10.64207
346.907	10.6422
347.12	8.85907
347.334	10.28468
347.547	10.46888
347.76	10.03855
347.974	11.67418
348.187	10.34003
348.401	9.68056
348.614	8.97072
348.827	9.6433
349.041	10.65334
349.254	8.04578
349.467	9.6083
349.681	9.13897
349.894	8.89348
350.107	11.45352
350.32	12.55299
350.534	8.35176
350.747	9.95269
350.96	9.28393
351.173	9.14203
351.386	9.45132
351.6	9.52813
351.813	9.58731
352.026	9.94039
352.239	8.73705
352.452	9.38076
352.665	11.61872
352.878	9.71743
353.092	12.68424
353.305	11.22836
353.518	10.34027
353.731	9.01281
353.944	11.35161
354.157	9.99852
354.37	9.75908
354.583	8.74935
354.796	8.81757
355.009	11.73131
355.222	10.49933
355.435	10.3754
355.647	11.7927
355.86	9.6348
356.073	10.59824
356.286	9.94642
356.499	11.74799
356.712	11.53264
356.925	11.29204
357.138	11.95404
357.35	9.80801
357.563	10.36629
357.776	11.00166
357.989	11.04499
358.201	11.53187
358.414	11.51379
358.627	12.22842
358.84	10.60823
359.052	9.63611
359.265	9.90365
359.478	11.94014
359.69	8.186
359.903	11.87185
360.116	12.14309
360.328	9.2318
360.541	11.79359
360.753	10.39511
360.966	10.76918
361.179	11.076
361.391	10.67633
361.604	10.35551
361.816	10.87459
362.029	11.02657
362.241	10.45594
362.454	11.17114
362.666	10.36774
362.879	11.88818
363.091	11.02355
363.304	10.73372
363.516	10.88504
363.728	9.94125
363.941	11.5392
364.153	11.2057
364.366	8.87736
364.578	10.03711
364.79	11.54842
365.003	11.37936
365.215	10.61213
365.427	11.59747
365.639	12.1676
365.852	11.40204
366.064	12.73163
366.276	10.91212
366.488	11.4385
366.701	10.80411
366.913	10.78667
367.125	10.67946
367.337	10.46806
367.549	10.60827
367.762	10.95941
367.974	11.00967
368.186	10.87679
368.398	12.2044
368.61	11.66364
368.822	11.87784
369.034	10.87402
369.246	12.17535
369.458	14.02603
369.67	10.17227
369.882	12.9643
370.094	9.1259
370.306	12.88134
370.518	10.90296
370.73	10.7872
370.942	10.71312
371.154	11.20993
371.366	10.93737
371.578	12.00082
371.79	11.02527
372.002	12.63867
372.214	13.83342
372.425	11.54818
372.637	13.1875
372.849	11.9285
373.061	9.31369
373.273	11.97548
373.484	11.90705
373.696	12.33729
373.908	8.94545
374.12	12.48652
374.331	12.13998
374.543	10.5036
374.755	10.37984
374.967	11.52155
375.178	12.68969
375.39	11.20888
375.602	11.88102
375.813	10.10847
376.025	10.80765
376.236	11.72513
376.448	12.19948
376.66	11.66498
376.871	11.74829
377.083	12.78286
377.294	13.83846
377.506	11.32334
377.717	13.50413
377.929	12.28645
378.14	11.49724
378.352	12.59774
378.563	12.79848
378.775	13.46862
378.986	11.09225
379.197	12.33735
379.409	11.2538
379.62	12.61402
379.832	12.1884
380.043	11.66796
380.254	12.42311
380.466	10.81367
380.677	14.93988
380.888	14.49845
381.1	15.00736
381.311	15.07162
381.522	12.45833
381.733	15.17978
381.945	11.91088
382.156	12.03488
382.367	11.77118
382.578	15.29732
382.789	15.55429
383.001	11.62804
383.212	14.41602
383.423	14.37935
383.634	13.64781
383.845	13.23104
384.056	12.35002
384.267	12.71332
384.478	12.73923
384.69	11.51308
384.901	13.07629
385.112	12.84847
385.323	14.68005
385.534	13.05832
385.745	13.18741
385.956	13.00851
386.167	11.93161
386.378	13.39614
386.588	12.08487
386.799	11.93196
387.01	11.29779
387.221	13.66855
387.432	12.913
387.643	14.843
387.854	12.73102
388.065	12.54111
388.275	12.8033
388.486	12.59737
388.697	12.93706
388.908	12.63403
389.119	14.15119
389.329	14.58156
389.54	13.13029
389.751	13.27654
389.962	14.31069
390.172	13.07134
390.383	13.06029
390.594	12.42726
390.804	12.68151
391.015	12.85097
391.226	13.38509
391.436	13.90024
391.647	13.76782
391.858	14.02753
392.068	11.76559
392.279	12.54178
392.489	13.93136
392.7	14.26544
392.91	12.60918
393.121	12.71861
393.331	13.96738
393.542	14.67353
393.752	14.3672
393.963	13.80711
394.173	13.78058
394.384	14.19884
394.594	13.7327
394.804	12.51824
395.015	13.80717
395.225	14.20724
395.436	12.64158
395.646	14.02646
395.856	13.30766
396.067	12.3352
396.277	14.66908
396.487	14.12499
396.697	14.07269
396.908	14.44803
397.118	14.29121
397.328	13.85189
397.538	14.64915
397.749	12.90309
397.959	14.70772
398.169	14.27316
398.379	12.46569
398.589	14.48873
398.8	13.90388
399.01	14.05158
399.22	13.7023
399.43	16.20426
399.64	13.94555
399.85	14.43672
400.06	14.11116
400.27	13.09122
400.48	14.04572
400.69	15.15007
400.9	13.63633
401.11	12.81652
401.32	14.79708
401.53	13.42919
401.74	15.71492
401.95	14.63925
402.16	13.74515
402.37	14.70047
402.58	13.70754
402.79	14.6354
403	15.02758
403.209	13.5984
403.419	15.28121
403.629	13.76063
403.839	15.29966
404.049	15.25134
404.258	14.06432
404.468	13.79692
404.678	15.30651
404.888	15.676
405.097	14.17094
405.307	14.65573
405.517	15.37332
405.727	15.17199
405.936	14.36014
406.146	14.88693
406.356	15.98978
406.565	14.64343
406.775	14.35753
406.984	14.37084
407.194	16.54738
407.404	14.73873
407.613	15.15627
407.823	15.35845
408.032	16.08067
408.242	15.78227
408.451	14.24979
408.661	14.53011
408.87	16.32
409.08	14.18955
409.289	15.18558
409.499	15.15543
409.708	14.92852
409.918	13.11166
410.127	15.0553
410.336	16.55144
410.546	15.88613
410.755	14.65179
410.964	14.70596
411.174	14.34035
411.383	15.56776
411.592	15.45204
411.802	14.20394
412.011	15.90002
412.22	15.13185
412.429	16.58944
412.639	16.4468
412.848	16.152
413.057	16.87397
413.266	16.37813
413.475	15.23053
413.685	15.96025
413.894	16.15865
414.103	16.45229
414.312	16.07117
414.521	15.35206
414.73	15.5376
414.939	17.36601
415.148	16.00652
415.357	15.89395
415.566	15.40129
415.776	15.30168
415.985	15.35058
416.194	16.60779
416.403	17.62893
416.611	14.8514
416.82	15.45161
417.029	16.31194
417.238	15.68456
417.447	15.41427
417.656	15.82408
417.865	15.59032
418.074	16.06776
418.283	16.32692
418.492	17.16898
418.7	16.9963
418.909	17.74748
419.118	16.55363
419.327	16.93965
419.536	16.60991
419.744	16.2338
419.953	17.38528
420.162	17.35756
420.371	16.75551
420.579	17.61832
420.788	18.57805
420.997	18.75497
421.205	19.1346
421.414	18.69066
421.623	18.84372
421.831	18.19542
422.04	18.84204
422.249	17.52461
422.457	17.93167
422.666	16.97758
422.874	18.04473
423.083	18.30911
423.291	18.29977
423.5	18.39022
423.708	18.87924
423.917	19.64579
424.125	18.97488
424.334	18.87855
424.542	20.8415
424.751	19.98127
424.959	19.31471
425.167	19.31768
425.376	18.98558
425.584	17.71396
425.793	17.98044
426.001	16.98346
426.209	18.25678
426.418	17.05591
426.626	17.30323
426.834	16.96936
427.042	17.55561
427.251	17.14718
427.459	18.27745
427.667	17.8943
427.875	16.33851
428.084	16.98983
428.292	18.45715
428.5	18.06178
428.708	16.71731
428.916	16.84866
429.124	17.60669
429.333	17.33835
429.541	17.48178
429.749	17.578
429.957	17.51355
430.165	19.65039
430.373	16.45179
430.581	17.77116
430.789	18.9069
430.997	17.40355
431.205	17.07567
431.413	17.9164
431.621	17.65822
431.829	18.43351
432.037	17.6829
432.245	18.14635
432.453	18.30006
432.661	17.85345
432.869	19.75554
433.076	17.31149
433.284	17.9149
433.492	18.6687
433.7	19.19898
433.908	18.04337
434.116	18.37793
434.323	18.44049
434.531	18.28288
434.739	18.74429
434.947	19.02998
435.154	18.90934
435.362	18.40231
435.57	18.01984
435.778	17.93236
435.985	18.52198
436.193	17.96197
436.401	19.25908
436.608	18.30425
436.816	18.01852
437.023	19.85887
437.231	19.90271
437.439	18.62134
437.646	19.04696
437.854	18.92202
438.061	19.16761
438.269	18.45456
438.476	19.1655
438.684	18.84388
438.891	18.43271
439.099	18.29917
439.306	17.76349
439.514	18.11766
439.721	19.2184
439.929	18.39084
440.136	19.19537
440.343	19.14784
440.551	18.69088
440.758	20.44483
440.965	19.57676
441.173	19.10259
441.38	18.63068
441.587	19.27277
441.795	18.83979
442.002	19.33228
442.209	19.42727
442.416	19.58059
442.624	19.70504
442.831	19.53786
443.038	18.69963
443.245	18.43471
443.452	18.81892
443.66	19.70252
443.867	18.65633
444.074	18.7714
444.281	18.58931
444.488	19.12191
444.695	19.23121
444.902	18.85612
445.109	19.77292
445.316	19.09088
445.523	19.03848
445.73	18.94906
445.937	19.93544
446.144	20.70239
446.351	21.01722
446.558	19.72866
446.765	21.96702
446.972	21.06915
447.179	20.41346
447.386	20.95814
447.593	19.28765
447.8	20.48226
448.007	19.48256
448.214	19.58859
448.42	19.27557
448.627	20.51894
448.834	19.54987
449.041	19.41215
449.248	19.43668
449.454	20.25932
449.661	21.34477
449.868	19.3915
450.075	19.20315
450.281	18.09388
450.488	18.70311
450.695	18.81375
450.901	19.01886
451.108	19.14144
451.315	20.40367
451.521	19.53816
451.728	20.41044
451.935	19.13848
452.141	19.54583
452.348	19.50147
452.554	19.7273
452.761	19.50265
452.967	21.0422
453.174	19.87045
453.38	20.1506
453.587	18.96757
453.793	19.99314
454	20.59229
454.206	21.54138
454.413	20.83572
454.619	20.37749
454.825	19.19526
455.032	20.56307
455.238	20.54606
455.445	19.10373
455.651	20.09827
455.857	18.47526
456.064	19.75992
456.27	19.77736
456.476	19.71594
456.682	19.05572
456.889	20.26477
457.095	20.41463
457.301	21.84581
457.507	19.98266
457.714	20.16031
457.92	20.08247
458.126	19.59192
458.332	19.96953
458.538	19.68967
458.744	19.91554
458.951	19.99649
459.157	21.4336
459.363	20.34839
459.569	20.24977
459.775	20.81753
459.981	20.26909
460.187	20.84369
460.393	21.04674
460.599	21.58588
460.805	20.61617
461.011	20.76639
461.217	21.77316
461.423	21.62928
461.629	20.44992
461.835	21.25877
462.041	20.42599
462.247	22.02411
462.453	20.37232
462.658	20.36785
462.864	21.21727
463.07	20.75754
463.276	20.84057
463.482	20.76409
463.688	21.94383
463.893	19.92087
464.099	20.61104
464.305	22.00731
464.511	20.31799
464.716	20.56384
464.922	21.32061
465.128	20.02807
465.333	22.20548
465.539	21.30015
465.745	20.68491
465.95	20.87111
466.156	23.18016
466.362	21.67473
466.567	20.71924
466.773	20.33766
466.978	22.16429
467.184	20.02797
467.389	19.24503
467.595	21.31657
467.8	20.24455
468.006	22.2878
468.211	22.18818
468.417	20.1475
468.622	21.45568
468.828	21.48188
469.033	21.3817
469.239	23.48439
469.444	20.84313
469.649	21.9729
469.855	21.11172
470.06	21.34797
470.266	20.48751
470.471	21.80495
470.676	21.47103
470.881	20.01562
471.087	22.49993
471.292	22.90382
471.497	20.23412
471.703	21.03245
471.908	20.90777
472.113	21.47158
472.318	22.1305
472.523	20.50532
472.729	21.6645
472.934	21.65716
473.139	21.03453
473.344	21.71845
473.549	22.4684
473.754	20.66833
473.959	23.40841
474.164	20.97366
474.369	21.39876
474.575	22.23541
474.78	21.52046
474.985	20.96767
475.19	20.28483
475.395	20.94636
475.6	21.48762
475.804	22.58674
476.009	21.66395
476.214	21.47509
476.419	21.21132
476.624	20.45223
476.829	20.8598
477.034	22.14643
477.239	21.11559
477.444	21.83334
477.648	21.92289
477.853	22.32768
478.058	21.50736
478.263	21.10847
478.468	20.9261
478.672	21.06645
478.877	22.84614
479.082	23.31517
479.287	22.07307
479.491	21.71766
479.696	20.86777
479.901	22.37007
480.105	22.26282
480.31	21.22382
480.515	21.65559
480.719	23.5677
480.924	21.32472
481.128	20.94384
481.333	21.84051
481.538	21.86973
481.742	21.41776
481.947	21.92355
482.151	22.98533
482.356	24.88008
482.56	29.18294
482.765	33.12846
482.969	38.89167
483.174	43.75735
483.378	49.63721
483.582	51.13254
483.787	53.53308
483.991	54.19551
484.196	53.94939
484.4	52.55412
484.604	51.41594
484.809	46.35348
485.013	42.61772
485.217	38.02149
485.422	33.98231
485.626	31.16201
485.83	30.14343
486.034	29.8876
486.239	31.16371
486.443	32.68915
486.647	33.96901
486.851	36.11663
487.055	38.51744
487.26	38.88168
487.464	40.54017
487.668	39.84285
487.872	40.38044
488.076	40.09749
488.28	38.15309
488.484	35.51581
488.688	33.88602
488.892	31.802
489.096	29.28795
489.3	27.07015
489.504	25.32554
489.708	24.52049
489.912	24.0404
490.116	23.95652
490.32	24.37693
490.524	26.92408
490.728	28.70359
490.932	30.7645
491.136	32.50021
491.34	34.26279
491.544	34.42948
491.748	34.19947
491.951	33.92048
492.155	32.83096
492.359	31.37229
492.563	28.45655
492.767	26.01337
492.97	23.37157
493.174	22.60379
493.378	22.83227
493.582	22.45832
493.785	22.8485
493.989	23.22332
494.193	22.9508
494.396	22.68033
494.6	23.27355
494.804	22.72135
495.007	22.21055
495.211	22.35873
495.414	22.53225
495.618	22.8679
495.822	23.6301
496.025	22.72622
496.229	23.45043
496.432	22.35425
496.636	22.7628
496.839	22.77467
497.043	24.13407
497.246	23.23002
497.45	22.54789
497.653	22.99414
497.856	23.18536
498.06	22.21584
498.263	22.83773
498.467	22.78558
498.67	23.90819
498.873	23.44178
499.077	22.85364
499.28	22.84786
499.483	23.28344
499.686	23.8161
499.89	23.24707
500.093	23.80639
500.296	22.5586
500.499	24.3926
500.703	23.23333
500.906	23.35043
501.109	24.5593
501.312	23.32522
501.515	23.04792
501.719	23.59739
501.922	24.28939
502.125	23.44853
502.328	23.1824
502.531	22.29741
502.734	23.1511
502.937	21.91066
503.14	23.23667
503.343	22.47522
503.546	23.09354
503.749	22.60247
503.952	23.58715
504.155	22.6562
504.358	23.77104
504.561	23.44249
504.764	22.32884
504.967	23.48518
505.17	23.30763
505.373	24.77306
505.576	23.30507
505.778	23.99107
505.981	22.85263
506.184	24.3487
506.387	22.07847
506.59	24.88615
506.793	24.44083
506.995	23.86144
507.198	22.01289
507.401	23.84819
507.604	23.94684
507.806	22.65723
508.009	22.88523
508.212	24.09796
508.414	23.27308
508.617	22.90469
508.82	23.57432
509.022	24.80041
509.225	23.99795
509.427	22.51925
509.63	24.78812
509.833	23.68458
510.035	23.42993
510.238	22.5525
510.44	24.59516
510.643	22.12101
510.845	25.56243
511.048	24.04175
511.25	23.27345
511.453	23.59523
511.655	24.01793
511.858	23.34526
512.06	24.2986
512.262	23.78759
512.465	24.41924
512.667	23.46842
512.869	22.85302
513.072	24.19521
513.274	24.4894
513.476	24.3648
513.679	24.50574
513.881	22.96898
514.083	25.13657
514.286	23.3375
514.488	23.31115
514.69	23.05822
514.892	22.62166
515.094	24.61787
515.297	23.34618
515.499	24.07471
515.701	23.1594
515.903	25.24257
516.105	25.29251
516.307	24.44772
516.509	22.43849
516.711	22.8911
516.913	23.99452
517.116	23.79497
517.318	23.54744
517.52	24.63437
517.722	24.49672
517.924	23.18547
518.126	24.39762
518.328	23.51397
518.529	24.31397
518.731	25.53076
518.933	23.85003
519.135	24.2507
519.337	25.20249
519.539	24.69564
519.741	23.12144
519.943	24.29353
520.145	24.0836
520.346	24.92979
520.548	24.12731
520.75	24.72297
520.952	24.05639
521.153	24.69073
521.355	24.54162
521.557	23.48264
521.759	24.37021
521.96	24.17429
522.162	23.31774
522.364	25.06882
522.565	23.59556
522.767	24.69449
522.969	25.15364
523.17	24.79448
523.372	24.45461
523.573	23.85076
523.775	24.14665
523.977	23.40479
524.178	25.46657
524.38	23.88681
524.581	24.84809
524.783	23.90806
524.984	24.71252
525.186	24.21125
525.387	24.76076
525.589	24.45619
525.79	24.17577
525.991	23.95
526.193	24.68745
526.394	23.65069
526.596	24.67103
526.797	24.6888
526.998	24.18908
527.2	25.53103
527.401	29.43149
527.602	32.45014
527.803	37.3739
528.005	39.90334
528.206	42.42081
528.407	44.13559
528.608	44.2834
528.81	44.29645
529.011	42.90261
529.212	43.23094
529.413	40.14302
529.614	36.83951
529.815	33.8434
530.017	30.62629
530.218	27.16484
530.419	24.91116
530.62	25.18435
530.821	25.0977
531.022	24.32024
531.223	25.33301
531.424	25.34147
531.625	25.15867
531.826	25.01086
532.027	24.93879
532.228	26.61872
532.429	27.64607
532.63	28.85362
532.831	30.48198
533.032	30.71349
533.233	31.54592
533.433	30.82418
533.634	30.8265
533.835	29.25588
534.036	27.85505
534.237	26.18864
534.438	24.97534
534.638	24.43122
534.839	24.84053
535.04	25.65939
535.241	24.89769
535.441	26.2492
535.642	25.32123
535.843	24.32548
536.043	24.34281
536.244	24.44371
536.445	24.65567
536.645	25.5874
536.846	25.12901
537.047	26.0702
537.247	24.62867
537.448	25.03424
537.648	25.31822
537.849	25.15895
538.049	25.2647
538.25	25.83478
538.451	25.54904
538.651	24.45439
538.851	25.66841
539.052	26.20132
539.252	25.87307
539.453	25.01889
539.653	25.28585
539.854	25.02655
540.054	24.97495
540.254	25.61583
540.455	27.89277
540.655	29.17019
540.855	31.92321
541.056	33.4588
541.256	33.39461
541.456	34.59884
541.657	33.90705
541.857	33.95554
542.057	31.67517
542.257	30.08844
542.458	29.41575
542.658	27.67781
542.858	24.9262
543.058	26.35008
543.258	25.90401
543.458	24.79509
543.659	24.67089
543.859	26.06135
544.059	25.97034
544.259	25.24153
544.459	26.25596
544.659	24.9725
544.859	25.93007
545.059	25.0719
545.259	26.09451
545.459	25.80416
545.659	26.14816
545.859	25.5102
546.059	25.6263
546.259	24.83221
546.459	24.43366
546.659	24.59535
546.859	26.14796
547.059	26.0703
547.258	25.93948
547.458	26.01708
547.658	24.96571
547.858	24.74755
548.058	25.99271
548.258	25.5477
548.457	24.87276
548.657	28.09918
548.857	25.34161
549.057	26.35966
549.256	26.31948
549.456	25.47478
549.656	23.58891
549.855	27.43707
550.055	25.38529
550.255	27.58812
550.454	25.86352
550.654	26.43226
550.853	27.09052
551.053	26.54227
551.253	26.10193
551.452	26.07711
551.652	24.60896
551.851	24.31595
552.051	25.36321
552.25	25.38066
552.45	25.119
552.649	25.44164
552.849	25.07477
553.048	25.70501
553.248	26.41789
553.447	24.77915
553.646	26.71485
553.846	27.74465
554.045	26.91837
554.244	24.31156
554.444	27.73716
554.643	25.18367
554.842	27.4859
555.042	28.08478
555.241	24.92163
555.44	25.01448
555.64	26.50567
555.839	28.04624
556.038	26.48417
556.237	25.39968
556.436	25.94748
556.636	26.57088
556.835	25.29133
557.034	27.69101
557.233	26.00678
557.432	24.60317
557.631	27.05778
557.83	25.81885
558.029	25.42211
558.228	25.2068
558.427	24.94769
558.626	26.23206
558.825	24.83815
559.024	25.87925
559.223	28.02558
559.422	25.73724
559.621	26.46896
559.82	23.33082
560.019	26.0904
560.218	25.80936
560.417	23.17815
560.616	25.28472
560.815	29.57351
561.014	24.21667
561.212	27.74217
561.411	26.27639
561.61	24.40856
561.809	25.40417
562.008	27.76822
562.206	25.90257
562.405	26.84326
562.604	25.77051
562.803	26.22655
563.001	25.96312
563.2	24.47293
563.399	26.70845
563.597	24.6325
563.796	25.94937
563.995	24.8348
564.193	26.62319
564.392	25.59703
564.59	28.68439
564.789	24.21184
564.988	25.47393
565.186	26.42804
565.385	25.99101
565.583	25.57958
565.782	26.05784
565.98	25.96131
566.179	25.98445
566.377	25.15925
566.575	25.35321
566.774	27.35987
566.972	27.07842
567.171	28.53627
567.369	27.74942
567.567	26.46064
567.766	26.51943
567.964	24.05431
568.162	26.92181
568.361	27.41771
568.559	26.09701
568.757	26.90435
568.956	26.35194
569.154	26.02072
569.352	27.17145
569.55	26.19439
569.748	26.34647
569.947	25.32643
570.145	25.31267
570.343	25.14146
570.541	27.58078
570.739	24.88147
570.937	26.32508
571.135	26.75888
571.333	28.39429
571.532	28.04589
571.73	26.71802
571.928	27.41011
572.126	26.69265
572.324	25.85426
572.522	27.88771
572.72	29.61938
572.918	26.2467
573.116	27.09463
573.313	26.41371
573.511	26.3795
573.709	25.76717
573.907	27.45072
574.105	25.96846
574.303	24.60607
574.501	24.82234
574.699	26.94693
574.896	26.96964
575.094	27.19531
575.292	25.09913
575.49	27.64361
575.688	26.60511
575.885	28.09848
576.083	28.87246
576.281	27.07698
576.478	25.81304
576.676	27.53155
576.874	25.08028
577.071	26.2202
577.269	29.86283
577.467	26.75271
577.664	26.58809
577.862	27.76304
578.059	25.37271
578.257	27.67873
578.455	26.24858
578.652	26.57467
578.85	24.35566
579.047	26.67188
579.245	26.49727
579.442	26.39448
579.64	26.4064
579.837	24.29771
580.034	30.25666
580.232	26.36351
580.429	24.86884
580.627	27.26204
580.824	28.49064
581.021	27.60275
581.219	25.90131
581.416	25.36631
581.613	28.79909
581.811	28.6871
582.008	25.48032
582.205	27.61316
582.402	26.91833
582.6	29.68704
582.797	26.67705
582.994	27.32048
583.191	28.14224
583.388	26.94335
583.586	27.88925
583.783	28.03341
583.98	25.80928
584.177	27.04837
584.374	22.93507
584.571	26.72144
584.768	26.51865
584.965	26.08487
585.162	27.94439
585.359	29.40988
585.556	26.96739
585.753	27.47428
585.95	25.35342
586.147	25.77511
586.344	27.64257
586.541	26.73055
586.738	25.08067
586.935	26.74735
587.132	26.08148
587.329	28.43708
587.526	26.84583
587.722	33.69614
587.919	25.08274
588.116	27.61983
588.313	29.10984
588.51	30.22241
588.706	26.74187
588.903	28.03836
589.1	28.29345
589.297	30.96695
589.493	26.9925
589.69	27.90239
589.887	26.42027
590.083	25.51891
590.28	26.11703
590.477	28.53768
590.673	28.33483
590.87	29.04922
591.067	26.63578
591.263	27.81556
591.46	27.89065
591.656	26.63036
591.853	29.0464
592.049	26.06902
592.246	26.30724
592.442	29.19653
592.639	29.21738
592.835	25.94468
593.032	28.04951
593.228	25.15109
593.425	25.35553
593.621	24.9021
593.817	28.01929
594.014	26.42687
594.21	27.57347
594.406	28.78295
594.603	28.3767
594.799	26.69166
594.995	24.19902
595.192	29.23243
595.388	26.87955
595.584	26.59076
595.78	25.30544
595.977	30.36523
596.173	29.8472
596.369	27.12594
596.565	26.22502
596.761	25.60985
596.957	29.21464
597.154	26.4345
597.35	26.89426
597.546	26.44934
597.742	28.34276
597.938	28.08211
598.134	26.28564
598.33	28.10459
598.526	29.93751
598.722	28.25175
598.918	30.59369
599.114	28.68402
599.31	26.30277
599.506	27.39865
599.702	26.09668
599.898	27.98939
600.094	29.08366
600.29	28.63272
600.485	28.90901
600.681	26.94777
600.877	30.33252
601.073	27.66488
601.269	30.30798
601.465	29.69074
601.66	25.9623
601.856	24.77685
602.052	29.95453
602.248	27.11599
602.443	24.90678
602.639	26.08224
602.835	26.55133
603.03	26.41551
603.226	29.28591
603.422	26.41577
603.617	27.42111
603.813	27.08288
604.009	26.90659
604.204	29.41623
604.4	25.71361
604.595	29.1197
604.791	26.55935
604.986	28.15807
605.182	26.63529
605.377	27.25813
605.573	27.1298
605.768	27.77802
605.964	28.73413
606.159	29.08749
606.355	29.77326
606.55	27.40111
606.746	29.5314
606.941	27.6592
607.136	31.26072
607.332	32.48592
607.527	25.93909
607.722	28.2666
607.918	27.639
608.113	26.53486
608.308	29.25867
608.503	28.55087
608.699	28.5398
608.894	28.68369
609.089	26.8473
609.284	28.20691
609.479	27.40857
609.675	28.88392
609.87	27.57122
610.065	29.1922
610.26	29.84517
610.455	29.36672
610.65	28.15881
610.845	28.37498
611.04	29.94977
611.235	28.33553
611.43	27.42269
611.625	26.32764
611.82	30.67985
612.015	26.94486
612.21	30.78313
612.405	25.81262
612.6	31.30843
612.795	30.0936
612.99	29.21619
613.185	26.4825
613.38	26.71401
613.575	28.46786
613.77	33.38067
613.965	25.2757
614.159	26.63156
614.354	30.39416
614.549	30.01126
614.744	29.68086
614.938	26.43942
615.133	25.59399
615.328	30.76682
615.523	30.38411
615.717	34.01264
615.912	26.8066
616.107	28.66666
616.301	27.94967
616.496	27.36189
616.691	31.61882
616.885	29.90204
617.08	34.09837
617.274	30.44826
617.469	32.12609
617.664	29.93419
617.858	27.46984
618.053	29.3301
618.247	28.43428
618.442	24.22557
618.636	31.22972
618.831	27.35156
619.025	27.69642
619.219	33.80365
619.414	22.39494
619.608	28.30993
619.803	27.33411
619.997	32.9594
620.191	30.86167
620.386	29.71856
620.58	28.49925
620.774	25.34668
620.969	25.6596
621.163	29.1744
621.357	26.77345
621.551	27.85927
621.746	28.45082
621.94	28.08468
622.134	35.95811
622.328	33.18928
622.522	25.63262
622.716	30.77382
622.911	30.82854
623.105	30.99237
623.299	29.62445
623.493	35.04367
623.687	27.17544
623.881	27.73048
624.075	29.81914
624.269	31.25852
624.463	25.10852
624.657	25.70315
624.851	29.9834
625.045	30.86372
625.239	30.71938
625.433	28.09772
625.627	32.10319
625.821	28.11545
626.015	27.43795
626.209	29.2222
626.403	27.10746
626.596	29.98474
626.79	30.89698
626.984	27.21981
627.178	30.13789
627.372	30.17064
627.565	30.82328
627.759	26.30552
627.953	26.75103
628.147	30.01671
628.34	30.30365
628.534	33.78087
628.728	28.91375
628.921	31.02923
629.115	30.59102
629.309	31.26011
629.502	31.44162
629.696	29.56084
629.89	29.25168
630.083	29.48062
630.277	30.2066
630.47	33.2871
630.664	28.76093
630.857	26.08693
631.051	31.13581
631.244	31.84135
631.438	31.32028
631.631	27.35855
631.825	32.60123
632.018	30.92855
632.212	34.03106
632.405	32.55366
632.598	27.77323
632.792	29.89141
632.985	24.49852
633.178	29.25904
633.372	29.56867
633.565	29.3782
633.758	32.81808
633.952	28.21732
634.145	27.72335
634.338	29.86263
634.531	29.18236
634.724	28.29296
634.918	29.87026
635.111	29.49834
635.304	28.97161
635.497	35.39605
635.69	30.49856
635.883	33.221
636.077	27.30133
636.27	31.07417
636.463	30.37762
636.656	30.58983
636.849	29.65219
637.042	31.21781
637.235	33.98554
637.428	31.98756
637.621	30.74236
637.814	34.03839
638.007	33.84824
638.2	33.30516
638.393	34.70917
638.586	27.53193
638.778	28.96856
638.971	30.433
639.164	34.10097
639.357	30.99711
639.55	34.08222
639.743	32.31356
639.935	32.15281
640.128	35.59223
640.321	32.71547
640.514	31.22321
640.707	36.57024
640.899	32.54525
641.092	25.8721
641.285	50.95047
641.477	25.06776
641.67	37.29328
641.863	34.68663
642.055	31.58813
642.248	30.57846
642.441	29.93298
642.633	32.29639
642.826	35.19426
643.018	34.76228
643.211	36.31107
643.403	35.63064
643.596	37.61159
643.788	36.00057
643.981	30.4766
644.173	33.45914
644.366	30.43876
644.558	27.14883
644.751	34.48076
644.943	27.50683
645.135	35.97635
645.328	36.43881
645.52	33.53543
645.712	34.56052
645.905	40.78622
646.097	28.00406
646.289	31.93722
646.482	37.34789
646.674	30.02968
646.866	34.69313
647.058	33.57484
647.251	28.2828
647.443	29.69626
647.635	31.4002
647.827	28.52108
648.019	29.23785
648.211	31.4745
648.404	31.42221
648.596	36.37265
648.788	32.24714
648.98	32.80226
649.172	32.30535
649.364	32.98836
649.556	26.38153
649.748	39.94769
649.94	28.76325
650.132	33.59244
650.324	29.41437
650.516	29.95981
650.708	35.65028
650.9	28.01959
651.092	30.74095
651.284	28.2572
651.476	29.37601
651.667	33.98283
651.859	35.85305
652.051	31.66802
652.243	32.45232
652.435	30.97869
652.627	33.47854
652.818	33.65423
653.01	27.37343
653.202	29.35386
653.394	31.02633
653.585	33.7307
653.777	45.64299
653.969	36.50288
654.16	35.68507
654.352	29.15393
654.544	31.68013
654.735	35.18558
654.927	33.42585
655.118	37.51152
655.31	35.0284
655.502	36.20402
655.693	31.5196
655.885	34.40389
656.076	37.53706
656.268	33.4721
656.459	37.01502
656.651	37.01999
656.842	31.79144
657.034	30.51754
657.225	35.5489
657.416	36.88641
657.608	36.79077
657.799	32.84879
657.99	36.09744
658.182	31.38848
658.373	31.19841
658.564	35.17221
658.756	33.72662
658.947	32.71186
659.138	30.65091
659.33	31.86387
659.521	30.91103
659.712	32.98737
659.903	32.44202
660.094	31.56579
660.286	28.85158
660.477	39.26637
660.668	35.20105
660.859	33.33961
661.05	29.07241
661.241	35.60308
661.432	35.03401
661.623	32.62762
661.814	31.69419
662.006	28.93267
662.197	34.83848
662.388	37.55232
662.579	34.21753
662.77	43.05252
662.96	43.09739
663.151	36.70193
663.342	27.68872
663.533	36.82308
663.724	33.64691
663.915	40.17134
664.106	34.20875
664.297	40.79189
664.488	36.77473
664.678	32.28958
664.869	37.27903
665.06	36.84436
665.251	34.64975
665.442	35.79729
665.632	30.43242
665.823	40.95844
666.014	24.57063
666.204	36.95883
666.395	39.44842
666.586	44.78377
666.776	37.49978
666.967	41.06748
667.158	35.07992
667.348	39.7486
667.539	31.19607
667.729	37.50873
667.92	31.9252
668.111	38.3288
668.301	36.50733
668.492	34.18869
668.682	34.451
668.873	34.3188
669.063	31.56131
669.253	35.62031
669.444	38.77938
669.634	34.6551
669.825	42.4094
670.015	39.26158
670.206	31.95029
670.396	43.72359
670.586	34.59165
670.777	37.57376
670.967	27.11612
671.157	34.81876
671.347	32.65241
671.538	41.08551
671.728	36.5431
671.918	42.80154
672.108	39.34067
672.299	35.12702
672.489	37.52082
672.679	33.24778
672.869	37.53321
673.059	43.85109
673.249	37.50531
673.44	32.20954
673.63	35.23823
673.82	39.55054
674.01	32.34604
674.2	38.07459
674.39	47.77222
674.58	38.36748
674.77	35.8586
674.96	35.60133
675.15	52.17956
675.34	41.03501
675.53	36.36936
675.72	34.69735
675.91	30.62445
676.099	44.16725
676.289	44.72477
676.479	40.69632
676.669	34.72267
676.859	38.30905
677.049	32.6488
677.238	36.63655
677.428	44.41971
677.618	37.89106
677.808	42.21206
677.997	38.4764
678.187	31.91264
678.377	36.17138
678.567	34.86329
678.756	33.94393
678.946	36.21657
679.136	31.20563
679.325	33.98791
679.515	32.73755
679.704	31.732
679.894	39.15242
680.084	37.14733
680.273	41.18006
680.463	33.80287
680.652	33.51107
680.842	36.44656
681.031	40.45934
681.221	33.32314
681.41	39.47768
681.6	36.03742
681.789	39.73437
681.978	43.20499
682.168	38.13943
682.357	38.27282
682.547	40.1874
682.736	38.49282
682.925	42.67588
683.115	43.20174
683.304	41.26321
683.493	39.41105
683.682	40.04728
683.872	40.35654
684.061	43.51969
684.25	40.38877
684.439	45.71505
684.629	41.04266
684.818	52.70098
685.007	37.98923
685.196	36.67745
685.385	45.92081
685.574	39.84349
685.763	41.17902
685.952	39.89657
686.142	33.94411
686.331	45.70988
686.52	30.90826
686.709	46.44754
686.898	45.14917
687.087	42.65279
687.276	46.76819
687.465	43.47421
687.654	37.73301
687.842	46.14562
688.031	33.66264
688.22	45.15085
688.409	40.38701
688.598	40.73034
688.787	51.98204
688.976	40.8163
689.165	49.4201
689.353	38.50775
689.542	41.84083
689.731	44.4283
689.92	49.39009
690.108	44.86112
690.297	39.05845
690.486	40.69773
690.675	45.27811
690.863	49.02763
691.052	49.28307
691.241	43.77083
691.429	42.91404
691.618	49.20939
691.806	35.88479
691.995	41.09322
692.184	42.37483
692.372	39.45428
692.561	43.14058
692.749	41.49337
692.938	54.83952
693.126	44.74901
693.315	39.93115
693.503	45.71126
693.692	46.04061
693.88	47.88153
694.068	53.86187
694.257	42.73796
694.445	45.11877
694.634	32.80596
694.822	48.37605
695.01	49.02309
695.199	49.98316
695.387	50.97613
695.575	49.50874
695.763	42.95037
695.952	40.76232
696.14	36.20174
696.328	40.41737
696.516	42.57961
696.705	44.61635
696.893	43.2788
697.081	33.42765
697.269	45.41872
697.457	37.36882
697.645	35.64364
697.833	44.69912
698.021	37.07747
698.21	38.97391
698.398	40.43953
698.586	35.74081
698.774	35.30296
698.962	40.02518
699.15	37.29993
699.338	34.38172
699.526	44.11748
699.714	38.88663
699.901	40.1011
700.089	47.41358
700.277	38.83876
700.465	41.68772
700.653	46.62579
700.841	45.08284
701.029	39.68906
701.217	50.73816
701.404	44.54196
701.592	52.15151
701.78	54.43636
701.968	42.58439
702.155	43.5139
702.343	37.57586
702.531	49.92678
702.718	47.11625
702.906	43.66415
703.094	41.3271
703.281	52.22509
703.469	44.91816
703.657	50.59026
703.844	63.45086
704.032	55.97029
704.219	41.56104
704.407	47.0765
704.595	53.54952
704.782	46.07105
704.97	43.35369
705.157	42.58391
705.345	55.93987
705.532	61.97343
705.719	48.44021
705.907	54.4662
706.094	46.47414
706.282	56.90352
706.469	43.78336
706.656	46.92883
706.844	44.70051
707.031	52.13171
707.218	47.19746
707.406	56.38823
707.593	51.45402
707.78	51.02714
707.968	45.9401
708.155	41.58279
708.342	50.10227
708.529	50.12705
708.716	48.24451
708.904	58.47947
709.091	51.76545
709.278	41.05693
709.465	61.27467
709.652	58.74108
709.839	55.71115
710.026	49.02531
710.213	37.86425
710.4	50.99927
710.587	52.04995
710.774	55.48501
710.961	55.3497
711.148	48.38794
711.335	54.76682
711.522	46.96498
711.709	49.30696
711.896	61.87304
712.083	53.30135
712.27	44.01728
712.457	49.80092
712.644	39.26812
712.831	61.43319
713.017	49.70898
713.204	53.8326
713.391	45.00732
713.578	57.26669
713.765	58.20703
713.951	52.90096
714.138	70.99557
714.325	54.09964
714.512	50.43465
714.698	45.91863
714.885	60.72936
715.072	51.81268
715.258	50.98348
715.445	47.09824
715.631	59.3723
715.818	34.62342
716.005	47.05661
716.191	53.88675
716.378	48.67392
716.564	57.31311
716.751	45.11472
716.937	47.88761
717.124	59.13278
717.31	45.78427
717.497	62.89474
717.683	47.46185
717.869	71.05467
718.056	49.57737
718.242	55.4319
718.429	51.19032
718.615	45.0648
718.801	53.43975
718.988	60.60374
719.174	56.03799
719.36	51.67964
719.547	62.63732
719.733	54.63125
719.919	56.42218
720.105	58.64765
720.291	52.82552
720.478	55.19016
720.664	53.77497
720.85	50.79383
721.036	76.21746
721.222	66.14174
721.408	55.53742
721.595	70.74093
721.781	69.39205
721.967	62.36483
722.153	68.88383
722.339	60.86312
722.525	57.70027
722.711	46.90361
722.897	45.50199
723.083	52.66794
723.269	64.32572
723.455	76.64892
723.641	80.73025
723.827	58.25779
724.012	60.83661
724.198	52.87511
724.384	68.531
724.57	61.88343
724.756	43.56978
724.942	41.12872
725.127	63.72407
725.313	69.47049
725.499	66.35863
725.685	70.89792
725.87	59.97041
726.056	49.19754
726.242	67.90832
726.428	45.14328
726.613	64.55528
726.799	54.30606
726.985	47.24009
727.17	43.58764
727.356	70.02323
727.541	47.95532
727.727	54.84815
727.913	62.22945
728.098	51.29303
728.284	63.09887
728.469	46.59519
728.655	50.09523
728.84	62.59397
729.026	64.36651
729.211	63.14253
729.397	59.82651
729.582	63.70384
729.767	56.96856
729.953	58.82837
730.138	66.41006
730.323	39.87621
730.509	47.4782
730.694	71.30543
730.879	61.16249
731.065	57.59659
731.25	77.35052
731.435	61.97276
731.621	44.57335
731.806	50.92957
731.991	59.13223
732.176	44.38487
732.361	68.98526
732.547	59.15521
732.732	44.12762
732.917	78.19817
733.102	48.45581
733.287	50.58393
733.472	58.23032
733.657	59.67769
733.842	44.74582
734.027	55.24628
734.212	58.66062
734.397	52.81227
734.582	60.38929
734.767	69.7162
734.952	74.7086
735.137	37.83912
735.322	73.50678
735.507	64.11352
735.692	61.76921
735.877	82.40255
736.062	77.10712
736.247	65.66311
736.431	59.36259
736.616	71.1286
736.801	64.1035
736.986	61.16434
737.171	52.51582
737.355	48.18066
737.54	72.86083
737.725	60.54138
737.909	86.60935
738.094	54.99901
738.279	70.08805
738.463	56.63805
738.648	66.1484
738.833	63.30637
739.017	79.23629
739.202	58.42023
739.386	60.69067
739.571	51.56655
739.756	67.24852
739.94	60.0333
740.125	71.37242
740.309	53.70538
740.494	70.26094
740.678	62.8927
740.863	67.34063
741.047	62.53385
741.231	74.91706
741.416	55.31788
741.6	79.59599
741.785	54.61718
741.969	70.43629
742.153	75.20786
742.338	43.31297
742.522	64.786
742.706	71.83896
742.89	50.18135
743.075	65.64975
743.259	81.15109
743.443	72.32493
743.627	76.4264
743.812	87.91156
743.996	45.28999
744.18	60.77823
744.364	59.12404
744.548	89.91936
744.732	61.18542
744.916	75.07836
745.1	71.78344
745.285	62.26795
745.469	69.78148
745.653	84.9059
745.837	48.65989
746.021	92.01992
746.205	78.27069
746.389	66.57721
746.573	61.49638
746.757	83.65799
746.94	60.83327
747.124	78.48152
747.308	53.61598
747.492	78.27754
747.676	57.58078
747.86	93.98
748.044	60.22951
748.227	45.31971
748.411	105.65651
748.595	67.70306
748.779	54.72882
748.963	71.48166
749.146	66.98138
749.33	56.28699
749.514	54.15468
749.697	80.56916
749.881	58.41133
750.065	55.10775
750.248	67.34702
750.432	94.61913
750.616	66.90532
750.799	51.72188
750.983	91.15036
751.166	97.88118
751.35	48.63955
751.533	72.8207
751.717	81.66701
751.9	87.94388
752.084	61.48948
752.267	53.86136
752.451	59.46428
752.634	67.38277
752.818	73.36649
753.001	77.4134
753.184	79.35663
753.368	71.3429
753.551	30.26841
753.734	57.26115
753.918	89.87924
754.101	57.38352
754.284	74.74823
754.467	60.41278
754.651	58.47352
754.834	57.53864
755.017	79.06539
755.2	79.48326
755.384	53.88536
755.567	78.15435
755.75	80.48132
755.933	62.68932
756.116	71.53992
756.299	60.68273
756.482	57.56722
756.665	73.18439
756.848	66.23982
757.032	72.75112
757.215	51.08907
757.398	58.51436
757.581	58.17433
757.764	101.50257
757.947	67.20066
758.129	84.07901
758.312	35.11418
758.495	63.70416
758.678	66.52826
758.861	61.80462
759.044	91.28113
759.227	57.834
759.41	58.53755
759.592	76.3541
759.775	64.57606
759.958	83.20039
760.141	52.42583
760.324	100.99282
760.506	87.99436
760.689	80.85305
760.872	98.94193
761.054	77.16765
761.237	65.3893
761.42	72.08858
761.602	78.63548
761.785	72.87495
761.968	80.89916
762.15	90.5716
762.333	64.08702
762.515	69.39022
762.698	58.92601
762.88	73.92302
763.063	66.52718
763.245	72.47861
763.428	51.76619
763.61	57.11178
763.793	48.28736
763.975	66.844
764.158	59.60593
764.34	58.47441
764.522	53.18391
764.705	62.94986
764.887	82.13578
765.069	49.44104
765.252	76.2744
765.434	79.16758
765.616	69.55883
765.799	61.84927
765.981	79.82668
766.163	61.19436
766.345	81.76019
766.528	62.11383
766.71	41.45118
766.892	72.02123
767.074	87.73927
767.256	67.67754
767.438	95.0026
767.62	75.88788
767.802	103.6304
767.985	80.93561
768.167	101.26013
768.349	62.46109
768.531	80.29173
768.713	75.64733
768.895	86.72606
769.077	79.74697
769.259	111.04409
769.441	148.75025
769.623	87.02058
769.804	98.28656
769.986	92.5487
770.168	112.30223
770.35	130.5377
770.532	100.79859
770.714	111.00958
770.896	113.18823
771.077	60.77739
771.259	115.65209
771.441	95.1356
771.623	124.9016
771.804	138.5521
771.986	59.17548
772.168	78.86107
772.35	116.59463
772.531	140.80624
772.713	93.77418
772.894	123.03918
773.076	90.95262
773.258	82.38561
773.439	124.95416
773.621	134.75031
773.802	73.65499
773.984	85.0865
774.166	98.57223
774.347	125.24897
774.529	122.53634
774.71	53.75344
774.891	91.1733
775.073	83.78301
775.254	127.64079
775.436	83.89743
775.617	138.84473
775.799	84.73284
775.98	130.70366
776.161	136.93431
776.343	137.47685
776.524	90.20512
776.705	88.23572
776.886	59.63559
777.068	107.28652
777.249	160.23598
777.43	145.69342
777.611	75.14077
777.793	88.42264
777.974	133.71159
778.155	84.39077
778.336	76.83975
778.517	148.58966
778.698	78.99269
778.879	59.72456
779.061	39.75175
779.242	104.10933
779.423	105.02344
779.604	95.47616
779.785	94.05872
779.966	99.34095
780.147	121.7962
780.328	120.72124
780.509	163.55583
780.69	112.91572
780.871	80.27381
781.051	68.48112
781.232	102.04955
781.413	99.80952
781.594	91.98059
781.775	83.83821
781.956	79.47454
782.137	57.54933
782.317	80.72401
782.498	103.26333
782.679	101.69705
782.86	98.19934
783.04	81.77826
783.221	103.01666
783.402	147.09771
783.583	104.06819
783.763	111.89786
783.944	89.23882
784.124	64.97372
784.305	138.50009
784.486	108.71479
784.666	95.4596
784.847	63.5747
785.027	160.26805
785.208	82.42236
785.388	82.49192
785.569	84.43828
785.749	91.06654
785.93	83.04154
786.11	65.93027
786.291	110.4217
786.471	100.80313
786.652	115.68634
786.832	91.65947
787.012	104.29702
787.193	68.6335
787.373	98.93268
787.553	85.20888
787.734	100.12047
787.914	88.63425
788.094	107.08599
788.275	103.13676
788.455	86.42358
788.635	69.05685
788.815	100.03947
788.995	72.12875
789.176	62.08265
789.356	75.03122
789.536	89.37455
789.716	107.71015
789.896	77.03916
790.076	82.34083
790.256	99.57211
790.436	47.12112
790.616	79.44777
790.796	102.88233
790.976	85.73482
791.156	78.4859
791.336	117.89558
791.516	104.31714
791.696	93.89098
791.876	63.21995
792.056	99.51883
792.236	115.27125
792.416	110.42065
792.596	105.80448
792.776	108.14828
792.956	110.07949
793.135	131.9319
793.315	75.77927
793.495	126.81752
793.675	111.56182
793.854	113.66458
794.034	119.36987
794.214	71.58822
794.394	113.33416
794.573	128.54939
794.753	98.51396
794.933	74.77492
795.112	100.70132
795.292	113.12863
795.472	138.62816
795.651	67.41601
795.831	93.01062
796.01	88.28224
796.19	89.29283
796.369	92.50144
796.549	106.7044
796.728	90.39434
796.908	66.27385
797.087	71.16628
797.267	82.431
797.446	70.82595
797.626	110.57608
797.805	108.88321
797.984	77.75815
798.164	112.34294
798.343	72.84147
798.522	101.00758
798.702	96.49282
798.881	67.12661
799.06	91.42682
799.239	55.05989
799.419	79.20841
799.598	133.08523
799.777	109.53627
799.956	126.60498
800.136	87.58496
800.315	78.86114
800.494	107.57813
800.673	123.12842
800.852	110.91815
801.031	123.82322
801.21	110.01895
801.389	87.99946
801.568	100.95092
801.747	146.55217
801.926	97.66768
802.105	136.81611
802.284	89.70726
802.463	136.94089
802.642	107.64686
802.821	102.04699
803	130.74081
803.179	119.99049
803.358	127.18275
803.537	83.2503
803.716	101.89001
803.895	82.35143
804.073	96.20581
804.252	80.10333
804.431	106.61443
804.61	93.63185
804.789	120.92052
804.967	86.62101
805.146	84.35747
805.325	143.18114
805.503	111.60574
805.682	64.9251
805.861	164.18645
806.039	130.26937
806.218	86.76139
806.397	101.80922
806.575	98.27979
806.754	105.32586
806.932	76.80892
807.111	138.17621
807.289	125.18112
807.468	98.93796
807.646	126.90468
807.825	116.7973
808.003	105.95119
808.182	124.82581
808.36	101.76944
808.539	77.10692
808.717	136.39711
808.895	84.2324
809.074	109.6125
809.252	100.38062
809.43	117.16193
809.609	129.13857
809.787	141.81482
809.965	101.42445
810.144	103.97521
810.322	98.38254
810.5	116.46277
810.678	97.83879
810.856	164.69922
811.035	135.64398
811.213	122.02773
811.391	138.31486
811.569	111.17802
811.747	182.32842
811.925	135.67174
812.103	86.09793
812.281	101.34014
812.459	154.4226
812.637	149.97505
812.816	128.5487
812.994	155.68607
813.171	138.04043
813.349	118.27026
813.527	138.88606
813.705	155.16076
813.883	176.70972
814.061	133.48482
814.239	159.32269
814.417	168.61621
814.595	118.13736
814.773	117.09902
814.95	117.26072
815.128	117.66244
815.306	111.23438
815.484	99.9185
815.662	85.69449
815.839	77.44691
816.017	90.46603
816.195	134.60705
816.372	102.05707
816.55	124.1378
816.728	148.72406
816.905	103.24858
817.083	155.02836
817.261	107.17358
817.438	169.80319
817.616	162.9635
817.793	90.42261
817.971	132.72884
818.148	126.06053
818.326	147.29367
818.503	116.71527
818.681	143.39021
818.858	93.46817
819.036	103.15848
819.213	110.29275
819.391	87.09241
819.568	80.7355
819.745	80.06913
819.923	122.10709
820.1	85.15611
820.277	79.91922
820.455	90.05283
820.632	92.3769
820.809	92.78614
820.986	67.33741
821.164	59.36808
821.341	52.63091
821.518	65.07691
821.695	53.01278
821.872	50.52083
822.05	46.6724
822.227	41.0987
822.404	42.966
822.581	48.00072
822.758	43.70493
822.935	44.08872
823.112	48.31234
823.289	44.05984
823.466	50.04412
823.643	48.92355
823.82	55.8811
823.997	53.9927
824.174	61.57977
824.351	74.33143
824.528	73.71644
824.705	68.47434
824.882	73.59313
825.059	86.53162
825.236	67.60415
825.412	68.32762
825.589	76.93264
825.766	97.56655
825.943	70.20817
826.12	77.41264
826.296	59.89501
826.473	66.13424
826.65	65.90347
826.827	74.77023
827.003	56.40441
827.18	61.22763
827.357	67.40181
827.533	62.05799
827.71	45.38401
827.887	58.13937
828.063	65.42292
828.24	59.42546
828.416	75.03666
828.593	67.71027
828.769	86.85178
828.946	97.01296
829.122	101.65254
829.299	96.78631
829.475	67.12859
829.652	97.81437
829.828	143.89401
830.005	99.48645
830.181	125.79823
830.357	96.75997
830.534	126.00693
830.71	100.9188
830.886	119.71236
831.063	120.5029
831.239	139.28988
831.415	83.24627
831.592	140.11491
831.768	101.94154
831.944	85.70326
832.12	136.21737
832.296	130.44983
832.473	115.11978
832.649	91.84326
832.825	108.21149
833.001	71.86815
833.177	97.0206
833.353	85.50418
833.529	59.95459
833.705	77.06788
833.881	61.26541
834.058	61.79486
834.234	66.59585
834.41	66.23023
834.586	57.70529
834.761	67.40148
834.937	72.83897
835.113	76.75004
835.289	71.11838
835.465	86.78584
835.641	78.67431
835.817	87.14896
835.993	132.45989
836.169	81.23018
836.344	106.21679
836.52	120.73493
836.696	114.6931
836.872	91.21114
837.048	200.91555
837.223	100.20119
837.399	177.06365
837.575	138.1296
837.75	131.72592
837.926	164.61012
838.102	241.64845
838.277	195.49714
838.453	235.22613
838.628	228.94858
838.804	121.86753
838.98	245.27197
839.155	122.99076
839.331	155.74739
839.506	117.90082
839.682	119.16843
839.857	145.22091
840.033	160.39021
840.208	99.51764
840.384	60.32979
840.559	101.45445
840.734	135.96631
840.91	181.11678
841.085	123.67208
841.26	126.20551
841.436	116.09542
841.611	114.70173
841.786	178.88964
841.962	210.61822
842.137	142.61587
842.312	105.82248
842.487	129.81578
842.663	109.23138
842.838	123.72534
843.013	314.71842
843.188	180.82576
843.363	162.67557
843.538	299.55027
843.714	296.43197
843.889	292.81498
844.064	291.53737
844.239	266.47367
844.414	295.01957
844.589	208.1361
844.764	344.43283
844.939	324.96599
845.114	411.39736
845.289	347.34185
845.464	396.59413
845.639	317.93088
845.814	202.60525
845.989	211.9494
846.163	212.59439
846.338	264.6493
846.513	369.22685
846.688	243.87559
846.863	247.89547
847.038	221.67947
847.212	249.13656
847.387	269.23989
847.562	271.5851
847.737	275.18902
847.911	138.63692
848.086	176.99313
848.261	432.17979
848.435	230.99398
848.61	337.79693
848.785	175.72259
848.959	305.54679
849.134	413.32283
849.308	535.43618
849.483	249.46748
849.658	368.44106
849.832	246.58625
850.007	216.57076
850.181	430.62742
850.356	214.29179
850.53	402.11237
850.705	170.24754
850.879	119.52824
851.053	276.04426
851.228	216.93379
851.402	306.44997
851.577	377.2074
851.751	350.48549
851.925	273.18528
852.099	141.1194
852.274	201.82631
852.448	257.53909
852.622	274.71721
852.797	255.63668
852.971	244.64183
853.145	290.82662
853.319	498.25119
853.493	376.23227
853.668	225.36787
853.842	408.82465
854.016	349.02716
854.19	441.89581
854.364	285.01218
854.538	291.92113
854.712	379.01989
854.886	277.7919
855.06	231.77412
855.234	110.15109
855.408	407.24861
855.582	370.31548
855.756	352.43153
855.93	438.18564
856.104	308.93253
856.278	353.28815
856.452	279.42377
856.626	306.63565
856.8	479.85414
856.973	327.02659
857.147	307.28325
857.321	296.95767
857.495	376.49475
857.669	257.07032
857.842	236.00383
858.016	407.31281
858.19	183.73356
858.364	618.95193
858.537	254.93828
858.711	279.76956
858.885	233.19556
859.058	211.69241
859.232	151.25401
859.405	170.38661
859.579	361.77316
859.753	291.34268
859.926	209.47877
860.1	159.44972
860.273	251.15891
860.447	453.41643
860.62	243.68823
860.794	469.31068
860.967	282.8454
861.141	379.44436
861.314	498.2514
861.487	327.72685
861.661	399.80444
861.834	435.47693
862.008	342.79571
862.181	289.08952
862.354	300.22141
862.528	323.15914
862.701	205.94867
862.874	160.85241
863.047	236.62508
863.221	260.38801
863.394	132.74635
863.567	384.86603
863.74	112.59566
863.913	369.72008
864.087	312.60634
864.26	339.6398
864.433	249.65099
864.606	510.01626
864.779	267.20448
864.952	144.02056
865.125	225.99019
865.298	260.63688
865.471	280.26813
865.644	438.73138
865.817	374.68004
865.99	337.20826
866.163	410.807
866.336	235.52384
866.509	261.8776
866.682	216.2975
866.855	355.21333
867.028	184.1992
867.2	314.75183
867.373	117.24871
867.546	294.72671
867.719	454.6111
867.892	287.37121
868.064	201.22296
868.237	297.24863
868.41	324.73404
868.583	155.70882
868.755	169.55997
868.928	235.81924
869.101	481.72599
869.273	341.84487
869.446	307.8067
869.619	379.58379
869.791	249.35249
869.964	359.09927
870.136	332.33318
870.309	292.66729
870.481	289.07797
870.654	159.13738
870.826	278.17491
870.999	234.92252
871.171	333.3568
871.344	216.87478
871.516	268.26282
871.689	196.23587
871.861	274.00712
872.033	210.52802
872.206	257.5387
872.378	350.7043
872.55	238.15867
872.723	161.77132
872.895	215.30717
873.067	370.09385
873.24	343.72117
873.412	215.93428
873.584	256.03994
873.756	225.6234
873.928	291.42465
874.101	281.12074
874.273	283.75994
874.445	127.67121
874.617	175.48958
874.789	264.2725
874.961	242.82437
875.133	297.32295
875.305	265.71907
875.477	179.61023
875.649	148.136
875.821	183.19441
875.993	380.72071
876.165	180.07743
876.337	270.48496
876.509	251.97401
876.681	264.69649
876.853	300.33752
877.025	279.54387
877.197	200.56459
877.369	179.29143
877.541	310.27272
877.712	113.37729
877.884	170.818
878.056	274.77474
878.228	162.64635
878.4	288.17563
878.571	169.93346
878.743	125.54003
878.915	233.02066
879.086	163.32775
879.258	192.05279
879.43	160.56644
879.601	146.19882
879.773	151.95149
879.945	57.28827
880.116	76.23658
880.288	54.58526
880.459	57.76205
880.631	50.47621
880.802	54.6172
880.974	54.52812
881.145	44.09375
881.317	51.89798
881.488	45.40441
881.66	48.70967
881.831	46.05392
882.002	57.33988
882.174	47.97103
882.345	56.62232
882.517	42.35688
882.688	67.71207
882.859	60.21807
883.03	84.80884
883.202	84.59302
883.373	80.0233
883.544	77.88328
883.715	114.39488
883.887	101.06335
884.058	89.35667
884.229	118.79439
884.4	117.20899
884.571	133.27903
884.742	110.69498
884.914	120.57794
885.085	154.91845
885.256	194.59801
885.427	170.52418
885.598	181.13382
885.769	188.06233
885.94	196.1315
886.111	140.29306
886.282	220.20132
886.453	172.54184
886.624	141.28973
886.795	219.6698
886.966	182.69754
887.136	230.864
887.307	177.12658
887.478	288.75971
887.649	262.71422
887.82	253.67255
887.991	213.3439
888.161	296.38641
888.332	255.20083
888.503	149.02313
888.674	334.53269
888.844	357.42465
889.015	303.81385
889.186	163.01684
889.356	359.6784
889.527	143.64536
889.698	512.9163
889.868	198.91386
890.039	278.28668
890.209	228.57641
890.38	290.70808
890.551	241.16339
890.721	348.36125
890.892	311.07228
891.062	234.31406
891.233	278.92771
891.403	205.50932
891.574	181.64491
891.744	238.22385
891.914	240.83718
892.085	229.96957
892.255	118.87804
892.425	331.50666
892.596	260.81697
892.766	265.36105
892.936	325.495
893.107	283.58608
893.277	185.38344
893.447	141.17938
893.618	113.71383
893.788	188.95629
893.958	116.91363
894.128	109.10221
894.298	120.99203
894.468	151.87692
894.639	84.52973
894.809	67.29063
894.979	89.96765
895.149	107.13168
895.319	91.10262
895.489	117.6481
895.659	150.2012
895.829	112.45176
895.999	122.55777
896.169	100.4666
896.339	129.39696
896.509	228.90089
896.679	237.39188
896.849	251.61795
897.019	308.91975
897.189	240.996
897.358	218.50134
897.528	312.94273
897.698	133.28335
897.868	279.85792
898.038	456.01777
898.208	414.96358
898.377	148.03094
898.547	376.91039
898.717	512.33795
898.886	277.20748
899.056	448.0091
899.226	512.32081
899.395	344.69336
899.565	493.95044
899.735	357.28015
899.904	528.14518
900.074	419.58375
900.244	223.95317
900.413	642.74253
900.583	179.35675
900.752	309.97858
900.922	443.11721
901.091	78.07734
901.261	372.79682
901.43	402.35588
901.599	357.41164
901.769	728.64087
901.938	514.73021
902.108	393.83548
902.277	494.52526
902.446	160.46666
902.616	193.9382
902.785	234.00085
902.954	394.93375
903.124	241.15054
903.293	198.63048
903.462	128.37395
903.631	164.07376
903.801	128.2328
903.97	82.55397
904.139	122.56081
904.308	98.25133
904.477	87.50164
904.646	67.59184
904.816	88.32267
904.985	122.17195
905.154	179.54345
