Data from WindowProjectSample3_Transmission__17__00017.txt Node

Date: Sun May 04 09:59:28 EDT 2025
User: jessi
Spectrometer: SR400872
Trigger mode: 0
Integration Time (sec): 5.000070E-1
Scans to average: 10
Electric dark correction enabled: true
Nonlinearity correction enabled: true
Boxcar width: 0
XAxis mode: Wavelengths
Number of Pixels in Spectrum: 3648
>>>>>Begin Spectral Data<<<<<
184.909	-5737.09113
185.132	11100.82537
185.355	-8266.7759
185.578	-54722.21295
185.801	4454.66709
186.024	-132621.34915
186.247	-733.94519
186.47	1354.29064
186.693	891.19671
186.916	-212.26771
187.139	-2573484.78183
187.362	-2942.05051
187.585	7590.33255
187.808	1996.60809
188.031	-120.67126
188.254	4658.9184
188.476	-1897.83293
188.699	2580.4734
188.922	437.81528
189.145	-5905.79018
189.368	-4460.26491
189.591	1656.47425
189.813	-152486.85676
190.036	8958.03409
190.259	1504.24925
190.482	5871.96339
190.705	16672.29129
190.927	18235.87568
191.15	-4264.05841
191.373	2068.26539
191.595	1532.50184
191.818	17267.27683
192.041	1036.32972
192.263	-8129.4702
192.486	-1732.47588
192.709	2891.69388
192.931	-3514.13675
193.154	13465.96096
193.377	2515.12947
193.599	27971.26954
193.822	2300.63537
194.044	2079.84834
194.267	1130.25884
194.489	-178.7397
194.712	3700.99592
194.934	33833.67522
195.157	-430.85984
195.379	11793.56993
195.602	1911.92243
195.824	4731.10447
196.047	6747.1868
196.269	14177.13217
196.492	-11132.05526
196.714	3930.75895
196.936	7281.5502
197.159	11040.57271
197.381	4687.6281
197.604	2400244.75804
197.826	2081.30086
198.048	2002.61717
198.271	10136.79272
198.493	2085.94882
198.715	2847.37094
198.938	9325.82145
199.16	3738.73631
199.382	9925.36108
199.604	10726.18321
199.827	1855.75601
200.049	3050.83169
200.271	21637.61795
200.493	1808.62548
200.715	7773.41976
200.938	7857.99551
201.16	-3972.10229
201.382	33880.34632
201.604	3995.8915
201.826	8415.85945
202.048	4479.65544
202.27	2052.32561
202.492	5838.52763
202.715	19819.40438
202.937	4127.37788
203.159	1556.26226
203.381	2064.99975
203.603	2925.30626
203.825	-1453.33882
204.047	-23497.30347
204.269	3585.94789
204.491	7314.46776
204.713	-1704150.41932
204.935	2346.94195
205.156	4131.59085
205.378	1663.00267
205.6	38730.34017
205.822	4835.0988
206.044	3755.9072
206.266	6452.81852
206.488	1619.35869
206.71	9424.353
206.932	1398.36755
207.153	30661.96189
207.375	17267.3634
207.597	12419.83917
207.819	39024.0919
208.041	-45503.66963
208.262	1280.08724
208.484	13542.56463
208.706	3656.9175
208.927	2398.29092
209.149	882.7329
209.371	3679.15125
209.593	1129.24806
209.814	10656.09291
210.036	-502246.97363
210.258	1640.00861
210.479	2257.63748
210.701	3179.32336
210.922	-5796.84543
211.144	-3439.62338
211.366	5245.09327
211.587	2528.07169
211.809	6184.6561
212.03	-65504.37506
212.252	504.85798
212.473	918.58186
212.695	727.44446
212.916	1331.92746
213.138	697.03313
213.359	5241.45486
213.581	2892.23731
213.802	901.89795
214.024	7095.87515
214.245	-13602.28371
214.466	504.76172
214.688	3817.18354
214.909	10023.90298
215.131	4171.40992
215.352	2735.70667
215.573	11860.54394
215.795	2276.25984
216.016	1976.16687
216.237	-761651.68304
216.459	1923.59395
216.68	5878.1319
216.901	3209.68859
217.122	885.13225
217.344	3246.07765
217.565	7337.55876
217.786	3609.20589
218.007	903.08344
218.228	2525.39188
218.45	-17227.80302
218.671	46078.77628
218.892	20858.7496
219.113	1660.43158
219.334	4554.55427
219.555	-7950.13096
219.776	1790.543
219.997	4184.60019
220.219	1148.33369
220.44	1572.20546
220.661	1660.3894
220.882	5596.89806
221.103	1452.44446
221.324	7794.46449
221.545	3118.65102
221.766	3059.47685
221.987	1440.42909
222.208	958.07328
222.429	2297.08476
222.65	204.55018
222.87	817.60331
223.091	1735.11307
223.312	1095.04028
223.533	2109.73381
223.754	1666.27626
223.975	1820.4094
224.196	1044.67545
224.417	5282.91652
224.637	631.7295
224.858	85.54246
225.079	1160.43976
225.3	590.62297
225.521	2277.28008
225.741	592.08014
225.962	642.63133
226.183	159.49401
226.404	984.13387
226.624	586.60119
226.845	614.15978
227.066	482.69454
227.286	320.53403
227.507	200.29147
227.728	154.63596
227.948	273.40229
228.169	98.86037
228.389	108.95632
228.61	56.52831
228.831	84.24827
229.051	8.7778
229.272	51.56284
229.492	74.31421
229.713	23.02455
229.933	52.23431
230.154	44.80582
230.374	75.53332
230.595	57.99551
230.815	38.74351
231.036	58.91321
231.256	-6.52874
231.477	99.54283
231.697	59.19507
231.917	57.21934
232.138	85.55959
232.358	156.45349
232.579	153.17787
232.799	26.96991
233.019	142.93716
233.24	161.51566
233.46	60.48124
233.68	92.06927
233.901	65.8526
234.121	45.35231
234.341	17.4966
234.561	-2.58626
234.782	35.30137
235.002	98.63785
235.222	-3.88937
235.442	92.90698
235.662	44.70843
235.883	88.97872
236.103	76.71032
236.323	56.53588
236.543	44.05381
236.763	61.31194
236.983	65.17443
237.203	65.63696
237.423	89.04329
237.643	129.43836
237.864	111.47477
238.084	34.70284
238.304	43.08074
238.524	70.37416
238.744	62.86788
238.964	99.04218
239.184	88.75626
239.404	94.45878
239.624	50.71018
239.843	85.05212
240.063	50.20413
240.283	33.89764
240.503	34.47999
240.723	35.72618
240.943	22.15643
241.163	28.36595
241.383	20.90495
241.603	11.26308
241.822	13.80422
242.042	9.17696
242.262	12.32017
242.482	13.71445
242.702	16.34027
242.921	4.86647
243.141	11.18973
243.361	10.35241
243.581	14.7882
243.8	12.36595
244.02	8.77915
244.24	15.06893
244.459	13.59216
244.679	28.78033
244.899	18.35725
245.118	22.18644
245.338	18.30941
245.558	21.57351
245.777	12.89056
245.997	14.94626
246.216	14.6018
246.436	8.61353
246.655	6.5275
246.875	4.70118
247.094	8.72425
247.314	3.44069
247.533	5.41433
247.753	6.59539
247.972	5.49504
248.192	1.80106
248.411	3.18263
248.631	5.78051
248.85	7.48467
249.07	6.2157
249.289	9.53352
249.508	7.34487
249.728	11.83689
249.947	12.64765
250.166	13.25424
250.386	7.67176
250.605	10.95277
250.824	17.4581
251.044	12.93128
251.263	36.00772
251.482	19.27147
251.701	16.46993
251.921	0.86934
252.14	5.95229
252.359	7.64091
252.578	14.93632
252.798	5.0894
253.017	14.04204
253.236	7.25964
253.455	9.05324
253.674	18.46573
253.893	8.36384
254.112	13.71154
254.331	18.49556
254.551	16.02863
254.77	7.04678
254.989	20.86122
255.208	17.77258
255.427	22.55305
255.646	20.2899
255.865	32.38861
256.084	14.24846
256.303	16.5986
256.522	20.92753
256.741	4.9129
256.96	5.01318
257.179	13.74904
257.397	16.05007
257.616	9.40634
257.835	9.70037
258.054	23.06483
258.273	14.86129
258.492	16.62729
258.711	9.57575
258.93	4.72968
259.148	6.03983
259.367	6.10994
259.586	7.93104
259.805	3.62522
260.023	7.23052
260.242	5.40666
260.461	4.13373
260.68	2.25825
260.898	6.54822
261.117	2.40159
261.336	1.45591
261.554	5.7899
261.773	6.21025
261.992	1.66833
262.21	5.79478
262.429	7.00301
262.648	10.70338
262.866	12.66833
263.085	8.60949
263.303	7.56658
263.522	13.01659
263.74	13.66405
263.959	22.76049
264.178	11.97524
264.396	10.4115
264.615	7.71149
264.833	17.08332
265.051	14.30038
265.27	15.47616
265.488	16.92101
265.707	9.70778
265.925	15.82534
266.144	7.62708
266.362	9.03072
266.58	8.61958
266.799	7.69532
267.017	9.15445
267.235	7.7328
267.454	5.18707
267.672	3.07404
267.89	6.96929
268.109	7.18206
268.327	7.03924
268.545	1.83732
268.763	6.13775
268.982	3.07944
269.2	7.54741
269.418	4.62186
269.636	3.71324
269.854	7.30318
270.073	5.21391
270.291	2.99282
270.509	3.03455
270.727	6.68813
270.945	10.93609
271.163	10.86862
271.381	2.87204
271.599	4.47273
271.817	7.82003
272.036	2.78751
272.254	4.69827
272.472	3.64821
272.69	3.66003
272.908	4.15392
273.126	6.32539
273.344	7.98796
273.562	2.93448
273.779	4.21004
273.997	6.2022
274.215	6.6662
274.433	4.84935
274.651	7.22126
274.869	7.36697
275.087	4.55912
275.305	6.68874
275.523	4.23136
275.74	4.98377
275.958	8.31545
276.176	12.09072
276.394	3.86141
276.612	4.99349
276.829	5.25607
277.047	4.65481
277.265	4.99832
277.483	5.86635
277.7	6.70459
277.918	5.58766
278.136	9.29021
278.353	4.42948
278.571	2.91751
278.789	7.4295
279.006	1.80769
279.224	4.37047
279.442	7.71264
279.659	5.18341
279.877	3.87842
280.094	8.68608
280.312	1.84702
280.529	5.463
280.747	1.58177
280.964	4.35336
281.182	8.55907
281.399	4.2967
281.617	5.53563
281.834	4.30589
282.052	2.95378
282.269	5.02945
282.487	3.97977
282.704	3.4285
282.921	3.39526
283.139	5.29763
283.356	6.53851
283.574	5.63596
283.791	3.06124
284.008	7.93918
284.226	4.58636
284.443	5.23441
284.66	6.24048
284.877	5.23447
285.095	3.09449
285.312	2.38296
285.529	1.51486
285.746	1.26188
285.964	3.3036
286.181	2.16553
286.398	3.066
286.615	4.32985
286.832	3.93506
287.05	1.46016
287.267	3.17053
287.484	3.04779
287.701	4.19265
287.918	4.01281
288.135	4.29463
288.352	1.76188
288.569	2.28812
288.786	3.80185
289.003	3.11729
289.22	4.37704
289.437	2.55022
289.654	4.61385
289.871	4.68626
290.088	4.34968
290.305	3.52518
290.522	2.72858
290.739	3.10439
290.956	4.82323
291.173	5.47367
291.39	5.34911
291.607	3.67508
291.824	2.79881
292.04	2.19471
292.257	4.40529
292.474	5.05089
292.691	3.32517
292.908	1.674
293.125	2.5485
293.341	2.02244
293.558	7.63842
293.775	3.15701
293.992	3.45541
294.208	1.5652
294.425	2.26004
294.642	2.9597
294.858	4.81031
295.075	1.3302
295.292	3.21092
295.508	3.6406
295.725	5.4227
295.942	2.56772
296.158	1.72478
296.375	3.20648
296.591	2.42167
296.808	2.58153
297.024	2.93185
297.241	3.35253
297.458	3.55864
297.674	0.39913
297.891	2.92284
298.107	2.13602
298.323	1.80593
298.54	4.16995
298.756	2.16326
298.973	0.95337
299.189	4.42078
299.406	1.78906
299.622	4.64081
299.838	4.40074
300.055	3.95397
300.271	1.00504
300.487	1.72555
300.704	1.65126
300.92	1.0574
301.136	5.72427
301.353	4.55013
301.569	3.15585
301.785	3.31952
302.001	4.19596
302.218	3.5616
302.434	3.53272
302.65	1.34718
302.866	2.47237
303.083	5.82638
303.299	5.65582
303.515	2.85714
303.731	3.30892
303.947	0.89167
304.163	1.97114
304.379	3.14582
304.595	3.70883
304.812	1.96168
305.028	1.78097
305.244	2.53516
305.46	4.33716
305.676	4.02314
305.892	4.84208
306.108	3.36038
306.324	2.51756
306.54	5.55419
306.756	3.45805
306.972	3.75565
307.187	2.4609
307.403	5.13175
307.619	2.33908
307.835	4.66429
308.051	5.03399
308.267	1.41155
308.483	4.27119
308.699	3.73693
308.914	3.25948
309.13	3.04131
309.346	0.96313
309.562	1.57634
309.778	0.78779
309.993	3.67984
310.209	2.68547
310.425	1.3097
310.641	2.42163
310.856	1.34407
311.072	1.41332
311.288	2.78748
311.503	2.90892
311.719	0.64241
311.935	0.47904
312.15	3.09472
312.366	2.78556
312.581	3.58826
312.797	2.82658
313.013	3.90555
313.228	2.18253
313.444	3.13489
313.659	1.93553
313.875	3.55488
314.09	2.61891
314.306	4.73242
314.521	3.86294
314.737	3.82049
314.952	3.20145
315.168	2.91672
315.383	3.48388
315.599	2.63562
315.814	2.33449
316.029	4.12517
316.245	1.16476
316.46	1.07949
316.675	4.92787
316.891	5.69231
317.106	6.74827
317.321	3.62191
317.537	3.86989
317.752	4.06275
317.967	4.28732
318.183	2.04117
318.398	2.73191
318.613	4.23144
318.828	5.11254
319.043	4.29937
319.259	2.77792
319.474	3.48736
319.689	4.80262
319.904	0.87354
320.119	4.01995
320.334	3.55862
320.549	2.84225
320.765	4.83936
320.98	3.38469
321.195	4.31454
321.41	2.69626
321.625	4.27645
321.84	5.70387
322.055	5.27748
322.27	2.28219
322.485	1.90969
322.7	3.47164
322.915	4.75207
323.13	1.92195
323.345	4.89559
323.56	3.85644
323.775	4.09907
323.989	3.68692
324.204	3.39634
324.419	4.07577
324.634	1.34164
324.849	2.95854
325.064	5.94406
325.279	4.25681
325.493	3.99052
325.708	4.56813
325.923	2.23627
326.138	2.20589
326.352	5.36399
326.567	4.46021
326.782	2.39867
326.997	1.99224
327.211	3.9844
327.426	3.82932
327.641	2.562
327.855	0.91016
328.07	3.82787
328.285	5.28988
328.499	2.7142
328.714	3.8074
328.928	4.34069
329.143	3.5165
329.358	4.38501
329.572	4.71499
329.787	4.84435
330.001	6.59153
330.216	1.61865
330.43	5.29814
330.645	5.43631
330.859	4.49175
331.074	2.18378
331.288	3.59248
331.503	4.93807
331.717	1.68408
331.931	3.1037
332.146	3.214
332.36	5.45442
332.575	4.09438
332.789	3.58559
333.003	2.8926
333.218	3.73226
333.432	2.26774
333.646	4.26619
333.86	5.20314
334.075	5.55177
334.289	2.19093
334.503	1.88432
334.717	3.76539
334.932	3.58704
335.146	4.89759
335.36	3.20271
335.574	4.49911
335.788	4.47891
336.003	5.23266
336.217	4.49356
336.431	4.20153
336.645	2.55699
336.859	1.87531
337.073	2.93064
337.287	3.38175
337.501	1.92833
337.715	3.43471
337.929	3.76444
338.143	1.71058
338.357	2.85991
338.571	1.81839
338.785	3.58074
338.999	2.57382
339.213	2.41536
339.427	1.42205
339.641	4.75284
339.855	2.87185
340.069	2.35238
340.283	4.65415
340.497	5.44133
340.711	3.71579
340.924	2.69761
341.138	1.72903
341.352	1.28068
341.566	3.49928
341.78	0.97982
341.993	2.46862
342.207	1.57982
342.421	3.38722
342.635	2.81486
342.848	2.34461
343.062	0.53056
343.276	2.11745
343.49	5.97133
343.703	2.28838
343.917	4.10448
344.131	4.17097
344.344	2.18632
344.558	2.36463
344.771	1.66071
344.985	4.63585
345.199	4.82678
345.412	3.4434
345.626	3.45384
345.839	0.94485
346.053	1.61668
346.266	1.66403
346.48	4.00469
346.693	3.4474
346.907	3.57611
347.12	1.83411
347.334	3.30393
347.547	3.3363
347.76	2.5911
347.974	4.41054
348.187	3.43834
348.401	2.4447
348.614	2.13095
348.827	2.52373
349.041	3.74277
349.254	0.96309
349.467	2.7525
349.681	1.39145
349.894	2.18346
350.107	4.35826
350.32	4.8854
350.534	0.96095
350.747	2.48462
350.96	1.91178
351.173	2.0063
351.386	2.4381
351.6	2.45994
351.813	2.08628
352.026	3.03791
352.239	1.03274
352.452	2.5846
352.665	3.88968
352.878	2.53263
353.092	5.46347
353.305	3.6535
353.518	2.94199
353.731	1.97859
353.944	4.07845
354.157	2.1354
354.37	1.54983
354.583	1.57973
354.796	0.8494
355.009	4.15866
355.222	2.63101
355.435	2.86075
355.647	3.63896
355.86	1.5073
356.073	2.78951
356.286	2.23293
356.499	3.56219
356.712	2.98168
356.925	3.27869
357.138	3.78587
357.35	1.40968
357.563	2.2693
357.776	2.79905
357.989	2.08034
358.201	3.20101
358.414	2.79537
358.627	3.9342
358.84	2.22451
359.052	1.27888
359.265	1.38973
359.478	3.65825
359.69	-0.36993
359.903	3.21914
360.116	3.35052
360.328	0.67444
360.541	3.3362
360.753	1.27745
360.966	1.69422
361.179	1.83531
361.391	1.74734
361.604	1.17199
361.816	1.73276
362.029	1.5057
362.241	1.27537
362.454	1.72496
362.666	1.24906
362.879	2.28417
363.091	2.03329
363.304	1.40257
363.516	2.21331
363.728	0.86492
363.941	3.00889
364.153	1.54532
364.366	-0.16985
364.578	1.00545
364.79	2.84572
365.003	2.18329
365.215	1.89645
365.427	2.60491
365.639	3.55079
365.852	2.57628
366.064	4.43852
366.276	1.84622
366.488	2.7759
366.701	1.90549
366.913	2.16729
367.125	2.13031
367.337	1.63531
367.549	1.75551
367.762	2.36979
367.974	2.41465
368.186	1.5465
368.398	3.5223
368.61	3.05035
368.822	3.12034
369.034	2.41582
369.246	3.08023
369.458	4.84908
369.67	1.11566
369.882	4.65761
370.094	0.31115
370.306	4.10383
370.518	1.90444
370.73	1.62303
370.942	1.43988
371.154	1.92339
371.366	1.56135
371.578	2.52749
371.79	1.24807
372.002	3.60038
372.214	4.10365
372.425	2.69102
372.637	3.71847
372.849	2.59961
373.061	0.09155
373.273	2.9777
373.484	2.74576
373.696	3.18605
373.908	-0.04063
374.12	3.55683
374.331	2.75894
374.543	1.17936
374.755	1.20899
374.967	2.39777
375.178	2.9972
375.39	2.10425
375.602	2.41431
375.813	0.93304
376.025	1.00104
376.236	2.05076
376.448	2.44705
376.66	1.65474
376.871	1.62132
377.083	3.14981
377.294	3.29193
377.506	1.62469
377.717	3.5891
377.929	2.39765
378.14	1.07177
378.352	2.79219
378.563	2.67652
378.775	3.48838
378.986	1.40161
379.197	2.38165
379.409	1.61529
379.62	3.06018
379.832	2.44724
380.043	1.92631
380.254	2.32195
380.466	1.04523
380.677	5.10334
380.888	4.78862
381.1	4.98517
381.311	4.70252
381.522	2.23929
381.733	5.45163
381.945	1.60725
382.156	2.50461
382.367	1.73041
382.578	5.28662
382.789	5.11122
383.001	1.79071
383.212	3.59156
383.423	3.91861
383.634	3.59107
383.845	2.78167
384.056	1.94986
384.267	2.13328
384.478	2.05778
384.69	1.02475
384.901	2.76702
385.112	2.54306
385.323	3.97421
385.534	2.82009
385.745	2.40238
385.956	2.78149
386.167	1.21918
386.378	2.80405
386.588	0.99259
386.799	1.36471
387.01	0.52083
387.221	3.23784
387.432	2.03461
387.643	4.45545
387.854	1.96441
388.065	2.09868
388.275	1.94508
388.486	1.91922
388.697	2.07131
388.908	1.93295
389.119	3.44188
389.329	4.17869
389.54	2.28452
389.751	2.68908
389.962	3.44448
390.172	2.51498
390.383	1.70824
390.594	1.68483
390.804	1.67003
391.015	1.73674
391.226	2.28102
391.436	2.68925
391.647	2.46319
391.858	3.00246
392.068	0.59802
392.279	1.16598
392.489	2.28701
392.7	3.3809
392.91	1.21923
393.121	1.64621
393.331	2.79224
393.542	3.48958
393.752	2.76159
393.963	2.42761
394.173	2.29419
394.384	2.88093
394.594	2.23028
394.804	1.08441
395.015	2.36552
395.225	2.99939
395.436	1.09577
395.646	2.87202
395.856	1.71009
396.067	1.00708
396.277	3.49796
396.487	2.90743
396.697	2.50196
396.908	3.23014
397.118	3.16005
397.328	2.77198
397.538	3.40608
397.749	1.75162
397.959	3.34784
398.169	3.20044
398.379	1.09908
398.589	3.26514
398.8	2.59293
399.01	2.25314
399.22	2.19605
399.43	4.90862
399.64	2.26918
399.85	3.04116
400.06	2.55824
400.27	1.941
400.48	2.60816
400.69	4.05865
400.9	2.14749
401.11	1.89819
401.32	3.44696
401.53	2.14597
401.74	4.37819
401.95	3.51444
402.16	1.82084
402.37	3.0211
402.58	2.16487
402.79	3.25856
403	3.67207
403.209	2.01523
403.419	3.49096
403.629	2.31172
403.839	3.42762
404.049	3.51332
404.258	1.94424
404.468	1.81816
404.678	3.28477
404.888	3.32735
405.097	1.95631
405.307	2.61934
405.517	3.33332
405.727	3.01992
405.936	2.32998
406.146	3.02407
406.356	4.16852
406.565	2.73341
406.775	2.24695
406.984	2.27548
407.194	4.54982
407.404	2.85905
407.613	3.27771
407.823	3.51099
408.032	4.17981
408.242	4.18092
408.451	2.51991
408.661	2.80534
408.87	4.67528
409.08	2.68919
409.289	3.31274
409.499	3.1314
409.708	3.17452
409.918	1.02061
410.127	3.03596
410.336	4.55389
410.546	3.61576
410.755	2.56165
410.964	2.73081
411.174	2.17318
411.383	3.40482
411.592	3.50167
411.802	2.00956
412.011	4.09002
412.22	3.16627
412.429	4.74157
412.639	4.54691
412.848	4.39764
413.057	4.79121
413.266	4.51374
413.475	3.19752
413.685	3.99719
413.894	4.12033
414.103	4.49995
414.312	3.94998
414.521	3.1924
414.73	3.425
414.939	5.23227
415.148	3.82174
415.357	3.57433
415.566	2.99573
415.776	2.83976
415.985	2.82348
416.194	4.14847
416.403	4.82271
416.611	2.08789
416.82	2.68984
417.029	3.28415
417.238	2.63635
417.447	2.31713
417.656	2.76399
417.865	2.46328
418.074	2.93424
418.283	3.06966
418.492	3.974
418.7	3.66851
418.909	4.49375
419.118	3.30741
419.327	3.57706
419.536	3.30751
419.744	2.75377
419.953	4.07777
420.162	3.96264
420.371	2.81818
420.579	2.86886
420.788	4.04418
420.997	4.04742
421.205	4.00072
421.414	3.60534
421.623	3.77439
421.831	3.27
422.04	4.11611
422.249	2.94549
422.457	3.72703
422.666	3.12169
422.874	4.1865
423.083	4.1964
423.291	4.09347
423.5	3.83967
423.708	4.01455
423.917	4.49537
424.125	3.88905
424.334	3.57958
424.542	5.56537
424.751	4.7308
424.959	4.43721
425.167	4.89893
425.376	4.57636
425.584	3.7618
425.793	4.13372
426.001	3.14022
426.209	4.48276
426.418	3.37542
426.626	3.65436
426.834	3.25125
427.042	3.78531
427.251	3.32681
427.459	4.6143
427.667	4.18548
427.875	2.93486
428.084	3.42778
428.292	4.97814
428.5	4.36279
428.708	3.18572
428.916	3.29461
429.124	4.01385
429.333	3.69696
429.541	3.71992
429.749	4.07144
429.957	3.82531
430.165	5.95188
430.373	2.88311
430.581	4.16656
430.789	5.18753
430.997	3.45701
431.205	3.35619
431.413	4.05014
431.621	3.71238
431.829	4.57802
432.037	3.66666
432.245	4.52005
432.453	4.30123
432.661	3.69181
432.869	5.66691
433.076	3.29677
433.284	3.84832
433.492	4.4874
433.7	5.10721
433.908	3.72567
434.116	4.12389
434.323	4.32463
434.531	4.08408
434.739	4.47976
434.947	5.01112
435.154	4.90307
435.362	4.40043
435.57	3.92954
435.778	3.82541
435.985	4.44779
436.193	3.71388
436.401	5.2368
436.608	4.25287
436.816	3.91805
437.023	5.64781
437.231	5.70547
437.439	4.51897
437.646	4.8644
437.854	4.68648
438.061	4.84747
438.269	4.12688
438.476	4.81042
438.684	4.47871
438.891	3.97773
439.099	3.79784
439.306	3.27289
439.514	3.51335
439.721	4.67797
439.929	3.84336
440.136	4.67726
440.343	4.55168
440.551	4.15256
440.758	5.94573
440.965	4.86328
441.173	4.46995
441.38	4.00875
441.587	4.65358
441.795	4.0407
442.002	4.67169
442.209	4.69381
442.416	4.94501
442.624	5.00394
442.831	4.80425
443.038	4.19392
443.245	3.80374
443.452	4.18145
443.66	5.09835
443.867	3.92533
444.074	4.08032
444.281	3.97828
444.488	4.38417
444.695	4.385
444.902	4.01092
445.109	4.98441
445.316	4.24476
445.523	4.13667
445.73	3.85376
445.937	4.55633
446.144	4.95859
446.351	5.07694
446.558	3.98939
446.765	5.59389
446.972	5.47664
447.179	4.68961
447.386	5.62147
447.593	4.34248
447.8	5.46835
448.007	4.4974
448.214	4.6731
448.42	4.25257
448.627	5.52035
448.834	4.606
449.041	4.52176
449.248	4.44832
449.454	5.39073
449.661	6.32868
449.868	4.49099
450.075	4.22073
450.281	3.12304
450.488	3.79386
450.695	3.96718
450.901	4.22322
451.108	4.24113
451.315	5.39784
451.521	4.61797
451.728	5.53249
451.935	4.21331
452.141	4.54993
452.348	4.67596
452.554	4.55801
452.761	4.36292
452.967	6.00368
453.174	4.8749
453.38	5.12867
453.587	3.77056
453.793	4.88053
454	5.46782
454.206	6.57107
454.413	5.78619
454.619	5.16966
454.825	4.1172
455.032	5.35387
455.238	5.53465
455.445	3.89387
455.651	4.93971
455.857	3.27944
456.064	4.63951
456.27	4.61638
456.476	4.63897
456.682	3.732
456.889	5.1813
457.095	5.2842
457.301	6.82986
457.507	4.77401
457.714	4.95306
457.92	4.78762
458.126	4.17417
458.332	4.66829
458.538	4.30328
458.744	4.4337
458.951	4.47268
459.157	6.06457
459.363	4.79608
459.569	4.63908
459.775	5.42691
459.981	4.41928
460.187	5.04823
460.393	5.32154
460.599	5.92625
460.805	5.08573
461.011	5.13157
461.217	5.83929
461.423	5.97475
461.629	4.86264
461.835	5.73585
462.041	4.82708
462.247	6.41625
462.453	4.85448
462.658	4.98757
462.864	5.66322
463.07	5.42704
463.276	5.50951
463.482	5.35772
463.688	6.51713
463.893	4.59899
464.099	4.90477
464.305	6.46394
464.511	4.70073
464.716	5.18283
464.922	5.62484
465.128	4.54662
465.333	6.70164
465.539	5.62173
465.745	5.11615
465.95	5.34223
466.156	7.60517
466.362	6.28575
466.567	5.26894
466.773	4.79674
466.978	6.5291
467.184	4.47981
467.389	3.50456
467.595	5.75214
467.8	4.40539
468.006	6.3353
468.211	6.2078
468.417	4.38067
468.622	5.83478
468.828	5.93288
469.033	5.5505
469.239	7.79664
469.444	4.8985
469.649	6.26927
469.855	5.14109
470.06	5.64308
470.266	4.43786
470.471	6.0098
470.676	5.64258
470.881	4.09097
471.087	6.69496
471.292	7.11729
471.497	4.24304
471.703	5.19328
471.908	4.86424
472.113	5.39768
472.318	6.16116
472.523	4.52578
472.729	5.73285
472.934	5.7699
473.139	5.1123
473.344	5.84455
473.549	6.55123
473.754	4.75419
473.959	7.22533
474.164	4.8895
474.369	5.35799
474.575	6.20708
474.78	5.51698
474.985	5.0616
475.19	3.92183
475.395	4.80575
475.6	5.44357
475.804	6.46825
476.009	5.54677
476.214	5.44075
476.419	5.03023
476.624	4.10026
476.829	4.83119
477.034	5.9994
477.239	4.80663
477.444	5.64611
477.648	5.91554
477.853	6.00212
478.058	5.12047
478.263	4.92485
478.468	4.43861
478.672	4.58568
478.877	6.43499
479.082	6.91649
479.287	5.68515
479.491	5.44965
479.696	4.57245
479.901	6.23117
480.105	5.94939
480.31	4.93303
480.515	5.28602
480.719	7.22103
480.924	4.788
481.128	4.42988
481.333	5.57529
481.538	5.4888
481.742	4.93544
481.947	5.51711
482.151	5.81981
482.356	5.96235
482.56	7.41191
482.765	8.14017
482.969	9.71764
483.174	11.01381
483.378	12.84833
483.582	12.53913
483.787	13.69007
483.991	13.53581
484.196	13.75689
484.4	13.18158
484.604	13.52271
484.809	11.51684
485.013	11.19538
485.217	9.66588
485.422	8.7014
485.626	7.89129
485.83	7.62731
486.034	7.47432
486.239	7.8405
486.443	8.06482
486.647	8.20119
486.851	9.09082
487.055	9.98451
487.26	9.34127
487.464	10.07697
487.668	9.30862
487.872	9.29105
488.076	9.8731
488.28	9.09026
488.484	8.4229
488.688	8.33431
488.892	8.02757
489.096	7.33134
489.3	6.68421
489.504	6.27134
489.708	6.37184
489.912	6.26466
490.116	6.15781
490.32	5.64658
490.524	6.79499
490.728	7.17048
490.932	7.37922
491.136	7.57786
491.34	8.63333
491.544	8.79852
491.748	8.23826
491.951	8.22808
492.155	7.7214
492.359	7.75523
492.563	6.5922
492.767	6.086
492.97	5.64747
493.174	5.26459
493.378	5.50513
493.582	5.07542
493.785	5.58644
493.989	5.85641
494.193	5.73968
494.396	5.3916
494.6	6.20679
494.804	5.66013
495.007	5.09753
495.211	5.03574
495.414	5.38543
495.618	5.56977
495.822	6.36913
496.025	5.33813
496.229	6.14878
496.432	4.94013
496.636	5.54463
496.839	5.33682
497.043	6.70466
497.246	5.54982
497.45	5.13101
497.653	5.27018
497.856	5.65053
498.06	4.61825
498.263	5.25217
498.467	4.88081
498.67	6.19935
498.873	5.86701
499.077	5.23924
499.28	5.1163
499.483	5.68226
499.686	6.09351
499.89	5.68341
500.093	6.06988
500.296	4.9891
500.499	6.74462
500.703	5.58106
500.906	5.54626
501.109	6.90145
501.312	5.4923
501.515	5.2811
501.719	6.04706
501.922	6.92772
502.125	5.75431
502.328	5.50546
502.531	4.71736
502.734	5.48328
502.937	3.95203
503.14	5.6966
503.343	4.58819
503.546	5.14829
503.749	4.89297
503.952	5.82821
504.155	4.77889
504.358	5.8952
504.561	5.53474
504.764	4.5034
504.967	5.51209
505.17	5.56699
505.373	6.85896
505.576	5.47957
505.778	6.0386
505.981	4.94476
506.184	6.40472
506.387	4.09104
506.59	6.96522
506.793	6.31868
506.995	5.81362
507.198	4.03182
507.401	5.62828
507.604	5.79219
507.806	4.59483
508.009	4.82171
508.212	5.90475
508.414	4.94033
508.617	4.79877
508.82	5.43255
509.022	6.46831
509.225	5.45356
509.427	4.25234
509.63	6.44577
509.833	5.44514
510.035	5.1035
510.238	4.23221
510.44	6.35853
510.643	3.76545
510.845	7.27693
511.048	5.82316
511.25	4.94552
511.453	5.30776
511.655	5.61447
511.858	4.96903
512.06	6.1494
512.262	5.418
512.465	6.12534
512.667	4.96873
512.869	4.50367
513.072	5.79471
513.274	6.10822
513.476	5.85016
513.679	6.11144
513.881	4.5529
514.083	6.73797
514.286	4.7875
514.488	5.07864
514.69	4.63774
514.892	4.25561
515.094	5.97578
515.297	5.01878
515.499	5.58509
515.701	4.6322
515.903	6.74259
516.105	6.71596
516.307	6.03352
516.509	3.90503
516.711	4.21881
516.913	5.46218
517.116	5.25573
517.318	4.97475
517.52	6.10859
517.722	5.75781
517.924	4.48455
518.126	5.53956
518.328	4.63965
518.529	5.6477
518.731	6.58211
518.933	4.87787
519.135	5.23045
519.337	6.19628
519.539	5.74443
519.741	4.06332
519.943	5.1652
520.145	5.06646
520.346	5.76962
520.548	5.28611
520.75	5.65913
520.952	5.13805
521.153	5.73244
521.355	5.79622
521.557	4.53855
521.759	5.51146
521.96	5.34526
522.162	4.4883
522.364	6.2816
522.565	4.67045
522.767	5.95598
522.969	6.29764
523.17	5.90414
523.372	5.78462
523.573	4.91185
523.775	5.26878
523.977	4.63697
524.178	6.60809
524.38	4.84077
524.581	5.94193
524.783	4.98516
524.984	5.76338
525.186	5.25971
525.387	5.78272
525.589	5.22384
525.79	5.00663
525.991	4.68911
526.193	5.5399
526.394	4.46183
526.596	5.53553
526.797	5.32653
526.998	5.02668
527.2	4.78184
527.401	6.69385
527.602	6.94736
527.803	8.75572
528.005	8.81415
528.206	9.37781
528.407	9.96118
528.608	9.48029
528.81	9.6466
529.011	8.86128
529.212	9.79833
529.413	8.66829
529.614	8.02282
529.815	7.60798
530.017	7.08676
530.218	6.12225
530.419	5.37651
530.62	5.6717
530.821	5.71959
531.022	4.71523
531.223	5.94893
531.424	5.87949
531.625	5.73807
531.826	5.54929
532.027	5.49282
532.228	6.51044
532.429	6.18261
532.63	6.20671
532.831	6.68398
533.032	6.60219
533.233	7.24446
533.433	6.85813
533.634	7.09942
533.835	6.22924
534.036	5.67995
534.237	5.73267
534.438	5.31638
534.638	4.9237
534.839	5.15356
535.04	5.83458
535.241	5.23532
535.441	6.69761
535.642	5.72901
535.843	4.73273
536.043	4.82108
536.244	5.05901
536.445	5.01848
536.645	6.02639
536.846	5.62863
537.047	6.40064
537.247	4.87036
537.448	5.28531
537.648	5.54689
537.849	5.55708
538.049	5.57895
538.25	6.19721
538.451	5.91436
538.651	4.88453
538.851	5.93194
539.052	6.6561
539.252	6.37723
539.453	5.49094
539.653	5.7305
539.854	5.49424
540.054	5.49762
540.254	6.13623
540.455	6.64723
540.655	6.08958
540.855	7.07985
541.056	7.80258
541.256	7.1481
541.456	8.18409
541.657	7.30055
541.857	8.14089
542.057	6.43269
542.257	6.23334
542.458	6.89697
542.658	6.7465
542.858	5.11115
543.058	6.42491
543.258	6.1035
543.458	4.94305
543.659	4.72929
543.859	6.22967
544.059	6.25464
544.259	5.52688
544.459	6.51213
544.659	5.34356
544.859	6.13021
545.059	5.33671
545.259	6.34668
545.459	5.90616
545.659	6.49213
545.859	5.68163
546.059	5.86633
546.259	5.14517
546.459	4.58897
546.659	4.83643
546.859	6.37902
547.059	5.86961
547.258	6.21603
547.458	6.23703
547.658	4.91237
547.858	4.95721
548.058	6.21034
548.258	5.75168
548.457	5.26391
548.657	8.49948
548.857	5.72388
549.057	6.87881
549.256	6.57176
549.456	5.92086
549.656	4.3114
549.855	8.0072
550.055	5.97124
550.255	7.99822
550.454	6.69276
550.654	7.20947
550.853	7.50061
551.053	7.23557
551.253	6.7471
551.452	6.68787
551.652	5.22194
551.851	4.73708
552.051	5.81151
552.25	5.53178
552.45	5.34233
552.649	5.73823
552.849	5.44258
553.048	6.28386
553.248	6.77357
553.447	5.25506
553.646	7.14541
553.846	8.11167
554.045	7.58276
554.244	5.0957
554.444	8.12187
554.643	5.44738
554.842	8.03808
555.042	8.77267
555.241	5.92119
555.44	5.43575
555.64	6.93248
555.839	8.48092
556.038	7.26029
556.237	5.81828
556.436	6.30514
556.636	6.81871
556.835	5.74085
557.034	8.19387
557.233	6.60758
557.432	5.26549
557.631	7.88856
557.83	6.45383
558.029	5.90726
558.228	6.27171
558.427	5.50863
558.626	7.01946
558.825	5.66904
559.024	6.89195
559.223	8.83719
559.422	6.48641
559.621	7.35834
559.82	4.14703
560.019	6.66138
560.218	6.20461
560.417	3.7613
560.616	5.99695
560.815	10.38643
561.014	5.02597
561.212	8.01941
561.411	6.62176
561.61	5.06106
561.809	6.37711
562.008	8.25212
562.206	6.49281
562.405	7.25651
562.604	6.6413
562.803	7.04738
563.001	6.60502
563.2	5.18803
563.399	7.49449
563.597	5.61429
563.796	7.05161
563.995	5.47449
564.193	7.5926
564.392	6.32145
564.59	9.3271
564.789	4.77758
564.988	6.33318
565.186	6.9088
565.385	6.5254
565.583	6.35439
565.782	6.58304
565.98	6.31783
566.179	6.57689
566.377	5.39473
566.575	5.81385
566.774	7.88353
566.972	7.73291
567.171	8.94124
567.369	8.19987
567.567	6.9636
567.766	7.14714
567.964	4.47063
568.162	7.57178
568.361	8.44073
568.559	6.68826
568.757	7.17891
568.956	7.05857
569.154	6.80376
569.352	8.01372
569.55	6.9539
569.748	6.99694
569.947	6.01934
570.145	6.05922
570.343	5.92327
570.541	8.07759
570.739	5.71209
570.937	7.06858
571.135	7.33248
571.333	9.00262
571.532	8.83908
571.73	7.34434
571.928	7.78349
572.126	7.54606
572.324	6.64462
572.522	8.43701
572.72	10.08499
572.918	7.16311
573.116	7.56919
573.313	7.04357
573.511	6.9944
573.709	6.62407
573.907	8.0317
574.105	6.82925
574.303	5.34185
574.501	5.73639
574.699	7.63232
574.896	7.60924
575.094	7.86934
575.292	5.8056
575.49	8.21768
575.688	7.34408
575.885	8.98721
576.083	9.58565
576.281	7.93782
576.478	6.59824
576.676	8.38835
576.874	6.21963
577.071	7.14915
577.269	10.49618
577.467	7.29138
577.664	7.58276
577.862	8.39071
578.059	6.83214
578.257	8.52677
578.455	7.53771
578.652	7.76675
578.85	5.48656
579.047	8.08189
579.245	7.62994
579.442	7.50615
579.64	7.83641
579.837	5.35385
580.034	11.2114
580.232	7.46466
580.429	6.5119
580.627	8.78068
580.824	9.60341
581.021	8.45739
581.219	7.27469
581.416	6.69328
581.613	9.63252
581.811	10.07629
582.008	6.71288
582.205	8.91769
582.402	8.38834
582.6	10.17711
582.797	8.42469
582.994	9.02714
583.191	9.03178
583.388	8.48579
583.586	9.30002
583.783	9.59145
583.98	7.08913
584.177	8.53277
584.374	4.30563
584.571	8.16097
584.768	8.04325
584.965	7.98002
585.162	9.30699
585.359	10.6467
585.556	8.42188
585.753	8.86289
585.95	6.57642
586.147	7.02096
586.344	9.18878
586.541	7.85738
586.738	6.70281
586.935	8.28943
587.132	7.37959
587.329	9.94571
587.526	8.08334
587.722	15.54353
587.919	6.50449
588.116	8.86037
588.313	10.48359
588.51	11.46773
588.706	8.22681
588.903	9.14996
589.1	9.50596
589.297	12.24144
589.493	8.21913
589.69	9.01196
589.887	7.63256
590.083	6.63415
590.28	7.5047
590.477	9.68945
590.673	9.39889
590.87	10.51751
591.067	7.92093
591.263	9.3004
591.46	9.15577
591.656	8.50179
591.853	10.53316
592.049	7.40172
592.246	7.87022
592.442	10.76288
592.639	10.0588
592.835	7.28223
593.032	9.32177
593.228	6.36469
593.425	6.54898
593.621	6.42266
593.817	8.80591
594.014	7.61715
594.21	8.73735
594.406	9.845
594.603	9.16371
594.799	8.01412
594.995	5.26394
595.192	10.14931
595.388	8.0564
595.584	7.99297
595.78	6.34647
595.977	11.51017
596.173	10.86694
596.369	8.09035
596.565	7.25104
596.761	6.65146
596.957	10.04397
597.154	7.33782
597.35	7.77394
597.546	7.15891
597.742	9.16998
597.938	9.06126
598.134	7.34334
598.33	9.06218
598.526	11.28074
598.722	9.53419
598.918	11.44705
599.114	9.89904
599.31	7.74738
599.506	8.95615
599.702	7.70233
599.898	9.34358
600.094	10.89634
600.29	10.2842
600.485	10.38083
600.681	8.16248
600.877	12.18585
601.073	9.02316
601.269	11.82913
601.465	11.01449
601.66	7.69651
601.856	6.61629
602.052	11.17413
602.248	8.24226
602.443	5.77664
602.639	6.87792
602.835	7.48916
603.03	7.61066
603.226	10.01011
603.422	7.35765
603.617	8.32937
603.813	8.30127
604.009	7.88284
604.204	10.12482
604.4	6.5162
604.595	9.82004
604.791	7.38759
604.986	8.81617
605.182	7.27949
605.377	8.05975
605.573	7.80127
605.768	8.87599
605.964	9.69889
606.159	10.07977
606.355	11.01357
606.55	8.55528
606.746	10.47886
606.941	8.91327
607.136	12.37779
607.332	13.82283
607.527	6.76711
607.722	9.65246
607.918	9.09509
608.113	7.87015
608.308	10.23683
608.503	9.94249
608.699	9.39965
608.894	9.45334
609.089	7.82167
609.284	9.40776
609.479	8.11784
609.675	9.95828
609.87	8.44849
610.065	9.8986
610.26	10.42817
610.455	10.39119
610.65	8.98475
610.845	9.37494
611.04	10.70253
611.235	9.41107
611.43	8.66533
611.625	7.37467
611.82	12.00876
612.015	7.93071
612.21	12.33344
612.405	7.01845
612.6	13.0072
612.795	12.08741
612.99	10.91357
613.185	7.71103
613.38	8.18568
613.575	10.05449
613.77	14.2721
613.965	6.82166
614.159	8.27273
614.354	11.87789
614.549	11.7936
614.744	10.99198
614.938	7.95737
615.133	7.41116
615.328	12.32415
615.523	11.96664
615.717	15.40966
615.912	8.85452
616.107	10.26096
616.301	9.45414
616.496	8.34016
616.691	13.30123
616.885	11.47684
617.08	15.20078
617.274	12.29103
617.469	14.49086
617.664	11.61518
617.858	8.98053
618.053	10.78193
618.247	9.73762
618.442	5.95795
618.636	12.94297
618.831	9.52443
619.025	9.24067
619.219	15.31168
619.414	4.24997
619.608	10.30241
619.803	8.65772
619.997	14.59065
620.191	12.67027
620.386	11.23739
620.58	10.70587
620.774	7.13888
620.969	7.40306
621.163	10.57333
621.357	8.17095
621.551	9.59117
621.746	10.34189
621.94	10.19093
622.134	17.65966
622.328	14.90508
622.522	7.35258
622.716	12.37153
622.911	12.48891
623.105	11.92633
623.299	11.07342
623.493	17.28141
623.687	8.38032
623.881	9.66444
624.075	11.74397
624.269	13.13965
624.463	6.68128
624.657	7.16284
624.851	11.73186
625.045	12.42693
625.239	12.46422
625.433	9.03798
625.627	13.45286
625.821	9.11202
626.015	8.81648
626.209	10.25283
626.403	7.34253
626.596	11.02839
626.79	11.67501
626.984	7.88595
627.178	11.21056
627.372	11.00277
627.565	11.88258
627.759	7.06635
627.953	7.6398
628.147	11.10097
628.34	11.65341
628.534	14.64069
628.728	10.03671
628.921	12.36299
629.115	11.99338
629.309	12.30891
629.502	12.61527
629.696	11.30106
629.89	10.49437
630.083	11.33103
630.277	11.79667
630.47	14.57543
630.664	10.35563
630.857	8.03429
631.051	12.70277
631.244	13.70401
631.438	12.82338
631.631	8.93208
631.825	13.83896
632.018	12.4142
632.212	15.14794
632.405	13.77969
632.598	9.59749
632.792	11.0938
632.985	5.72581
633.178	10.02453
633.372	10.97843
633.565	10.95284
633.758	13.82084
633.952	8.85194
634.145	8.6378
634.338	10.03086
634.531	10.55367
634.724	9.57028
634.918	11.76495
635.111	10.55357
635.304	9.92018
635.497	16.44213
635.69	11.90705
635.883	14.20549
636.077	8.4956
636.27	12.42055
636.463	11.72043
636.656	12.22951
636.849	10.51911
637.042	12.2987
637.235	15.53562
637.428	13.53756
637.621	12.78947
637.814	15.21541
638.007	15.67207
638.2	15.4951
638.393	16.72831
638.586	8.99699
638.778	10.47106
638.971	11.69216
639.164	15.5581
639.357	13.02708
639.55	15.58142
639.743	14.16308
639.935	13.99321
640.128	16.83095
640.321	14.62397
640.514	12.93787
640.707	18.36157
640.899	14.54698
641.092	7.51147
641.285	32.37887
641.477	6.6599
641.67	18.81938
641.863	16.2886
642.055	13.39163
642.248	12.60189
642.441	11.96323
642.633	14.30615
642.826	15.90424
643.018	16.59796
643.211	17.69478
643.403	17.55019
643.596	18.88014
643.788	17.59582
643.981	12.08377
644.173	15.30272
644.366	12.12261
644.558	8.20965
644.751	15.47977
644.943	8.53802
645.135	18.47416
645.328	18.80903
645.52	15.38905
645.712	15.93934
645.905	22.50237
646.097	10.2027
646.289	14.38573
646.482	18.89232
646.674	11.81234
646.866	16.67947
647.058	14.94191
647.251	10.4855
647.443	11.88907
647.635	12.66591
647.827	10.11663
648.019	10.82519
648.211	13.41189
648.404	13.80987
648.596	18.01745
648.788	13.75852
648.98	14.40768
649.172	14.86286
649.364	14.41811
649.556	7.97104
649.748	20.69858
649.94	10.73721
650.132	14.66647
650.324	10.66668
650.516	11.91216
650.708	16.69708
650.9	9.37799
651.092	8.73491
651.284	9.098
651.476	10.5818
651.667	15.33127
651.859	17.20375
652.051	13.33316
652.243	14.30902
652.435	11.90298
652.627	15.5309
652.818	15.21657
653.01	8.50803
653.202	11.16961
653.394	13.13142
653.585	15.77273
653.777	27.34271
653.969	17.80875
654.16	17.67405
654.352	11.41505
654.544	13.63825
654.735	17.27147
654.927	14.53542
655.118	19.05455
655.31	16.53847
655.502	17.3213
655.693	11.86991
655.885	15.82556
656.076	18.76367
656.268	14.31127
656.459	18.32268
656.651	19.43104
656.842	12.3878
657.034	11.59028
657.225	16.37975
657.416	18.73209
657.608	17.75886
657.799	13.91306
657.99	16.53985
658.182	11.22263
658.373	11.57167
658.564	15.93862
658.756	14.03943
658.947	13.22456
659.138	10.33368
659.33	11.6157
659.521	10.84185
659.712	12.74407
659.903	13.11386
660.094	11.68785
660.286	8.95707
660.477	19.22555
660.668	14.97757
660.859	13.70856
661.05	9.48242
661.241	16.15313
661.432	15.9611
661.623	13.63578
661.814	12.6524
662.006	9.53972
662.197	15.38946
662.388	19.05487
662.579	14.92189
662.77	19.55854
662.96	24.59727
663.151	17.80142
663.342	9.39013
663.533	17.15362
663.724	15.11852
663.915	21.10747
664.106	15.45075
664.297	21.43435
664.488	18.16278
664.678	13.60358
664.869	17.31766
665.06	19.40314
665.251	16.03534
665.442	16.40508
665.632	12.23849
665.823	22.07699
666.014	5.49483
666.204	17.67242
666.395	20.44067
666.586	26.58788
666.776	19.33915
666.967	22.38999
667.158	15.73215
667.348	21.8252
667.539	12.36861
667.729	18.78588
667.92	13.06809
668.111	19.75412
668.301	17.32719
668.492	14.41196
668.682	15.03244
668.873	14.05065
669.063	11.81922
669.253	15.96073
669.444	20.07031
669.634	15.1832
669.825	23.10517
670.015	20.45373
670.206	12.44301
670.396	24.25591
670.586	15.36066
670.777	18.86494
670.967	8.82172
671.157	16.30734
671.347	13.10544
671.538	22.09043
671.728	17.78782
671.918	23.36128
672.108	20.31424
672.299	16.13733
672.489	18.40731
672.679	13.7919
672.869	19.88915
673.059	23.30691
673.249	19.48791
673.44	13.36419
673.63	16.21963
673.82	20.49509
674.01	13.54701
674.2	18.74547
674.39	28.78048
674.58	18.92161
674.77	17.92974
674.96	16.26984
675.15	34.21424
675.34	21.48647
675.53	17.65407
675.72	15.28928
675.91	11.6246
676.099	25.29406
676.289	26.41582
676.479	21.65214
676.669	14.9071
676.859	19.52264
677.049	12.58306
677.238	17.06903
677.428	24.34346
677.618	18.01702
677.808	22.1756
677.997	18.78213
678.187	13.26853
678.377	16.53304
678.567	14.87746
678.756	15.14957
678.946	15.23251
679.136	11.12539
679.325	13.46488
679.515	12.80661
679.704	11.20586
679.894	18.18842
680.084	16.57731
680.273	21.12139
680.463	12.72893
680.652	12.81872
680.842	15.91286
681.031	19.76875
681.221	12.22891
681.41	18.16342
681.6	15.64858
681.789	19.12829
681.978	21.63017
682.168	18.8764
682.357	18.63099
682.547	20.1725
682.736	18.29869
682.925	22.93407
683.115	22.88286
683.304	21.57334
683.493	18.81002
683.682	20.20419
683.872	19.51785
684.061	23.56927
684.25	20.43641
684.439	26.64171
684.629	21.08008
684.818	33.13899
685.007	18.38377
685.196	16.77486
685.385	26.16801
685.574	20.8272
685.763	20.81745
685.952	19.18416
686.142	13.2133
686.331	25.79005
686.52	10.93024
686.709	26.66778
686.898	25.94455
687.087	21.90584
687.276	26.51285
687.465	23.35887
687.654	16.52861
687.842	25.85182
688.031	13.15245
688.22	25.15451
688.409	20.27939
688.598	20.47141
688.787	30.75546
688.976	20.00589
689.165	28.22947
689.353	17.38772
689.542	22.15856
689.731	23.94141
689.92	29.06845
690.108	24.68761
690.297	18.64467
690.486	21.18365
690.675	24.19987
690.863	29.53656
691.052	28.7899
691.241	22.75003
691.429	22.09348
691.618	28.12051
691.806	14.78116
691.995	19.55469
692.184	21.00612
692.372	18.12098
692.561	22.63379
692.749	21.47446
692.938	34.05724
693.126	23.81264
693.315	18.76794
693.503	23.93563
693.692	24.70459
693.88	26.66362
694.068	33.30436
694.257	20.74214
694.445	23.58975
694.634	11.60627
694.822	27.46617
695.01	28.12425
695.199	29.98961
695.387	30.34944
695.575	27.94198
695.763	22.49111
695.952	19.75004
696.14	13.72546
696.328	19.40778
696.516	21.64904
696.705	23.87948
696.893	23.10302
697.081	12.31775
697.269	24.00201
697.457	15.4883
697.645	14.29077
697.833	23.6349
698.021	15.16348
698.21	17.24249
698.398	18.65126
698.586	13.85339
698.774	12.17802
698.962	17.86009
699.15	14.32241
699.338	11.81444
699.526	21.64781
699.714	15.69351
699.901	16.97618
700.089	24.98882
700.277	16.61279
700.465	19.92883
700.653	24.63725
700.841	22.96901
701.029	17.08836
701.217	28.4842
701.404	23.1392
701.592	28.7905
701.78	33.27489
701.968	19.19653
702.155	20.6677
702.343	14.12658
702.531	30.07572
702.718	24.83128
702.906	20.81029
703.094	18.54942
703.281	30.72621
703.469	21.86366
703.657	29.09576
703.844	43.2569
704.032	33.84525
704.219	19.78314
704.407	25.42762
704.595	31.65212
704.782	25.6058
704.97	20.71218
705.157	19.5506
705.345	33.71421
705.532	40.05348
705.719	26.93082
705.907	32.79747
706.094	25.94334
706.282	35.33245
706.469	22.04688
706.656	24.77492
706.844	22.62902
707.031	30.6541
707.218	25.22064
707.406	34.66484
707.593	28.32503
707.78	28.93157
707.968	23.60013
708.155	18.24853
708.342	29.32947
708.529	29.45463
708.716	25.8973
708.904	37.3406
709.091	30.01198
709.278	18.90287
709.465	37.10969
709.652	37.62547
709.839	34.65455
710.026	27.14659
710.213	15.31311
710.4	27.79431
710.587	32.15213
710.774	33.67665
710.961	33.13072
711.148	26.25789
711.335	34.25406
711.522	25.51547
711.709	27.49066
711.896	39.4363
712.083	32.24352
712.27	21.5023
712.457	27.54835
712.644	17.46002
712.831	40.37809
713.017	26.93937
713.204	31.93542
713.391	21.84381
713.578	34.75714
713.765	36.12294
713.951	30.26297
714.138	49.50928
714.325	31.285
714.512	28.25977
714.698	23.37438
714.885	38.21925
715.072	28.91374
715.258	28.512
715.445	23.58092
715.631	36.17482
715.818	12.10982
716.005	23.96821
716.191	32.28002
716.378	26.47682
716.564	34.99558
716.751	23.14118
716.937	24.4782
717.124	37.59781
717.31	23.56932
717.497	40.41424
717.683	24.11992
717.869	46.07174
718.056	26.52629
718.242	32.90511
718.429	28.63693
718.615	21.22375
718.801	29.62816
718.988	37.19381
719.174	33.0565
719.36	29.30905
719.547	39.58051
719.733	31.70882
719.919	33.65511
720.105	36.32823
720.291	29.34782
720.478	32.80357
720.664	29.05617
720.85	27.90829
721.036	55.06554
721.222	43.10494
721.408	32.01833
721.595	48.0586
721.781	44.92721
721.967	40.20164
722.153	44.86419
722.339	37.02348
722.525	34.92527
722.711	26.2863
722.897	20.89635
723.083	29.13913
723.269	40.87114
723.455	53.41757
723.641	57.1525
723.827	33.74843
724.012	35.84257
724.198	29.82147
724.384	44.73423
724.57	36.19486
724.756	21.31294
724.942	17.45358
725.127	40.88848
725.313	45.35496
725.499	43.38357
725.685	47.9751
725.87	36.51548
726.056	26.53733
726.242	44.31936
726.428	22.67141
726.613	42.35442
726.799	30.57575
726.985	25.21319
727.17	20.89436
727.356	48.42344
727.541	25.08014
727.727	32.20536
727.913	40.10155
728.098	28.64055
728.284	40.63939
728.469	22.91142
728.655	27.66015
728.84	41.23089
729.026	39.26549
729.211	39.25863
729.397	35.81387
729.582	39.65632
729.767	33.0442
729.953	35.7857
730.138	42.39323
730.323	15.38858
730.509	23.36491
730.694	47.13199
730.879	36.47975
731.065	34.19208
731.25	54.46151
731.435	39.53525
731.621	21.68948
731.806	28.32745
731.991	36.77788
732.176	21.29923
732.361	45.07341
732.547	36.19033
732.732	20.44248
732.917	55.19299
733.102	23.7762
733.287	28.22762
733.472	34.25212
733.657	37.13909
733.842	22.46282
734.027	32.55948
734.212	34.33394
734.397	27.95733
734.582	36.28565
734.767	44.07742
734.952	49.47015
735.137	14.3008
735.322	49.66495
735.507	39.63856
735.692	37.71103
735.877	57.48574
736.062	53.09574
736.247	41.24291
736.431	35.14884
736.616	47.40403
736.801	39.62915
736.986	36.34607
737.171	28.65273
737.355	24.57901
737.54	48.72321
737.725	35.77422
737.909	63.64694
738.094	30.052
738.279	45.74823
738.463	34.37541
738.648	43.75597
738.833	39.77744
739.017	54.91159
739.202	34.56021
739.386	37.6187
739.571	28.96013
739.756	44.10792
739.94	37.1205
740.125	47.03054
740.309	29.57104
740.494	47.19044
740.678	39.93771
740.863	41.62506
741.047	39.06607
741.231	50.98306
741.416	28.8488
741.6	55.86232
741.785	31.82479
741.969	45.53263
742.153	51.75881
742.338	17.05296
742.522	37.9716
742.706	46.32681
742.89	24.1876
743.075	38.67521
743.259	54.66026
743.443	48.66742
743.627	52.16306
743.812	63.82525
743.996	22.29904
744.18	35.25336
744.364	35.23463
744.548	67.63523
744.732	37.95129
744.916	48.60887
745.1	44.56673
745.285	37.72514
745.469	43.51206
745.653	61.25135
745.837	24.1218
746.021	67.47413
746.205	52.9388
746.389	41.86155
746.573	37.7317
746.757	59.67498
746.94	34.33384
747.124	55.03606
747.308	26.35365
747.492	53.50716
747.676	32.00089
747.86	68.27718
748.044	35.24907
748.227	21.45521
748.411	83.69222
748.595	42.37974
748.779	31.43127
748.963	45.65007
749.146	42.17186
749.33	31.69812
749.514	30.3819
749.697	55.48471
749.881	34.05959
750.065	28.69054
750.248	43.71037
750.432	69.37464
750.616	40.18658
750.799	28.29281
750.983	67.92983
751.166	76.29756
751.35	23.77824
751.533	48.5086
751.717	56.48003
751.9	60.40383
752.084	38.20876
752.267	30.67349
752.451	34.61729
752.634	42.25842
752.818	46.97369
753.001	53.69093
753.184	54.76874
753.368	45.56749
753.551	7.89717
753.734	33.9492
753.918	67.14589
754.101	32.90771
754.284	50.3185
754.467	36.10904
754.651	32.95389
754.834	33.63637
755.017	56.7442
755.2	54.86138
755.384	29.24929
755.567	51.52681
755.75	58.10697
755.933	38.89308
756.116	46.2347
756.299	39.17846
756.482	31.33206
756.665	49.98539
756.848	43.90999
757.032	46.18569
757.215	26.38063
757.398	34.9088
757.581	32.78779
757.764	76.62556
757.947	41.23015
758.129	56.72617
758.312	11.98969
758.495	41.42973
758.678	39.68917
758.861	39.86155
759.044	65.0089
759.227	32.87616
759.41	33.65122
759.592	49.58149
759.775	40.69512
759.958	53.65924
760.141	25.46585
760.324	73.50636
760.506	62.27754
760.689	54.10826
760.872	75.61635
761.054	51.49284
761.237	39.41336
761.42	46.97464
761.602	52.92169
761.785	48.23416
761.968	56.765
762.15	66.92772
762.333	40.08185
762.515	46.49856
762.698	34.75371
762.88	51.2087
763.063	46.92015
763.245	48.82074
763.428	30.17385
763.61	33.43163
763.793	26.14214
763.975	41.33693
764.158	35.42531
764.34	34.96386
764.522	28.89723
764.705	38.91375
764.887	57.56665
765.069	25.07024
765.252	51.7672
765.434	54.93232
765.616	42.97165
765.799	36.38613
765.981	54.35322
766.163	32.66819
766.345	56.48731
766.528	35.84006
766.71	14.59462
766.892	46.39873
767.074	61.99279
767.256	39.24775
767.438	67.97863
767.62	49.55863
767.802	75.28679
767.985	53.94584
768.167	74.78015
768.349	37.32572
768.531	53.82345
768.713	49.73224
768.895	60.25827
769.077	52.49819
769.259	84.86589
769.441	121.36315
769.623	62.11014
769.804	73.64721
769.986	69.36393
770.168	88.0874
770.35	104.70222
770.532	74.92102
770.714	77.24845
770.896	86.69486
771.077	34.91014
771.259	85.19805
771.441	74.55771
771.623	92.69908
771.804	113.29356
771.986	34.03883
772.168	51.60085
772.35	91.3505
772.531	118.69338
772.713	69.13378
772.894	96.22476
773.076	64.808
773.258	57.45602
773.439	96.79173
773.621	102.94416
773.802	45.05827
773.984	54.84017
774.166	75.26476
774.347	100.58205
774.529	90.77333
774.71	26.29862
774.891	62.26467
775.073	59.48998
775.254	103.6757
775.436	57.03875
775.617	110.73352
775.799	60.36581
775.98	106.406
776.161	109.7086
776.343	106.77206
776.524	62.3172
776.705	62.01548
776.886	29.17771
777.068	71.21641
777.249	129.61402
777.43	116.50947
777.611	45.91191
777.793	63.4441
777.974	108.88476
778.155	61.69731
778.336	50.06478
778.517	120.78294
778.698	53.34577
778.879	28.52164
779.061	14.55617
779.242	79.75591
779.423	78.8674
779.604	56.62122
779.785	67.63396
779.966	73.11137
780.147	94.86238
780.328	95.02018
780.509	134.96809
780.69	82.35618
780.871	51.99386
781.051	42.70662
781.232	72.81596
781.413	74.79505
781.594	62.72224
781.775	58.61793
781.956	52.92538
782.137	29.54628
782.317	57.90158
782.498	77.32181
782.679	68.93941
782.86	75.995
783.04	51.53799
783.221	78.37829
783.402	114.99463
783.583	74.13087
783.763	89.77362
783.944	61.1282
784.124	37.44751
784.305	114.05022
784.486	83.93606
784.666	68.33846
784.847	38.45679
785.027	132.40676
785.208	53.08724
785.388	50.6676
785.569	56.42758
785.749	64.21743
785.93	56.8943
786.11	39.00745
786.291	79.77743
786.471	75.47556
786.652	90.57562
786.832	66.71487
787.012	78.90898
787.193	42.98356
787.373	72.8402
787.553	57.07485
787.734	77.06284
787.914	62.08085
788.094	83.0022
788.275	74.65741
788.455	62.97563
788.635	40.36348
788.815	76.2655
788.995	47.78317
789.176	36.84961
789.356	50.53096
789.536	64.57413
789.716	84.54138
789.896	55.13996
790.076	60.53299
790.256	71.69838
790.436	23.30358
790.616	51.56581
790.796	74.05665
790.976	61.61305
791.156	54.15534
791.336	89.69027
791.516	76.36767
791.696	63.59829
791.876	34.58332
792.056	73.63551
792.236	89.00942
792.416	87.00516
792.596	78.71084
792.776	81.15097
792.956	84.60347
793.135	103.1452
793.315	45.99255
793.495	101.5265
793.675	83.4602
793.854	90.97872
794.034	92.37885
794.214	43.96189
794.394	90.22058
794.573	98.40725
794.753	72.51104
794.933	48.42509
795.112	74.29766
795.292	90.43842
795.472	117.84278
795.651	44.55815
795.831	67.1831
796.01	62.44463
796.19	63.41944
796.369	62.3633
796.549	78.56674
796.728	66.92748
796.908	40.11825
797.087	48.69876
797.267	62.02273
797.446	42.96422
797.626	82.40288
797.805	80.4245
797.984	50.40896
798.164	86.01456
798.343	46.0054
798.522	75.71486
798.702	69.94549
798.881	42.8301
799.06	65.52828
799.239	25.69019
799.419	52.91612
799.598	105.18598
799.777	83.13742
799.956	103.17698
800.136	61.3173
800.315	52.97543
800.494	80.31166
800.673	92.54007
800.852	84.84843
801.031	94.20895
801.21	86.76362
801.389	60.87937
801.568	75.52394
801.747	115.47
801.926	69.48794
802.105	108.8185
802.284	56.23613
802.463	107.418
802.642	75.55193
802.821	76.60328
803	102.39981
803.179	87.58459
803.358	99.41025
803.537	54.09286
803.716	77.51014
803.895	70.31028
804.073	64.07099
804.252	58.40277
804.431	80.80987
804.61	66.99362
804.789	95.04432
804.967	56.62068
805.146	59.63068
805.325	113.79992
805.503	83.48924
805.682	38.54492
805.861	135.81324
806.039	100.1628
806.218	53.90285
806.397	75.75965
806.575	72.30548
806.754	78.89215
806.932	48.87162
807.111	108.06153
807.289	93.86234
807.468	73.57898
807.646	97.33037
807.825	85.2668
808.003	80.93148
808.182	99.23873
808.36	75.8699
808.539	51.89106
808.717	112.90904
808.895	53.32788
809.074	79.10231
809.252	67.46154
809.43	88.56218
809.609	100.63405
809.787	119.14676
809.965	66.79877
810.144	76.19899
810.322	66.43447
810.5	84.91009
810.678	61.57458
810.856	132.59897
811.035	105.56889
811.213	85.97048
811.391	104.60535
811.569	77.08624
811.747	147.33915
811.925	104.71348
812.103	57.14957
812.281	64.91619
812.459	123.96445
812.637	130.83166
812.816	99.81447
812.994	126.41809
813.171	107.79304
813.349	90.6929
813.527	108.14493
813.705	111.60627
813.883	141.33367
814.061	105.9523
814.239	132.15929
814.417	135.37214
814.595	91.62321
814.773	88.84524
814.95	88.74069
815.128	90.41662
815.306	81.0289
815.484	73.59752
815.662	60.74455
815.839	50.95048
816.017	61.03388
816.195	109.42916
816.372	72.16005
816.55	97.65385
816.728	112.28035
816.905	73.95855
817.083	127.39281
817.261	74.54369
817.438	142.22
817.616	129.06267
817.793	65.63313
817.971	103.45832
818.148	93.21872
818.326	116.48782
818.503	84.87112
818.681	114.95537
818.858	64.02196
819.036	75.24258
819.213	88.11364
819.391	60.13177
819.568	55.66038
819.745	55.17545
819.923	95.02924
820.1	61.04818
820.277	54.55566
820.455	60.31052
820.632	67.56061
820.809	66.73183
820.986	42.33896
821.164	33.60774
821.341	29.75874
821.518	40.2653
821.695	28.16971
821.872	26.53135
822.05	22.2814
822.227	17.43341
822.404	18.45124
822.581	22.68944
822.758	18.19379
822.935	18.54149
823.112	22.36934
823.289	17.29803
823.466	23.08679
823.643	21.48755
823.82	27.70423
823.997	24.7395
824.174	31.22009
824.351	43.28076
824.528	39.80236
824.705	35.13325
824.882	41.89382
825.059	54.99653
825.236	35.79434
825.412	37.96798
825.589	47.65281
825.766	67.0816
825.943	39.88019
826.12	47.31344
826.296	30.99624
826.473	39.19867
826.65	38.37189
826.827	49.73589
827.003	31.63078
827.18	34.61089
827.357	40.89931
827.533	36.05796
827.71	19.34856
827.887	31.12599
828.063	37.88402
828.24	32.53117
828.416	48.16272
828.593	39.12523
828.769	56.32364
828.946	68.5091
829.122	68.76456
829.299	64.44754
829.475	35.33016
829.652	63.43636
829.828	106.24638
830.005	64.39908
830.181	90.89476
830.357	62.10843
830.534	94.9955
830.71	67.01242
830.886	87.31901
831.063	85.55989
831.239	107.94243
831.415	43.5533
831.592	110.81306
831.768	70.07559
831.944	55.3845
832.12	106.49705
832.296	102.97308
832.473	86.55777
832.649	59.92126
832.825	82.48009
833.001	47.44971
833.177	72.10665
833.353	61.47887
833.529	34.31139
833.705	52.49608
833.881	38.1999
834.058	36.47286
834.234	40.83934
834.41	40.76616
834.586	31.09637
834.761	41.50212
834.937	46.22595
835.113	51.14083
835.289	44.69487
835.465	55.24555
835.641	49.15918
835.817	58.03361
835.993	99.69513
836.169	46.77301
836.344	72.75603
836.52	84.94912
836.696	81.29715
836.872	59.56277
837.048	168.60844
837.223	68.35185
837.399	145.2733
837.575	108.82347
837.75	95.54816
837.926	132.07786
838.102	207.44255
838.277	168.26486
838.453	200.58419
838.628	193.18386
838.804	89.66823
838.98	201.20487
839.155	91.59744
839.331	129.16634
839.506	88.99864
839.682	91.80994
839.857	112.55534
840.033	133.60086
840.208	64.21663
840.384	33.88064
840.559	70.60213
840.734	109.15669
840.91	148.64548
841.085	95.55313
841.26	94.81314
841.436	89.3618
841.611	80.58766
841.786	136.13287
841.962	173.18349
842.137	107.1713
842.312	61.28863
842.487	99.27955
842.663	80.80662
842.838	88.36024
843.013	281.71844
843.188	142.51789
843.363	157.76985
843.538	260.19364
843.714	262.10278
843.889	254.24491
844.064	267.03419
844.239	222.79971
844.414	269.19288
844.589	183.90233
844.764	312.93993
844.939	272.68322
845.114	361.90754
845.289	324.50329
845.464	354.14041
845.639	278.35643
845.814	158.8566
845.989	179.07453
846.163	183.79993
846.338	229.16591
846.513	330.67632
846.688	217.72681
846.863	216.95525
847.038	188.35473
847.212	206.56508
847.387	218.01882
847.562	229.94862
847.737	245.08651
847.911	111.4874
848.086	130.81098
848.261	428.19624
848.435	206.7143
848.61	311.03119
848.785	137.43576
848.959	273.79781
849.134	368.68766
849.308	504.75449
849.483	220.10059
849.658	333.61844
849.832	206.45587
850.007	178.82055
850.181	411.80327
850.356	160.17405
850.53	366.07399
850.705	149.43731
850.879	91.27754
851.053	233.4809
851.228	191.33884
851.402	275.89982
851.577	332.26521
851.751	316.82704
851.925	228.10019
852.099	95.87227
852.274	164.17876
852.448	213.70632
852.622	274.0611
852.797	218.56112
852.971	219.03563
853.145	263.65265
853.319	452.52051
853.493	347.95005
853.668	214.29379
853.842	391.08174
854.016	317.34949
854.19	407.93758
854.364	263.84384
854.538	276.59321
854.712	348.07802
854.886	243.84556
855.06	192.70471
855.234	73.37293
855.408	375.83611
855.582	334.88767
855.756	321.44141
855.93	386.47423
856.104	282.19334
856.278	311.22771
856.452	244.13598
856.626	277.94605
856.8	447.21563
856.973	281.81726
857.147	272.65304
857.321	270.99778
857.495	341.5735
857.669	233.47052
857.842	216.17179
858.016	355.57532
858.19	155.75313
858.364	585.30451
858.537	217.01477
858.711	238.69
858.885	192.61097
859.058	171.08281
859.232	120.23213
859.405	117.43811
859.579	337.25236
859.753	254.75987
859.926	179.83761
860.1	113.59919
860.273	226.96848
860.447	426.31622
860.62	214.63812
860.794	440.41615
860.967	239.95888
861.141	338.25852
861.314	484.64259
861.487	278.01646
861.661	358.78709
861.834	419.82961
862.008	320.63972
862.181	251.16631
862.354	257.8765
862.528	310.0239
862.701	174.55076
862.874	130.2635
863.047	199.55817
863.221	216.14959
863.394	101.02991
863.567	335.78693
863.74	69.58568
863.913	341.48052
864.087	279.14639
864.26	302.0892
864.433	215.92287
864.606	468.84933
864.779	247.01087
864.952	119.71618
865.125	186.7857
865.298	224.48466
865.471	237.92777
865.644	413.78769
865.817	342.64997
865.99	311.8814
866.163	373.7624
866.336	194.74921
866.509	217.67032
866.682	189.50392
866.855	324.19594
867.028	133.0683
867.2	292.38788
867.373	71.88769
867.546	244.88609
867.719	428.12568
867.892	247.43228
868.064	155.09389
868.237	263.0288
868.41	264.65028
868.583	119.05187
868.755	140.58937
868.928	204.53975
869.101	456.23611
869.273	316.80638
869.446	260.62226
869.619	356.01721
869.791	223.31996
869.964	327.30554
870.136	319.96278
870.309	258.94736
870.481	250.73557
870.654	123.96448
870.826	239.2372
870.999	214.47732
871.171	292.19366
871.344	177.3196
871.516	201.7146
871.689	169.21393
871.861	237.53731
872.033	181.39333
872.206	217.29664
872.378	313.141
872.55	213.17288
872.723	143.27008
872.895	182.79675
873.067	331.04935
873.24	298.43972
873.412	181.05961
873.584	229.40895
873.756	196.62209
873.928	261.71353
874.101	257.55646
874.273	253.03353
874.445	100.25429
874.617	126.1722
874.789	232.19484
874.961	203.38214
875.133	266.57449
875.305	228.73914
875.477	148.23473
875.649	108.92844
875.821	149.22541
875.993	341.73568
876.165	159.76895
876.337	233.71639
876.509	219.32846
876.681	235.23936
876.853	262.87027
877.025	249.66731
877.197	172.73113
877.369	142.28156
877.541	281.3048
877.712	74.91131
877.884	131.3822
878.056	233.5098
878.228	132.03875
878.4	258.52766
878.571	135.50689
878.743	98.726
878.915	197.98296
879.086	125.05952
879.258	159.39459
879.43	132.78011
879.601	117.56742
879.773	126.75875
879.945	31.48334
880.116	50.42244
880.288	31.16579
880.459	34.90441
880.631	25.72605
880.802	30.98782
880.974	28.29013
881.145	19.89745
881.317	26.90173
881.488	19.67603
881.66	23.25921
881.831	20.57754
882.002	31.01579
882.174	20.91065
882.345	29.48626
882.517	13.54649
882.688	38.83896
882.859	30.4505
883.03	53.20735
883.202	50.44259
883.373	44.01238
883.544	44.60037
883.715	74.85916
883.887	63.1526
884.058	55.55224
884.229	76.78418
884.4	75.06916
884.571	92.52359
884.742	68.23322
884.914	76.91042
885.085	116.52566
885.256	156.85973
885.427	125.02287
885.598	143.69639
885.769	146.91276
885.94	137.23719
886.111	90.10165
886.282	176.13788
886.453	132.6845
886.624	90.99426
886.795	186.41999
886.966	135.33959
887.136	186.91983
887.307	119.83369
887.478	254.08336
887.649	213.16081
887.82	211.67506
887.991	171.5504
888.161	244.89247
888.332	209.08398
888.503	113.88946
888.674	295.69564
888.844	336.35414
889.015	257.51463
889.186	126.39543
889.356	315.70014
889.527	105.36131
889.698	457.61557
889.868	164.70851
890.039	238.40465
890.209	189.90234
890.38	254.32815
890.551	223.95007
890.721	308.41174
890.892	273.06979
891.062	193.49992
891.233	233.85086
891.403	186.88778
891.574	151.55185
891.744	196.72887
891.914	207.59911
892.085	199.47744
892.255	79.87603
892.425	286.14197
892.596	224.53076
892.766	235.1783
892.936	293.57493
893.107	246.40106
893.277	132.79795
893.447	105.40666
893.618	71.0983
893.788	159.71004
893.958	87.55074
894.128	80.61296
894.298	96.49087
894.468	122.7451
894.639	61.22643
894.809	39.20104
894.979	65.68907
895.149	78.14134
895.319	65.85104
895.489	96.51072
895.659	125.98794
895.829	85.08155
895.999	87.75466
896.169	70.85594
896.339	93.87725
896.509	190.70815
896.679	199.30054
896.849	207.40421
897.019	267.0598
897.189	198.0813
897.358	172.48259
897.528	267.00375
897.698	97.90847
897.868	236.88486
898.038	390.33445
898.208	359.50179
898.377	106.85728
898.547	345.56853
898.717	470.54063
898.886	231.64302
899.056	400.57093
899.226	468.30326
899.395	296.61573
899.565	461.42088
899.735	320.09696
899.904	469.93197
900.074	390.43953
900.244	151.91367
900.413	624.57946
900.583	138.20691
900.752	262.0186
900.922	404.59241
901.091	35.73079
901.261	353.09051
901.43	326.76825
901.599	317.88261
901.769	707.42405
901.938	457.78314
902.108	338.61495
902.277	452.14339
902.446	119.41187
902.616	174.89443
902.785	204.79097
902.954	363.63855
903.124	217.03523
903.293	166.34696
903.462	98.42978
903.631	142.74492
903.801	105.54164
903.97	56.71494
904.139	91.7579
904.308	71.95489
904.477	60.10346
904.646	36.22167
904.816	58.59437
904.985	92.0621
905.154	148.27131
