Data from WindowProjectSample_Transmission__66__00066__08703135383781875.txt Node

Date: Mon May 05 18:34:10 EDT 2025
User: jessi
Spectrometer: SR400872
Trigger mode: 0
Integration Time (sec): 5.000010E-1
Scans to average: 20
Electric dark correction enabled: true
Nonlinearity correction enabled: true
Boxcar width: 0
XAxis mode: Wavelengths
Number of Pixels in Spectrum: 3648
>>>>>Begin Spectral Data<<<<<
184.909	21211.91808
185.132	-5087.49165
185.355	-3157.0832
185.578	-18050.55195
185.801	1851.20302
186.024	10303.91784
186.247	-1805.69525
186.47	1213.09888
186.693	405.58966
186.916	315.49503
187.139	-3786.44934
187.362	3673.50185
187.585	4125.64383
187.808	3579.72224
188.031	-1.3062
188.254	-57249.62279
188.476	-748.63687
188.699	6209.51501
188.922	546.30579
189.145	-15997.51162
189.368	-798.46827
189.591	-1485.02132
189.813	3203.64301
190.036	-52438.73393
190.259	-901.85031
190.482	-4648.6786
190.705	7179.5982
190.927	-2616.78663
191.15	13413.31458
191.373	3342.83435
191.595	-8882.21946
191.818	-4277.32486
192.041	-8345.85097
192.263	-3455.32375
192.486	-833.35403
192.709	-4042.8546
192.931	7859.10386
193.154	-28352.58856
193.377	-2826.3737
193.599	-2636.72832
193.822	-9651.63386
194.044	-2160.60789
194.267	1214.83423
194.489	237.82549
194.712	-44407.1564
194.934	-32138.58299
195.157	1190.36539
195.379	1508.06428
195.602	-7065.03544
195.824	-1391.93195
196.047	-8513.65666
196.269	2781.52973
196.492	-6685.51573
196.714	28817.29564
196.936	-8749.07963
197.159	-1172.08517
197.381	1346.78135
197.604	462.68684
197.826	12450.08259
198.048	-10834.44704
198.271	-2832.82996
198.493	7951.9875
198.715	2323.84199
198.938	-470.67081
199.16	7161.00207
199.382	-103591.73062
199.604	2847.77202
199.827	-1119.9879
200.049	-3044.50671
200.271	14430.20809
200.493	1287.07376
200.715	-39388.6012
200.938	-6167.88511
201.16	-4232.63211
201.382	21285.24534
201.604	2346.57178
201.826	2344.7423
202.048	-2019.32443
202.27	-1992.40567
202.492	-36730.14211
202.715	3014.11585
202.937	-4592.45622
203.159	-6675.1819
203.381	1518.40135
203.603	6729.31928
203.825	7001.23365
204.047	2263.79816
204.269	-2822.55042
204.491	2262.80825
204.713	5811.34526
204.935	-498010.02754
205.156	1219.25675
205.378	-3034.17201
205.6	1652.79303
205.822	159287.83796
206.044	-1140.06594
206.266	1578.44122
206.488	4532.11489
206.71	-5281.66396
206.932	1127.01556
207.153	12255.55927
207.375	-7317.28396
207.597	-38774.06725
207.819	-2969.01307
208.041	2424.49382
208.262	544.33998
208.484	680.41663
208.706	-822.612
208.927	-848.97199
209.149	553.25325
209.371	-3081.29914
209.593	-380.81144
209.814	-783.84662
210.036	607.67195
210.258	-659.4069
210.479	1824.53642
210.701	1711.76915
210.922	3451.08647
211.144	-4410.04804
211.366	2073.76961
211.587	6244.14597
211.809	-8234.72955
212.03	2339.94943
212.252	443.19916
212.473	2189.3281
212.695	-6130.26255
212.916	2999.36403
213.138	-749.61295
213.359	3842.41013
213.581	5264.84469
213.802	-790.90629
214.024	1128.95437
214.245	2261.93719
214.466	1929.12482
214.688	-3169.73865
214.909	-1221.44771
215.131	-1781.48029
215.352	-3084.66883
215.573	14873.36258
215.795	5172.35029
216.016	5375.0593
216.237	875.29415
216.459	3764.13735
216.68	1910.24515
216.901	5134.49348
217.122	-3162.04835
217.344	-11674.27912
217.565	3517.02927
217.786	9342.79682
218.007	18774.37554
218.228	-850.72131
218.45	5675.57535
218.671	863.37935
218.892	36455.37317
219.113	1579.33902
219.334	-328.45196
219.555	10163.21273
219.776	3174.43179
219.997	22676.19973
220.219	2972.03741
220.44	-11187.01445
220.661	460.62161
220.882	1538.48278
221.103	-1092.14959
221.324	2366.1686
221.545	2361.83951
221.766	-8702.30461
221.987	1023.95017
222.208	1690.18964
222.429	4321.79192
222.65	92.36032
222.87	18726.38969
223.091	743.60586
223.312	592.48553
223.533	1423.24567
223.754	1534.90888
223.975	1402.10311
224.196	2044.11781
224.417	1329.82764
224.637	573.0668
224.858	-42.58034
225.079	1170.76961
225.3	666.93034
225.521	3789.01484
225.741	474.05279
225.962	526.01486
226.183	144.5645
226.404	672.59506
226.624	460.95785
226.845	658.33527
227.066	402.49376
227.286	250.62112
227.507	141.71473
227.728	122.70973
227.948	230.24653
228.169	72.07901
228.389	89.62459
228.61	50.55259
228.831	65.23995
229.051	2.04796
229.272	40.84884
229.492	56.52095
229.713	13.8989
229.933	38.47535
230.154	31.51784
230.374	55.07519
230.595	38.81929
230.815	24.51153
231.036	39.67742
231.256	-8.38805
231.477	70.05836
231.697	38.43031
231.917	41.69105
232.138	59.03633
232.358	116.02514
232.579	102.43575
232.799	19.70852
233.019	98.581
233.24	116.98808
233.46	40.35075
233.68	66.36824
233.901	41.74222
234.121	29.17791
234.341	12.94308
234.561	-0.41927
234.782	22.28497
235.002	71.54294
235.222	-4.02786
235.442	65.9134
235.662	34.00615
235.883	61.56679
236.103	50.70902
236.323	32.69807
236.543	28.14268
236.763	39.60809
236.983	45.10876
237.203	41.61601
237.423	60.80829
237.643	87.9736
237.864	75.21372
238.084	21.66688
238.304	27.22162
238.524	46.65256
238.744	40.30693
238.964	74.06521
239.184	63.34111
239.404	65.35572
239.624	34.91776
239.843	60.32707
240.063	35.57002
240.283	21.28566
240.503	26.56037
240.723	26.1017
240.943	16.00677
241.163	19.78815
241.383	14.67348
241.603	6.44938
241.822	9.53565
242.042	6.7288
242.262	8.45663
242.482	10.1484
242.702	10.64924
242.921	3.00852
243.141	7.16946
243.361	6.34333
243.581	9.61654
243.8	7.8998
244.02	5.4491
244.24	9.40838
244.459	9.21634
244.679	18.30508
244.899	11.25504
245.118	13.22005
245.338	12.73606
245.558	13.55385
245.777	8.53392
245.997	10.19457
246.216	10.20662
246.436	6.03768
246.655	4.91928
246.875	3.19362
247.094	6.31187
247.314	2.11622
247.533	3.61649
247.753	4.3487
247.972	3.4675
248.192	1.21562
248.411	2.1331
248.631	3.59948
248.85	4.5837
249.07	4.03294
249.289	6.12445
249.508	4.91195
249.728	6.91754
249.947	7.1057
250.166	8.78915
250.386	3.7788
250.605	6.87342
250.824	11.25323
251.044	7.99477
251.263	29.2694
251.482	14.60036
251.701	11.96876
251.921	-0.09352
252.14	3.19968
252.359	4.26534
252.578	10.32827
252.798	3.33416
253.017	9.30528
253.236	3.93393
253.455	5.68553
253.674	10.66152
253.893	4.9565
254.112	7.68316
254.331	11.37943
254.551	8.94616
254.77	3.77339
254.989	13.42123
255.208	10.35436
255.427	15.29989
255.646	11.86516
255.865	21.23467
256.084	9.26629
256.303	10.94676
256.522	13.7177
256.741	2.59272
256.96	3.73367
257.179	9.0659
257.397	10.71602
257.616	6.14816
257.835	6.36006
258.054	15.45978
258.273	10.6874
258.492	11.33591
258.711	7.20558
258.93	3.19634
259.148	4.77019
259.367	4.41286
259.586	5.61236
259.805	2.38943
260.023	5.1427
260.242	3.8717
260.461	2.77468
260.68	1.36612
260.898	4.4321
261.117	1.49346
261.336	1.01
261.554	3.53202
261.773	3.5775
261.992	0.71782
262.21	3.36281
262.429	3.58294
262.648	7.38398
262.866	8.17696
263.085	5.56613
263.303	5.14067
263.522	8.72591
263.74	8.45209
263.959	15.39489
264.178	7.26065
264.396	7.01713
264.615	4.82883
264.833	10.95524
265.051	8.98305
265.27	10.99199
265.488	11.20506
265.707	6.33302
265.925	10.83716
266.144	4.65272
266.362	5.94694
266.58	5.59829
266.799	5.18368
267.017	6.29282
267.235	5.25546
267.454	3.31214
267.672	1.98121
267.89	4.26585
268.109	4.61938
268.327	4.47996
268.545	1.02503
268.763	4.04598
268.982	1.48252
269.2	4.20548
269.418	3.12498
269.636	2.06093
269.854	4.89754
270.073	3.09876
270.291	1.87345
270.509	1.55835
270.727	4.50569
270.945	7.37475
271.163	7.14751
271.381	1.49248
271.599	3.13351
271.817	5.29935
272.036	1.7817
272.254	3.2446
272.472	2.24097
272.69	2.70874
272.908	2.45328
273.126	4.64893
273.344	5.25652
273.562	1.7359
273.779	2.65812
273.997	3.97556
274.215	4.26236
274.433	3.00583
274.651	4.54944
274.869	4.85029
275.087	2.73918
275.305	4.08584
275.523	2.68851
275.74	3.0199
275.958	5.59976
276.176	8.28293
276.394	2.50434
276.612	3.26911
276.829	3.24546
277.047	2.81089
277.265	2.88609
277.483	3.55421
277.7	4.4332
277.918	3.54564
278.136	6.08556
278.353	2.82566
278.571	1.73256
278.789	4.40997
279.006	0.89256
279.224	2.98272
279.442	5.22251
279.659	3.64559
279.877	2.42183
280.094	5.99823
280.312	1.18095
280.529	3.45547
280.747	0.92811
280.964	2.74998
281.182	6.25668
281.399	2.91763
281.617	3.97532
281.834	2.29818
282.052	1.94569
282.269	3.23868
282.487	2.55394
282.704	2.02555
282.921	2.26975
283.139	3.45378
283.356	4.08525
283.574	3.91701
283.791	1.95795
284.008	5.44721
284.226	3.03424
284.443	3.28575
284.66	4.38823
284.877	3.47958
285.095	2.18301
285.312	1.71732
285.529	0.86595
285.746	0.85121
285.964	2.02852
286.181	1.49146
286.398	1.94397
286.615	2.81341
286.832	2.5884
287.05	0.61993
287.267	1.85861
287.484	1.84236
287.701	2.73065
287.918	2.71197
288.135	2.59989
288.352	1.27937
288.569	1.54514
288.786	2.40915
289.003	2.00855
289.22	3.05331
289.437	1.7101
289.654	2.85725
289.871	3.23184
290.088	2.9614
290.305	2.30202
290.522	1.83279
290.739	2.17439
290.956	3.20827
291.173	3.60731
291.39	3.42014
291.607	2.45372
291.824	1.81291
292.04	1.27584
292.257	2.93443
292.474	3.26988
292.691	2.05812
292.908	0.92711
293.125	1.63366
293.341	1.26215
293.558	4.87894
293.775	1.92294
293.992	2.03254
294.208	0.87081
294.425	1.41853
294.642	2.00813
294.858	2.71913
295.075	0.65112
295.292	2.04506
295.508	2.40619
295.725	4.107
295.942	1.82099
296.158	1.44598
296.375	2.2306
296.591	1.71112
296.808	1.97811
297.024	2.24602
297.241	2.51925
297.458	2.77167
297.674	0.57616
297.891	2.15704
298.107	1.83613
298.323	1.48145
298.54	3.55696
298.756	1.80863
298.973	1.18341
299.189	3.66862
299.406	1.90312
299.622	3.44627
299.838	3.41396
300.055	3.30907
300.271	1.40511
300.487	1.84008
300.704	2.12837
300.92	1.63499
301.136	5.20858
301.353	3.49369
301.569	2.80619
301.785	3.08117
302.001	3.59377
302.218	3.16207
302.434	3.44152
302.65	1.99316
302.866	2.60574
303.083	5.1038
303.299	4.95126
303.515	3.31371
303.731	3.52223
303.947	1.92089
304.163	2.65053
304.379	3.45285
304.595	3.61651
304.812	2.65267
305.028	2.68237
305.244	3.09561
305.46	3.9607
305.676	4.07897
305.892	4.62007
306.108	3.74118
306.324	2.96957
306.54	5.18614
306.756	3.91464
306.972	3.80234
307.187	3.48285
307.403	4.59327
307.619	2.95277
307.835	4.39668
308.051	4.88136
308.267	2.62108
308.483	4.76375
308.699	4.08665
308.914	3.6465
309.13	3.43588
309.346	2.50595
309.562	2.75826
309.778	2.52766
309.993	4.1001
310.209	3.88654
310.425	2.68051
310.641	3.63259
310.856	2.89773
311.072	2.73596
311.288	3.61457
311.503	3.96407
311.719	2.23062
311.935	2.24622
312.15	4.27015
312.366	3.87293
312.581	4.0969
312.797	3.69729
313.013	4.49421
313.228	3.14399
313.444	3.46938
313.659	3.12254
313.875	4.23237
314.09	3.60702
314.306	5.02454
314.521	4.57195
314.737	4.56082
314.952	3.8406
315.168	3.89083
315.383	4.21609
315.599	3.48717
315.814	3.64774
316.029	4.36105
316.245	2.89982
316.46	2.38975
316.675	4.99962
316.891	5.3838
317.106	6.57933
317.321	4.02439
317.537	4.6369
317.752	4.77412
317.967	4.78764
318.183	3.13303
318.398	3.6821
318.613	4.70242
318.828	5.4735
319.043	4.69397
319.259	3.89914
319.474	4.15559
319.689	5.22716
319.904	2.62243
320.119	4.93958
320.334	4.34531
320.549	3.88769
320.765	5.14864
320.98	4.40337
321.195	4.54434
321.41	4.10772
321.625	4.84773
321.84	5.75896
322.055	5.79266
322.27	3.39789
322.485	3.18428
322.7	4.59849
322.915	5.14078
323.13	3.68634
323.345	5.84835
323.56	5.50055
323.775	5.02031
323.989	4.73612
324.204	4.56526
324.419	5.5085
324.634	3.51703
324.849	4.18302
325.064	7.46756
325.279	5.47483
325.493	4.74932
325.708	5.22988
325.923	3.77055
326.138	4.15874
326.352	6.04739
326.567	5.36327
326.782	4.15113
326.997	4.06758
327.211	5.01586
327.426	4.80303
327.641	4.22515
327.855	3.20644
328.07	4.99415
328.285	6.27957
328.499	4.11003
328.714	4.83762
328.928	5.078
329.143	4.58818
329.358	5.64944
329.572	5.57188
329.787	5.9339
330.001	7.01972
330.216	3.48399
330.43	6.59903
330.645	6.02199
330.859	5.62325
331.074	3.82733
331.288	4.82759
331.503	6.13189
331.717	3.86574
331.931	5.05338
332.146	5.10413
332.36	6.72736
332.575	5.10078
332.789	5.24478
333.003	5.20816
333.218	5.49846
333.432	4.51805
333.646	5.9184
333.86	6.73767
334.075	6.41916
334.289	4.57348
334.503	3.90574
334.717	5.49179
334.932	5.07714
335.146	5.79633
335.36	4.29537
335.574	5.55875
335.788	5.33083
336.003	5.77591
336.217	5.66069
336.431	5.51011
336.645	4.71091
336.859	4.17309
337.073	5.05371
337.287	5.57517
337.501	4.2063
337.715	5.81865
337.929	6.16717
338.143	4.39672
338.357	5.25753
338.571	4.89341
338.785	5.98614
338.999	5.01015
339.213	4.88987
339.427	4.15512
339.641	6.49638
339.855	4.98713
340.069	4.75095
340.283	6.13273
340.497	6.89066
340.711	5.98606
340.924	5.49785
341.138	4.74111
341.352	4.38581
341.566	5.66571
341.78	4.30671
341.993	5.21429
342.207	4.71334
342.421	5.84324
342.635	5.45755
342.848	5.206
343.062	3.73443
343.276	5.12666
343.49	7.28255
343.703	5.07565
343.917	6.58914
344.131	6.72959
344.344	5.06368
344.558	5.47988
344.771	4.68971
344.985	7.0008
345.199	7.19596
345.412	6.12173
345.626	6.12801
345.839	4.39073
346.053	4.84429
346.266	5.02146
346.48	6.33005
346.693	6.2042
346.907	5.96323
347.12	5.04588
347.334	5.92694
347.547	6.10926
347.76	5.46645
347.974	6.71604
348.187	5.90977
348.401	5.56204
348.614	5.14665
348.827	5.52507
349.041	6.23306
349.254	4.4836
349.467	5.47226
349.681	5.21273
349.894	5.2538
350.107	6.9457
350.32	7.59808
350.534	4.91769
350.747	5.6447
350.96	5.21973
351.173	5.33482
351.386	5.74866
351.6	5.46265
351.813	5.74473
352.026	5.65552
352.239	5.17201
352.452	5.50904
352.665	7.00883
352.878	5.99869
353.092	7.73399
353.305	6.62495
353.518	6.20541
353.731	5.37001
353.944	7.11645
354.157	5.94651
354.37	5.78535
354.583	5.34979
354.796	5.21489
355.009	7.03923
355.222	6.68424
355.435	6.23554
355.647	7.20306
355.86	5.80198
356.073	6.51714
356.286	5.92036
356.499	7.16127
356.712	6.99247
356.925	7.03014
357.138	7.23528
357.35	6.08408
357.563	6.29796
357.776	6.79558
357.989	6.62313
358.201	6.9737
358.414	6.85818
358.627	7.67309
358.84	6.50802
359.052	5.72284
359.265	6.05023
359.478	7.53565
359.69	4.87902
359.903	7.40814
360.116	7.62641
360.328	5.78544
360.541	7.65234
360.753	6.53136
360.966	6.85641
361.179	7.04605
361.391	6.79232
361.604	6.79306
361.816	6.93488
362.029	6.80013
362.241	6.40876
362.454	6.78101
362.666	6.24473
362.879	7.36925
363.091	6.66318
363.304	6.45404
363.516	6.51932
363.728	6.16292
363.941	7.04307
364.153	6.88017
364.366	5.42491
364.578	6.14962
364.79	7.00104
365.003	6.95982
365.215	6.36583
365.427	7.38744
365.639	7.53076
365.852	6.8715
366.064	8.38022
366.276	6.74372
366.488	7.11033
366.701	6.8105
366.913	6.79176
367.125	6.84844
367.337	6.19509
367.549	6.46242
367.762	6.95165
367.974	6.92141
368.186	6.603
368.398	7.40867
368.61	7.24777
368.822	7.36037
369.034	6.72631
369.246	7.44778
369.458	9.23947
369.67	6.37755
369.882	8.21135
370.094	5.72647
370.306	8.16217
370.518	6.91067
370.73	6.74388
370.942	6.83039
371.154	7.0841
371.366	6.9755
371.578	7.47094
371.79	7.01255
372.002	7.91331
372.214	8.81609
372.425	7.01031
372.637	8.30647
372.849	7.39975
373.061	5.70329
373.273	7.41522
373.484	7.40724
373.696	7.77372
373.908	5.68504
374.12	7.9007
374.331	7.54104
374.543	6.68347
374.755	6.59213
374.967	7.32595
375.178	7.98907
375.39	6.98621
375.602	7.48129
375.813	6.25652
376.025	6.90595
376.236	7.48618
376.448	7.75505
376.66	7.32655
376.871	7.43529
377.083	8.36401
377.294	8.85022
377.506	7.20593
377.717	8.62493
377.929	7.68807
378.14	7.3026
378.352	7.70335
378.563	7.82923
378.775	8.4433
378.986	6.75556
379.197	7.33843
379.409	6.91418
379.62	7.78723
379.832	7.77443
380.043	7.25421
380.254	7.84099
380.466	6.77143
380.677	9.64009
380.888	8.94217
381.1	9.36454
381.311	9.45591
381.522	7.84452
381.733	9.60102
381.945	7.63074
382.156	7.59906
382.367	7.28457
382.578	9.58618
382.789	9.77311
383.001	7.27494
383.212	8.94544
383.423	9.07955
383.634	8.59877
383.845	8.51049
384.056	7.60562
384.267	7.92712
384.478	8.00517
384.69	7.22985
384.901	8.21602
385.112	8.10569
385.323	9.2037
385.534	8.28897
385.745	8.16209
385.956	8.069
386.167	7.45763
386.378	8.26241
386.588	7.56663
386.799	7.33339
387.01	7.07057
387.221	8.49578
387.432	8.00853
387.643	9.22448
387.854	7.88304
388.065	7.77624
388.275	7.91224
388.486	7.55014
388.697	8.0488
388.908	7.59156
389.119	8.80301
389.329	8.97879
389.54	8.12296
389.751	8.27671
389.962	9.01327
390.172	8.22732
390.383	8.15004
390.594	7.87132
390.804	7.9734
391.015	7.96217
391.226	8.50449
391.436	8.69955
391.647	8.48835
391.858	8.64699
392.068	7.33791
392.279	7.61434
392.489	8.56072
392.7	8.8262
392.91	7.89967
393.121	7.7102
393.331	8.62797
393.542	9.1406
393.752	8.88113
393.963	8.69382
394.173	8.76667
394.384	8.75965
394.594	8.54416
394.804	7.64965
395.015	8.43374
395.225	8.59159
395.436	7.65834
395.646	8.40899
395.856	8.04034
396.067	7.24384
396.277	8.80526
396.487	8.48779
396.697	8.51152
396.908	8.59931
397.118	8.64545
397.328	8.45068
397.538	9.01497
397.749	7.78759
397.959	8.99709
398.169	8.65502
398.379	7.57737
398.589	8.74884
398.8	8.54095
399.01	8.48425
399.22	8.16358
399.43	9.7338
399.64	8.37377
399.85	8.73008
400.06	8.46414
400.27	7.78608
400.48	8.27333
400.69	9.23136
400.9	8.09495
401.11	7.60655
401.32	8.81735
401.53	8.05546
401.74	9.38342
401.95	8.81018
402.16	8.02484
402.37	8.6619
402.58	8.17006
402.79	8.71772
403	9.33232
403.209	8.26621
403.419	9.43066
403.629	8.11953
403.839	9.33979
404.049	9.25808
404.258	8.47513
404.468	8.25032
404.678	8.91243
404.888	9.39326
405.097	8.5298
405.307	8.48149
405.517	8.96445
405.727	8.88234
405.936	8.34829
406.146	8.79254
406.356	9.46525
406.565	8.52766
406.775	8.31167
406.984	8.15924
407.194	9.67993
407.404	8.44869
407.613	8.86029
407.823	8.96856
408.032	9.27755
408.242	9.20696
408.451	8.25366
408.661	8.54281
408.87	9.81465
409.08	8.30617
409.289	8.848
409.499	8.9238
409.708	8.90397
409.918	7.49485
410.127	9.05218
410.336	9.76059
410.546	9.20162
410.755	8.49992
410.964	8.57312
411.174	8.15808
411.383	8.91689
411.592	8.79624
411.802	8.08677
412.011	9.09873
412.22	8.51999
412.429	9.78345
412.639	9.6677
412.848	9.16038
413.057	9.57112
413.266	9.59727
413.475	8.83704
413.685	9.1824
413.894	9.51479
414.103	9.47186
414.312	9.38751
414.521	8.8253
414.73	9.18188
414.939	10.37235
415.148	9.50698
415.357	9.34722
415.566	9.00103
415.776	8.9881
415.985	9.0899
416.194	9.71446
416.403	10.49452
416.611	8.74613
416.82	9.16826
417.029	9.44861
417.238	9.22499
417.447	9.08142
417.656	9.50213
417.865	9.19605
418.074	9.59642
418.283	9.69475
418.492	10.23107
418.7	9.98766
418.909	10.99682
419.118	10.10174
419.327	10.52703
419.536	10.4622
419.744	10.54394
419.953	11.73765
420.162	11.98819
420.371	11.56958
420.579	12.05273
420.788	12.85076
420.997	12.92521
421.205	13.24647
421.414	12.93974
421.623	12.94621
421.831	12.61067
422.04	12.94266
422.249	12.12615
422.457	12.4619
422.666	11.6096
422.874	12.45899
423.083	12.63983
423.291	12.72775
423.5	12.5322
423.708	13.02526
423.917	13.46027
424.125	13.0771
424.334	12.9383
424.542	14.41697
424.751	13.79158
424.959	13.32713
425.167	13.3908
425.376	13.18032
425.584	11.80221
425.793	11.78889
426.001	10.79472
426.209	10.82572
426.418	9.82914
426.626	9.48972
426.834	9.40396
427.042	9.71521
427.251	9.44871
427.459	10.20291
427.667	9.7084
427.875	9.12662
428.084	9.53014
428.292	10.59409
428.5	10.12292
428.708	9.2468
428.916	9.33415
429.124	9.9805
429.333	9.80232
429.541	9.77411
429.749	9.90022
429.957	9.98952
430.165	11.49386
430.373	9.12422
430.581	10.05272
430.789	10.85286
430.997	9.89272
431.205	9.66548
431.413	10.35885
431.621	9.96167
431.829	10.56492
432.037	10.14834
432.245	10.31381
432.453	10.61036
432.661	10.27753
432.869	11.42255
433.076	10.01045
433.284	10.25611
433.492	10.73361
433.7	10.85649
433.908	10.09725
434.116	10.31564
434.323	10.35205
434.531	10.10931
434.739	10.50435
434.947	10.71248
435.154	10.58905
435.362	10.1273
435.57	9.99701
435.778	9.94188
435.985	10.43016
436.193	10.03594
436.401	11.0635
436.608	10.33089
436.816	10.21022
437.023	11.13369
437.231	11.3175
437.439	10.55825
437.646	10.87182
437.854	10.69754
438.061	11.03374
438.269	10.47619
438.476	11.02085
438.684	10.69628
438.891	10.54947
439.099	10.40304
439.306	10.20177
439.514	10.19813
439.721	11.29779
439.929	11.04941
440.136	11.98037
440.343	11.95935
440.551	11.89766
440.758	13.28993
440.965	12.05665
441.173	11.72232
441.38	11.47977
441.587	11.15284
441.795	10.86671
442.002	10.6551
442.209	10.52324
442.416	10.68622
442.624	10.61217
442.831	10.57652
443.038	10.15418
443.245	9.90355
443.452	10.3906
443.66	10.85472
443.867	10.44755
444.074	10.499
444.281	10.5468
444.488	10.73176
444.695	10.97268
444.902	10.82388
445.109	11.88266
445.316	11.90385
445.523	12.29777
445.73	12.54842
445.937	13.30396
446.144	13.8147
446.351	14.12563
446.558	13.20241
446.765	14.88071
446.972	14.16117
447.179	13.65704
447.386	14.13933
447.593	12.55822
447.8	13.28314
448.007	11.79603
448.214	11.22087
448.42	10.70479
448.627	11.03374
448.834	10.50832
449.041	10.35431
449.248	10.40212
449.454	10.85867
449.661	11.455
449.868	10.25851
450.075	10.36843
450.281	9.53379
450.488	10.07527
450.695	10.1652
450.901	10.42705
451.108	10.42706
451.315	11.27389
451.521	10.68214
451.728	11.40697
451.935	10.41533
452.141	10.8796
452.348	10.77387
452.554	10.72782
452.761	10.54808
452.967	11.61924
453.174	10.83415
453.38	10.97774
453.587	10.11617
453.793	10.75418
454	11.18445
454.206	11.80994
454.413	11.18654
454.619	11.0289
454.825	10.40134
455.032	11.13753
455.238	11.17946
455.445	10.20911
455.651	10.83695
455.857	9.80705
456.064	10.46005
456.27	10.58015
456.476	10.5698
456.682	10.16161
456.889	11.10535
457.095	11.1658
457.301	12.31541
457.507	11.07222
457.714	11.08225
457.92	11.16328
458.126	10.85616
458.332	11.27097
458.538	11.07915
458.744	11.36209
458.951	11.42186
459.157	13.39451
459.363	12.80802
459.569	13.03896
459.775	13.73687
459.981	13.48731
460.187	13.70465
460.393	13.74773
460.599	13.76875
460.805	12.79123
461.011	11.71531
461.217	11.40154
461.423	11.20376
461.629	10.72182
461.835	10.99929
462.041	10.61368
462.247	11.56267
462.453	10.59462
462.658	10.69663
462.864	11.20884
463.07	11.01958
463.276	11.06901
463.482	11.09954
463.688	11.85787
463.893	10.72386
464.099	11.09694
464.305	11.87709
464.511	10.91234
464.716	11.05642
464.922	11.60545
465.128	10.68426
465.333	11.99129
465.539	11.3749
465.745	11.16393
465.95	11.20119
466.156	12.72839
466.362	11.8581
466.567	11.23545
466.773	11.01113
466.978	12.07047
467.184	10.76962
467.389	10.21982
467.595	11.24083
467.8	10.83134
468.006	11.86979
468.211	11.93436
468.417	10.55067
468.622	11.37094
468.828	11.55136
469.033	11.39329
469.239	12.69113
469.444	10.95972
469.649	11.70616
469.855	11.15076
470.06	11.29097
470.266	10.83813
470.471	11.64801
470.676	11.51347
470.881	10.30047
471.087	12.09479
471.292	12.73736
471.497	10.63345
471.703	11.23105
471.908	11.03326
472.113	11.4399
472.318	11.86578
472.523	10.81399
472.729	11.56873
472.934	11.73765
473.139	11.12961
473.344	11.52207
473.549	12.00299
473.754	10.81821
473.959	12.70851
474.164	10.945
474.369	11.19497
474.575	11.74272
474.78	11.32705
474.985	10.99202
475.19	10.5785
475.395	11.04717
475.6	11.44485
475.804	12.25496
476.009	11.58175
476.214	11.55139
476.419	11.37789
476.624	10.69862
476.829	11.23523
477.034	11.93518
477.239	11.23169
477.444	11.90045
477.648	11.92926
477.853	11.80187
478.058	11.38487
478.263	11.1234
478.468	10.95601
478.672	11.03615
478.877	12.25109
479.082	12.2767
479.287	11.67259
479.491	11.43124
479.696	11.11486
479.901	11.87973
480.105	12.04065
480.31	11.32846
480.515	11.7165
480.719	12.92983
480.924	11.61762
481.128	11.25116
481.333	12.05189
481.538	12.08285
481.742	12.50213
481.947	13.72316
482.151	15.08336
482.356	16.3978
482.56	19.18312
482.765	21.58915
482.969	25.46957
483.174	28.63784
483.378	32.69797
483.582	33.81019
483.787	35.92778
483.991	36.26175
484.196	36.30693
484.4	35.46308
484.604	35.29531
484.809	31.91491
485.013	29.64306
485.217	26.69069
485.422	23.79691
485.626	21.71406
485.83	20.64887
486.034	20.24651
486.239	20.84737
486.443	21.69238
486.647	22.29634
486.851	23.81485
487.055	25.693
487.26	25.66291
487.464	26.88367
487.668	26.4072
487.872	26.94139
488.076	26.76487
488.28	25.66145
488.484	23.90798
488.688	22.93543
488.892	21.53938
489.096	20.16439
489.3	18.46194
489.504	17.21166
489.708	16.41853
489.912	16.12506
490.116	16.05231
490.32	15.93062
490.524	17.5992
490.728	18.77024
490.932	19.88994
491.136	21.18686
491.34	22.38474
491.544	22.65689
491.748	22.62262
491.951	22.52555
492.155	21.74003
492.359	20.96527
492.563	19.04492
492.767	17.70779
492.97	15.78978
493.174	14.17077
493.378	12.91594
493.582	11.46652
493.785	11.12842
493.989	11.37354
494.193	11.45563
494.396	11.37963
494.6	11.9393
494.804	11.69089
495.007	11.38905
495.211	11.67445
495.414	11.68249
495.618	12.17687
495.822	12.60746
496.025	12.16851
496.229	12.40191
496.432	11.7305
496.636	12.0533
496.839	11.93034
497.043	12.61324
497.246	12.20414
497.45	11.75303
497.653	12.0041
497.856	11.90215
498.06	11.45453
498.263	11.65601
498.467	11.60703
498.67	12.1339
498.873	11.92904
499.077	11.60706
499.28	11.68014
499.483	11.80976
499.686	11.98749
499.89	11.85571
500.093	12.13556
500.296	11.30829
500.499	12.49569
500.703	11.72917
500.906	12.04769
501.109	12.53333
501.312	11.81552
501.515	11.60136
501.719	11.91833
501.922	12.25762
502.125	11.83636
502.328	11.77479
502.531	11.38837
502.734	11.93298
502.937	11.11745
503.14	12.04736
503.343	11.66877
503.546	11.81934
503.749	11.62103
503.952	12.38474
504.155	11.57353
504.358	12.08147
504.561	11.98333
504.764	11.20764
504.967	11.88177
505.17	11.83291
505.373	12.59835
505.576	11.79293
505.778	12.19949
505.981	11.4492
506.184	12.57027
506.387	11.19053
506.59	12.91557
506.793	12.52138
506.995	12.38581
507.198	11.21539
507.401	12.40585
507.604	12.39796
507.806	11.65291
508.009	11.73539
508.212	12.58816
508.414	11.83775
508.617	11.95096
508.82	11.98983
509.022	12.76704
509.225	12.19669
509.427	11.38131
509.63	12.65686
509.833	12.00611
510.035	11.69357
510.238	11.25185
510.44	12.5623
510.643	11.01238
510.845	12.84053
511.048	12.19163
511.25	11.73915
511.453	11.95824
511.655	12.135
511.858	11.89569
512.06	12.46143
512.262	12.04064
512.465	12.45061
512.667	11.78335
512.869	11.39069
513.072	12.04969
513.274	12.1859
513.476	12.04898
513.679	12.13702
513.881	11.36831
514.083	12.59668
514.286	11.45735
514.488	11.49862
514.69	11.34275
514.892	11.18672
515.094	12.20698
515.297	11.47533
515.499	12.01687
515.701	11.51265
515.903	12.81948
516.105	12.92446
516.307	12.52776
516.509	11.38158
516.711	11.74831
516.913	12.42371
517.116	12.46545
517.318	12.18753
517.52	13.13182
517.722	12.81457
517.924	11.89437
518.126	12.60241
518.328	12.24615
518.529	12.91314
518.731	13.71328
518.933	12.19233
519.135	12.37177
519.337	12.8827
519.539	12.13965
519.741	11.05447
519.943	11.60277
520.145	11.59725
520.346	11.98571
520.548	11.61073
520.75	11.86132
520.952	11.63364
521.153	11.91396
521.355	11.97508
521.557	11.42726
521.759	12.03496
521.96	11.84278
522.162	11.3483
522.364	12.4899
522.565	11.78693
522.767	12.36368
522.969	12.43526
523.17	12.42805
523.372	12.26818
523.573	11.96444
523.775	12.04568
523.977	11.9284
524.178	13.37385
524.38	12.19171
524.581	12.81097
524.783	12.52776
524.984	12.8983
525.186	12.65404
525.387	13.357
525.589	13.42132
525.79	13.49095
525.991	13.47383
526.193	14.04054
526.394	13.48265
526.596	14.48185
526.797	14.82866
526.998	14.6854
527.2	15.68377
527.401	18.10919
527.602	19.70914
527.803	22.97376
528.005	24.55279
528.206	26.3027
528.407	27.62991
528.608	27.78642
528.81	27.98753
529.011	27.16682
529.212	27.71185
529.413	25.7739
529.614	23.80005
529.815	22.06897
530.017	20.09845
530.218	17.70671
530.419	15.96442
530.62	15.31961
530.821	14.61621
531.022	13.25677
531.223	13.99983
531.424	13.83388
531.625	14.06122
531.826	13.90585
532.027	14.78352
532.228	16.28214
532.429	16.71483
532.63	17.41464
532.831	18.50725
533.032	18.79082
533.233	19.53243
533.433	19.08835
533.634	19.16422
533.835	18.15672
534.036	17.33195
534.237	16.35662
534.438	15.29919
534.638	13.82956
534.839	12.95065
535.04	12.6511
535.241	12.10876
535.441	13.05379
535.642	12.84062
535.843	12.55421
536.043	13.00394
536.244	13.19245
536.445	13.5304
536.645	14.22591
536.846	13.86079
537.047	14.17715
537.247	13.05178
537.448	12.50905
537.648	12.06951
537.849	11.64619
538.049	11.53268
538.25	11.94299
538.451	11.83477
538.651	11.42121
538.851	12.25207
539.052	12.70591
539.252	12.63984
539.453	12.37784
539.653	12.80541
539.854	12.84162
540.054	13.08685
540.254	15.18525
540.455	16.74774
540.655	17.33467
540.855	19.19256
541.056	20.44161
541.256	20.45623
541.456	21.2519
541.657	20.88361
541.857	21.37885
542.057	19.81251
542.257	18.87535
542.458	18.73046
542.658	17.82481
542.858	15.7564
543.058	15.46185
543.258	14.64618
543.458	13.18791
543.659	12.66027
543.859	13.03225
544.059	12.66834
544.259	11.98962
544.459	12.53742
544.659	11.79622
544.859	12.23614
545.059	11.89729
545.259	12.59224
545.459	12.42851
545.659	12.8842
545.859	12.47052
546.059	12.68059
546.259	12.12081
546.459	11.82393
546.659	11.88852
546.859	12.56584
547.059	12.19608
547.258	12.30843
547.458	12.22733
547.658	11.45072
547.858	11.23574
548.058	11.91756
548.258	11.51295
548.457	11.27937
548.657	12.97825
548.857	11.65595
549.057	12.23869
549.256	12.11967
549.456	11.51201
549.656	10.87405
549.855	13.06783
550.055	11.69579
550.255	13.11046
550.454	12.17439
550.654	12.50768
550.853	13.07128
551.053	12.66209
551.253	12.52242
551.452	12.54681
551.652	11.727
551.851	11.46177
552.051	12.12904
552.25	12.04736
552.45	11.97654
552.649	12.03005
552.849	11.79453
553.048	12.22706
553.248	12.50832
553.447	11.24349
553.646	12.2786
553.846	13.35261
554.045	12.58603
554.244	11.00651
554.444	12.60494
554.643	11.46555
554.842	12.79496
555.042	13.1738
555.241	11.60049
555.44	11.14099
555.64	12.17144
555.839	12.90476
556.038	12.31746
556.237	11.33696
556.436	12.20563
556.636	12.19155
556.835	11.48051
557.034	12.89796
557.233	11.94829
557.432	10.94449
557.631	12.61657
557.83	11.75462
558.029	11.52513
558.228	11.54495
558.427	11.31137
558.626	12.18243
558.825	11.28979
559.024	11.68188
559.223	13.09109
559.422	11.65926
559.621	12.34536
559.82	10.53779
560.019	11.98249
560.218	11.75877
560.417	10.53921
560.616	11.6634
560.815	14.25287
561.014	11.09696
561.212	13.14023
561.411	12.00246
561.61	11.07891
561.809	11.80108
562.008	13.02009
562.206	11.66997
562.405	12.23252
562.604	11.68447
562.803	11.98074
563.001	11.70657
563.2	10.9736
563.399	12.19057
563.597	11.25338
563.796	11.91064
563.995	11.25234
564.193	12.56051
564.392	11.91118
564.59	13.57041
564.789	10.96361
564.988	12.03998
565.186	12.5364
565.385	12.30373
565.583	12.18063
565.782	12.35847
565.98	12.06409
566.179	12.06713
566.377	11.58206
566.575	11.63699
566.774	13.0468
566.972	12.48744
567.171	13.13587
567.369	12.74905
567.567	11.92772
567.766	12.00698
567.964	10.51679
568.162	12.15429
568.361	12.57165
568.559	11.67395
568.757	12.18429
568.956	11.90234
569.154	12.03411
569.352	12.41526
569.55	11.92276
569.748	12.13451
569.947	11.73333
570.145	11.33404
570.343	11.67285
570.541	13.31613
570.739	11.42197
570.937	12.35361
571.135	12.67846
571.333	13.74247
571.532	13.68268
571.73	12.42889
571.928	12.68212
572.126	12.65274
572.324	11.96169
572.522	12.83874
572.72	13.90539
572.918	11.98308
573.116	12.33059
573.313	11.77695
573.511	11.95477
573.709	11.59943
573.907	12.65232
574.105	11.80824
574.303	11.11032
574.501	11.13659
574.699	12.4522
574.896	12.32535
575.094	12.6821
575.292	11.15163
575.49	12.67994
575.688	11.76566
575.885	12.83221
576.083	13.64128
576.281	12.3751
576.478	11.20787
576.676	12.2191
576.874	10.82352
577.071	11.87053
577.269	13.41512
577.467	11.66054
577.664	11.66134
577.862	12.47548
578.059	11.07954
578.257	12.35515
578.455	11.55513
578.652	11.85208
578.85	10.35931
579.047	11.93914
579.245	11.41577
579.442	11.86871
579.64	11.39488
579.837	10.58471
580.034	13.92012
580.232	11.75383
580.429	10.88398
580.627	12.33979
580.824	12.85577
581.021	12.34149
581.219	11.54025
581.416	11.35237
581.613	12.90407
581.811	12.99575
582.008	11.32923
582.205	12.641
582.402	11.96372
582.6	13.10758
582.797	11.97577
582.994	12.28377
583.191	12.46838
583.388	11.81143
583.586	12.56148
583.783	12.86527
583.98	11.07819
584.177	11.98904
584.374	9.65108
584.571	11.78119
584.768	11.82622
584.965	11.62268
585.162	12.58064
585.359	13.28224
585.556	11.97826
585.753	12.35853
585.95	10.92991
586.147	11.21824
586.344	12.40254
586.541	11.89028
586.738	11.07742
586.935	12.0307
587.132	11.40179
587.329	12.82799
587.526	11.88411
587.722	16.38638
587.919	10.90658
588.116	12.43845
588.313	13.17433
588.51	13.83072
588.706	12.03885
588.903	12.583
589.1	13.0548
589.297	14.34153
589.493	12.09823
589.69	12.50186
589.887	11.37035
590.083	11.03725
590.28	11.46225
590.477	12.66341
590.673	12.42445
590.87	13.00605
591.067	11.42995
591.263	12.15178
591.46	12.17799
591.656	11.57069
591.853	13.304
592.049	11.36628
592.246	11.48463
592.442	12.95603
592.639	13.25787
592.835	11.14322
593.032	12.2912
593.228	11.01964
593.425	11.18676
593.621	11.01986
593.817	12.42145
594.014	11.31671
594.21	12.39807
594.406	13.11918
594.603	12.43658
594.799	11.63346
594.995	10.45957
595.192	12.99195
595.388	11.78341
595.584	11.98719
595.78	11.22176
595.977	14.89135
596.173	13.87692
596.369	12.33879
596.565	11.74533
596.761	11.75021
596.957	13.36165
597.154	11.73212
597.35	11.76426
597.546	11.49649
597.742	12.34908
597.938	12.0076
598.134	11.06558
598.33	11.7948
598.526	12.66323
598.722	12.0218
598.918	13.20463
599.114	12.22209
599.31	10.85488
599.506	11.70473
599.702	11.07719
599.898	12.21045
600.094	12.73915
600.29	12.6095
600.485	12.75155
600.681	11.32566
600.877	13.63073
601.073	12.22061
601.269	14.24246
601.465	13.47857
601.66	11.55248
601.856	10.69456
602.052	14.40677
602.248	12.32557
602.443	10.80765
602.639	11.56041
602.835	11.98631
603.03	11.84439
603.226	13.33596
603.422	11.87188
603.617	12.44767
603.813	12.43147
604.009	12.23425
604.204	13.59715
604.4	11.42856
604.595	13.27724
604.791	11.54145
604.986	12.55368
605.182	11.51532
605.377	11.63464
605.573	11.46203
605.768	11.63797
605.964	12.14964
606.159	12.16689
606.355	12.48475
606.55	11.43986
606.746	12.79904
606.941	11.72938
607.136	13.5774
607.332	14.59594
607.527	11.20953
607.722	12.39246
607.918	12.22764
608.113	11.57336
608.308	13.52529
608.503	13.10464
608.699	13.14162
608.894	13.28416
609.089	12.01602
609.284	13.03002
609.479	12.22688
609.675	13.13408
609.87	12.30729
610.065	12.9635
610.26	13.0277
610.455	12.8378
610.65	12.15682
610.845	12.49216
611.04	12.97631
611.235	12.01963
611.43	12.08937
611.625	11.05864
611.82	13.57129
612.015	11.80986
612.21	13.97337
612.405	11.00784
612.6	14.0469
612.795	13.7132
612.99	13.06503
613.185	11.32661
613.38	11.71605
613.575	12.4809
613.77	15.34934
613.965	10.65092
614.159	11.59202
614.354	13.47042
614.549	13.50169
614.744	12.9874
614.938	11.10963
615.133	10.60351
615.328	13.77449
615.523	13.49114
615.717	15.44457
615.912	11.63945
616.107	12.28479
616.301	11.82648
616.496	11.58588
616.691	14.12378
616.885	13.05549
617.08	15.59737
617.274	13.50165
617.469	14.62299
617.664	13.02123
617.858	11.76582
618.053	12.63869
618.247	12.22273
618.442	9.99427
618.636	13.87076
618.831	11.42833
619.025	11.54967
619.219	15.60997
619.414	9.04722
619.608	12.09699
619.803	11.61123
619.997	14.72967
620.191	13.4655
620.386	12.92186
620.58	12.29475
620.774	10.3409
620.969	10.70557
621.163	12.32979
621.357	11.06211
621.551	12.09842
621.746	12.33976
621.94	12.10755
622.134	16.07995
622.328	14.73337
622.522	10.62587
622.716	13.34371
622.911	13.44853
623.105	13.35624
623.299	12.76754
623.493	16.16008
623.687	11.36334
623.881	11.58909
624.075	13.28722
624.269	13.85321
624.463	10.35637
624.657	10.70668
624.851	13.20044
625.045	13.47386
625.239	13.65301
625.433	12.13564
625.627	14.80233
625.821	12.27461
626.015	12.02411
626.209	13.00184
626.403	11.09519
626.596	13.17448
626.79	13.4853
626.984	11.36702
627.178	13.23142
627.372	12.9213
627.565	13.25377
627.759	10.85253
627.953	11.12525
628.147	12.43648
628.34	13.04816
628.534	14.79843
628.728	11.74574
628.921	13.35502
629.115	12.99391
629.309	13.50196
629.502	13.73958
629.696	12.40224
629.89	12.39013
630.083	12.87048
630.277	12.68637
630.47	14.50032
630.664	11.87128
630.857	10.66016
631.051	13.30649
631.244	13.57263
631.438	13.65349
631.631	11.67083
631.825	14.32863
632.018	13.2961
632.212	15.07987
632.405	14.29206
632.598	11.67006
632.792	12.64254
632.985	9.8956
633.178	12.35984
633.372	12.5087
633.565	12.38434
633.758	14.35072
633.952	11.7249
634.145	11.50406
634.338	12.55216
634.531	11.99662
634.724	11.56672
634.918	12.45359
635.111	11.93424
635.304	11.72503
635.497	15.55701
635.69	12.76793
635.883	13.79642
636.077	11.21383
636.27	13.02392
636.463	12.77173
636.656	12.66729
636.849	12.03921
637.042	13.2815
637.235	14.98767
637.428	13.62634
637.621	12.91033
637.814	14.29863
638.007	14.36787
638.2	14.54353
638.393	15.27741
638.586	10.6832
638.778	12.09318
638.971	12.41648
639.164	14.86036
639.357	13.18249
639.55	14.84342
639.743	13.75942
639.935	13.5023
640.128	16.15878
640.321	13.88323
640.514	13.04739
640.707	16.16585
640.899	13.80431
641.092	10.5367
641.285	28.36345
641.477	9.87242
641.67	16.68703
641.863	14.85442
642.055	13.29644
642.248	12.89621
642.441	12.4518
642.633	13.68273
642.826	14.70179
643.018	14.98355
643.211	16.034
643.403	16.20149
643.596	16.521
643.788	15.88706
643.981	12.37412
644.173	14.3753
644.366	12.6304
644.558	10.43965
644.751	14.58891
644.943	11.54404
645.135	15.78569
645.328	15.72799
645.52	14.25944
645.712	15.30912
645.905	18.08749
646.097	11.45329
646.289	13.87964
646.482	17.0194
646.674	11.99977
646.866	15.39389
647.058	14.18103
647.251	11.48763
647.443	12.45147
647.635	13.1514
647.827	11.66142
648.019	11.67801
648.211	13.26813
648.404	13.60667
648.596	16.11949
648.788	13.90449
648.98	13.84663
649.172	14.72053
649.364	14.15221
649.556	10.95513
649.748	18.10013
649.94	12.07826
650.132	15.06774
650.324	12.28684
650.516	12.41724
650.708	15.4215
650.9	11.36495
651.092	10.99583
651.284	11.3363
651.476	11.78107
651.667	14.74469
651.859	16.02435
652.051	13.39295
652.243	13.80431
652.435	12.93977
652.627	14.41268
652.818	14.26543
653.01	11.22375
653.202	12.24028
653.394	12.82098
653.585	14.33362
653.777	21.28086
653.969	16.47443
654.16	15.64771
654.352	11.5757
654.544	13.39453
654.735	15.58366
654.927	14.1376
655.118	16.50473
655.31	14.80142
655.502	16.04659
655.693	13.42528
655.885	14.27205
656.076	16.39359
656.268	14.1665
656.459	16.58812
656.651	16.24747
656.842	13.28771
657.034	12.78223
657.225	15.59766
657.416	16.77226
657.608	16.66924
657.799	14.23552
657.99	16.66917
658.182	13.49867
658.373	13.41694
658.564	16.54037
658.756	15.0091
658.947	14.17815
659.138	12.89232
659.33	13.37068
659.521	13.1257
659.712	13.72838
659.903	13.57478
660.094	12.92617
660.286	11.24954
660.477	16.84707
660.668	14.57668
660.859	13.24321
661.05	11.32899
661.241	14.64502
661.432	14.18176
661.623	13.27579
661.814	12.70122
662.006	11.22442
662.197	13.84694
662.388	16.08262
662.579	14.58892
662.77	16.53284
662.96	19.16135
663.151	15.58118
663.342	10.84993
663.533	15.42932
663.724	14.10467
663.915	18.19965
664.106	14.27348
664.297	17.91398
664.488	15.48067
664.678	13.1296
664.869	16.07727
665.06	16.26581
665.251	14.67201
665.442	15.65246
665.632	12.59124
665.823	18.33773
666.014	9.32724
666.204	15.93132
666.395	17.15011
666.586	19.27509
666.776	16.3107
666.967	18.4681
667.158	14.85394
667.348	17.9048
667.539	13.33323
667.729	16.56379
667.92	13.43423
668.111	17.1725
668.301	16.65337
668.492	14.6323
668.682	15.41353
668.873	14.98405
669.063	12.81484
669.253	15.40186
669.444	17.76761
669.634	14.49403
669.825	18.43531
670.015	17.37582
670.206	13.35214
670.396	18.95604
670.586	14.32027
670.777	15.90448
670.967	11.09751
671.157	14.43142
671.347	13.74173
671.538	18.16099
671.728	16.33669
671.918	19.26168
672.108	17.19267
672.299	14.71223
672.489	16.22638
672.679	13.88167
672.869	16.63427
673.059	20.54203
673.249	16.53055
673.44	13.22732
673.63	14.98602
673.82	17.28557
674.01	13.36657
674.2	16.15292
674.39	21.44084
674.58	16.88262
674.77	15.65114
674.96	14.93222
675.15	24.20589
675.34	17.81228
675.53	15.71062
675.72	14.59571
675.91	11.89481
676.099	20.07295
676.289	20.68303
676.479	18.13332
676.669	14.42445
676.859	16.67012
677.049	14.09193
677.238	15.86012
677.428	19.54276
677.618	17.04234
677.808	20.37569
677.997	17.08971
678.187	14.3042
678.377	16.02438
678.567	14.68887
678.756	15.15383
678.946	15.94437
679.136	13.1739
679.325	15.16539
679.515	14.16249
679.704	13.38367
679.894	18.03866
680.084	16.85871
680.273	18.4103
680.463	14.17961
680.652	13.83757
680.842	15.71345
681.031	17.64519
681.221	13.74871
681.41	16.96337
681.6	15.21827
681.789	17.12398
681.978	18.18375
682.168	16.26998
682.357	16.30323
682.547	16.83164
682.736	16.40064
682.925	18.92711
683.115	18.72432
683.304	18.02912
683.493	16.06239
683.682	17.66952
683.872	16.99228
684.061	18.46516
684.25	17.60568
684.439	22.07023
684.629	18.44895
684.818	24.79727
685.007	16.65817
685.196	15.91372
685.385	21.63506
685.574	17.53437
685.763	17.5696
685.952	17.59051
686.142	14.00116
686.331	20.20423
686.52	13.68589
686.709	22.23024
686.898	21.47149
687.087	18.97502
687.276	21.27907
687.465	20.66427
687.654	16.33818
687.842	21.04517
688.031	14.48834
688.22	21.07804
688.409	17.87815
688.598	17.63228
688.787	23.68142
688.976	17.57911
689.165	22.54719
689.353	16.50125
689.542	18.70565
689.731	20.32075
689.92	23.25589
690.108	19.86081
690.297	16.66267
690.486	18.21088
690.675	19.76715
690.863	22.36095
691.052	22.03226
691.241	18.70402
691.429	19.05188
691.618	21.77713
691.806	14.99335
691.995	17.2384
692.184	18.29108
692.372	17.5489
692.561	18.3475
692.749	19.09435
692.938	27.84538
693.126	20.26211
693.315	18.12499
693.503	20.34651
693.692	21.28372
693.88	21.53564
694.068	24.64066
694.257	18.97685
694.445	20.94977
694.634	13.70731
694.822	21.62711
695.01	22.13026
695.199	24.76473
695.387	23.29068
695.575	22.11939
695.763	18.20084
695.952	18.13906
696.14	14.61513
696.328	17.1936
696.516	19.57931
696.705	20.1402
696.893	19.25644
697.081	14.59029
697.269	21.3484
697.457	16.48262
697.645	16.23104
697.833	21.30402
698.021	16.75082
698.21	17.46633
698.398	18.36952
698.586	15.88047
698.774	15.46994
698.962	18.06857
699.15	15.56181
699.338	14.09529
699.526	19.03245
699.714	15.90694
699.901	15.7222
700.089	19.59665
700.277	15.32406
700.465	17.01349
700.653	19.61111
700.841	19.26935
701.029	15.92684
701.217	22.27752
701.404	17.91615
701.592	22.61193
701.78	25.47774
701.968	18.03484
702.155	17.85526
702.343	15.28855
702.531	22.08493
702.718	20.3785
702.906	17.6478
703.094	17.71671
703.281	23.29875
703.469	18.70014
703.657	22.90837
703.844	30.30447
704.032	25.83056
704.219	18.87965
704.407	21.84385
704.595	24.62366
704.782	21.66253
704.97	20.55732
705.157	19.9628
705.345	26.9756
705.532	32.26935
705.719	24.64057
705.907	27.12461
706.094	23.41913
706.282	30.90882
706.469	23.66515
706.656	25.77739
706.844	24.46681
707.031	28.36574
707.218	26.84271
707.406	31.32786
707.593	28.8042
707.78	28.37625
707.968	26.7874
708.155	23.89075
708.342	28.86246
708.529	28.01308
708.716	27.54502
708.904	32.17283
709.091	29.18705
709.278	23.10618
709.465	33.52973
709.652	31.54049
709.839	30.48589
710.026	26.23683
710.213	20.52537
710.4	26.49779
710.587	27.94734
710.774	29.29862
710.961	29.25712
711.148	26.29612
711.335	29.18071
711.522	26.0689
711.709	28.18228
711.896	33.45398
712.083	29.76102
712.27	22.69356
712.457	27.16279
712.644	21.62974
712.831	33.70688
713.017	26.92613
713.204	28.7189
713.391	23.46944
713.578	29.21705
713.765	31.02027
713.951	26.64711
714.138	36.12155
714.325	25.86345
714.512	23.95052
714.698	20.96871
714.885	29.48966
715.072	24.02297
715.258	23.64121
715.445	21.20292
715.631	28.1012
715.818	14.23326
716.005	20.59154
716.191	25.30207
716.378	21.079
716.564	25.76331
716.751	19.34688
716.937	21.46734
717.124	26.13341
717.31	19.07349
717.497	30.22725
717.683	20.03926
717.869	30.96096
718.056	20.64988
718.242	24.23166
718.429	21.70903
718.615	18.52543
718.801	22.49305
718.988	27.13624
719.174	25.84072
719.36	22.18417
719.547	28.33021
719.733	24.12182
719.919	24.41252
720.105	25.48011
720.291	22.87967
720.478	24.165
720.664	22.92985
720.85	21.45962
721.036	35.03162
721.222	31.5521
721.408	23.29303
721.595	30.84832
721.781	29.74602
721.967	28.79772
722.153	31.25228
722.339	26.37045
722.525	25.8417
722.711	19.19437
722.897	18.26903
723.083	22.62971
723.269	28.40354
723.455	37.16395
723.641	41.90195
723.827	25.67876
724.012	26.6027
724.198	23.68624
724.384	29.93054
724.57	25.59179
724.756	18.88009
724.942	16.07254
725.127	29.57199
725.313	30.15294
725.499	30.23014
725.685	33.69868
725.87	26.24884
726.056	20.52579
726.242	30.87001
726.428	18.45217
726.613	28.6386
726.799	23.33371
726.985	20.39794
727.17	18.25656
727.356	33.97625
727.541	20.76804
727.727	23.95253
727.913	27.64325
728.098	22.74518
728.284	28.02977
728.469	20.16743
728.655	21.01786
728.84	29.8722
729.026	28.65434
729.211	28.10393
729.397	26.77449
729.582	28.76331
729.767	24.62899
729.953	26.8649
730.138	31.00608
730.323	15.14125
730.509	20.02612
730.694	33.32613
730.879	27.99455
731.065	26.19257
731.25	36.66536
731.435	28.17299
731.621	18.87686
731.806	22.56424
731.991	26.65673
732.176	19.24886
732.361	32.8015
732.547	26.57912
732.732	18.60096
732.917	36.28214
733.102	19.90841
733.287	22.31443
733.472	25.02363
733.657	24.5595
733.842	19.18633
734.027	22.6602
734.212	23.74782
734.397	21.80318
734.582	25.37969
734.767	29.82751
734.952	31.23826
735.137	13.756
735.322	31.80751
735.507	27.3848
735.692	26.48768
735.877	35.6953
736.062	35.38371
736.247	27.42291
736.431	24.9361
736.616	31.48339
736.801	26.9789
736.986	26.29065
737.171	21.78692
737.355	19.85015
737.54	32.95517
737.725	26.82579
737.909	40.13352
738.094	24.11388
738.279	29.34402
738.463	25.34417
738.648	29.88857
738.833	28.34406
739.017	37.42757
739.202	25.0295
739.386	25.12185
739.571	22.22059
739.756	30.62999
739.94	25.9933
740.125	29.30765
740.309	22.82203
740.494	30.93394
740.678	27.28963
740.863	29.16192
741.047	27.14614
741.231	33.40965
741.416	23.17026
741.6	34.9863
741.785	22.82816
741.969	32.15491
742.153	35.21814
742.338	16.78369
742.522	26.2146
742.706	32.05621
742.89	20.12176
743.075	27.22276
743.259	34.20334
743.443	33.65019
743.627	34.20465
743.812	39.13217
743.996	18.81617
744.18	25.47959
744.364	24.41141
744.548	41.30114
744.732	26.25125
744.916	32.3358
745.1	30.84256
745.285	24.74695
745.469	30.21145
745.653	36.12707
745.837	21.40161
746.021	41.78594
746.205	33.63373
746.389	28.08512
746.573	26.33883
746.757	36.70574
746.94	24.4533
747.124	34.8353
747.308	21.67071
747.492	34.05973
747.676	23.01827
747.86	43.14145
748.044	24.82812
748.227	18.98074
748.411	50.8906
748.595	28.79624
748.779	23.9122
748.963	29.62687
749.146	28.34559
749.33	22.71399
749.514	23.20973
749.697	35.19036
749.881	23.79082
750.065	21.68251
750.248	28.30806
750.432	42.51071
750.616	28.26265
750.799	22.22378
750.983	43.7852
751.166	42.06407
751.35	19.22372
751.533	34.51747
751.717	38.40489
751.9	37.74728
752.084	26.86165
752.267	23.54394
752.451	24.41498
752.634	29.07743
752.818	32.54541
753.001	34.53925
753.184	36.3784
753.368	30.75034
753.551	10.06734
753.734	23.92517
753.918	43.91658
754.101	24.84574
754.284	32.55175
754.467	26.56559
754.651	23.8414
754.834	23.35271
755.017	35.17348
755.2	36.37095
755.384	22.52509
755.567	32.89545
755.75	34.44172
755.933	26.05842
756.116	33.75109
756.299	25.87259
756.482	23.03107
756.665	32.96868
756.848	29.03119
757.032	31.58803
757.215	20.42181
757.398	22.54333
757.581	24.32159
757.764	47.80804
757.947	29.87118
758.129	35.27213
758.312	13.21637
758.495	27.05475
758.678	28.22505
758.861	26.67318
759.044	41.51299
759.227	23.31821
759.41	23.86479
759.592	34.67436
759.775	26.46669
759.958	35.25039
760.141	22.01463
760.324	44.38973
760.506	39.11608
760.689	34.1724
760.872	44.13183
761.054	30.91039
761.237	28.42347
761.42	30.04203
761.602	34.43364
761.785	32.19969
761.968	36.682
762.15	41.84885
762.333	28.47102
762.515	32.88038
762.698	27.1313
762.88	36.83692
763.063	32.44799
763.245	36.89031
763.428	23.80135
763.61	26.48068
763.793	22.08829
763.975	31.34764
764.158	26.70948
764.34	24.97374
764.522	23.06876
764.705	26.83342
764.887	38.00737
765.069	19.06092
765.252	31.44165
765.434	32.32309
765.616	28.83249
765.799	24.39619
765.981	32.93732
766.163	24.13111
766.345	37.77061
766.528	25.0366
766.71	16.48143
766.892	30.60519
767.074	38.38761
767.256	26.72151
767.438	40.82269
767.62	31.18922
767.802	45.91746
767.985	33.97962
768.167	43.52146
768.349	25.98618
768.531	34.02512
768.713	32.26618
768.895	35.4601
769.077	32.68652
769.259	51.37625
769.441	66.6025
769.623	36.8832
769.804	42.6369
769.986	39.78906
770.168	47.52009
770.35	57.73734
770.532	44.64207
770.714	47.91697
770.896	47.70002
771.077	22.70688
771.259	49.81742
771.441	42.61889
771.623	53.0183
771.804	64.42185
771.986	25.93482
772.168	34.54083
772.35	49.65608
772.531	67.17664
772.713	42.28892
772.894	56.53836
773.076	42.23012
773.258	35.09441
773.439	57.70315
773.621	61.79753
773.802	29.65599
773.984	35.80612
774.166	45.77841
774.347	59.079
774.529	53.47505
774.71	21.90363
774.891	40.59066
775.073	35.82615
775.254	57.19468
775.436	34.5117
775.617	67.95258
775.799	36.28868
775.98	56.7391
776.161	62.54737
776.343	62.88689
776.524	42.56335
776.705	38.47353
776.886	22.74426
777.068	45.51904
777.249	94.58314
777.43	66.37026
777.611	30.10012
777.793	38.53919
777.974	66.15199
778.155	35.76786
778.336	30.97447
778.517	74.49412
778.698	34.8634
778.879	22.54022
779.061	14.80851
779.242	48.28585
779.423	48.4966
779.604	37.44905
779.785	37.49011
779.966	44.91189
780.147	54.49634
780.328	55.70077
780.509	73.71439
780.69	54.66817
780.871	35.49319
781.051	27.68719
781.232	44.79147
781.413	42.88133
781.594	39.58177
781.775	36.58885
781.956	33.82152
782.137	22.62738
782.317	36.10951
782.498	43.62317
782.679	41.7387
782.86	46.43423
783.04	34.407
783.221	45.87117
783.402	67.19516
783.583	43.20583
783.763	54.17683
783.944	35.12939
784.124	27.67658
784.305	64.71274
784.486	52.17633
784.666	42.82982
784.847	25.45541
785.027	85.52306
785.208	35.59977
785.388	34.82682
785.569	35.67092
785.749	40.41047
785.93	38.20395
786.11	26.38314
786.291	49.6239
786.471	46.41044
786.652	53.13679
786.832	41.38931
787.012	46.41581
787.193	30.28652
787.373	43.66882
787.553	37.18451
787.734	44.91741
787.914	38.80373
788.094	56.44822
788.275	47.08426
788.455	38.17626
788.635	30.62559
788.815	45.22541
788.995	30.60219
789.176	25.43084
789.356	33.67921
789.536	39.923
789.716	48.60423
789.896	33.87708
790.076	35.49656
790.256	47.09722
790.436	19.43992
790.616	32.3947
790.796	44.39097
790.976	40.143
791.156	33.22025
791.336	50.14418
791.516	46.81139
791.696	38.73816
791.876	27.08591
792.056	45.63753
792.236	55.81841
792.416	50.65865
792.596	47.11516
792.776	48.09807
792.956	51.48909
793.135	65.47067
793.315	30.96248
793.495	55.42895
793.675	51.4067
793.854	51.3337
794.034	55.10333
794.214	30.25842
794.394	53.3061
794.573	59.08463
794.753	44.4787
794.933	32.62789
795.112	47.16816
795.292	55.25516
795.472	65.59952
795.651	30.81525
795.831	42.80983
796.01	39.65423
796.19	39.37211
796.369	41.70918
796.549	48.37078
796.728	41.55536
796.908	27.87433
797.087	29.96696
797.267	38.48834
797.446	30.10126
797.626	47.34331
797.805	48.16998
797.984	33.49425
798.164	51.42769
798.343	34.192
798.522	44.95037
798.702	44.5109
798.881	29.62313
799.06	39.59603
799.239	21.8951
799.419	32.04511
799.598	64.99327
799.777	46.99717
799.956	56.06296
800.136	38.5187
800.315	32.06068
800.494	47.20466
800.673	56.55589
800.852	52.39572
801.031	56.18444
801.21	50.46463
801.389	37.30907
801.568	45.68573
801.747	66.62767
801.926	43.26934
802.105	61.49996
802.284	37.53265
802.463	62.68873
802.642	47.80782
802.821	46.75669
803	62.18182
803.179	53.88
803.358	56.63245
803.537	34.67386
803.716	42.72266
803.895	36.11158
804.073	39.3461
804.252	33.85772
804.431	48.80901
804.61	41.94647
804.789	53.07679
804.967	37.09838
805.146	37.4983
805.325	72.37591
805.503	46.64284
805.682	27.64575
805.861	87.98084
806.039	61.9352
806.218	38.67876
806.397	44.12803
806.575	41.70662
806.754	47.89594
806.932	30.69252
807.111	56.33246
807.289	54.30292
807.468	44.00545
807.646	56.02598
807.825	51.67544
808.003	45.3913
808.182	58.23999
808.36	44.4197
808.539	32.84552
808.717	64.69075
808.895	35.8031
809.074	47.21626
809.252	41.97025
809.43	52.2084
809.609	59.31711
809.787	68.93032
809.965	41.67246
810.144	45.40755
810.322	42.11074
810.5	50.71314
810.678	39.56989
810.856	75.21079
811.035	59.65958
811.213	54.27751
811.391	64.5995
811.569	49.19778
811.747	96.4001
811.925	60.54049
812.103	38.69012
812.281	43.62491
812.459	71.03159
812.637	69.8004
812.816	57.09493
812.994	77.03286
813.171	66.97119
813.349	51.13999
813.527	61.1955
813.705	64.27644
813.883	82.94731
814.061	56.21148
814.239	71.22809
814.417	80.54811
814.595	55.86867
814.773	53.04937
814.95	48.4568
815.128	50.82044
815.306	50.01996
815.484	42.48403
815.662	36.98964
815.839	32.37141
816.017	41.42507
816.195	62.07959
816.372	40.91632
816.55	57.79109
816.728	71.17628
816.905	44.98491
817.083	67.53177
817.261	47.84583
817.438	91.63804
817.616	72.61977
817.793	40.43901
817.971	58.95419
818.148	55.09685
818.326	64.76979
818.503	51.32721
818.681	72.14085
818.858	42.31262
819.036	45.95771
819.213	50.80125
819.391	38.06411
819.568	38.99566
819.745	35.56235
819.923	58.02463
820.1	42.704
820.277	36.93537
820.455	41.86799
820.632	45.23221
820.809	48.36509
820.986	32.9785
821.164	28.56679
821.341	27.42093
821.518	37.5835
821.695	29.42596
821.872	27.59913
822.05	24.90584
822.227	21.70403
822.404	22.6886
822.581	24.34971
822.758	21.95748
822.935	21.73581
823.112	23.33749
823.289	20.61133
823.466	23.36311
823.643	21.79578
823.82	24.5991
823.997	22.37997
824.174	25.00976
824.351	31.26608
824.528	29.51867
824.705	28.10489
824.882	30.49669
825.059	36.53228
825.236	28.43593
825.412	29.72755
825.589	34.83892
825.766	47.19041
825.943	32.13979
826.12	36.46509
826.296	27.82321
826.473	33.79045
826.65	34.80072
826.827	39.59229
827.003	28.74637
827.18	31.34473
827.357	34.19476
827.533	30.25744
827.71	19.68517
827.887	26.7678
828.063	30.13668
828.24	25.73053
828.416	32.12177
828.593	27.61617
828.769	35.7917
828.946	36.96358
829.122	38.19935
829.299	37.57117
829.475	26.58501
829.652	36.71322
829.828	57.92707
830.005	39.38014
830.181	52.34138
830.357	38.76242
830.534	53.98932
830.71	43.96694
830.886	53.87033
831.063	53.16136
831.239	65.07897
831.415	35.65031
831.592	65.48499
831.768	43.23579
831.944	39.6979
832.12	69.56545
832.296	67.08742
832.473	56.1073
832.649	41.59919
832.825	57.59656
833.001	37.23114
833.177	51.13055
833.353	47.02971
833.529	29.63866
833.705	43.84703
833.881	30.64775
834.058	29.81827
834.234	31.93771
834.41	31.64443
834.586	25.51798
834.761	29.60846
834.937	32.52506
835.113	33.20087
835.289	28.48968
835.465	32.66245
835.641	29.98189
835.817	33.32297
835.993	52.19882
836.169	30.39754
836.344	44.42092
836.52	48.66252
836.696	46.44581
836.872	38.59422
837.048	95.12667
837.223	40.97508
837.399	70.5154
837.575	59.38294
837.75	55.45588
837.926	75.98718
838.102	110.78833
838.277	86.3733
838.453	122.71398
838.628	120.09816
838.804	49.80283
838.98	105.4527
839.155	57.65784
839.331	80.24786
839.506	57.08111
839.682	55.61418
839.857	79.50504
840.033	89.70091
840.208	46.1111
840.384	27.05031
840.559	47.10667
840.734	67.57445
840.91	85.9316
841.085	54.2551
841.26	52.72094
841.436	49.31538
841.611	46.46868
841.786	71.13742
841.962	87.91907
842.137	60.4359
842.312	38.38388
842.487	55.43051
842.663	42.67095
842.838	54.27673
843.013	164.32718
843.188	78.75393
843.363	86.55695
843.538	135.08176
843.714	134.73257
843.889	140.75652
844.064	147.37035
844.239	123.00323
844.414	136.62183
844.589	93.14761
844.764	168.4984
844.939	163.98166
845.114	177.88161
845.289	173.44304
845.464	234.82064
845.639	155.72811
845.814	84.30792
845.989	96.71189
846.163	117.35321
846.338	129.63539
846.513	169.81866
846.688	111.36923
846.863	117.89035
847.038	106.42289
847.212	117.63408
847.387	120.19086
847.562	128.81462
847.737	155.8068
847.911	68.6104
848.086	76.57972
848.261	261.88818
848.435	111.41659
848.61	161.49623
848.785	86.59405
848.959	172.47481
849.134	226.26604
849.308	233.94911
849.483	125.14072
849.658	193.63056
849.832	107.7749
850.007	101.01064
850.181	253.60718
850.356	103.32604
850.53	237.61444
850.705	82.83203
850.879	54.08431
851.053	119.83715
851.228	103.57443
851.402	139.34584
851.577	175.77095
851.751	202.79848
851.925	134.9408
852.099	67.10756
852.274	91.91252
852.448	123.3747
852.622	158.77418
852.797	129.27641
852.971	120.56718
853.145	127.42871
853.319	357.32818
853.493	186.8728
853.668	100.34448
853.842	232.46316
854.016	187.53687
854.19	214.47944
854.364	130.93831
854.538	139.95615
854.712	186.78
854.886	119.31685
855.06	117.95618
855.234	52.04904
855.408	203.65683
855.582	171.0586
855.756	175.80328
855.93	221.95092
856.104	154.44298
856.278	178.54883
856.452	127.00433
856.626	173.48787
856.8	267.10066
856.973	159.01831
857.147	156.45219
857.321	153.09327
857.495	182.85425
857.669	125.39488
857.842	111.97639
858.016	185.98162
858.19	101.00886
858.364	295.58529
858.537	112.29723
858.711	130.89471
858.885	123.84758
859.058	111.2427
859.232	59.39418
859.405	77.7472
859.579	170.87841
859.753	144.95094
859.926	105.03786
860.1	76.44782
860.273	133.01719
860.447	216.01739
860.62	117.84907
860.794	251.2606
860.967	150.45915
861.141	193.50268
861.314	268.18147
861.487	164.1162
861.661	201.91993
861.834	214.51553
862.008	189.99968
862.181	139.45978
862.354	140.38142
862.528	161.92652
862.701	111.6234
862.874	71.67284
863.047	117.12876
863.221	113.71233
863.394	66.71688
863.567	219.69663
863.74	51.02957
863.913	178.60435
864.087	150.91257
864.26	180.069
864.433	132.79358
864.606	238.76299
864.779	140.20081
864.952	70.68483
865.125	113.40482
865.298	128.44419
865.471	136.62999
865.644	266.60763
865.817	222.56607
865.99	182.72756
866.163	205.16972
866.336	120.9211
866.509	139.69071
866.682	116.98152
866.855	207.60714
867.028	90.21371
867.2	169.59132
867.373	70.43997
867.546	148.42134
867.719	270.49611
867.892	170.04609
868.064	102.23458
868.237	154.55223
868.41	139.01998
868.583	82.74774
868.755	90.19721
868.928	130.9865
869.101	273.46443
869.273	200.17737
869.446	165.34631
869.619	200.59673
869.791	134.75385
869.964	195.65568
870.136	187.46427
870.309	149.21775
870.481	154.80207
870.654	75.79484
870.826	150.49638
870.999	123.26861
871.171	191.02488
871.344	120.38496
871.516	133.91659
871.689	101.70611
871.861	147.93939
872.033	107.39493
872.206	122.63439
872.378	196.69247
872.55	123.93145
872.723	86.02713
872.895	136.88164
873.067	194.06625
873.24	219.4195
873.412	114.20898
873.584	123.48788
873.756	119.30362
873.928	159.06668
874.101	156.16905
874.273	169.50242
874.445	68.56565
874.617	85.97864
874.789	153.11195
874.961	120.12033
875.133	172.01478
875.305	140.55745
875.477	96.48378
875.649	81.97825
875.821	101.48237
875.993	234.04699
876.165	98.17847
876.337	155.26612
876.509	123.76168
876.681	157.26895
876.853	150.63911
877.025	156.68842
877.197	103.30739
877.369	93.97413
877.541	188.07637
877.712	57.97159
877.884	92.44315
878.056	174.58971
878.228	95.71697
878.4	162.10395
878.571	96.54465
878.743	67.47075
878.915	153.90831
879.086	93.61882
879.258	113.2977
879.43	103.10284
879.601	94.10187
879.773	97.39157
879.945	30.00391
880.116	47.26263
880.288	32.66369
880.459	35.41988
880.631	29.5123
880.802	33.52156
880.974	31.91038
881.145	25.75906
881.317	31.1161
881.488	25.73545
881.66	27.99929
881.831	25.72298
882.002	31.61507
882.174	25.79064
882.345	31.37876
882.517	20.93605
882.688	34.28508
882.859	29.85176
883.03	43.04749
883.202	41.54958
883.373	37.37155
883.544	37.27818
883.715	59.51213
883.887	49.42875
884.058	44.34094
884.229	60.85978
884.4	60.90439
884.571	67.68392
884.742	60.16527
884.914	65.90274
885.085	88.84064
885.256	111.61453
885.427	91.98592
885.598	109.40943
885.769	113.78226
885.94	105.99177
886.111	74.83469
886.282	128.77944
886.453	106.43743
886.624	74.95568
886.795	123.04702
886.966	102.58454
887.136	135.33366
887.307	95.32621
887.478	169.34504
887.649	145.27697
887.82	155.9621
887.991	122.21227
888.161	164.37779
888.332	161.08844
888.503	86.90262
888.674	207.78241
888.844	228.38002
889.015	181.0867
889.186	87.87901
889.356	210.31446
889.527	91.57613
889.698	357.73465
889.868	126.45374
890.039	157.26467
890.209	135.40524
890.38	189.32262
890.551	155.92853
890.721	228.44675
890.892	184.17532
891.062	134.94959
891.233	158.95989
891.403	129.95786
891.574	105.41759
891.744	131.76891
891.914	170.71446
892.085	145.05431
892.255	58.77079
892.425	213.87429
892.596	181.17982
892.766	163.06789
892.936	215.98867
893.107	183.54975
893.277	111.54748
893.447	79.2292
893.618	62.25123
893.788	120.84604
893.958	67.7925
894.128	73.78018
894.298	79.53589
894.468	109.16247
894.639	51.91333
894.809	41.45179
894.979	58.80187
895.149	65.99513
895.319	57.09234
895.489	71.03869
895.659	91.01315
895.829	63.07362
895.999	70.04575
896.169	51.85718
896.339	61.86454
896.509	117.57123
896.679	137.30805
896.849	133.62634
897.019	179.0609
897.189	138.85466
897.358	125.50812
897.528	182.36005
897.698	70.01129
897.868	175.01499
898.038	287.02617
898.208	258.45178
898.377	89.14498
898.547	270.3459
898.717	431.81605
898.886	173.73824
899.056	268.47586
899.226	392.91929
899.395	242.60261
899.565	302.96561
899.735	197.56514
899.904	341.89138
900.074	278.9942
900.244	138.35143
900.413	507.12118
900.583	126.21023
900.752	198.8028
900.922	315.89977
901.091	37.0941
901.261	270.51315
901.43	262.07801
901.599	265.50156
901.769	551.40694
901.938	297.48073
902.108	277.76421
902.277	375.88446
902.446	108.99225
902.616	125.53632
902.785	177.55637
902.954	293.80889
903.124	198.71432
903.293	161.49863
903.462	98.37751
903.631	123.61157
903.801	92.86936
903.97	55.34349
904.139	89.29188
904.308	68.07515
904.477	55.06671
904.646	37.98337
904.816	53.26027
904.985	73.65331
905.154	106.44342
