Data from WindowProjectSample_Transmission__44__00044.txt Node

Date: Sat May 03 16:34:58 EDT 2025
User: jessi
Spectrometer: SR400872
Trigger mode: 0
Integration Time (sec): 5.000010E-1
Scans to average: 6
Electric dark correction enabled: true
Nonlinearity correction enabled: true
Boxcar width: 0
XAxis mode: Wavelengths
Number of Pixels in Spectrum: 3648
>>>>>Begin Spectral Data<<<<<
184.909	177677.41545
185.132	1683.27222
185.355	-2064.03456
185.578	3434.92041
185.801	-644.28526
186.024	6232.53002
186.247	1081.30493
186.47	1143.19013
186.693	163.39277
186.916	219.67809
187.139	9994.35128
187.362	3305.51046
187.585	2689.249
187.808	-1425.87797
188.031	164.26851
188.254	8216.48997
188.476	545.74382
188.699	-4205.44899
188.922	-405.72107
189.145	-4225.31255
189.368	-505.20528
189.591	-1244.86695
189.813	-2129.29742
190.036	5264.89178
190.259	3154.05954
190.482	2304.82109
190.705	8600.6648
190.927	-1561.46505
191.15	-1694.76004
191.373	4765.49365
191.595	-1760.52014
191.818	9166.7966
192.041	-228.08831
192.263	-2360.37486
192.486	-983.38067
192.709	9249.02943
192.931	-2682.94034
193.154	-1943.15067
193.377	4657.65622
193.599	5184.72522
193.822	-1981.4695
194.044	-1792.13679
194.267	629.01553
194.489	122.93126
194.712	2113.68528
194.934	3400.40018
195.157	-8128.45017
195.379	2114.4185
195.602	5202.34124
195.824	5544.81113
196.047	-9012.89359
196.269	-10211.6599
196.492	-1104.49258
196.714	-5157.93079
196.936	4246.21731
197.159	-2326.30564
197.381	-614.57663
197.604	1115.5758
197.826	-3298.57748
198.048	-1359.51079
198.271	-11570.30567
198.493	9373.42466
198.715	-2466.28726
198.938	-710.46659
199.16	-3703.99943
199.382	1762.32089
199.604	-1671.68673
199.827	-1220.69591
200.049	-3798.41905
200.271	2522.13383
200.493	-25550.08777
200.715	4858.06839
200.938	12681.58901
201.16	-231735.36329
201.382	-6144.18533
201.604	-1029.23472
201.826	-6760.82829
202.048	-6860.67545
202.27	-4575.12136
202.492	-3792.20893
202.715	-1337.09657
202.937	-3463.72526
203.159	1064.86104
203.381	-95502.78763
203.603	-968.82085
203.825	-1435.81064
204.047	2293.27305
204.269	-867.38532
204.491	6806.00938
204.713	-9040.67566
204.935	38735.19427
205.156	1934.95459
205.378	-7033.71313
205.6	-1659.09072
205.822	6263.17419
206.044	-274.45558
206.266	-1998.06119
206.488	730.28713
206.71	-515211.56337
206.932	-16837.95457
207.153	11281.15979
207.375	-2141.21227
207.597	15209.13432
207.819	1731.6985
208.041	5975.20068
208.262	675.01214
208.484	-989.94986
208.706	-858.56523
208.927	9928.07778
209.149	-6912.22697
209.371	-2762.06817
209.593	-2228.9675
209.814	-4549.72202
210.036	2702.92536
210.258	-647.23759
210.479	1822.53111
210.701	851.50339
210.922	3888.3907
211.144	-1517.26392
211.366	5624.01545
211.587	-576.87956
211.809	-3373.67497
212.03	-2411.36059
212.252	-487.12798
212.473	2583.28701
212.695	-804.99901
212.916	-835.42633
213.138	857.81539
213.359	-1185.92426
213.581	-3620.16959
213.802	-1134.40326
214.024	10703.10312
214.245	-1178.18077
214.466	-165.95557
214.688	-3714.36843
214.909	-705.50984
215.131	8478.28321
215.352	-1147.76294
215.573	-244813.07298
215.795	4164.58428
216.016	-3951.86155
216.237	-466.5203
216.459	-12258.78173
216.68	-1587.55876
216.901	-1871.93599
217.122	1844.33349
217.344	-8609.37171
217.565	-1602.44432
217.786	24047.61172
218.007	1012.60852
218.228	-3329.36671
218.45	-5481.14754
218.671	-1284.734
218.892	909.70424
219.113	1667.26103
219.334	384.39788
219.555	-6253.93552
219.776	34755.75074
219.997	-6733.76668
220.219	-9323.08993
220.44	-4651.13277
220.661	-1403.36133
220.882	13307.66274
221.103	-739.07268
221.324	2416.60733
221.545	-6724.76293
221.766	-1483.8045
221.987	-497.14229
222.208	1950.09092
222.429	6486.84569
222.65	-114.94849
222.87	-695.59226
223.091	36117.17959
223.312	830.24735
223.533	-2119.30384
223.754	3607.23607
223.975	1622.36378
224.196	-799.599
224.417	-29703.42424
224.637	-2486.27854
224.858	595.15715
225.079	3550.23859
225.3	1582.17802
225.521	3580.89486
225.741	-2568.25004
225.962	1545.21772
226.183	1121.65639
226.404	1789.97614
226.624	1748.03503
226.845	1341.22681
227.066	2361.01368
227.286	652.46955
227.507	375.88515
227.728	386.02911
227.948	556.58766
228.169	137.74913
228.389	124.67134
228.61	57.44085
228.831	87.49888
229.051	6.62628
229.272	47.811
229.492	64.64026
229.713	21.19076
229.933	51.10913
230.154	40.82499
230.374	69.46224
230.595	54.22328
230.815	36.65917
231.036	51.81894
231.256	-10.24128
231.477	97.60443
231.697	60.86824
231.917	68.20499
232.138	79.42582
232.358	190.64311
232.579	180.85516
232.799	37.93797
233.019	162.76094
233.24	232.79655
233.46	66.55079
233.68	105.79797
233.901	87.54417
234.121	45.98439
234.341	16.12399
234.561	-4.46895
234.782	31.55644
235.002	119.46925
235.222	3.66367
235.442	92.1067
235.662	47.75759
235.883	104.13798
236.103	88.02146
236.323	67.28765
236.543	50.49478
236.763	68.06042
236.983	62.62606
237.203	74.20256
237.423	102.72735
237.643	150.45383
237.864	136.97212
238.084	34.33412
238.304	48.57236
238.524	83.19824
238.744	63.39189
238.964	108.85397
239.184	102.18687
239.404	100.37612
239.624	46.5607
239.843	93.78806
240.063	52.00215
240.283	35.04502
240.503	38.23421
240.723	35.64015
240.943	17.23802
241.163	26.29165
241.383	18.8936
241.603	9.28648
241.822	11.01613
242.042	9.01824
242.262	10.69012
242.482	11.93569
242.702	14.57335
242.921	5.25364
243.141	9.72194
243.361	7.87932
243.581	13.15073
243.8	11.40322
244.02	7.40269
244.24	13.96286
244.459	13.83697
244.679	26.27412
244.899	18.53206
245.118	20.43792
245.338	18.46528
245.558	20.56777
245.777	11.08787
245.997	12.89222
246.216	13.70345
246.436	7.45205
246.655	5.71986
246.875	4.08512
247.094	8.02926
247.314	2.541
247.533	4.51556
247.753	5.93225
247.972	4.34497
248.192	1.58773
248.411	3.01856
248.631	5.27482
248.85	6.76162
249.07	4.87619
249.289	8.63985
249.508	6.52077
249.728	10.26083
249.947	11.81245
250.166	11.09392
250.386	7.06951
250.605	10.03549
250.824	14.96303
251.044	10.34967
251.263	35.97223
251.482	19.97534
251.701	16.37212
251.921	-0.46668
252.14	6.06047
252.359	5.88987
252.578	13.53938
252.798	4.47171
253.017	13.23163
253.236	5.98246
253.455	8.26049
253.674	16.50378
253.893	8.92732
254.112	11.40103
254.331	17.1785
254.551	15.58766
254.77	8.04043
254.989	19.1355
255.208	16.93828
255.427	22.59001
255.646	19.86274
255.865	32.12395
256.084	13.05012
256.303	15.20598
256.522	20.41234
256.741	5.27335
256.96	4.63907
257.179	13.34729
257.397	15.59797
257.616	6.61272
257.835	8.63682
258.054	21.07484
258.273	13.84052
258.492	15.68548
258.711	9.20387
258.93	4.49807
259.148	5.46636
259.367	5.51238
259.586	6.92466
259.805	3.31881
260.023	6.64913
260.242	5.16164
260.461	3.97099
260.68	2.10218
260.898	5.97929
261.117	1.95787
261.336	1.66461
261.554	5.48507
261.773	5.02382
261.992	1.33963
262.21	5.07634
262.429	6.11617
262.648	10.64584
262.866	11.54478
263.085	6.65178
263.303	6.77576
263.522	11.46541
263.74	13.38086
263.959	21.11921
264.178	11.10452
264.396	10.5772
264.615	6.86829
264.833	16.64167
265.051	14.60102
265.27	13.7858
265.488	15.92818
265.707	9.9609
265.925	15.07579
266.144	6.06575
266.362	8.59606
266.58	8.84127
266.799	6.69362
267.017	8.83281
267.235	7.3382
267.454	4.895
267.672	2.97057
267.89	6.10537
268.109	6.36429
268.327	5.8927
268.545	1.41497
268.763	5.77935
268.982	2.67322
269.2	7.01056
269.418	3.55902
269.636	3.53386
269.854	6.41383
270.073	4.93906
270.291	2.64993
270.509	2.61722
270.727	6.43595
270.945	10.0144
271.163	10.19714
271.381	2.33341
271.599	4.04862
271.817	7.37571
272.036	2.51475
272.254	3.97066
272.472	3.70355
272.69	3.37117
272.908	3.40648
273.126	5.82785
273.344	7.26198
273.562	2.65957
273.779	3.61924
273.997	5.0618
274.215	6.18579
274.433	4.41294
274.651	6.40126
274.869	6.64501
275.087	3.76608
275.305	5.8153
275.523	3.34858
275.74	4.86032
275.958	7.62796
276.176	10.82055
276.394	3.59687
276.612	4.59288
276.829	4.32187
277.047	3.46168
277.265	4.20526
277.483	5.09928
277.7	5.94579
277.918	5.05119
278.136	8.73908
278.353	4.03815
278.571	2.16879
278.789	7.06742
279.006	1.65927
279.224	4.20454
279.442	7.2933
279.659	4.76454
279.877	3.04347
280.094	7.53985
280.312	1.52237
280.529	4.74898
280.747	1.42648
280.964	3.73571
281.182	8.31735
281.399	3.68633
281.617	5.36792
281.834	3.71971
282.052	2.92264
282.269	4.30583
282.487	3.58797
282.704	2.8302
282.921	3.34642
283.139	4.36025
283.356	5.99202
283.574	5.17046
283.791	2.81285
284.008	7.35872
284.226	3.68611
284.443	4.65754
284.66	5.64519
284.877	4.62625
285.095	3.23136
285.312	2.04049
285.529	1.52778
285.746	1.23028
285.964	2.87541
286.181	1.84386
286.398	2.71894
286.615	3.69584
286.832	3.62622
287.05	1.30392
287.267	2.5211
287.484	2.86324
287.701	3.60707
287.918	3.54923
288.135	3.75806
288.352	1.76919
288.569	1.91619
288.786	3.36482
289.003	2.50267
289.22	3.85194
289.437	2.4272
289.654	4.06247
289.871	4.37081
290.088	3.89101
290.305	3.16893
290.522	2.37948
290.739	3.01478
290.956	4.4562
291.173	5.16362
291.39	4.76958
291.607	3.35991
291.824	2.80248
292.04	1.56879
292.257	3.83655
292.474	4.31866
292.691	2.59179
292.908	1.21867
293.125	2.72196
293.341	1.10284
293.558	7.14652
293.775	2.78147
293.992	2.9574
294.208	1.37857
294.425	1.69571
294.642	2.40764
294.858	3.2389
295.075	0.93932
295.292	2.94035
295.508	3.42011
295.725	5.10925
295.942	2.51022
296.158	1.64855
296.375	2.84109
296.591	2.23274
296.808	2.46916
297.024	2.65236
297.241	2.90182
297.458	3.33465
297.674	0.29057
297.891	2.61907
298.107	1.90437
298.323	1.55007
298.54	3.80229
298.756	1.79862
298.973	0.68276
299.189	3.97209
299.406	1.76348
299.622	4.00079
299.838	3.96706
300.055	3.43576
300.271	1.0194
300.487	1.12183
300.704	1.62692
300.92	1.15778
301.136	5.5494
301.353	3.82622
301.569	2.79286
301.785	3.11892
302.001	3.72503
302.218	3.41053
302.434	2.98468
302.65	1.07399
302.866	2.36667
303.083	5.26972
303.299	5.11024
303.515	2.57917
303.731	2.95547
303.947	1.06594
304.163	1.61636
304.379	3.09947
304.595	3.37361
304.812	1.92011
305.028	1.41781
305.244	2.34352
305.46	3.61516
305.676	4.15978
305.892	4.54165
306.108	3.03532
306.324	2.41259
306.54	5.36042
306.756	3.65652
306.972	3.46682
307.187	2.5185
307.403	4.62407
307.619	1.86659
307.835	4.05468
308.051	4.59979
308.267	0.98205
308.483	4.02953
308.699	3.43674
308.914	2.81624
309.13	2.49893
309.346	0.7295
309.562	1.25481
309.778	0.77276
309.993	3.50393
310.209	2.48764
310.425	1.08991
310.641	2.21796
310.856	1.32498
311.072	1.19936
311.288	2.41937
311.503	2.67067
311.719	0.55093
311.935	0.42283
312.15	2.99019
312.366	2.56637
312.581	3.41976
312.797	2.64424
313.013	3.46628
313.228	2.082
313.444	2.86805
313.659	1.61556
313.875	3.29676
314.09	2.41789
314.306	4.10945
314.521	3.67572
314.737	3.30898
314.952	2.95022
315.168	2.62088
315.383	3.31315
315.599	2.35204
315.814	2.22455
316.029	3.43147
316.245	0.88584
316.46	0.95766
316.675	4.23869
316.891	5.10317
317.106	6.14481
317.321	3.72571
317.537	3.32515
317.752	3.67525
317.967	3.64279
318.183	1.50678
318.398	2.37045
318.613	4.05824
318.828	4.45905
319.043	3.81812
319.259	2.39282
319.474	3.08957
319.689	4.40176
319.904	0.57869
320.119	3.95879
320.334	3.43741
320.549	2.45502
320.765	4.14309
320.98	3.03854
321.195	3.89072
321.41	2.62918
321.625	3.64975
321.84	5.22288
322.055	5.30416
322.27	2.23658
322.485	1.52515
322.7	2.99213
322.915	4.61282
323.13	1.76243
323.345	4.46635
323.56	3.7515
323.775	3.41329
323.989	3.46219
324.204	3.00736
324.419	3.86285
324.634	1.27459
324.849	2.59721
325.064	5.70082
325.279	3.99726
325.493	3.42803
325.708	4.00575
325.923	1.87007
326.138	1.84721
326.352	4.9802
326.567	3.91618
326.782	2.48205
326.997	1.92042
327.211	3.27008
327.426	3.17671
327.641	2.21315
327.855	0.83194
328.07	3.38183
328.285	5.01855
328.499	2.32164
328.714	3.36187
328.928	3.79527
329.143	3.11902
329.358	3.98682
329.572	4.1068
329.787	4.41589
330.001	5.859
330.216	0.69893
330.43	5.11394
330.645	4.83723
330.859	3.79867
331.074	2.10246
331.288	2.79813
331.503	4.37507
331.717	1.45899
331.931	2.97655
332.146	2.91846
332.36	5.00007
332.575	3.57355
332.789	3.13682
333.003	2.80732
333.218	3.53207
333.432	2.38641
333.646	3.67444
333.86	4.70264
334.075	5.03904
334.289	2.34967
334.503	1.84572
334.717	3.63128
334.932	3.46405
335.146	4.6304
335.36	2.48321
335.574	3.6254
335.788	3.53029
336.003	4.39381
336.217	3.8282
336.431	3.5785
336.645	2.08866
336.859	1.32715
337.073	2.6442
337.287	3.13302
337.501	1.45495
337.715	3.19259
337.929	3.70872
338.143	1.52359
338.357	2.81406
338.571	1.8573
338.785	3.47605
338.999	2.18841
339.213	2.5185
339.427	1.01498
339.641	4.07674
339.855	2.69564
340.069	2.24252
340.283	3.85544
340.497	5.04126
340.711	3.41669
340.924	2.23549
341.138	1.57571
341.352	1.21055
341.566	3.08159
341.78	0.9129
341.993	2.14894
342.207	1.503
342.421	2.98195
342.635	2.99711
342.848	2.1733
343.062	0.36318
343.276	2.08422
343.49	5.6652
343.703	2.13614
343.917	3.79784
344.131	3.88069
344.344	1.77329
344.558	2.17667
344.771	1.89334
344.985	4.47312
345.199	4.57096
345.412	2.85306
345.626	2.85033
345.839	0.93468
346.053	1.31168
346.266	1.64614
346.48	3.66224
346.693	2.91291
346.907	3.42841
347.12	1.74491
347.334	2.90953
347.547	3.0081
347.76	2.43085
347.974	4.03955
348.187	3.15263
348.401	2.26366
348.614	2.14632
348.827	2.34876
349.041	3.66619
349.254	0.70071
349.467	2.31631
349.681	1.22428
349.894	1.80088
350.107	4.10459
350.32	4.4291
350.534	0.56849
350.747	2.10288
350.96	1.75678
351.173	1.92433
351.386	2.31876
351.6	2.18827
351.813	1.72898
352.026	2.46142
352.239	1.22355
352.452	1.94775
352.665	3.49033
352.878	1.92954
353.092	4.9836
353.305	3.10913
353.518	2.89198
353.731	1.57535
353.944	4.033
354.157	1.62148
354.37	1.67332
354.583	1.20676
354.796	0.86018
355.009	3.6404
355.222	2.42213
355.435	2.37385
355.647	3.67654
355.86	1.47118
356.073	2.24425
356.286	1.75754
356.499	3.26076
356.712	2.58346
356.925	2.99261
357.138	3.4327
357.35	1.35795
357.563	1.9319
357.776	2.51118
357.989	1.86984
358.201	2.99909
358.414	2.34259
358.627	3.62586
358.84	2.11324
359.052	1.31465
359.265	1.20682
359.478	3.48914
359.69	-0.33254
359.903	2.93595
360.116	3.23673
360.328	0.73108
360.541	3.26076
360.753	1.29551
360.966	1.60196
361.179	1.73358
361.391	1.70282
361.604	1.05559
361.816	1.56726
362.029	1.44075
362.241	1.35968
362.454	1.66317
362.666	1.27107
362.879	2.20386
363.091	1.80482
363.304	1.29476
363.516	1.96103
363.728	0.94478
363.941	2.61125
364.153	1.59129
364.366	-0.10336
364.578	1.08434
364.79	2.66693
365.003	2.00573
365.215	1.62591
365.427	2.52081
365.639	3.31146
365.852	2.39286
366.064	4.10293
366.276	1.61136
366.488	2.60099
366.701	1.89943
366.913	1.91963
367.125	1.61964
367.337	1.27117
367.549	1.57554
367.762	2.12463
367.974	2.22332
368.186	1.48172
368.398	3.39378
368.61	2.70475
368.822	2.77368
369.034	2.33112
369.246	3.03385
369.458	4.72095
369.67	1.19731
369.882	4.0387
370.094	0.3082
370.306	3.90859
370.518	1.81767
370.73	1.24701
370.942	1.50373
371.154	1.9941
371.366	1.67088
371.578	2.58733
371.79	1.50946
372.002	3.46585
372.214	3.98339
372.425	2.17178
372.637	3.53898
372.849	2.13736
373.061	-0.03668
373.273	2.6954
373.484	2.60744
373.696	3.08132
373.908	0.10439
374.12	2.9788
374.331	2.93124
374.543	1.4466
374.755	1.06708
374.967	2.37794
375.178	3.16736
375.39	2.2228
375.602	2.20326
375.813	1.06946
376.025	0.76512
376.236	2.15317
376.448	2.29167
376.66	1.72479
376.871	1.8715
377.083	3.32252
377.294	3.56349
377.506	1.71486
377.717	3.50578
377.929	2.37888
378.14	1.57892
378.352	2.68534
378.563	2.94977
378.775	3.74987
378.986	1.56324
379.197	2.56249
379.409	1.85715
379.62	3.00661
379.832	2.79757
380.043	2.24422
380.254	2.33672
380.466	1.03626
380.677	5.04111
380.888	4.49413
381.1	4.86393
381.311	4.86191
381.522	2.48985
381.733	5.25071
381.945	2.32651
382.156	2.49176
382.367	2.09028
382.578	5.44166
382.789	5.32723
383.001	1.81855
383.212	3.95084
383.423	4.21679
383.634	3.32046
383.845	3.36211
384.056	2.00634
384.267	2.57819
384.478	2.48726
384.69	1.42719
384.901	3.13836
385.112	2.76633
385.323	4.16094
385.534	3.12085
385.745	3.15908
385.956	3.00948
386.167	1.57416
386.378	3.19144
386.588	1.86452
386.799	1.82113
387.01	1.17641
387.221	3.49301
387.432	2.61045
387.643	4.39778
387.854	2.2881
388.065	2.40189
388.275	2.47523
388.486	2.19036
388.697	2.78104
388.908	2.52878
389.119	3.8632
389.329	4.59191
389.54	2.69965
389.751	3.33506
389.962	4.17099
390.172	2.97047
390.383	2.86496
390.594	2.20935
390.804	2.15692
391.015	2.48957
391.226	3.14239
391.436	3.58011
391.647	3.32133
391.858	3.49419
392.068	1.4787
392.279	2.23381
392.489	3.13226
392.7	3.93692
392.91	2.44941
393.121	2.5619
393.331	3.58344
393.542	4.24223
393.752	3.87262
393.963	3.60597
394.173	3.43894
394.384	3.93186
394.594	3.20316
394.804	2.29618
395.015	3.27077
395.225	3.81135
395.436	2.49765
395.646	3.92078
395.856	2.77522
396.067	2.11432
396.277	4.25084
396.487	3.77181
396.697	3.8368
396.908	4.29968
397.118	3.89032
397.328	3.54006
397.538	4.30846
397.749	2.99559
397.959	4.42745
398.169	4.09245
398.379	2.29222
398.589	3.92856
398.8	3.88808
399.01	3.71486
399.22	3.26905
399.43	5.68376
399.64	3.40528
399.85	4.20793
400.06	3.7465
400.27	3.21779
400.48	3.56306
400.69	4.86221
400.9	3.4481
401.11	3.08623
401.32	4.54923
401.53	3.40177
401.74	5.19755
401.95	4.35344
402.16	3.40699
402.37	4.24783
402.58	3.53246
402.79	4.43626
403	4.61243
403.209	3.47668
403.419	4.85081
403.629	3.31168
403.839	4.71557
404.049	4.8937
404.258	3.69915
404.468	3.50014
404.678	4.74783
404.888	5.24854
405.097	3.98843
405.307	4.17571
405.517	4.84488
405.727	4.61801
405.936	3.81599
406.146	4.61673
406.356	5.48951
406.565	4.35278
406.775	3.77105
406.984	3.80873
407.194	6.13966
407.404	4.45742
407.613	4.57847
407.823	5.24957
408.032	5.72028
408.242	5.40634
408.451	4.10288
408.661	4.37447
408.87	6.08864
409.08	3.94494
409.289	4.81597
409.499	4.78057
409.708	4.57049
409.918	2.79325
410.127	4.79115
410.336	6.07507
410.546	5.30668
410.755	4.25265
410.964	4.32594
411.174	3.64608
411.383	5.05574
411.592	4.94161
411.802	3.92738
412.011	5.15624
412.22	4.6918
412.429	6.021
412.639	6.14777
412.848	5.75708
413.057	6.43675
413.266	5.632
413.475	4.93253
413.685	5.65391
413.894	5.57946
414.103	5.83639
414.312	5.41062
414.521	4.68822
414.73	5.19979
414.939	6.68127
415.148	5.39703
415.357	5.40674
415.566	5.19212
415.776	4.93775
415.985	4.95426
416.194	5.88409
416.403	7.05314
416.611	4.12818
416.82	4.8296
417.029	5.55407
417.238	4.71893
417.447	4.78202
417.656	5.23438
417.865	4.81659
418.074	5.34874
418.283	5.51965
418.492	6.36031
418.7	6.15571
418.909	7.13133
419.118	5.74443
419.327	6.2312
419.536	5.84004
419.744	5.60279
419.953	7.08115
420.162	6.91464
420.371	6.1316
420.579	6.29035
420.788	7.31574
420.997	7.54835
421.205	7.46959
421.414	7.16574
421.623	7.56457
421.831	6.8306
422.04	7.45277
422.249	6.66282
422.457	7.07384
422.666	6.36892
422.874	7.42388
423.083	7.42667
423.291	7.4452
423.5	7.13794
423.708	7.45815
423.917	8.13547
424.125	7.43368
424.334	7.05548
424.542	9.08236
424.751	8.24569
424.959	7.87946
425.167	8.32126
425.376	8.05776
425.584	7.13651
425.793	7.07854
426.001	6.12234
426.209	7.0322
426.418	6.05059
426.626	5.99834
426.834	5.98901
427.042	6.46442
427.251	5.82185
427.459	6.91983
427.667	6.31344
427.875	5.16498
428.084	5.74948
428.292	7.17483
428.5	6.86832
428.708	5.43048
428.916	5.39779
429.124	6.27942
429.333	5.89017
429.541	6.23858
429.749	6.22008
429.957	6.28081
430.165	8.24117
430.373	5.04475
430.581	6.4174
430.789	7.29202
430.997	5.9921
431.205	5.55522
431.413	6.60658
431.621	6.13714
431.829	6.91286
432.037	6.15664
432.245	6.74122
432.453	6.74364
432.661	6.2406
432.869	7.73658
433.076	5.87269
433.284	6.38493
433.492	7.28704
433.7	7.48376
433.908	6.41662
434.116	6.64942
434.323	6.95386
434.531	6.61957
434.739	7.07984
434.947	7.24466
435.154	7.40244
435.362	6.63313
435.57	6.51691
435.778	6.09967
435.985	6.76215
436.193	6.06255
436.401	7.67003
436.608	6.79993
436.816	6.20791
437.023	7.85529
437.231	8.11353
437.439	6.82788
437.646	7.2827
437.854	7.02108
438.061	7.34744
438.269	6.54983
438.476	7.47434
438.684	6.85179
438.891	6.72504
439.099	6.55743
439.306	5.93024
439.514	6.30836
439.721	7.37327
439.929	6.39654
440.136	7.33066
440.343	7.31928
440.551	6.93377
440.758	8.73469
440.965	7.54821
441.173	7.27371
441.38	6.78095
441.587	7.51378
441.795	6.93345
442.002	7.08524
442.209	7.24064
442.416	7.5849
442.624	7.47066
442.831	7.4054
443.038	6.64375
443.245	6.39938
443.452	6.85703
443.66	7.65547
443.867	6.75453
444.074	6.61193
444.281	6.51483
444.488	6.66086
444.695	7.10637
444.902	6.69137
445.109	7.55151
445.316	6.91101
445.523	7.0059
445.73	6.85746
445.937	7.94089
446.144	8.34985
446.351	8.85951
446.558	7.49536
446.765	9.2553
446.972	8.82446
447.179	8.27312
447.386	9.01388
447.593	7.4075
447.8	8.54258
448.007	7.2078
448.214	7.2942
448.42	7.04442
448.627	8.14443
448.834	7.1178
449.041	7.01554
449.248	7.1581
449.454	7.72489
449.661	8.37389
449.868	6.7841
450.075	6.70996
450.281	5.90321
450.488	6.27812
450.695	6.47633
450.901	6.47791
451.108	6.68712
451.315	7.77553
451.521	6.7143
451.728	7.87728
451.935	6.63971
452.141	6.90269
452.348	7.03734
452.554	6.92608
452.761	6.75845
452.967	8.44411
453.174	7.39448
453.38	7.36411
453.587	6.20346
453.793	7.45584
454	7.57123
454.206	8.86521
454.413	7.6803
454.619	7.6817
454.825	6.67836
455.032	7.35632
455.238	7.78004
455.445	6.20563
455.651	7.35088
455.857	5.60964
456.064	7.03015
456.27	6.80155
456.476	6.83417
456.682	6.10771
456.889	7.21614
457.095	7.56685
457.301	8.76169
457.507	7.17904
457.714	7.1543
457.92	7.2522
458.126	6.54982
458.332	7.07705
458.538	6.99371
458.744	6.99875
458.951	7.0513
459.157	8.59086
459.363	7.55797
459.569	7.68108
459.775	8.45233
459.981	7.9326
460.187	8.41761
460.393	8.61202
460.599	8.93413
460.805	7.89177
461.011	7.74029
461.217	8.35124
461.423	8.3977
461.629	7.51876
461.835	8.03546
462.041	7.31531
462.247	8.74301
462.453	7.13539
462.658	7.22763
462.864	7.7678
463.07	7.71195
463.276	7.41332
463.482	7.44049
463.688	8.66218
463.893	6.81655
464.099	7.16821
464.305	8.56088
464.511	6.9555
464.716	7.0944
464.922	8.04334
465.128	6.65938
465.333	8.39121
465.539	7.90228
465.745	7.58657
465.95	7.32911
466.156	9.99337
466.362	8.18991
466.567	7.4394
466.773	7.06777
466.978	8.70888
467.184	6.66554
467.389	6.30022
467.595	7.68516
467.8	6.79883
468.006	8.61804
468.211	8.4525
468.417	6.66552
468.622	7.58922
468.828	8.17682
469.033	7.68615
469.239	9.75035
469.444	7.12511
469.649	8.1338
469.855	7.61984
470.06	7.57084
470.266	6.63745
470.471	8.02865
470.676	7.76183
470.881	5.94826
471.087	9.0287
471.292	9.01151
471.497	6.40468
471.703	7.42246
471.908	6.99687
472.113	7.59817
472.318	8.28659
472.523	6.48571
472.729	8.02572
472.934	7.65139
473.139	7.35675
473.344	7.97663
473.549	8.73932
473.754	6.95336
473.959	9.44091
474.164	7.21557
474.369	7.33334
474.575	8.10374
474.78	7.77601
474.985	7.22172
475.19	6.20442
475.395	7.11306
475.6	7.63555
475.804	8.87893
476.009	7.73983
476.214	7.54478
476.419	7.20082
476.624	6.39091
476.829	7.04075
477.034	8.23828
477.239	7.19247
477.444	8.2085
477.648	8.37331
477.853	8.1924
478.058	7.40834
478.263	7.41642
478.468	7.15581
478.672	7.27046
478.877	9.04097
479.082	9.23496
479.287	8.22037
479.491	7.8429
479.696	7.04799
479.901	8.43021
480.105	8.22479
480.31	7.1832
480.515	7.71958
480.719	9.69614
480.924	7.484
481.128	6.92487
481.333	7.98204
481.538	8.0004
481.742	7.54894
481.947	8.43781
482.151	9.17662
482.356	9.72818
482.56	11.65686
482.765	13.15593
482.969	15.78875
483.174	17.51284
483.378	20.88141
483.582	21.23879
483.787	22.95515
483.991	23.05632
484.196	23.5035
484.4	22.78305
484.604	23.21782
484.809	20.74177
485.013	19.67514
485.217	17.44011
485.422	15.36927
485.626	13.9813
485.83	13.34503
486.034	12.69756
486.239	13.11622
486.443	13.43735
486.647	13.664
486.851	14.97913
487.055	16.33235
487.26	15.9373
487.464	16.95027
487.668	16.29711
487.872	16.74706
488.076	17.11469
488.28	16.246
488.484	15.05657
488.688	14.55364
488.892	13.85834
489.096	12.92514
489.3	11.75679
489.504	11.11652
489.708	10.59847
489.912	10.48946
490.116	10.17536
490.32	9.60995
490.524	10.89044
490.728	11.59292
490.932	12.12384
491.136	12.99095
491.34	14.18387
491.544	14.71607
491.748	14.23666
491.951	14.2495
492.155	13.84206
492.359	13.47339
492.563	11.76326
492.767	11.30501
492.97	10.03009
493.174	8.78929
493.378	8.6042
493.582	8.10938
493.785	8.51143
493.989	8.62138
494.193	8.55272
494.396	8.26917
494.6	8.70355
494.804	8.2231
495.007	7.84148
495.211	7.90821
495.414	8.08508
495.618	8.421
495.822	9.12824
496.025	8.19918
496.229	8.63362
496.432	7.92409
496.636	8.22016
496.839	8.24442
497.043	9.10733
497.246	8.38577
497.45	7.92378
497.653	8.43027
497.856	8.39809
498.06	7.86483
498.263	8.10784
498.467	8.2781
498.67	9.07095
498.873	8.49735
499.077	7.99162
499.28	8.13033
499.483	8.44046
499.686	8.8752
499.89	8.30219
500.093	8.76272
500.296	7.58714
500.499	9.44307
500.703	8.06146
500.906	8.22751
501.109	9.54502
501.312	8.38408
501.515	7.96137
501.719	8.60611
501.922	8.94374
502.125	8.25653
502.328	8.11306
502.531	7.46087
502.734	8.26863
502.937	7.07419
503.14	8.35021
503.343	7.76479
503.546	7.90715
503.749	7.61071
503.952	8.55691
504.155	7.48062
504.358	8.51404
504.561	8.4637
504.764	7.23945
504.967	8.34511
505.17	8.33193
505.373	9.49109
505.576	8.22651
505.778	8.67867
505.981	7.59232
506.184	9.20774
506.387	6.92972
506.59	9.73541
506.793	8.97424
506.995	8.48258
507.198	6.80339
507.401	8.46607
507.604	8.53124
507.806	7.63558
508.009	7.70192
508.212	8.62902
508.414	7.89527
508.617	7.85317
508.82	8.28001
509.022	9.4001
509.225	8.61883
509.427	7.26044
509.63	9.26263
509.833	8.26898
510.035	8.02332
510.238	7.3803
510.44	9.38158
510.643	6.98712
510.845	9.82902
511.048	8.62408
511.25	7.90528
511.453	8.1241
511.655	8.52265
511.858	8.29323
512.06	9.01586
512.262	8.18953
512.465	9.18542
512.667	8.24889
512.869	7.56358
513.072	8.66241
513.274	8.94601
513.476	8.87212
513.679	8.94435
513.881	7.60035
514.083	9.50431
514.286	7.71794
514.488	7.69108
514.69	7.68295
514.892	7.34771
515.094	8.98038
515.297	7.75336
515.499	8.26468
515.701	7.74469
515.903	9.68213
516.105	9.56384
516.307	8.92237
516.509	6.90658
516.711	7.39618
516.913	8.30691
517.116	8.235
517.318	7.84893
517.52	9.18507
517.722	8.84112
517.924	7.59274
518.126	8.79768
518.328	8.02869
518.529	8.74542
518.731	9.73694
518.933	8.19985
519.135	8.43788
519.337	9.49152
519.539	9.03142
519.741	7.32778
519.943	8.49443
520.145	8.38072
520.346	9.17639
520.548	8.36826
520.75	8.85721
520.952	8.19788
521.153	8.85593
521.355	8.69093
521.557	7.73938
521.759	8.44085
521.96	8.3492
522.162	7.62043
522.364	9.27163
522.565	7.73454
522.767	9.01061
522.969	9.0226
523.17	8.68302
523.372	8.39724
523.573	8.25362
523.775	8.20195
523.977	7.62468
524.178	9.50548
524.38	8.05625
524.581	9.1298
524.783	8.13085
524.984	8.95933
525.186	8.47576
525.387	8.98947
525.589	8.49509
525.79	8.34044
525.991	8.10618
526.193	8.99469
526.394	8.05058
526.596	9.11427
526.797	9.47878
526.998	9.09952
527.2	9.4372
527.401	11.41783
527.602	12.48665
527.803	14.89928
528.005	15.81222
528.206	16.99587
528.407	18.05482
528.608	17.94014
528.81	18.21667
529.011	17.40542
529.212	18.26586
529.413	16.99722
529.614	15.49193
529.815	14.72653
530.017	13.2712
530.218	11.76636
530.419	10.39694
530.62	9.8851
530.821	9.3314
531.022	8.31542
531.223	9.43842
531.424	9.31033
531.625	9.26068
531.826	9.00945
532.027	9.55907
532.228	10.80119
532.429	10.88411
532.63	11.05521
532.831	11.93205
533.032	11.85728
533.233	12.80586
533.433	12.35169
533.634	12.67578
533.835	11.74515
534.036	11.21013
534.237	10.54745
534.438	9.73434
534.638	8.54103
534.839	8.87833
535.04	9.19618
535.241	8.62419
535.441	10.04663
535.642	9.11627
535.843	8.06684
536.043	8.27147
536.244	8.26774
536.445	8.58325
536.645	9.37278
536.846	9.10608
537.047	9.57778
537.247	8.14371
537.448	8.72837
537.648	8.87965
537.849	8.77491
538.049	8.8849
538.25	9.46635
538.451	9.33514
538.651	8.13537
538.851	9.15599
539.052	9.85136
539.252	9.4418
539.453	8.72159
539.653	9.01001
539.854	8.67167
540.054	8.71704
540.254	9.87
540.455	10.99921
540.655	10.75127
540.855	12.29116
541.056	13.39966
541.256	13.17522
541.456	14.26136
541.657	13.41776
541.857	14.24402
542.057	12.46027
542.257	12.01368
542.458	12.29939
542.658	11.76447
542.858	9.8059
543.058	10.33201
543.258	9.57918
543.458	8.3729
543.659	8.24704
543.859	9.3578
544.059	9.56697
544.259	8.88235
544.459	9.76619
544.659	8.65295
544.859	9.08328
545.059	8.44611
545.259	9.35606
545.459	8.78312
545.659	9.38011
545.859	8.87285
546.059	9.04158
546.259	8.21227
546.459	7.91033
546.659	7.96102
546.859	9.32539
547.059	9.08061
547.258	9.13731
547.458	9.215
547.658	8.10563
547.858	7.96922
548.058	8.96546
548.258	8.68907
548.457	8.08849
548.657	10.67089
548.857	8.48744
549.057	9.28827
549.256	9.12099
549.456	8.21205
549.656	6.72687
549.855	10.06741
550.055	8.18234
550.255	10.12081
550.454	9.03987
550.654	9.29919
550.853	9.8002
551.053	9.18079
551.253	8.86052
551.452	9.1063
551.652	7.68386
551.851	7.30638
552.051	8.40525
552.25	7.9733
552.45	8.02915
552.649	8.41686
552.849	7.99506
553.048	8.5387
553.248	9.14101
553.447	7.89942
553.646	9.14614
553.846	10.37958
554.045	9.68949
554.244	7.37498
554.444	10.19894
554.643	7.74107
554.842	9.84077
555.042	10.50746
555.241	7.77957
555.44	7.42173
555.64	9.10564
555.839	10.17723
556.038	8.89049
556.237	7.90209
556.436	8.4885
556.636	9.06266
556.835	7.90516
557.034	10.11668
557.233	8.49279
557.432	7.32691
557.631	9.49893
557.83	8.49999
558.029	8.02164
558.228	7.72032
558.427	7.51042
558.626	8.83194
558.825	7.43542
559.024	8.38851
559.223	9.92468
559.422	8.0791
559.621	8.81753
559.82	6.05985
560.019	8.18083
560.218	8.16821
560.417	5.97468
560.616	7.81521
560.815	11.84023
561.014	7.00028
561.212	10.11027
561.411	8.45838
561.61	6.82317
561.809	8.31842
562.008	9.64302
562.206	8.16512
562.405	8.86451
562.604	8.19954
562.803	8.98063
563.001	8.08719
563.2	7.02095
563.399	9.14306
563.597	7.36329
563.796	8.61425
563.995	7.26984
564.193	9.02997
564.392	8.17935
564.59	10.7117
564.789	6.65839
564.988	7.71884
565.186	8.49282
565.385	8.25401
565.583	8.39354
565.782	8.25968
565.98	8.14719
566.179	8.48511
566.377	7.69713
566.575	7.74424
566.774	9.7424
566.972	9.4944
567.171	10.77666
567.369	9.63275
567.567	8.67544
567.766	8.64719
567.964	6.34143
568.162	8.90032
568.361	9.4929
568.559	8.31967
568.757	8.67204
568.956	8.65072
569.154	8.44615
569.352	8.94992
569.55	8.23883
569.748	8.28413
569.947	7.83216
570.145	7.66385
570.343	7.47728
570.541	9.44785
570.739	7.22216
570.937	8.31666
571.135	8.96723
571.333	10.38757
571.532	10.06427
571.73	8.55372
571.928	9.7015
572.126	9.04274
572.324	8.06894
572.522	9.85384
572.72	11.45698
572.918	8.73611
573.116	9.06579
573.313	8.43589
573.511	8.44121
573.709	8.01577
573.907	9.49773
574.105	8.06475
574.303	6.68586
574.501	7.00008
574.699	8.82524
574.896	8.82566
575.094	9.05097
575.292	7.06261
575.49	9.50902
575.688	8.15078
575.885	9.48382
576.083	10.50559
576.281	9.00501
576.478	7.64968
576.676	8.80786
576.874	6.68742
577.071	8.23452
577.269	10.93063
577.467	8.55361
577.664	8.4525
577.862	9.59518
578.059	7.58671
578.257	9.22924
578.455	7.95564
578.652	8.38752
578.85	5.84153
579.047	8.44556
579.245	8.23053
579.442	8.17537
579.64	8.44016
579.837	6.14719
580.034	11.99653
580.232	7.85282
580.429	6.73651
580.627	8.8197
580.824	10.11596
581.021	8.78034
581.219	7.94092
581.416	7.27452
581.613	10.21724
581.811	10.18133
582.008	7.2387
582.205	9.34148
582.402	8.54137
582.6	9.68738
582.797	8.55282
582.994	8.67658
583.191	9.45268
583.388	8.26304
583.586	9.40268
583.783	9.75037
583.98	7.46436
584.177	8.8252
584.374	4.73555
584.571	8.14581
584.768	8.1135
584.965	7.55571
585.162	9.05977
585.359	10.30655
585.556	8.50642
585.753	8.79084
585.95	6.65038
586.147	7.4988
586.344	9.28447
586.541	7.98165
586.738	7.01991
586.935	8.30872
587.132	7.37394
587.329	9.84003
587.526	8.21732
587.722	14.97214
587.919	6.95397
588.116	8.93071
588.313	10.38362
588.51	11.45409
588.706	7.82422
588.903	9.17964
589.1	9.64046
589.297	11.59877
589.493	8.70912
589.69	9.16483
589.887	7.8065
590.083	7.26988
590.28	7.47325
590.477	9.28264
590.673	9.27825
590.87	10.29252
591.067	8.41763
591.263	9.32855
591.46	8.79503
591.656	8.17546
591.853	10.31933
592.049	7.30429
592.246	7.8872
592.442	9.9424
592.639	10.17751
592.835	7.34109
593.032	9.19564
593.228	6.40033
593.425	6.4471
593.621	6.24074
593.817	8.86387
594.014	7.38293
594.21	8.58127
594.406	9.79446
594.603	9.20164
594.799	7.75804
594.995	5.27989
595.192	9.82653
595.388	7.92038
595.584	8.20031
595.78	6.6708
595.977	11.50549
596.173	10.5796
596.369	8.15694
596.565	7.10533
596.761	6.8435
596.957	10.0264
597.154	7.60708
597.35	7.69413
597.546	7.93122
597.742	9.67475
597.938	8.8785
598.134	7.65173
598.33	9.21411
598.526	10.63442
598.722	9.04841
598.918	10.99967
599.114	9.03446
599.31	7.23361
599.506	8.41798
599.702	7.83116
599.898	8.4551
600.094	9.26683
600.29	9.79793
600.485	9.84745
600.681	7.63934
600.877	10.62196
601.073	8.85169
601.269	11.39119
601.465	10.4738
601.66	7.20118
601.856	5.56461
602.052	10.7025
602.248	8.21978
602.443	6.19175
602.639	6.81292
602.835	7.52816
603.03	7.17189
603.226	9.90236
603.422	7.10154
603.617	8.00557
603.813	8.04927
604.009	8.1504
604.204	10.01645
604.4	6.90382
604.595	9.84662
604.791	7.30377
604.986	8.88124
605.182	7.56276
605.377	8.15947
605.573	7.86324
605.768	8.82783
605.964	9.45655
606.159	9.46757
606.355	9.90398
606.55	7.82572
606.746	10.45022
606.941	8.13399
607.136	11.49203
607.332	12.80374
607.527	6.60952
607.722	8.81711
607.918	8.24359
608.113	7.57121
608.308	9.48126
608.503	9.15011
608.699	9.20501
608.894	9.23444
609.089	7.64898
609.284	8.7974
609.479	8.11713
609.675	9.74798
609.87	8.22211
610.065	9.84671
610.26	10.1291
610.455	9.75966
610.65	8.42806
610.845	8.71822
611.04	9.86871
611.235	8.35111
611.43	7.88971
611.625	6.61246
611.82	10.78854
612.015	7.72762
612.21	10.67929
612.405	6.56849
612.6	11.3662
612.795	10.5363
612.99	9.93849
613.185	6.91224
613.38	7.72329
613.575	8.60907
613.77	13.12495
613.965	6.28999
614.159	7.17844
614.354	11.15793
614.549	10.98508
614.744	9.53586
614.938	7.08986
615.133	6.50838
615.328	11.40688
615.523	10.49037
615.717	13.67116
615.912	7.10931
616.107	8.98771
616.301	7.95114
616.496	7.79025
616.691	11.362
616.885	10.38704
617.08	13.91889
617.274	10.59413
617.469	12.78957
617.664	10.02909
617.858	7.97665
618.053	9.52918
618.247	8.7611
618.442	4.73716
618.636	11.25088
618.831	8.06908
619.025	8.30596
619.219	13.26178
619.414	4.0037
619.608	9.43615
619.803	7.77952
619.997	12.92895
620.191	10.94944
620.386	9.37397
620.58	8.92754
620.774	5.9339
620.969	6.45657
621.163	8.72192
621.357	7.33219
621.551	8.45124
621.746	9.07192
621.94	8.25353
622.134	14.42814
622.328	13.40494
622.522	6.27267
622.716	10.52896
622.911	11.03889
623.105	10.29741
623.299	9.79733
623.493	15.10689
623.687	7.20171
623.881	7.98524
624.075	9.82449
624.269	11.55801
624.463	5.76522
624.657	6.16327
624.851	10.04916
625.045	10.86062
625.239	11.13034
625.433	8.69532
625.627	11.87088
625.821	8.00694
626.015	7.60019
626.209	9.36166
626.403	7.18694
626.596	10.10262
626.79	10.64937
626.984	6.97646
627.178	9.97713
627.372	9.82123
627.565	10.61416
627.759	6.49529
627.953	7.31285
628.147	9.81365
628.34	10.40088
628.534	12.65082
628.728	8.67618
628.921	10.46584
629.115	10.15706
629.309	11.11259
629.502	11.13433
629.696	9.03894
629.89	8.91963
630.083	9.70144
630.277	9.94727
630.47	12.78061
630.664	8.57667
630.857	6.66225
631.051	11.93522
631.244	11.93055
631.438	11.3336
631.631	7.70313
631.825	12.2112
632.018	10.81134
632.212	13.28212
632.405	12.13183
632.598	8.56284
632.792	9.77694
632.985	5.10083
633.178	8.74596
633.372	9.52656
633.565	8.72434
633.758	12.3514
633.952	7.59793
634.145	7.62576
634.338	8.73889
634.531	7.9689
634.724	8.0766
634.918	9.36975
635.111	8.5388
635.304	8.54933
635.497	14.39277
635.69	10.01141
635.883	12.63652
636.077	7.99854
636.27	11.0929
636.463	9.74196
636.656	10.08881
636.849	8.72914
637.042	11.13003
637.235	13.66714
637.428	11.52905
637.621	12.20696
637.814	12.74705
638.007	13.23141
638.2	12.84618
638.393	13.93608
638.586	7.3766
638.778	9.20815
638.971	10.24797
639.164	14.18168
639.357	10.62173
639.55	13.74168
639.743	12.13791
639.935	11.03874
640.128	14.90767
640.321	12.07219
640.514	10.30402
640.707	15.77077
640.899	11.63472
641.092	6.16335
641.285	29.03544
641.477	5.12662
641.67	15.9255
641.863	14.07669
642.055	11.2823
642.248	10.06863
642.441	9.56173
642.633	12.51285
642.826	12.91397
643.018	13.74525
643.211	14.66611
643.403	14.77778
643.596	16.56256
643.788	14.74731
643.981	10.18294
644.173	13.10565
644.366	10.67894
644.558	6.09422
644.751	13.58141
644.943	6.86425
645.135	14.76229
645.328	15.33806
645.52	12.16528
645.712	13.31508
645.905	19.4295
646.097	7.89611
646.289	11.00898
646.482	16.70024
646.674	9.27135
646.866	13.47267
647.058	12.18335
647.251	8.66567
647.443	9.59845
647.635	10.92128
647.827	7.92019
648.019	9.68924
648.211	11.03289
648.404	10.93364
648.596	15.31017
648.788	11.79328
648.98	11.8758
649.172	12.19588
649.364	12.25492
649.556	6.85386
649.748	18.75631
649.94	8.61084
650.132	12.67169
650.324	8.69552
650.516	9.88185
650.708	14.36279
650.9	7.59565
651.092	9.66479
651.284	7.60766
651.476	8.12915
651.667	12.93307
651.859	14.6223
652.051	11.06018
652.243	10.92934
652.435	9.25211
652.627	12.4533
652.818	11.87591
653.01	7.39308
653.202	9.05962
653.394	10.42932
653.585	12.91255
653.777	23.97396
653.969	15.38615
654.16	14.57427
654.352	8.55538
654.544	10.64176
654.735	15.24976
654.927	12.2431
655.118	16.08166
655.31	13.21491
655.502	14.65026
655.693	10.5294
655.885	13.90678
656.076	15.76787
656.268	12.33421
656.459	16.03833
656.651	15.70173
656.842	10.68401
657.034	9.60743
657.225	14.04396
657.416	15.88594
657.608	15.04518
657.799	11.17149
657.99	14.96738
658.182	9.58824
658.373	9.97274
658.564	13.90603
658.756	11.29352
658.947	11.30522
659.138	8.75488
659.33	10.43988
659.521	9.37327
659.712	10.91516
659.903	10.57
660.094	10.32161
660.286	7.60876
660.477	16.67108
660.668	13.69998
660.859	12.12726
661.05	8.27899
661.241	13.73258
661.432	13.34887
661.623	11.05776
661.814	10.66414
662.006	7.66008
662.197	11.7499
662.388	15.83263
662.579	13.07287
662.77	15.7143
662.96	21.0579
663.151	14.614
663.342	7.3829
663.533	13.90511
663.724	12.30447
663.915	17.62166
664.106	11.92998
664.297	17.22847
664.488	14.35683
664.678	10.62157
664.869	14.72424
665.06	15.16863
665.251	13.26433
665.442	13.93644
665.632	9.15085
665.823	19.313
666.014	3.66475
666.204	15.16936
666.395	17.81943
666.586	22.24064
666.776	16.19456
666.967	18.85739
667.158	13.60345
667.348	17.60589
667.539	9.82508
667.729	15.15259
667.92	10.32415
668.111	16.39404
668.301	14.9675
668.492	12.17903
668.682	12.88544
668.873	12.76958
669.063	9.2327
669.253	13.68957
669.444	15.9326
669.634	11.77621
669.825	20.50727
670.015	16.62952
670.206	10.02585
670.396	19.93244
670.586	12.01156
670.777	15.00089
670.967	5.70189
671.157	12.66718
671.347	11.36005
671.538	18.7496
671.728	15.29352
671.918	19.47278
672.108	16.86129
672.299	12.77124
672.489	14.74926
672.679	11.28961
672.869	16.04024
673.059	19.94273
673.249	15.15542
673.44	9.42315
673.63	12.34773
673.82	17.19838
674.01	11.24287
674.2	15.62205
674.39	24.0744
674.58	16.00343
674.77	15.50592
674.96	13.4367
675.15	28.54341
675.34	18.66863
675.53	14.96459
675.72	12.1792
675.91	8.42549
676.099	20.33663
676.289	23.58497
676.479	18.18559
676.669	11.64009
676.859	15.63218
677.049	11.15498
677.238	14.94794
677.428	21.37074
677.618	16.0265
677.808	18.09722
677.997	15.34608
678.187	9.95576
678.377	14.18882
678.567	11.93954
678.756	12.54165
678.946	13.68836
679.136	9.04181
679.325	11.40598
679.515	10.53996
679.704	9.45392
679.894	15.45621
680.084	14.69785
680.273	17.4862
680.463	11.39511
680.652	10.76087
680.842	13.19654
681.031	16.52647
681.221	11.29726
681.41	15.89886
681.6	12.90368
681.789	17.8046
681.978	18.48124
682.168	14.76004
682.357	15.30958
682.547	16.60279
682.736	14.54672
682.925	18.28514
683.115	18.852
683.304	17.6776
683.493	16.13505
683.682	16.52099
683.872	16.85314
684.061	20.29865
684.25	16.6728
684.439	23.44223
684.629	16.91461
684.818	28.98955
685.007	15.38498
685.196	14.84251
685.385	22.45459
685.574	16.39949
685.763	17.11922
685.952	16.1954
686.142	11.1338
686.331	21.05646
686.52	8.22547
686.709	22.89712
686.898	22.62171
687.087	18.62572
687.276	22.47655
687.465	20.6104
687.654	15.07998
687.842	22.17596
688.031	10.41518
688.22	21.40974
688.409	17.19924
688.598	16.81749
688.787	27.28616
688.976	16.94064
689.165	24.80336
689.353	14.34899
689.542	18.71085
689.731	20.22241
689.92	25.1233
690.108	20.83986
690.297	15.66074
690.486	16.8279
690.675	20.73719
690.863	25.41435
691.052	23.54341
691.241	18.34781
691.429	17.82184
691.618	24.03887
691.806	12.2557
691.995	15.26011
692.184	17.34829
692.372	15.12233
692.561	18.12747
692.749	18.34293
692.938	29.413
693.126	21.16837
693.315	16.78958
693.503	19.35538
693.692	22.28507
693.88	23.46188
694.068	28.32273
694.257	18.08816
694.445	20.42085
694.634	8.68527
694.822	23.77577
695.01	24.2658
695.199	26.87776
695.387	26.34187
695.575	23.13622
695.763	17.55656
695.952	16.3114
696.14	12.72054
696.328	15.25825
696.516	18.8468
696.705	19.28414
696.893	19.1932
697.081	10.29716
697.269	21.73639
697.457	13.30949
697.645	12.48355
697.833	20.68588
698.021	13.44547
698.21	15.07274
698.398	16.13243
698.586	12.57913
698.774	11.33215
698.962	16.23149
699.15	12.76498
699.338	10.68106
699.526	18.7673
699.714	13.90739
699.901	14.13328
700.089	21.92622
700.277	14.32812
700.465	16.38955
700.653	21.09691
700.841	19.82459
701.029	14.58681
701.217	23.86453
701.404	19.33522
701.592	25.63132
701.78	29.30908
701.968	18.69183
702.155	19.59821
702.343	11.2002
702.531	26.97068
702.718	21.0676
702.906	18.29441
703.094	15.70578
703.281	27.17976
703.469	19.9027
703.657	25.81772
703.844	36.36276
704.032	28.72275
704.219	17.73652
704.407	23.21155
704.595	26.24899
704.782	20.20905
704.97	17.55868
705.157	19.08808
705.345	27.93233
705.532	35.522
705.719	24.24945
705.907	28.91446
706.094	21.68812
706.282	30.05026
706.469	19.68225
706.656	21.32086
706.844	19.55893
707.031	26.83901
707.218	22.40206
707.406	29.95635
707.593	24.96937
707.78	26.47076
707.968	21.44173
708.155	17.35195
708.342	26.17752
708.529	24.47989
708.716	23.30529
708.904	30.91368
709.091	25.99862
709.278	14.81973
709.465	32.08799
709.652	31.79449
709.839	28.89896
710.026	23.14183
710.213	13.3519
710.4	25.03864
710.587	28.33412
710.774	29.62569
710.961	28.49194
711.148	20.80076
711.335	28.82183
711.522	20.89568
711.709	25.10879
711.896	35.67252
712.083	28.89247
712.27	16.69076
712.457	22.3307
712.644	14.5133
712.831	36.99316
713.017	22.9707
713.204	27.73076
713.391	18.61273
713.578	29.11704
713.765	33.17027
713.951	26.33645
714.138	44.4366
714.325	28.69079
714.512	24.9247
714.698	16.82643
714.885	34.16133
715.072	27.25202
715.258	24.05535
715.445	21.12854
715.631	31.551
715.818	9.46427
716.005	20.59592
716.191	28.94912
716.378	22.0839
716.564	31.05557
716.751	19.05856
716.937	21.94319
717.124	32.46107
717.31	21.49751
717.497	37.19788
717.683	20.64504
717.869	41.64133
718.056	21.59723
718.242	29.34598
718.429	25.51403
718.615	18.65732
718.801	26.75572
718.988	33.39535
719.174	29.23595
719.36	25.78129
719.547	33.29504
719.733	29.4581
719.919	29.45304
720.105	33.93227
720.291	27.752
720.478	27.35825
720.664	26.59645
720.85	22.30815
721.036	47.66756
721.222	38.51517
721.408	26.84316
721.595	42.00027
721.781	40.72448
721.967	37.18595
722.153	39.19985
722.339	33.03879
722.525	30.97888
722.711	20.96972
722.897	17.4874
723.083	25.60401
723.269	37.02089
723.455	50.06278
723.641	55.80749
723.827	31.92001
724.012	31.4976
724.198	28.07976
724.384	38.07363
724.57	31.03543
724.756	18.56711
724.942	14.20691
725.127	37.59215
725.313	40.09447
725.499	39.06611
725.685	44.07788
725.87	30.95244
726.056	21.78569
726.242	38.79905
726.428	18.57589
726.613	37.49354
726.799	25.14358
726.985	21.23879
727.17	16.92169
727.356	42.92981
727.541	21.1832
727.727	26.98249
727.913	35.14278
728.098	25.20575
728.284	34.42623
728.469	19.00128
728.655	21.9161
728.84	34.36247
729.026	34.64425
729.211	35.24387
729.397	32.4728
729.582	34.60724
729.767	29.90864
729.953	32.84681
730.138	36.27545
730.323	12.17081
730.509	20.46256
730.694	42.29523
730.879	32.95591
731.065	31.12726
731.25	49.24421
731.435	34.19536
731.621	17.70453
731.806	23.87878
731.991	33.04878
732.176	17.95588
732.361	42.00182
732.547	33.74685
732.732	16.65069
732.917	48.82299
733.102	21.12034
733.287	23.88543
733.472	29.76876
733.657	32.87494
733.842	19.12749
734.027	25.80653
734.212	28.36466
734.397	23.94132
734.582	30.92625
734.767	38.36581
734.952	41.72382
735.137	11.11832
735.322	42.36816
735.507	33.60748
735.692	32.85479
735.877	51.27735
736.062	49.93618
736.247	35.56686
736.431	29.31095
736.616	43.01755
736.801	33.41694
736.986	31.90242
737.171	25.65962
737.355	18.91089
737.54	43.38169
737.725	31.35149
737.909	59.10964
738.094	28.42238
738.279	37.27402
738.463	30.48885
738.648	40.13412
738.833	35.72496
739.017	52.50066
739.202	30.49432
739.386	33.03357
739.571	25.1333
739.756	40.93019
739.94	34.03225
740.125	39.64071
740.309	28.15578
740.494	40.67675
740.678	35.19243
740.863	37.57993
741.047	38.18113
741.231	45.69911
741.416	26.80551
741.6	49.11696
741.785	23.58214
741.969	43.52585
742.153	45.76259
742.338	13.21057
742.522	31.54428
742.706	43.79453
742.89	18.35174
743.075	37.55883
743.259	46.38274
743.443	43.24737
743.627	47.65235
743.812	60.31207
743.996	13.13361
744.18	34.00969
744.364	26.86207
744.548	61.14681
744.732	32.06431
744.916	41.53053
745.1	40.29257
745.285	30.21382
745.469	41.75465
745.653	54.02738
745.837	20.62674
746.021	60.14847
746.205	47.35581
746.389	35.61306
746.573	30.78497
746.757	51.07366
746.94	32.00102
747.124	48.33658
747.308	24.2977
747.492	47.11652
747.676	31.0291
747.86	61.85642
748.044	31.63085
748.227	16.38064
748.411	79.42835
748.595	40.19746
748.779	25.88995
748.963	43.20653
749.146	37.46567
749.33	27.90089
749.514	25.40397
749.697	53.6443
749.881	28.89034
750.065	23.45893
750.248	38.13071
750.432	64.4208
750.616	38.8927
750.799	21.15478
750.983	58.39146
751.166	67.13291
751.35	18.03153
751.533	46.66098
751.717	52.9992
751.9	55.29107
752.084	31.12531
752.267	23.13267
752.451	26.97744
752.634	37.79845
752.818	44.1021
753.001	46.81699
753.184	50.33382
753.368	39.66134
753.551	1.01501
753.734	29.46728
753.918	61.36821
754.101	30.06753
754.284	43.8864
754.467	32.37155
754.651	31.59636
754.834	31.7777
755.017	51.93546
755.2	51.39872
755.384	24.71203
755.567	46.40803
755.75	50.7886
755.933	32.10591
756.116	44.02716
756.299	33.22244
756.482	28.73942
756.665	41.96053
756.848	39.02371
757.032	45.23438
757.215	21.81159
757.398	31.44863
757.581	27.82154
757.764	70.57988
757.947	38.79995
758.129	51.21973
758.312	3.77029
758.495	35.41032
758.678	34.63678
758.861	36.07967
759.044	63.172
759.227	29.92601
759.41	29.26605
759.592	48.76499
759.775	38.76404
759.958	50.69613
760.141	22.43632
760.324	62.14955
760.506	58.52393
760.689	46.22521
760.872	67.1255
761.054	44.34049
761.237	35.4949
761.42	43.36805
761.602	51.12586
761.785	43.20825
761.968	50.26709
762.15	63.58552
762.333	35.66815
762.515	42.348
762.698	27.38149
762.88	45.93712
763.063	36.95567
763.245	45.80797
763.428	25.44411
763.61	26.72238
763.793	21.76057
763.975	36.50482
764.158	30.3261
764.34	29.41146
764.522	22.78165
764.705	31.53216
764.887	50.83145
765.069	21.61362
765.252	42.78464
765.434	46.29034
765.616	38.63833
765.799	29.99482
765.981	49.14523
766.163	27.71387
766.345	50.09525
766.528	31.46209
766.71	10.19264
766.892	39.3754
767.074	55.51791
767.256	35.53251
767.438	64.70497
767.62	45.53806
767.802	74.70216
767.985	48.26899
768.167	67.07869
768.349	33.98298
768.531	51.09356
768.713	44.15732
768.895	55.41692
769.077	43.34376
769.259	81.41496
769.441	113.41212
769.623	58.11847
769.804	70.76018
769.986	69.01214
770.168	90.19412
770.35	102.75812
770.532	81.10043
770.714	80.81047
770.896	87.92062
771.077	30.10202
771.259	85.65681
771.441	76.64653
771.623	91.19189
771.804	120.91543
771.986	25.04457
772.168	52.81942
772.35	87.99363
772.531	121.05102
772.713	73.68809
772.894	90.23059
773.076	63.16456
773.258	51.67046
773.439	94.67189
773.621	99.37155
773.802	38.19869
773.984	65.79103
774.166	69.37578
774.347	117.52446
774.529	94.44435
774.71	19.46001
774.891	59.36034
775.073	61.89484
775.254	115.48929
775.436	53.22698
775.617	117.0936
775.799	61.31557
775.98	115.15415
776.161	111.65018
776.343	91.99808
776.524	73.33525
776.705	61.94114
776.886	31.3621
777.068	74.07588
777.249	131.97385
777.43	114.78923
777.611	48.09521
777.793	65.51338
777.974	113.03698
778.155	63.43552
778.336	52.2336
778.517	118.74398
778.698	50.15269
778.879	28.2409
779.061	12.25355
779.242	87.52511
779.423	86.29326
779.604	50.34276
779.785	64.35109
779.966	80.93926
780.147	94.95034
780.328	101.07939
780.509	129.56105
780.69	92.45836
780.871	61.80353
781.051	30.68975
781.232	76.44721
781.413	82.29323
781.594	59.05153
781.775	56.43242
781.956	56.42586
782.137	28.25026
782.317	57.24616
782.498	79.95366
782.679	81.61969
782.86	73.12772
783.04	49.70528
783.221	75.89457
783.402	124.16752
783.583	71.64037
783.763	89.07086
783.944	58.46856
784.124	36.98119
784.305	115.54585
784.486	89.42777
784.666	67.5765
784.847	31.58742
785.027	167.09744
785.208	52.3929
785.388	51.4486
785.569	52.86594
785.749	60.09651
785.93	51.62448
786.11	35.06934
786.291	78.15977
786.471	81.60526
786.652	93.16728
786.832	69.28238
787.012	84.40075
787.193	42.76372
787.373	69.46961
787.553	60.51438
787.734	75.75059
787.914	55.26489
788.094	81.93931
788.275	78.51663
788.455	56.11277
788.635	32.32316
788.815	74.15908
788.995	41.70873
789.176	38.17121
789.356	47.68929
789.536	62.71481
789.716	79.65386
789.896	47.69991
790.076	61.8626
790.256	74.763
790.436	18.72565
790.616	46.80835
790.796	75.81416
790.976	55.94634
791.156	53.7238
791.336	81.0071
791.516	74.24598
791.696	65.54339
791.876	31.9832
792.056	73.73201
792.236	96.28175
792.416	92.54714
792.596	83.37746
792.776	83.19574
792.956	89.67948
793.135	117.99296
793.315	46.85812
793.495	98.38753
793.675	84.95009
793.854	87.02867
794.034	88.1278
794.214	38.02484
794.394	91.96586
794.573	101.11388
794.753	69.31776
794.933	54.46271
795.112	75.60798
795.292	91.24984
795.472	113.86151
795.651	44.49458
795.831	71.0147
796.01	56.3738
796.19	63.94828
796.369	63.23776
796.549	78.18204
796.728	61.64626
796.908	37.96258
797.087	41.67787
797.267	71.06826
797.446	41.63613
797.626	80.63615
797.805	80.95633
797.984	49.02569
798.164	76.81131
798.343	48.30106
798.522	74.61474
798.702	68.31665
798.881	38.93978
799.06	65.37707
799.239	24.10364
799.419	42.73094
799.598	105.04248
799.777	86.23742
799.956	98.42879
800.136	58.16649
800.315	53.95048
800.494	79.23377
800.673	94.16231
800.852	92.60193
801.031	104.79136
801.21	84.0889
801.389	53.75616
801.568	79.98648
801.747	127.26771
801.926	63.58965
802.105	107.14452
802.284	70.32317
802.463	107.37824
802.642	76.12611
802.821	77.42257
803	102.74325
803.179	88.49741
803.358	101.18668
803.537	54.17072
803.716	91.67684
803.895	55.47203
804.073	62.29097
804.252	58.38604
804.431	86.9022
804.61	74.57347
804.789	105.32214
804.967	62.66543
805.146	55.47446
805.325	134.87008
805.503	85.38977
805.682	36.22616
805.861	150.77241
806.039	106.62141
806.218	48.89466
806.397	74.71962
806.575	77.04395
806.754	71.50268
806.932	49.16333
807.111	121.97165
807.289	87.64946
807.468	88.97466
807.646	100.36998
807.825	85.17625
808.003	82.56783
808.182	96.72435
808.36	74.4249
808.539	51.27262
808.717	113.08977
808.895	51.60541
809.074	84.81972
809.252	64.90766
809.43	103.44169
809.609	115.16157
809.787	125.31721
809.965	65.63239
810.144	74.10269
810.322	61.86203
810.5	100.47676
810.678	72.91376
810.856	139.1816
811.035	106.61593
811.213	107.13838
811.391	108.15054
811.569	78.84019
811.747	188.26052
811.925	127.03767
812.103	66.80486
812.281	56.70946
812.459	157.12735
812.637	128.02799
812.816	122.85423
812.994	143.76588
813.171	115.22413
813.349	103.50623
813.527	137.11293
813.705	130.89967
813.883	137.96579
814.061	123.67324
814.239	146.13495
814.417	159.13655
814.595	102.17392
814.773	100.00751
814.95	99.41272
815.128	99.25413
815.306	69.04981
815.484	77.28989
815.662	60.21353
815.839	51.50945
816.017	61.15115
816.195	115.3232
816.372	76.22494
816.55	122.02858
816.728	129.70961
816.905	76.77925
817.083	115.53111
817.261	90.27209
817.438	184.3963
817.616	144.43842
817.793	68.72565
817.971	102.56508
818.148	103.07396
818.326	124.3735
818.503	91.38183
818.681	135.98474
818.858	67.16907
819.036	83.71301
819.213	97.7092
819.391	58.81824
819.568	54.02
819.745	47.70521
819.923	90.82559
820.1	57.55505
820.277	53.62743
820.455	60.90159
820.632	63.57243
820.809	68.47787
820.986	38.61556
821.164	32.3891
821.341	25.0407
821.518	39.87595
821.695	27.85742
821.872	25.75987
822.05	21.31651
822.227	16.53744
822.404	18.55164
822.581	20.26782
822.758	18.24853
822.935	18.38277
823.112	21.65697
823.289	17.74314
823.466	22.16898
823.643	21.38318
823.82	25.58242
823.997	23.46919
824.174	29.34319
824.351	38.7801
824.528	38.27484
824.705	35.34488
824.882	39.35905
825.059	51.85439
825.236	35.93099
825.412	36.95214
825.589	49.76589
825.766	64.87356
825.943	41.88658
826.12	51.98019
826.296	31.43011
826.473	40.05194
826.65	39.46548
826.827	49.07729
827.003	30.00576
827.18	35.19351
827.357	38.48267
827.533	33.16347
827.71	17.39321
827.887	29.54245
828.063	36.7945
828.24	30.3731
828.416	41.5116
828.593	33.45815
828.769	51.1886
828.946	57.75653
829.122	60.80232
829.299	64.69432
829.475	30.53971
829.652	57.83555
829.828	99.7812
830.005	63.26217
830.181	89.56836
830.357	60.68354
830.534	88.50673
830.71	68.15137
830.886	100.15824
831.063	86.61687
831.239	124.17636
831.415	50.38577
831.592	114.61129
831.768	72.82379
831.944	52.12438
832.12	116.49797
832.296	113.58347
832.473	91.92539
832.649	58.27444
832.825	82.03145
833.001	44.8224
833.177	70.61803
833.353	60.59254
833.529	31.68243
833.705	48.55926
833.881	33.10479
834.058	32.45684
834.234	35.28251
834.41	37.12041
834.586	27.67304
834.761	33.07915
834.937	38.9389
835.113	41.40614
835.289	38.87853
835.465	46.48392
835.641	44.34926
835.817	45.82242
835.993	93.16653
836.169	40.48967
836.344	70.59413
836.52	80.24818
836.696	93.20518
836.872	55.70642
837.048	193.67869
837.223	64.84105
837.399	149.46549
837.575	130.57502
837.75	105.88864
837.926	177.85691
838.102	255.9776
838.277	182.79059
838.453	288.37252
838.628	267.07273
838.804	86.13351
838.98	243.13702
839.155	119.24132
839.331	166.93737
839.506	111.71201
839.682	102.64595
839.857	142.92377
840.033	153.47869
840.208	65.29898
840.384	35.79766
840.559	73.13648
840.734	124.12858
840.91	160.34243
841.085	108.46344
841.26	101.71047
841.436	120.51981
841.611	91.14901
841.786	144.83406
841.962	225.22428
842.137	146.63198
842.312	76.13324
842.487	129.64813
842.663	126.02549
842.838	136.2397
843.013	529.71996
843.188	317.17535
843.363	200.19581
843.538	501.15823
843.714	486.23422
843.889	453.85401
844.064	495.07056
844.239	266.87976
844.414	579.57295
844.589	299.32159
844.764	707.3722
844.939	461.24006
845.114	427.66286
845.289	669.45751
845.464	779.69439
845.639	734.62443
845.814	232.77207
845.989	404.03286
846.163	370.19424
846.338	730.79357
846.513	614.34698
846.688	358.01981
846.863	792.88639
847.038	402.64412
847.212	352.66437
847.387	722.66913
847.562	374.59044
847.737	587.14958
847.911	286.51521
848.086	222.32042
848.261	464.18766
848.435	346.52537
848.61	534.11449
848.785	244.28932
848.959	498.49079
849.134	657.62769
849.308	1125.76657
849.483	682.9323
849.658	702.21741
849.832	356.87777
850.007	251.62488
850.181	1056.78493
850.356	651.92709
850.53	936.93775
850.705	411.6188
850.879	200.95675
851.053	478.68835
851.228	411.67124
851.402	836.69633
851.577	647.99311
851.751	802.93982
851.925	438.74308
852.099	275.59424
852.274	288.57577
852.448	383.20764
852.622	934.17976
852.797	401.74438
852.971	469.00033
853.145	853.50081
853.319	1001.31285
853.493	1169.18783
853.668	495.10735
853.842	1569.42172
854.016	1127.78624
854.19	1623.61896
854.364	635.4981
854.538	650.65405
854.712	749.27203
854.886	402.54806
855.06	378.56574
855.234	174.89193
855.408	833.44904
855.582	558.68013
855.756	943.11133
855.93	545.74618
856.104	706.57998
856.278	807.41226
856.452	355.00202
856.626	609.34332
856.8	1144.16485
856.973	1144.42385
857.147	1119.4522
857.321	1441.81005
857.495	553.28382
857.669	732.46081
857.842	649.84021
858.016	493.80021
858.19	348.63383
858.364	1284.6114
858.537	610.70485
858.711	1119.77273
858.885	887.2698
859.058	294.06286
859.232	278.30794
859.405	417.52252
859.579	828.97333
859.753	668.54424
859.926	877.26957
860.1	538.26063
860.273	1038.79129
860.447	834.79003
860.62	636.34403
860.794	827.81579
860.967	655.23483
861.141	524.30043
861.314	747.39898
861.487	700.84087
861.661	526.17038
861.834	835.07895
862.008	1140.73296
862.181	860.93613
862.354	1399.19085
862.528	691.21619
862.701	418.47477
862.874	336.24507
863.047	440.37132
863.221	496.52345
863.394	359.29727
863.567	481.96271
863.74	166.42095
863.913	1004.19326
864.087	650.15781
864.26	631.34028
864.433	680.31114
864.606	979.26677
864.779	1632.12986
864.952	322.44745
865.125	1027.71697
865.298	608.21827
865.471	608.38511
865.644	1015.35745
865.817	593.30345
865.99	941.97418
866.163	847.59207
866.336	456.57276
866.509	411.81179
866.682	579.51525
866.855	1239.07108
867.028	188.57336
867.2	621.98157
867.373	96.7163
867.546	497.27727
867.719	1264.53857
867.892	674.86364
868.064	425.60787
868.237	454.57619
868.41	481.40018
868.583	213.63753
868.755	292.09191
868.928	694.61685
869.101	888.69465
869.273	1747.18925
869.446	469.08662
869.619	941.95508
869.791	494.85124
869.964	734.36624
870.136	1015.59158
870.309	417.15503
870.481	378.71062
870.654	347.5201
870.826	426.22514
870.999	328.15825
871.171	518.72321
871.344	272.42112
871.516	389.09476
871.689	422.10272
871.861	557.55593
872.033	358.95451
872.206	367.57429
872.378	487.88049
872.55	480.24942
872.723	397.62069
872.895	650.9017
873.067	543.0993
873.24	486.41908
873.412	446.09703
873.584	349.71623
873.756	696.45885
873.928	768.19809
874.101	376.95213
874.273	529.03421
874.445	161.78331
874.617	302.11445
874.789	362.94827
874.961	332.41704
875.133	445.10541
875.305	585.18322
875.477	422.63714
875.649	247.06632
875.821	292.92377
875.993	718.77205
876.165	345.55268
876.337	501.40795
876.509	518.33981
876.681	439.81229
876.853	437.80659
877.025	712.0796
877.197	279.90131
877.369	249.95064
877.541	397.05528
877.712	84.34929
877.884	212.4973
878.056	486.22349
878.228	230.77892
878.4	491.63365
878.571	232.97636
878.743	153.86589
878.915	302.78453
879.086	158.87163
879.258	202.3966
879.43	176.89046
879.601	161.19759
879.773	137.02334
879.945	30.11512
880.116	55.31378
880.288	31.70495
880.459	35.30173
880.631	25.59223
880.802	30.36679
880.974	28.15207
881.145	17.57889
881.317	26.79619
881.488	19.84827
881.66	22.83755
881.831	20.76572
882.002	29.68086
882.174	20.73946
882.345	27.86876
882.517	14.79216
882.688	35.34187
882.859	27.55811
883.03	50.04147
883.202	48.99789
883.373	41.98416
883.544	43.57817
883.715	76.18369
883.887	66.69129
884.058	60.49276
884.229	84.28104
884.4	83.32059
884.571	105.05061
884.742	82.38577
884.914	95.76847
885.085	136.863
885.256	185.88396
885.427	154.59468
885.598	172.11181
885.769	194.81475
885.94	200.14891
886.111	114.5509
886.282	195.90091
886.453	218.51985
886.624	154.25667
886.795	238.05651
886.966	216.78369
887.136	255.02914
887.307	194.361
887.478	398.13828
887.649	342.13211
887.82	364.91978
887.991	246.13625
888.161	415.26796
888.332	384.82805
888.503	232.75577
888.674	436.37582
888.844	711.83806
889.015	621.17288
889.186	351.55332
889.356	614.3946
889.527	396.34049
889.698	972.40654
889.868	276.86057
890.039	536.07677
890.209	366.30739
890.38	596.28247
890.551	475.51864
890.721	798.14786
890.892	505.54939
891.062	1087.06173
891.233	546.02975
891.403	729.67782
891.574	525.47166
891.744	354.16714
891.914	367.98347
892.085	467.03026
892.255	107.9996
892.425	505.4847
892.596	397.10156
892.766	493.56023
892.936	760.94803
893.107	459.59672
893.277	205.61194
893.447	214.94763
893.618	125.28129
893.788	210.19899
893.958	123.66345
894.128	95.67935
894.298	118.73271
894.468	146.25035
894.639	68.75766
894.809	44.4463
894.979	72.08648
895.149	92.71207
895.319	74.67398
895.489	101.18185
895.659	145.30803
895.829	86.96138
895.999	96.29248
896.169	80.53314
896.339	121.47689
896.509	233.75165
896.679	224.61037
896.849	262.4429
897.019	342.53786
897.189	343.74804
897.358	272.10307
897.528	504.67334
897.698	186.71932
897.868	371.55466
898.038	862.89465
898.208	998.29341
898.377	231.06761
898.547	1888.73254
898.717	3305.96488
898.886	914.33054
899.056	760.88621
899.226	2115.71169
899.395	2130.87977
899.565	2517.73204
899.735	4551.5316
899.904	1570.35481
900.074	5831.25911
900.244	570.05958
900.413	3344.31678
900.583	866.98131
900.752	-2078.07439
900.922	1064.3375
901.091	349.79431
901.261	2059.60995
901.43	1147.4161
901.599	3083.6025
901.769	2746.19499
901.938	2606.5934
902.108	969.80694
902.277	1440.17062
902.446	442.80915
902.616	655.09444
902.785	567.51132
902.954	816.3545
903.124	501.17834
903.293	362.93195
903.462	124.86101
903.631	214.86592
903.801	153.3598
903.97	72.96635
904.139	116.98194
904.308	87.99229
904.477	74.56072
904.646	44.31441
904.816	62.61298
904.985	100.09376
905.154	162.34707
