Data from WindowProjectSample3_Transmission__60__00060.txt Node

Date: Sun May 04 11:36:47 EDT 2025
User: jessi
Spectrometer: SR400872
Trigger mode: 0
Integration Time (sec): 5.000050E-1
Scans to average: 20
Electric dark correction enabled: true
Nonlinearity correction enabled: true
Boxcar width: 0
XAxis mode: Wavelengths
Number of Pixels in Spectrum: 3648
>>>>>Begin Spectral Data<<<<<
184.909	-1378.06573
185.132	-1285.5891
185.355	-1546.29001
185.578	-1519.2467
185.801	1420.60006
186.024	-1258.28507
186.247	-21850.89696
186.47	-2315.66682
186.693	-4902.45051
186.916	-767.12569
187.139	-968.25105
187.362	-1188.0645
187.585	-1153.79229
187.808	-1207.46154
188.031	760.78928
188.254	-1194.13759
188.476	-849.93986
188.699	-1045.33531
188.922	300.11062
189.145	-1018.21058
189.368	6207.5072
189.591	3435.13789
189.813	-4309.27365
190.036	-1371.79389
190.259	-7654.65525
190.482	-3315.82336
190.705	-2745.3802
190.927	-1954.01568
191.15	-1340.93199
191.373	-3511.29291
191.595	32948.89329
191.818	-3175.09113
192.041	-972.42234
192.263	-1689.5396
192.486	-924.50281
192.709	-1908.35762
192.931	-4758.57586
193.154	-1340.63959
193.377	-1564.37746
193.599	1292.55054
193.822	8824.30157
194.044	-9872.3167
194.267	-3648.15968
194.489	-42.36991
194.712	-1846.6905
194.934	-2623.84994
195.157	-582.07518
195.379	-4824.27421
195.602	-1549.7644
195.824	-2390.05243
196.047	2608.42773
196.269	-1282.8773
196.492	-1369.42588
196.714	-946.34338
196.936	-2087.19386
197.159	-3896.51598
197.381	-1172.14423
197.604	-5992.25164
197.826	-2269.70181
198.048	-2225.64715
198.271	-1496.05678
198.493	-2345.73205
198.715	-3269.25354
198.938	-7661.38343
199.16	-4619.52749
199.382	-1454.21882
199.604	-1562.19681
199.827	-3921.14104
200.049	-19521.10025
200.271	-1135.50603
200.493	-4367.27961
200.715	-1108.12888
200.938	-922.88269
201.16	-947.63659
201.382	-3042.82245
201.604	-3609.99164
201.826	-1175.76796
202.048	-1678.23907
202.27	-1063.79245
202.492	-1507.77938
202.715	-1667.6914
202.937	-4043.99734
203.159	-4861.89466
203.381	6247.15504
203.603	-1404.82373
203.825	5848.86755
204.047	-2557.79053
204.269	3644.69175
204.491	-2294.9224
204.713	-1453.65278
204.935	-1042.33452
205.156	-3936.40938
205.378	-2705.37674
205.6	-1525.44043
205.822	-1666.16767
206.044	1302.13316
206.266	-19384.4549
206.488	-1362.94952
206.71	-2964.17956
206.932	24701.71492
207.153	-1299.87332
207.375	-2724.02234
207.597	-1299.45821
207.819	-1500.5703
208.041	-1309.90959
208.262	-1377.70674
208.484	-1842.28931
208.706	-9561.75195
208.927	-2011.61532
209.149	-10372.28907
209.371	-1350.70886
209.593	964.56765
209.814	-2232.52294
210.036	435.50949
210.258	-1267.23714
210.479	-2765.67042
210.701	-6135.39463
210.922	-2628.2778
211.144	3810.04623
211.366	-2121.4241
211.587	1556.58789
211.809	-2324.89661
212.03	169231.2687
212.252	467.85078
212.473	-38048.06227
212.695	3162.19901
212.916	-2962.02798
213.138	589.20703
213.359	-1231.48871
213.581	-8409.79501
213.802	-1179.86811
214.024	-5601.02146
214.245	3178.77984
214.466	402.70462
214.688	-2134.98323
214.909	-1720.87409
215.131	-3282.00803
215.352	16085.41693
215.573	-1601.32496
215.795	-4505.60613
216.016	-1878.48555
216.237	1214.95834
216.459	10452.04659
216.68	-1486.06174
216.901	-3631.95507
217.122	18180.81719
217.344	-1710.47055
217.565	-1892.62484
217.786	-2291.77991
218.007	4303.50846
218.228	5848.1005
218.45	-2921.4997
218.671	17503.74784
218.892	-3201.63374
219.113	-7023.06316
219.334	-56.10251
219.555	-13599.23133
219.776	-2170.18885
219.997	-2365.17719
220.219	-2554.6816
220.44	7610.93028
220.661	9009.07091
220.882	-4918.59402
221.103	2582.62941
221.324	7321.75606
221.545	-9621.19606
221.766	-2365.89602
221.987	1058.6149
222.208	1572.46033
222.429	-1582.84013
222.65	250.70689
222.87	711.526
223.091	3434.60559
223.312	541.70282
223.533	5756.00175
223.754	-4835.27094
223.975	1698.95376
224.196	1216.79488
224.417	6417.27981
224.637	692.85723
224.858	70.13489
225.079	790.7402
225.3	461.50516
225.521	-2096.5869
225.741	569.95689
225.962	611.93112
226.183	127.6457
226.404	1317.78992
226.624	458.21438
226.845	628.26762
227.066	486.07983
227.286	269.00817
227.507	119.85198
227.728	96.55021
227.948	205.56667
228.169	61.91659
228.389	68.93961
228.61	41.20076
228.831	52.62381
229.051	3.50553
229.272	31.96369
229.492	48.44215
229.713	14.57772
229.933	33.66862
230.154	28.86813
230.374	46.80231
230.595	36.8009
230.815	22.22063
231.036	36.48448
231.256	-6.18747
231.477	64.11664
231.697	37.40934
231.917	39.02165
232.138	54.68811
232.358	109.41311
232.579	88.19934
232.799	12.39545
233.019	83.13996
233.24	98.29714
233.46	34.82004
233.68	50.01306
233.901	34.54017
234.121	22.39244
234.341	8.86527
234.561	-3.47939
234.782	18.61641
235.002	58.24256
235.222	-0.51625
235.442	50.36397
235.662	26.91607
235.883	52.24278
236.103	41.88255
236.323	33.00257
236.543	22.17896
236.763	34.96129
236.983	35.43
237.203	33.93895
237.423	49.82592
237.643	72.48381
237.864	60.61639
238.084	18.32998
238.304	21.18464
238.524	39.62688
238.744	33.2639
238.964	55.32224
239.184	47.87204
239.404	53.70509
239.624	28.72265
239.843	46.25983
240.063	27.20499
240.283	18.61721
240.503	21.01038
240.723	20.44181
240.943	12.57422
241.163	16.51062
241.383	11.63442
241.603	6.50268
241.822	7.71072
242.042	5.39953
242.262	7.26102
242.482	7.54458
242.702	8.77537
242.921	3.0091
243.141	5.93129
243.361	5.53922
243.581	8.33362
243.8	6.99415
244.02	4.58958
244.24	8.50963
244.459	7.81732
244.679	15.95514
244.899	10.31037
245.118	11.75397
245.338	10.98224
245.558	11.72697
245.777	6.7221
245.997	8.34314
246.216	8.58018
246.436	4.9947
246.655	3.71485
246.875	3.0768
247.094	5.49979
247.314	2.02653
247.533	3.28799
247.753	3.83753
247.972	2.97861
248.192	1.18482
248.411	2.03879
248.631	3.29232
248.85	4.0429
249.07	3.94845
249.289	5.71421
249.508	3.88639
249.728	6.63905
249.947	6.20852
250.166	8.06096
250.386	4.10969
250.605	6.17316
250.824	9.40072
251.044	7.07847
251.263	19.29154
251.482	11.31568
251.701	9.88213
251.921	0.14362
252.14	3.20637
252.359	3.77034
252.578	8.73272
252.798	3.32462
253.017	7.32069
253.236	3.60962
253.455	5.18665
253.674	9.95168
253.893	4.54076
254.112	7.26628
254.331	10.10345
254.551	7.94012
254.77	4.30799
254.989	11.50911
255.208	8.80279
255.427	12.99555
255.646	10.3951
255.865	16.67682
256.084	7.55971
256.303	8.67988
256.522	11.30158
256.741	2.85299
256.96	2.91064
257.179	7.39717
257.397	9.29885
257.616	4.75737
257.835	5.56855
258.054	12.8013
258.273	8.84575
258.492	9.18491
258.711	5.60412
258.93	2.7559
259.148	4.03294
259.367	3.80519
259.586	4.68812
259.805	2.21305
260.023	3.93735
260.242	3.13568
260.461	2.46426
260.68	1.21305
260.898	3.67447
261.117	1.32222
261.336	0.94278
261.554	3.10471
261.773	3.35864
261.992	0.83548
262.21	3.00454
262.429	3.42374
262.648	5.94899
262.866	6.80369
263.085	5.14411
263.303	4.11497
263.522	7.62913
263.74	7.27096
263.959	12.65896
264.178	6.66485
264.396	5.71183
264.615	4.16479
264.833	9.31671
265.051	8.03404
265.27	8.86766
265.488	9.09838
265.707	5.40067
265.925	8.79342
266.144	4.10791
266.362	4.88328
266.58	5.0738
266.799	4.00912
267.017	4.99547
267.235	4.7091
267.454	3.25788
267.672	1.58776
267.89	3.79859
268.109	4.03084
268.327	3.9558
268.545	0.86885
268.763	3.58615
268.982	1.88745
269.2	4.18241
269.418	2.69599
269.636	2.02147
269.854	4.00815
270.073	2.96917
270.291	1.78017
270.509	1.76978
270.727	3.68665
270.945	6.20785
271.163	5.92441
271.381	1.52948
271.599	2.59107
271.817	4.25957
272.036	1.53337
272.254	3.05508
272.472	2.0197
272.69	2.10522
272.908	2.30548
273.126	3.46813
273.344	4.38834
273.562	1.67735
273.779	2.20459
273.997	3.70816
274.215	3.63618
274.433	2.52693
274.651	3.99918
274.869	3.85486
275.087	2.39097
275.305	3.61747
275.523	2.28276
275.74	2.57078
275.958	4.64452
276.176	6.65851
276.394	2.18115
276.612	2.74854
276.829	2.78497
277.047	2.43728
277.265	2.55953
277.483	3.02917
277.7	3.43808
277.918	2.92495
278.136	5.36022
278.353	2.59663
278.571	1.52905
278.789	4.18114
279.006	1.00615
279.224	2.51944
279.442	4.17649
279.659	3.06412
279.877	2.07005
280.094	4.4569
280.312	1.00387
280.529	3.06281
280.747	1.06713
280.964	2.48028
281.182	4.72336
281.399	2.5839
281.617	3.06733
281.834	2.19613
282.052	1.58007
282.269	2.83518
282.487	2.19039
282.704	2.08661
282.921	1.85492
283.139	2.86225
283.356	3.63493
283.574	3.37273
283.791	1.64633
284.008	4.44355
284.226	2.66967
284.443	2.90235
284.66	3.63467
284.877	3.20423
285.095	1.9104
285.312	1.48844
285.529	0.86061
285.746	0.80935
285.964	1.77236
286.181	1.22387
286.398	1.69655
286.615	2.37133
286.832	2.2652
287.05	0.67379
287.267	1.75388
287.484	1.74388
287.701	2.41012
287.918	2.23425
288.135	2.36885
288.352	1.00224
288.569	1.35706
288.786	2.22659
289.003	1.66849
289.22	2.5808
289.437	1.45535
289.654	2.44416
289.871	2.48829
290.088	2.48901
290.305	1.91251
290.522	1.75698
290.739	1.80287
290.956	2.57118
291.173	3.08469
291.39	3.05363
291.607	2.05517
291.824	1.57014
292.04	1.22643
292.257	2.55553
292.474	2.82096
292.691	1.90864
292.908	0.89681
293.125	1.58391
293.341	1.0092
293.558	4.24048
293.775	1.91421
293.992	2.00393
294.208	0.7365
294.425	1.20665
294.642	1.6302
294.858	2.52174
295.075	0.66498
295.292	1.72865
295.508	2.14807
295.725	3.00205
295.942	1.56201
296.158	1.1314
296.375	1.77304
296.591	1.43971
296.808	1.42515
297.024	1.76821
297.241	1.8872
297.458	1.99132
297.674	0.31182
297.891	1.62225
298.107	1.33061
298.323	1.02119
298.54	2.35002
298.756	1.25518
298.973	0.56936
299.189	2.55616
299.406	1.20274
299.622	2.56442
299.838	2.55108
300.055	2.21871
300.271	0.66216
300.487	0.96847
300.704	1.18089
300.92	0.69457
301.136	3.35852
301.353	2.54612
301.569	1.87135
301.785	1.97264
302.001	2.2001
302.218	2.11022
302.434	2.22873
302.65	0.75784
302.866	1.41615
303.083	3.50241
303.299	3.45572
303.515	1.80957
303.731	1.91931
303.947	0.74354
304.163	1.2864
304.379	1.89079
304.595	2.14544
304.812	1.36649
305.028	1.18649
305.244	1.49837
305.46	2.33447
305.676	2.5141
305.892	2.83753
306.108	2.11076
306.324	1.59286
306.54	3.2324
306.756	2.28035
306.972	2.19211
307.187	1.61611
307.403	2.99387
307.619	1.3642
307.835	2.69148
308.051	2.79739
308.267	1.08854
308.483	2.55196
308.699	2.08548
308.914	1.81352
309.13	1.77685
309.346	0.54096
309.562	0.97751
309.778	0.59734
309.993	2.17086
310.209	1.72158
310.425	0.87008
310.641	1.48219
310.856	1.00526
311.072	0.93943
311.288	1.66435
311.503	1.823
311.719	0.47488
311.935	0.3957
312.15	1.95583
312.366	1.75204
312.581	2.03881
312.797	1.73101
313.013	2.28332
313.228	1.31884
313.444	1.80911
313.659	1.08193
313.875	2.07235
314.09	1.65787
314.306	2.93267
314.521	2.33465
314.737	2.3208
314.952	1.92421
315.168	1.80212
315.383	2.07501
315.599	1.58621
315.814	1.65164
316.029	2.37155
316.245	0.81291
316.46	0.4945
316.675	2.69289
316.891	3.23848
317.106	4.06526
317.321	2.20389
317.537	2.18912
317.752	2.48288
317.967	2.44673
318.183	1.24177
318.398	1.56671
318.613	2.49252
318.828	2.85239
319.043	2.51355
319.259	1.61376
319.474	2.04273
319.689	2.67747
319.904	0.4326
320.119	2.52448
320.334	1.99627
320.549	1.59534
320.765	2.73845
320.98	2.1281
321.195	2.4966
321.41	1.8267
321.625	2.47218
321.84	3.30644
322.055	3.22542
322.27	1.50426
322.485	1.09614
322.7	2.16292
322.915	2.66055
323.13	1.28064
323.345	2.97724
323.56	2.05888
323.775	2.3693
323.989	2.22209
324.204	1.96346
324.419	2.47575
324.634	0.83287
324.849	1.72402
325.064	3.27542
325.279	2.56058
325.493	2.22329
325.708	2.55548
325.923	1.2571
326.138	1.33179
326.352	2.99914
326.567	2.33332
326.782	1.5636
326.997	1.33723
327.211	2.35636
327.426	2.10206
327.641	1.6519
327.855	0.73157
328.07	2.30589
328.285	3.20119
328.499	1.77047
328.714	2.20131
328.928	2.45618
329.143	1.96313
329.358	2.72078
329.572	2.65725
329.787	2.94993
330.001	3.97833
330.216	0.88597
330.43	3.24265
330.645	3.15026
330.859	2.63019
331.074	1.3773
331.288	1.97903
331.503	3.03324
331.717	1.18501
331.931	1.83924
332.146	2.08936
332.36	3.3756
332.575	2.32771
332.789	2.07341
333.003	1.84445
333.218	2.33414
333.432	1.36717
333.646	2.4811
333.86	3.14467
334.075	3.24802
334.289	1.51381
334.503	1.06629
334.717	2.28069
334.932	2.3479
335.146	2.86843
335.36	1.58852
335.574	2.43809
335.788	2.35607
336.003	2.7909
336.217	2.63266
336.431	2.2699
336.645	1.57652
336.859	1.1258
337.073	1.80635
337.287	2.01437
337.501	1.09826
337.715	2.11996
337.929	2.24658
338.143	1.02216
338.357	1.85474
338.571	1.3628
338.785	2.29293
338.999	1.54367
339.213	1.50506
339.427	0.9535
339.641	2.88656
339.855	1.64248
340.069	1.3556
340.283	2.6834
340.497	3.09365
340.711	2.34652
340.924	1.71593
341.138	1.10304
341.352	0.90764
341.566	1.93776
341.78	0.7717
341.993	1.44123
342.207	1.20772
342.421	2.07195
342.635	1.82779
342.848	1.34339
343.062	0.31862
343.276	1.45502
343.49	3.32254
343.703	1.31452
343.917	2.45161
344.131	2.54221
344.344	1.31184
344.558	1.4482
344.771	1.13005
344.985	2.60925
345.199	3.06465
345.412	2.03993
345.626	2.10862
345.839	0.62731
346.053	1.07585
346.266	1.0864
346.48	2.26813
346.693	2.00671
346.907	2.09283
347.12	1.14861
347.334	1.91933
347.547	2.05165
347.76	1.61274
347.974	2.604
348.187	2.05076
348.401	1.62308
348.614	1.25012
348.827	1.64979
349.041	2.14194
349.254	0.61755
349.467	1.69171
349.681	0.99836
349.894	1.3824
350.107	2.5857
350.32	3.1822
350.534	0.6986
350.747	1.61873
350.96	1.15145
351.173	1.29113
351.386	1.43869
351.6	1.31345
351.813	1.29719
352.026	1.7614
352.239	0.97327
352.452	1.61441
352.665	2.36717
352.878	1.62424
353.092	3.22651
353.305	2.16625
353.518	1.77286
353.731	1.05744
353.944	2.35989
354.157	1.33672
354.37	1.23173
354.583	1.08423
354.796	0.61216
355.009	2.48384
355.222	1.73737
355.435	1.72403
355.647	2.39972
355.86	1.03351
356.073	1.66799
356.286	1.31519
356.499	2.24143
356.712	1.95781
356.925	1.82778
357.138	2.28286
357.35	0.96578
357.563	1.33989
357.776	1.64641
357.989	1.49161
358.201	1.9761
358.414	1.70805
358.627	2.30912
358.84	1.48229
359.052	0.85349
359.265	0.93115
359.478	2.16086
359.69	-0.00995
359.903	2.0769
360.116	2.14191
360.328	0.51019
360.541	2.03214
360.753	0.95357
360.966	1.2388
361.179	1.24113
361.391	1.19632
361.604	0.94006
361.816	1.23713
362.029	1.11804
362.241	0.95955
362.454	1.18415
362.666	0.94168
362.879	1.55871
363.091	1.26021
363.304	0.96189
363.516	1.41905
363.728	0.75476
363.941	1.79525
364.153	1.26646
364.366	0.18774
364.578	0.91432
364.79	1.82083
365.003	1.4617
365.215	1.26011
365.427	1.77322
365.639	2.25095
365.852	1.65642
366.064	2.55382
366.276	1.2348
366.488	1.81924
366.701	1.26532
366.913	1.37035
367.125	1.47871
367.337	1.37344
367.549	1.23883
367.762	1.5106
367.974	1.4874
368.186	1.18326
368.398	2.22137
368.61	1.87532
368.822	1.95303
369.034	1.50246
369.246	1.9668
369.458	3.03361
369.67	1.03763
369.882	2.72056
370.094	0.3831
370.306	2.65148
370.518	1.32255
370.73	1.26207
370.942	1.12737
371.154	1.47262
371.366	1.29088
371.578	1.80378
371.79	1.08524
372.002	2.27265
372.214	2.71563
372.425	1.6986
372.637	2.44714
372.849	1.83987
373.061	0.31961
373.273	1.9364
373.484	1.87279
373.696	2.15808
373.908	0.27324
374.12	2.30318
374.331	1.87164
374.543	1.21161
374.755	1.04834
374.967	1.71468
375.178	2.16901
375.39	1.49144
375.602	1.62653
375.813	0.81409
376.025	0.92125
376.236	1.59447
376.448	1.67229
376.66	1.44022
376.871	1.36325
377.083	2.15809
377.294	2.27253
377.506	1.41465
377.717	2.40031
377.929	1.76389
378.14	1.21461
378.352	1.95042
378.563	1.97194
378.775	2.44713
378.986	1.18516
379.197	1.80597
379.409	1.31485
379.62	2.18479
379.832	1.76653
380.043	1.61728
380.254	1.82329
380.466	0.98892
380.677	3.32279
380.888	3.11118
381.1	3.36574
381.311	3.24048
381.522	1.74543
381.733	3.54411
381.945	1.65376
382.156	1.75626
382.367	1.44599
382.578	3.53262
382.789	3.42504
383.001	1.42271
383.212	2.74796
383.423	2.74443
383.634	2.48617
383.845	2.19968
384.056	1.62712
384.267	1.86989
384.478	1.83558
384.69	1.26063
384.901	2.2174
385.112	2.13293
385.323	2.862
385.534	2.11771
385.745	2.05666
385.956	2.12754
386.167	1.33748
386.378	2.27862
386.588	1.29166
386.799	1.50091
387.01	0.98007
387.221	2.43854
387.432	1.90077
387.643	3.05725
387.854	1.78746
388.065	1.81806
388.275	1.90884
388.486	1.77378
388.697	1.91432
388.908	1.85182
389.119	2.71768
389.329	3.05385
389.54	2.10463
389.751	2.27525
389.962	2.82293
390.172	2.21916
390.383	1.81884
390.594	1.66337
390.804	1.70873
391.015	1.73156
391.226	2.08639
391.436	2.42617
391.647	2.29483
391.858	2.46212
392.068	1.16419
392.279	1.51316
392.489	2.21041
392.7	2.74398
392.91	1.56586
393.121	1.82161
393.331	2.45058
393.542	2.85973
393.752	2.43696
393.963	2.40179
394.173	2.228
394.384	2.70609
394.594	2.3024
394.804	1.66448
395.015	2.32803
395.225	2.74877
395.436	1.69505
395.646	2.61619
395.856	1.99256
396.067	1.58883
396.277	2.91521
396.487	2.64177
396.697	2.55803
396.908	2.87515
397.118	2.86578
397.328	2.56608
397.538	3.0266
397.749	2.16673
397.959	3.05039
398.169	2.86112
398.379	1.79809
398.589	2.98525
398.8	2.58293
399.01	2.64153
399.22	2.34948
399.43	3.80826
399.64	2.4856
399.85	2.90531
400.06	2.61496
400.27	2.23086
400.48	2.60298
400.69	3.4023
400.9	2.35574
401.11	2.18465
401.32	3.17258
401.53	2.31689
401.74	3.60396
401.95	3.1089
402.16	2.29977
402.37	3.0733
402.58	2.4241
402.79	3.06269
403	3.26535
403.209	2.50736
403.419	3.21752
403.629	2.55144
403.839	3.27662
404.049	3.36183
404.258	2.52883
404.468	2.33105
404.678	3.23852
404.888	3.38093
405.097	2.61311
405.307	2.83024
405.517	3.22348
405.727	3.16002
405.936	2.71824
406.146	3.07921
406.356	3.67657
406.565	2.96893
406.775	2.74297
406.984	2.85391
407.194	4.0705
407.404	3.08406
407.613	3.22802
407.823	3.56865
408.032	3.79239
408.242	3.55293
408.451	2.79836
408.661	3.14227
408.87	4.15433
409.08	2.81418
409.289	3.39889
409.499	3.35262
409.708	3.20952
409.918	2.16386
410.127	3.23544
410.336	4.11511
410.546	3.63003
410.755	3.11761
410.964	3.00273
411.174	2.87385
411.383	3.60475
411.592	3.54114
411.802	2.86391
412.011	3.83072
412.22	3.3282
412.429	4.27005
412.639	4.10056
412.848	4.09537
413.057	4.37012
413.266	4.01003
413.475	3.47048
413.685	3.89111
413.894	4.03601
414.103	4.0781
414.312	3.82451
414.521	3.47728
414.73	3.67369
414.939	4.47177
415.148	3.85271
415.357	3.70251
415.566	3.46192
415.776	3.41668
415.985	3.38203
416.194	4.06231
416.403	4.57751
416.611	3.10101
416.82	3.52897
417.029	3.95284
417.238	3.71039
417.447	3.68531
417.656	4.10996
417.865	4.15874
418.074	4.34973
418.283	4.87146
418.492	5.69865
418.7	5.48399
418.909	6.6302
419.118	5.55845
419.327	5.91165
419.536	5.81825
419.744	5.60668
419.953	6.90172
420.162	6.98588
420.371	6.14423
420.579	6.30587
420.788	7.32421
420.997	7.38731
421.205	7.59325
421.414	7.24913
421.623	7.31578
421.831	6.81555
422.04	7.57038
422.249	6.7065
422.457	7.0655
422.666	6.40259
422.874	7.44325
423.083	7.46963
423.291	7.43208
423.5	7.33562
423.708	7.54448
423.917	8.0814
424.125	7.47743
424.334	7.261
424.542	9.13763
424.751	8.31866
424.959	8.12775
425.167	8.18717
425.376	8.10823
425.584	7.01773
425.793	7.16878
426.001	6.18972
426.209	6.71756
426.418	5.64267
426.626	5.36347
426.834	5.12332
427.042	5.28913
427.251	4.84984
427.459	5.49381
427.667	4.82628
427.875	3.9217
428.084	4.29056
428.292	4.98391
428.5	4.62356
428.708	3.83422
428.916	3.90606
429.124	4.36052
429.333	4.25683
429.541	4.29144
429.749	4.41637
429.957	4.40223
430.165	5.56065
430.373	3.77455
430.581	4.47913
430.789	5.0798
430.997	4.19965
431.205	4.14491
431.413	4.69624
431.621	4.41235
431.829	5.01381
432.037	4.85432
432.245	5.21247
432.453	5.4057
432.661	5.27915
432.869	6.59116
433.076	5.16396
433.284	5.73964
433.492	6.32533
433.7	6.71915
433.908	5.76309
434.116	6.00649
434.323	5.83026
434.531	5.74439
434.739	5.8424
434.947	5.77925
435.154	5.68454
435.362	5.15408
435.57	4.8893
435.778	4.80991
435.985	5.13021
436.193	4.74607
436.401	5.69244
436.608	4.99217
436.816	4.62414
437.023	5.84612
437.231	6.00177
437.439	5.45751
437.646	5.73622
437.854	5.59842
438.061	5.74752
438.269	5.63685
438.476	6.10821
438.684	5.99988
438.891	6.01319
439.099	5.93429
439.306	5.72448
439.514	5.93963
439.721	7.08981
439.929	6.59957
440.136	7.54553
440.343	7.47452
440.551	7.23867
440.758	8.6528
440.965	7.59229
441.173	7.36912
441.38	7.07153
441.587	7.1235
441.795	6.77514
442.002	6.75261
442.209	6.59645
442.416	6.46887
442.624	6.3472
442.831	6.11078
443.038	5.54056
443.245	5.22201
443.452	5.43934
443.66	6.18128
443.867	5.49152
444.074	5.70069
444.281	5.86691
444.488	6.23575
444.695	6.54099
444.902	6.48491
445.109	7.57519
445.316	7.34232
445.523	7.566
445.73	7.46718
445.937	8.35885
446.144	8.80576
446.351	8.99891
446.558	7.89542
446.765	9.65924
446.972	9.15504
447.179	8.53218
447.386	9.37234
447.593	7.76827
447.8	8.79748
448.007	7.46544
448.214	7.14046
448.42	6.70986
448.627	7.31246
448.834	6.53574
449.041	6.26391
449.248	6.04637
449.454	6.29933
449.661	6.70981
449.868	5.32354
450.075	5.17995
450.281	4.31019
450.488	4.60052
450.695	4.71364
450.901	4.76584
451.108	5.00651
451.315	5.65549
451.521	5.15205
451.728	5.91239
451.935	4.99223
452.141	5.38785
452.348	5.49303
452.554	5.44542
452.761	5.3584
452.967	6.35075
453.174	5.71502
453.38	5.70695
453.587	4.88129
453.793	5.4367
454	5.63848
454.206	6.25068
454.413	5.69113
454.619	5.40019
454.825	4.88044
455.032	5.47843
455.238	5.58795
455.445	4.62449
455.651	5.25595
455.857	4.36267
456.064	5.09107
456.27	5.05579
456.476	5.05018
456.682	4.60125
456.889	5.30224
457.095	5.3757
457.301	6.20169
457.507	5.21397
457.714	5.3986
457.92	5.43394
458.126	5.29358
458.332	6.0439
458.538	6.14613
458.744	6.69768
458.951	7.04795
459.157	8.82094
459.363	8.34074
459.569	8.35073
459.775	9.02075
459.981	8.40834
460.187	8.85929
460.393	9.0925
460.599	9.28605
460.805	8.31226
461.011	7.70571
461.217	7.71014
461.423	7.08822
461.629	6.24548
461.835	6.3383
462.041	5.56917
462.247	6.11082
462.453	5.23827
462.658	5.31451
462.864	5.79459
463.07	5.44085
463.276	5.53488
463.482	5.46872
463.688	6.00509
463.893	5.07404
464.099	5.29122
464.305	6.10745
464.511	5.20762
464.716	5.40388
464.922	5.88093
465.128	5.09978
465.333	6.3
465.539	5.71332
465.745	5.53318
465.95	5.53686
466.156	6.777
466.362	6.09635
466.567	5.42603
466.773	5.25546
466.978	6.24389
467.184	5.11241
467.389	4.68289
467.595	5.8402
467.8	5.20096
468.006	6.19405
468.211	6.14992
468.417	5.11126
468.622	5.83944
468.828	5.83945
469.033	5.68905
469.239	6.85346
469.444	5.36685
469.649	5.99561
469.855	5.58939
470.06	5.72477
470.266	5.14663
470.471	5.89782
470.676	5.72227
470.881	4.8735
471.087	6.10334
471.292	6.34361
471.497	5.02389
471.703	5.6058
471.908	5.4385
472.113	5.72655
472.318	5.98997
472.523	5.18165
472.729	5.81453
472.934	5.89367
473.139	5.51956
473.344	5.94957
473.549	6.32357
473.754	5.33316
473.959	6.66154
474.164	5.43319
474.369	5.64799
474.575	6.12958
474.78	5.79906
474.985	5.45336
475.19	4.88489
475.395	5.42539
475.6	5.74528
475.804	6.37997
476.009	5.77396
476.214	5.65166
476.419	5.5498
476.624	4.99136
476.829	5.40222
477.034	6.07042
477.239	5.5652
477.444	6.04133
477.648	6.3361
477.853	6.40735
478.058	5.96716
478.263	5.88129
478.468	5.61226
478.672	5.66194
478.877	6.7875
479.082	6.91024
479.287	6.32784
479.491	6.07806
479.696	5.59527
479.901	6.58152
480.105	6.67272
480.31	6.04427
480.515	6.48197
480.719	8.02966
480.924	6.78945
481.128	6.70459
481.333	7.74271
481.538	8.00025
481.742	8.23528
481.947	9.30366
482.151	10.08568
482.356	10.67457
482.56	12.69415
482.765	14.0775
482.969	16.84923
483.174	19.10639
483.378	21.91515
483.582	22.3527
483.787	23.86771
483.991	24.29958
484.196	24.17582
484.4	23.75035
484.604	23.60656
484.809	21.34789
485.013	19.97214
485.217	18.01095
485.422	15.97702
485.626	14.70292
485.83	13.91304
486.034	13.54854
486.239	14.00627
486.443	14.48211
486.647	14.81347
486.851	15.98306
487.055	17.35274
487.26	17.09317
487.464	18.04451
487.668	17.49202
487.872	17.76568
488.076	18.03598
488.28	17.17766
488.484	15.94167
488.688	15.47679
488.892	14.81328
489.096	13.72322
489.3	12.46613
489.504	11.69493
489.708	11.43647
489.912	11.23021
490.116	10.91868
490.32	10.59706
490.524	11.92589
490.728	12.69193
490.932	13.34559
491.136	14.03509
491.34	15.34372
491.544	15.63494
491.748	15.29089
491.951	15.28116
492.155	14.70319
492.359	14.3511
492.563	12.80634
492.767	12.05652
492.97	10.78621
493.174	9.46823
493.378	8.79335
493.582	7.70132
493.785	7.64255
493.989	7.43546
494.193	7.05392
494.396	6.70862
494.6	7.067
494.804	6.64778
495.007	6.39303
495.211	6.43619
495.414	6.64289
495.618	7.03821
495.822	7.76641
496.025	7.49097
496.229	8.0609
496.432	7.50004
496.636	7.9427
496.839	7.96149
497.043	8.93642
497.246	8.2074
497.45	7.94253
497.653	8.04128
497.856	7.95895
498.06	7.34159
498.263	7.43889
498.467	7.1828
498.67	7.82459
498.873	7.4417
499.077	6.81237
499.28	6.71735
499.483	6.94171
499.686	7.00736
499.89	6.74753
500.093	6.76174
500.296	5.93713
500.499	6.88223
500.703	6.09652
500.906	6.21275
501.109	7.01698
501.312	6.2564
501.515	6.09447
501.719	6.37928
501.922	6.74384
502.125	6.29049
502.328	6.10106
502.531	5.6675
502.734	6.28607
502.937	5.32745
503.14	6.23257
503.343	5.73869
503.546	6.08331
503.749	6.00436
503.952	6.50516
504.155	5.80648
504.358	6.51424
504.561	6.28812
504.764	5.67658
504.967	6.23336
505.17	6.15093
505.373	6.95254
505.576	6.26555
505.778	6.47579
505.981	5.93377
506.184	6.78725
506.387	5.48524
506.59	7.06514
506.793	6.77857
506.995	6.53139
507.198	5.38036
507.401	6.46341
507.604	6.67549
507.806	6.12953
508.009	6.34731
508.212	7.08551
508.414	6.67194
508.617	6.89168
508.82	7.08889
509.022	7.7879
509.225	7.22749
509.427	6.40395
509.63	7.68905
509.833	6.95476
510.035	6.8032
510.238	6.21257
510.44	7.44912
510.643	5.92603
510.845	7.79013
511.048	7.06778
511.25	6.56007
511.453	6.74076
511.655	7.11573
511.858	6.7572
512.06	7.25266
512.262	6.87213
512.465	7.33224
512.667	6.58478
512.869	6.16997
513.072	6.79072
513.274	6.80995
513.476	6.64968
513.679	6.74474
513.881	5.93702
514.083	7.04699
514.286	6.08245
514.488	6.01901
514.69	5.88913
514.892	5.76431
515.094	6.68733
515.297	6.09537
515.499	6.38901
515.701	6.02798
515.903	7.13642
516.105	7.11011
516.307	6.67961
516.509	5.49808
516.711	5.85142
516.913	6.53717
517.116	6.86541
517.318	6.97161
517.52	8.12936
517.722	8.30202
517.924	7.63398
518.126	8.80835
518.328	8.40914
518.529	9.1208
518.731	9.78903
518.933	8.46483
519.135	8.58073
519.337	9.1295
519.539	8.48962
519.741	7.11927
519.943	7.44858
520.145	7.03145
520.346	7.28904
520.548	6.53711
520.75	6.74915
520.952	6.30749
521.153	6.55605
521.355	6.65449
521.557	5.92228
521.759	6.45988
521.96	6.47943
522.162	5.95728
522.364	6.96163
522.565	6.10741
522.767	6.69656
522.969	6.96283
523.17	6.68337
523.372	6.61033
523.573	6.1926
523.775	6.40011
523.977	6.08215
524.178	7.5796
524.38	6.95876
524.581	8.06724
524.783	7.86276
524.984	8.89656
525.186	8.94287
525.387	9.70113
525.589	9.46143
525.79	9.38822
525.991	9.35726
526.193	10.1178
526.394	9.20529
526.596	10.27555
526.797	10.43424
526.998	10.32107
527.2	10.73187
527.401	12.91001
527.602	13.8792
527.803	16.48566
528.005	17.34457
528.206	18.6865
528.407	19.61398
528.608	19.62251
528.81	19.60394
529.011	18.87739
529.212	19.50991
529.413	18.15861
529.614	16.85906
529.815	15.77205
530.017	14.35733
530.218	12.77729
530.419	11.25841
530.62	11.03883
530.821	10.40686
531.022	9.25413
531.223	10.19122
531.424	9.86305
531.625	10.0867
531.826	10.03741
532.027	10.59835
532.228	11.94803
532.429	11.9836
532.63	12.4317
532.831	13.33836
533.032	13.36651
533.233	14.13265
533.433	13.76967
533.634	13.8949
533.835	12.9985
534.036	12.34117
534.237	11.78626
534.438	10.84945
534.638	9.64735
534.839	9.18928
535.04	9.21236
535.241	8.55648
535.441	9.79291
535.642	9.25981
535.843	8.78129
536.043	9.06207
536.244	9.31541
536.445	9.55734
536.645	10.40683
536.846	10.09121
537.047	10.297
537.247	9.17243
537.448	8.99718
537.648	8.82879
537.849	8.14897
538.049	7.70953
538.25	7.61926
538.451	7.28496
538.651	6.63792
538.851	7.1646
539.052	7.59077
539.252	7.57245
539.453	7.34708
539.653	8.00391
539.854	8.50083
540.054	9.3428
540.254	11.07802
540.455	12.1243
540.655	12.21688
540.855	13.90208
541.056	14.86494
541.256	14.54892
541.456	15.60753
541.657	14.77293
541.857	15.59757
542.057	13.83534
542.257	13.28752
542.458	13.56604
542.658	12.85183
542.858	11.02202
543.058	11.4385
543.258	10.80122
543.458	9.2629
543.659	8.77335
543.859	9.58082
544.059	9.16586
544.259	8.37805
544.459	8.58386
544.659	7.68241
544.859	8.07468
545.059	7.4502
545.259	8.06658
545.459	7.71789
545.659	8.36773
545.859	7.97165
546.059	8.20408
546.259	7.80047
546.459	7.58198
546.659	7.70186
546.859	8.44666
547.059	8.21031
547.258	7.99433
547.458	7.72006
547.658	6.68979
547.858	6.30808
548.058	6.86765
548.258	6.67289
548.457	6.32098
548.657	8.1265
548.857	6.70481
549.057	7.11053
549.256	7.12198
549.456	6.60786
549.656	5.66984
549.855	7.68864
550.055	6.59351
550.255	7.83457
550.454	6.96226
550.654	7.28353
550.853	7.55174
551.053	7.22631
551.253	7.04272
551.452	6.97173
551.652	6.25865
551.851	5.8295
552.051	6.62936
552.25	6.46886
552.45	6.3824
552.649	6.67748
552.849	6.32567
553.048	6.70443
553.248	7.22041
553.447	6.31214
553.646	7.26908
553.846	7.54834
554.045	7.40081
554.244	6.19031
554.444	7.93139
554.643	6.46494
554.842	7.61911
555.042	8.06495
555.241	6.52687
555.44	6.23797
555.64	7.18498
555.839	7.91146
556.038	7.30102
556.237	6.29124
556.436	6.84584
556.636	7.03341
556.835	6.4989
557.034	7.8506
557.233	6.71224
557.432	6.10851
557.631	7.50078
557.83	6.73675
558.029	6.50183
558.228	6.49027
558.427	6.28764
558.626	7.13141
558.825	6.29142
559.024	6.87035
559.223	7.92359
559.422	6.79753
559.621	7.06216
559.82	5.35981
560.019	6.78326
560.218	6.59159
560.417	5.20341
560.616	6.60616
560.815	8.74965
561.014	6.00127
561.212	7.59441
561.411	6.9408
561.61	5.91282
561.809	6.63223
562.008	7.71626
562.206	6.60095
562.405	7.29642
562.604	6.74938
562.803	6.87371
563.001	6.68027
563.2	5.8637
563.399	7.10094
563.597	6.08445
563.796	6.7746
563.995	6.18368
564.193	7.21054
564.392	6.56322
564.59	8.1222
564.789	5.69812
564.988	6.55028
565.186	6.87686
565.385	6.69484
565.583	6.52825
565.782	6.63215
565.98	6.59332
566.179	6.6817
566.377	6.14323
566.575	6.4462
566.774	7.54309
566.972	7.31542
567.171	8.12093
567.369	7.58136
567.567	6.91012
567.766	7.05853
567.964	5.64147
568.162	7.28378
568.361	7.42084
568.559	6.82572
568.757	7.08703
568.956	6.9681
569.154	6.74034
569.352	7.26351
569.55	6.79054
569.748	6.86259
569.947	6.28355
570.145	6.29172
570.343	6.17602
570.541	7.34895
570.739	6.08743
570.937	6.87036
571.135	6.9938
571.333	7.72519
571.532	7.64326
571.73	6.98188
571.928	7.42411
572.126	7.05936
572.324	6.59685
572.522	7.64178
572.72	8.49569
572.918	6.87739
573.116	7.0366
573.313	6.8208
573.511	6.84036
573.709	6.60156
573.907	7.27883
574.105	6.64755
574.303	5.93041
574.501	5.99177
574.699	7.03833
574.896	7.10289
575.094	7.20776
575.292	6.14419
575.49	7.46929
575.688	6.69476
575.885	7.70595
576.083	8.1247
576.281	7.19751
576.478	6.64702
576.676	7.24644
576.874	6.14632
577.071	6.77931
577.269	8.53471
577.467	6.84711
577.664	6.88223
577.862	7.46293
578.059	6.38173
578.257	7.55072
578.455	6.73556
578.652	6.94413
578.85	5.70883
579.047	7.04216
579.245	6.8024
579.442	6.88413
579.64	6.95086
579.837	5.67784
580.034	8.69561
580.232	6.75234
580.429	6.10326
580.627	7.2043
580.824	7.93981
581.021	7.40454
581.219	6.7328
581.416	6.33087
581.613	7.99326
581.811	7.84933
582.008	6.49351
582.205	7.65003
582.402	7.05105
582.6	8.50028
582.797	6.95418
582.994	7.35962
583.191	7.45945
583.388	7.0324
583.586	7.72907
583.783	7.8275
583.98	6.49892
584.177	7.11901
584.374	5.07848
584.571	6.88211
584.768	6.86312
584.965	6.72407
585.162	7.3919
585.359	8.22526
585.556	7.02709
585.753	7.25002
585.95	6.13137
586.147	6.35784
586.344	7.41592
586.541	6.67014
586.738	6.21576
586.935	6.90115
587.132	6.46885
587.329	7.89099
587.526	6.90391
587.722	10.59012
587.919	6.09038
588.116	7.21803
588.313	8.12284
588.51	8.71954
588.706	6.95065
588.903	7.57492
589.1	7.75466
589.297	9.22695
589.493	6.99039
589.69	7.45704
589.887	6.6841
590.083	6.11395
590.28	6.51357
590.477	7.7874
590.673	7.64408
590.87	8.07535
591.067	6.79728
591.263	7.46718
591.46	7.40405
591.656	6.91363
591.853	8.27336
592.049	6.42146
592.246	6.74058
592.442	8.06326
592.639	7.96375
592.835	6.24001
593.032	7.45146
593.228	6.03459
593.425	5.96748
593.621	5.86253
593.817	7.10878
594.014	6.43159
594.21	7.14599
594.406	7.76423
594.603	7.49576
594.799	6.6184
594.995	5.29031
595.192	7.91006
595.388	6.77726
595.584	6.75408
595.78	5.78899
595.977	8.42732
596.173	8.30943
596.369	6.69137
596.565	6.30708
596.761	5.90653
596.957	7.92732
597.154	6.4971
597.35	6.70478
597.546	6.41719
597.742	7.48148
597.938	7.20583
598.134	6.46346
598.33	7.2451
598.526	8.45788
598.722	7.41368
598.918	8.73691
599.114	7.69465
599.31	6.38809
599.506	7.30965
599.702	6.41298
599.898	7.34804
600.094	7.91774
600.29	7.77945
600.485	7.86812
600.681	6.76445
600.877	8.59188
601.073	7.26465
601.269	8.62679
601.465	8.17022
601.66	6.53034
601.856	5.62202
602.052	8.20388
602.248	6.83378
602.443	5.52934
602.639	6.1771
602.835	6.25983
603.03	6.40941
603.226	7.76756
603.422	6.28299
603.617	6.7612
603.813	6.54247
604.009	6.59349
604.204	7.85872
604.4	5.84907
604.595	7.69142
604.791	6.17631
604.986	7.1818
605.182	6.53385
605.377	6.78275
605.573	6.62416
605.768	7.14102
605.964	7.54342
606.159	7.70578
606.355	8.21134
606.55	6.86418
606.746	8.07992
606.941	7.04307
607.136	8.94435
607.332	9.62807
607.527	6.16366
607.722	7.30572
607.918	7.09281
608.113	6.52903
608.308	7.68323
608.503	7.46665
608.699	7.37551
608.894	7.58519
609.089	6.4382
609.284	7.22227
609.479	6.76293
609.675	7.69739
609.87	6.7826
610.065	7.61502
610.26	8.00982
610.455	7.7538
610.65	7.02817
610.845	7.25489
611.04	8.19236
611.235	7.17721
611.43	6.87368
611.625	6.20038
611.82	8.67283
612.015	6.47234
612.21	8.80718
612.405	6.03483
612.6	9.05094
612.795	8.38439
612.99	7.87303
613.185	6.32563
613.38	6.64565
613.575	7.62026
613.77	9.87676
613.965	5.99762
614.159	6.64149
614.354	8.74038
614.549	8.37919
614.744	7.94902
614.938	6.38315
615.133	5.99008
615.328	8.8694
615.523	8.44853
615.717	10.40393
615.912	6.79792
616.107	7.74142
616.301	7.07377
616.496	6.90052
616.691	9.09838
616.885	8.17115
617.08	10.31158
617.274	8.70473
617.469	9.57205
617.664	8.25898
617.858	6.93381
618.053	8.0484
618.247	7.39386
618.442	5.39736
618.636	8.82028
618.831	6.99741
619.025	6.97818
619.219	10.08818
619.414	4.29609
619.608	7.65561
619.803	6.96848
619.997	9.78208
620.191	8.8367
620.386	8.00307
620.58	7.71289
620.774	5.82577
620.969	6.18968
621.163	7.93892
621.357	6.50891
621.551	7.30715
621.746	7.72576
621.94	7.30483
622.134	11.26078
622.328	9.81766
622.522	5.86278
622.716	8.8662
622.911	8.6881
623.105	8.78741
623.299	8.1124
623.493	11.05258
623.687	6.92398
623.881	7.25679
624.075	8.3228
624.269	9.03963
624.463	5.66777
624.657	5.9749
624.851	8.06711
625.045	8.53988
625.239	8.62489
625.433	7.10902
625.627	9.01583
625.821	6.93072
626.015	6.73034
626.209	7.5858
626.403	6.16734
626.596	7.93641
626.79	8.31161
626.984	6.22052
627.178	8.08604
627.372	8.06452
627.565	8.33144
627.759	6.04299
627.953	6.33878
628.147	7.9095
628.34	8.2635
628.534	9.96934
628.728	7.44107
628.921	8.69219
629.115	8.39534
629.309	8.89026
629.502	8.78281
629.696	7.99723
629.89	7.55531
630.083	8.03002
630.277	8.36415
630.47	9.88491
630.664	7.49729
630.857	6.22639
631.051	8.70321
631.244	8.99856
631.438	9.04343
631.631	6.99714
631.825	9.39948
632.018	8.83177
632.212	10.11757
632.405	9.27049
632.598	7.17989
632.792	8.10844
632.985	5.16898
633.178	7.58769
633.372	7.70347
633.565	7.7947
633.758	9.44306
633.952	6.89503
634.145	6.91028
634.338	7.34976
634.531	7.12073
634.724	7.24569
634.918	8.05719
635.111	7.71821
635.304	7.6216
635.497	10.65541
635.69	8.24454
635.883	9.37339
636.077	6.53227
636.27	8.57947
636.463	8.16963
636.656	8.65788
636.849	7.67666
637.042	8.49156
637.235	9.98059
637.428	9.08613
637.621	8.51841
637.814	9.66434
638.007	10.16149
638.2	10.00114
638.393	10.77702
638.586	6.67081
638.778	7.66423
638.971	8.31035
639.164	10.5158
639.357	8.97747
639.55	10.15192
639.743	9.45882
639.935	9.19622
640.128	11.0705
640.321	9.31265
640.514	8.55164
640.707	11.57081
640.899	9.42305
641.092	6.2964
641.285	17.90106
641.477	5.56621
641.67	11.62878
641.863	10.31906
642.055	8.97435
642.248	8.48998
642.441	8.1893
642.633	9.07846
642.826	10.73146
643.018	10.53039
643.211	11.03841
643.403	11.39641
643.596	11.87525
643.788	12.11917
643.981	8.37771
644.173	10.30093
644.366	8.54663
644.558	6.42424
644.751	10.30107
644.943	6.9728
645.135	11.35726
645.328	11.50221
645.52	10.01894
645.712	10.3663
645.905	13.62603
646.097	7.42222
646.289	9.3407
646.482	11.78571
646.674	8.3422
646.866	10.76056
647.058	9.97693
647.251	7.49819
647.443	8.42372
647.635	8.89712
647.827	7.29601
648.019	7.79336
648.211	9.22176
648.404	8.96249
648.596	11.40202
648.788	9.38027
648.98	9.45203
649.172	9.57815
649.364	9.77791
649.556	6.54087
649.748	13.46571
649.94	7.31659
650.132	9.82875
650.324	7.79799
650.516	8.08571
650.708	10.91704
650.9	7.03502
651.092	6.59222
651.284	6.74229
651.476	7.48715
651.667	10.01428
651.859	10.80608
652.051	9.17223
652.243	9.20936
652.435	8.20169
652.627	9.82413
652.818	9.89201
653.01	6.89602
653.202	7.72913
653.394	8.64941
653.585	10.10429
653.777	16.30942
653.969	11.29436
654.16	11.04699
654.352	7.71375
654.544	9.11389
654.735	10.79722
654.927	9.74387
655.118	11.98295
655.31	10.50593
655.502	11.03867
655.693	8.56443
655.885	10.46481
656.076	11.40946
656.268	9.57552
656.459	11.59865
656.651	11.40784
656.842	8.66897
657.034	8.20307
657.225	10.6925
657.416	11.71051
657.608	11.52305
657.799	8.94019
657.99	11.04988
658.182	8.07783
658.373	8.0932
658.564	9.98894
658.756	9.12162
658.947	8.80569
659.138	7.66695
659.33	8.3724
659.521	7.79634
659.712	8.87142
659.903	8.65406
660.094	8.106
660.286	6.71435
660.477	12.37473
660.668	10.15879
660.859	9.12106
661.05	7.17215
661.241	10.45391
661.432	10.47735
661.623	8.93614
661.814	9.08972
662.006	7.00291
662.197	10.49273
662.388	11.40052
662.579	10.1751
662.77	12.2705
662.96	14.44095
663.151	11.25304
663.342	6.79458
663.533	10.90622
663.724	9.82232
663.915	12.90973
664.106	9.73543
664.297	13.17731
664.488	11.25991
664.678	9.20952
664.869	11.21332
665.06	11.82649
665.251	10.68081
665.442	11.20392
665.632	8.46695
665.823	13.61661
666.014	4.71195
666.204	11.21011
666.395	12.5221
666.586	15.13807
666.776	11.50152
666.967	13.29006
667.158	10.53408
667.348	13.02562
667.539	8.20682
667.729	11.53426
667.92	8.67338
668.111	11.97355
668.301	11.12642
668.492	9.71443
668.682	10.14173
668.873	9.92838
669.063	8.2247
669.253	10.63393
669.444	11.51265
669.634	9.9799
669.825	13.61105
670.015	12.50545
670.206	8.89656
670.396	14.12328
670.586	9.89569
670.777	11.6151
670.967	6.62098
671.157	10.19721
671.347	9.32296
671.538	13.21368
671.728	11.46051
671.918	14.17541
672.108	12.75928
672.299	10.59189
672.489	11.38055
672.679	9.35666
672.869	11.30222
673.059	13.87056
673.249	11.37373
673.44	8.7074
673.63	10.79688
673.82	12.78712
674.01	9.07139
674.2	11.22355
674.39	16.79732
674.58	11.93658
674.77	10.91607
674.96	10.85485
675.15	19.20706
675.34	13.06029
675.53	11.01593
675.72	10.21253
675.91	8.36483
676.099	14.86509
676.289	15.25546
676.479	12.96007
676.669	10.22808
676.859	11.93189
677.049	8.89603
677.238	10.97569
677.428	14.77529
677.618	11.50292
677.808	12.64768
677.997	12.14629
678.187	8.61658
678.377	10.93608
678.567	9.90126
678.756	9.83757
678.946	10.35237
679.136	7.91702
679.325	8.91212
679.515	8.67809
679.704	8.16833
679.894	11.35221
680.084	10.74908
680.273	12.77845
680.463	9.0324
680.652	9.00083
680.842	10.45313
681.031	12.3919
681.221	9.02489
681.41	12.07928
681.6	10.46344
681.789	12.41156
681.978	13.66877
682.168	11.35723
682.357	11.8052
682.547	12.67803
682.736	11.65039
682.925	13.8374
683.115	13.49401
683.304	13.38783
683.493	12.40237
683.682	12.26905
683.872	12.20177
684.061	14.44903
684.25	13.00345
684.439	15.71165
684.629	13.21857
684.818	19.41776
685.007	11.74109
685.196	11.28861
685.385	15.05646
685.574	12.83729
685.763	13.2562
685.952	12.10821
686.142	9.55483
686.331	15.31213
686.52	8.46544
686.709	15.29071
686.898	15.37441
687.087	13.7361
687.276	16.05206
687.465	14.28689
687.654	12.3161
687.842	15.87554
688.031	9.38173
688.22	15.28358
688.409	12.93549
688.598	13.11007
688.787	18.61772
688.976	12.65776
689.165	16.3094
689.353	11.51874
689.542	13.75053
689.731	13.96262
689.92	17.1303
690.108	14.76213
690.297	11.95255
690.486	12.91938
690.675	14.7432
690.863	17.01973
691.052	16.81268
691.241	14.04616
691.429	13.54667
691.618	16.66257
691.806	10.012
691.995	12.18313
692.184	12.9741
692.372	11.88088
692.561	13.70082
692.749	13.08811
692.938	18.9137
693.126	14.73983
693.315	12.08229
693.503	14.51679
693.692	14.63542
693.88	15.98192
694.068	18.85434
694.257	13.22004
694.445	14.47071
694.634	8.07001
694.822	15.94371
695.01	16.59059
695.199	16.34584
695.387	17.66161
695.575	16.56252
695.763	13.4999
695.952	12.34657
696.14	9.55432
696.328	11.9055
696.516	13.62737
696.705	14.1521
696.893	13.53107
697.081	8.76022
697.269	14.64547
697.457	10.90651
697.645	9.94819
697.833	14.32351
698.021	10.49638
698.21	11.18516
698.398	11.97186
698.586	9.64639
698.774	9.60034
698.962	11.3474
699.15	9.96974
699.338	8.96771
699.526	13.26106
699.714	10.88256
699.901	11.18544
700.089	15.10808
700.277	10.96142
700.465	12.59557
700.653	14.98865
700.841	14.37094
701.029	11.1709
701.217	16.36666
701.404	14.00926
701.592	17.7772
701.78	18.19912
701.968	12.55027
702.155	13.06972
702.343	10.08058
702.531	17.51537
702.718	14.78135
702.906	13.26495
703.094	12.25661
703.281	17.20902
703.469	14.06927
703.657	17.56817
703.844	23.51668
704.032	18.60492
704.219	12.47955
704.407	15.01943
704.595	18.05516
704.782	14.83355
704.97	13.19162
705.157	13.51686
705.345	19.32009
705.532	21.73928
705.719	15.73498
705.907	19.02539
706.094	15.1804
706.282	19.48873
706.469	13.42094
706.656	15.14629
706.844	14.65503
707.031	17.71366
707.218	15.56044
707.406	19.88078
707.593	17.16436
707.78	16.73105
707.968	14.34881
708.155	12.60445
708.342	16.83589
708.529	16.32952
708.716	15.37793
708.904	20.23418
709.091	17.72588
709.278	12.05757
709.465	21.80135
709.652	21.14264
709.839	19.63846
710.026	16.50637
710.213	10.86858
710.4	17.08891
710.587	18.31834
710.774	18.81074
710.961	18.88424
711.148	16.1879
711.335	19.0408
711.522	15.08729
711.709	16.7336
711.896	22.6925
712.083	18.88825
712.27	13.38268
712.457	16.67596
712.644	11.71311
712.831	22.92228
713.017	16.33
713.204	18.32046
713.391	14.61961
713.578	20.17401
713.765	19.78507
713.951	17.42088
714.138	26.88499
714.325	18.62269
714.512	16.20401
714.698	13.83317
714.885	21.88726
715.072	17.50419
715.258	17.12945
715.445	14.39203
715.631	21.35513
715.818	8.82174
716.005	14.7174
716.191	18.78699
716.378	15.51969
716.564	20.34314
716.751	13.82955
716.937	15.05277
717.124	20.73616
717.31	14.26188
717.497	21.6356
717.683	14.66865
717.869	26.34361
718.056	15.6128
718.242	18.86797
718.429	17.14249
718.615	13.69685
718.801	17.52217
718.988	20.64447
719.174	18.96531
719.36	17.48427
719.547	22.43686
719.733	18.65006
719.919	18.47329
720.105	20.52596
720.291	17.56687
720.478	18.36607
720.664	17.35388
720.85	16.15744
721.036	28.86849
721.222	23.16761
721.408	18.11869
721.595	26.33573
721.781	24.29266
721.967	22.03894
722.153	24.68749
722.339	20.44453
722.525	19.79823
722.711	14.80529
722.897	13.9706
723.083	16.70228
723.269	22.84819
723.455	28.65647
723.641	29.85856
723.827	19.53847
724.012	21.1625
724.198	17.65801
724.384	24.10293
724.57	21.15675
724.756	13.19069
724.942	11.68602
725.127	22.67979
725.313	24.98458
725.499	23.92822
725.685	25.88438
725.87	20.96047
726.056	15.95942
726.242	25.17159
726.428	13.05172
726.613	22.93813
726.799	17.96072
726.985	15.15374
727.17	12.99616
727.356	25.37534
727.541	16.25256
727.727	18.39784
727.913	22.12555
728.098	17.11944
728.284	21.98251
728.469	14.13822
728.655	16.11959
728.84	22.3815
729.026	23.02739
729.211	22.90996
729.397	20.75306
729.582	21.73124
729.767	19.59909
729.953	20.58623
730.138	23.14451
730.323	10.61876
730.509	14.90114
730.694	26.31734
730.879	20.92614
731.065	19.64393
731.25	28.53796
731.435	22.59834
731.621	13.65987
731.806	17.18632
731.991	20.31358
732.176	13.47716
732.361	24.84324
732.547	20.30983
732.732	13.13745
732.917	29.85922
733.102	14.54634
733.287	16.87653
733.472	20.18018
733.657	19.23735
733.842	13.44116
734.027	18.8892
734.212	19.10978
734.397	16.50291
734.582	20.20632
734.767	23.38304
734.952	25.98098
735.137	9.57023
735.322	26.51998
735.507	21.36827
735.692	21.58077
735.877	30.17752
736.062	27.29608
736.247	22.402
736.431	19.78153
736.616	25.9807
736.801	20.55323
736.986	20.01559
737.171	16.97103
737.355	15.37173
737.54	25.43675
737.725	20.25516
737.909	33.75736
738.094	17.7161
738.279	25.0218
738.463	19.23213
738.648	23.93372
738.833	22.14657
739.017	28.84919
739.202	18.4652
739.386	19.99965
739.571	13.5672
739.756	23.70738
739.94	20.5032
740.125	25.10065
740.309	17.2339
740.494	25.20345
740.678	21.87492
740.863	24.17929
741.047	22.22586
741.231	26.63778
741.416	17.09375
741.6	29.05917
741.785	17.63984
741.969	24.7949
742.153	27.35069
742.338	11.69194
742.522	21.58306
742.706	24.72629
742.89	15.63124
743.075	22.26471
743.259	28.88414
743.443	24.68933
743.627	27.22066
743.812	32.69453
743.996	13.90973
744.18	20.47798
744.364	18.58075
744.548	33.90599
744.732	20.66735
744.916	24.80999
745.1	23.60816
745.285	20.19416
745.469	24.06732
745.653	30.47679
745.837	14.72661
746.021	34.43066
746.205	27.45763
746.389	22.88002
746.573	20.06811
746.757	30.57595
746.94	19.39671
747.124	28.22636
747.308	16.139
747.492	28.05607
747.676	18.27103
747.86	34.68479
748.044	19.53244
748.227	12.47622
748.411	41.18555
748.595	23.09666
748.779	16.62241
748.963	24.10306
749.146	22.87488
749.33	17.57662
749.514	16.73122
749.697	27.89487
749.881	19.00039
750.065	17.58732
750.248	22.92592
750.432	35.5384
750.616	22.05044
750.799	16.1635
750.983	33.71399
751.166	37.36345
751.35	14.25979
751.533	25.5261
751.717	27.76381
751.9	31.3287
752.084	19.96546
752.267	17.05029
752.451	18.22754
752.634	23.05088
752.818	26.0034
753.001	26.31168
753.184	28.07933
753.368	24.53286
753.551	6.48328
753.734	18.03088
753.918	33.44208
754.101	19.01271
754.284	27.60065
754.467	19.97621
754.651	19.0352
754.834	18.40649
755.017	29.23483
755.2	27.20948
755.384	16.95803
755.567	28.28686
755.75	28.02563
755.933	20.65586
756.116	24.02737
756.299	20.03155
756.482	17.76435
756.665	26.38927
756.848	22.26443
757.032	25.35079
757.215	15.46818
757.398	19.07362
757.581	19.06401
757.764	39.48163
757.947	22.2599
758.129	30.14903
758.312	9.37875
758.495	22.53803
758.678	22.26066
758.861	21.51669
759.044	33.96289
759.227	18.44875
759.41	19.1943
759.592	25.73772
759.775	21.96478
759.958	28.82282
760.141	15.94026
760.324	36.4616
760.506	31.40717
760.689	29.03772
760.872	37.49681
761.054	26.34152
761.237	22.17989
761.42	25.59988
761.602	28.29893
761.785	25.56883
761.968	29.04597
762.15	33.80798
762.333	22.55673
762.515	25.52291
762.698	19.61396
762.88	27.21205
763.063	24.34764
763.245	26.55851
763.428	17.19338
763.61	19.48256
763.793	15.38207
763.975	23.12077
764.158	19.62567
764.34	19.08806
764.522	17.37597
764.705	20.95165
764.887	28.54121
765.069	14.56215
765.252	26.56533
765.434	26.58859
765.616	23.43194
765.799	18.77997
765.981	27.62771
766.163	18.33257
766.345	28.95781
766.528	19.6813
766.71	11.03945
766.892	23.79859
767.074	30.49485
767.256	21.95632
767.438	34.65347
767.62	24.77322
767.802	36.94394
767.985	28.67792
768.167	37.27915
768.349	19.89855
768.531	27.1154
768.713	26.75444
768.895	30.136
769.077	25.90342
769.259	39.43536
769.441	57.34991
769.623	30.69571
769.804	35.82762
769.986	33.74118
770.168	41.78546
770.35	48.7762
770.532	34.93374
770.714	39.77191
770.896	41.43247
771.077	19.38151
771.259	42.17954
771.441	35.01194
771.623	44.85489
771.804	54.24309
771.986	18.19825
772.168	27.60476
772.35	41.81212
772.531	57.27664
772.713	33.75831
772.894	45.40405
773.076	31.75519
773.258	29.26044
773.439	43.22672
773.621	48.03256
773.802	24.21101
773.984	27.84082
774.166	36.38384
774.347	47.30586
774.529	44.88712
774.71	17.8234
774.891	32.61732
775.073	28.8327
775.254	48.73002
775.436	27.90567
775.617	52.88463
775.799	28.56776
775.98	48.57908
776.161	51.76789
776.343	52.00374
776.524	31.79112
776.705	30.70095
776.886	17.7239
777.068	36.35502
777.249	60.81624
777.43	55.03345
777.611	22.27173
777.793	29.96135
777.974	49.28463
778.155	28.07465
778.336	25.95912
778.517	56.49541
778.698	26.72458
778.879	16.54379
779.061	10.32586
779.242	37.51331
779.423	38.88759
779.604	28.57506
779.785	33.17458
779.966	35.77835
780.147	44.32629
780.328	48.11404
780.509	64.57889
780.69	41.37369
780.871	27.16433
781.051	21.05083
781.232	36.61174
781.413	36.44637
781.594	32.9125
781.775	29.66762
781.956	27.88815
782.137	17.11775
782.317	27.31227
782.498	38.3303
782.679	36.15808
782.86	36.07085
783.04	27.90697
783.221	38.45445
783.402	54.47215
783.583	35.51991
783.763	41.62222
783.944	30.73784
784.124	20.28515
784.305	51.01348
784.486	39.5564
784.666	33.85471
784.847	18.43904
785.027	61.6589
785.208	27.74701
785.388	28.5832
785.569	28.43397
785.749	31.57688
785.93	29.65986
786.11	20.05986
786.291	40.55883
786.471	35.13502
786.652	42.19986
786.832	32.47538
787.012	36.88974
787.193	23.31927
787.373	36.30247
787.553	30.71934
787.734	37.54056
787.914	30.85054
788.094	39.9311
788.275	38.44722
788.455	32.02714
788.635	22.06744
788.815	36.66701
788.995	24.47836
789.176	20.49328
789.356	27.00243
789.536	31.33304
789.716	41.07443
789.896	27.59628
790.076	29.51579
790.256	36.33523
790.436	13.66598
790.616	25.24313
790.796	34.69245
790.976	29.81517
791.156	25.74463
791.336	43.43943
791.516	38.08844
791.696	30.88759
791.876	20.94347
792.056	35.87719
792.236	43.00109
792.416	41.40094
792.596	37.26189
792.776	38.47782
792.956	39.67188
793.135	50.24379
793.315	23.5275
793.495	45.86892
793.675	40.29188
793.854	41.31039
794.034	43.86338
794.214	23.94168
794.394	41.28491
794.573	46.67078
794.753	35.44311
794.933	25.88973
795.112	36.31711
795.292	42.12551
795.472	54.42812
795.651	21.42582
795.831	32.72354
796.01	31.39105
796.19	32.37078
796.369	33.18806
796.549	39.68479
796.728	32.41557
796.908	20.62595
797.087	21.84876
797.267	31.17738
797.446	23.55963
797.626	41.01706
797.805	39.38909
797.984	26.55668
798.164	41.17571
798.343	24.77995
798.522	37.4895
798.702	34.8062
798.881	21.89139
799.06	31.31662
799.239	16.46948
799.419	25.31071
799.598	49.71638
799.777	38.76629
799.956	46.67693
800.136	29.9654
800.315	27.11698
800.494	37.48585
800.673	45.77471
800.852	40.56307
801.031	43.92587
801.21	39.98271
801.389	30.35169
801.568	35.35276
801.747	53.06066
801.926	34.77519
802.105	51.46194
802.284	29.86736
802.463	48.45214
802.642	36.51998
802.821	37.94009
803	48.1507
803.179	43.02284
803.358	46.89121
803.537	28.37147
803.716	33.3352
803.895	27.71183
804.073	34.21295
804.252	27.73069
804.431	38.8957
804.61	31.86548
804.789	46.15014
804.967	29.13306
805.146	28.55739
805.325	54.85929
805.503	42.09121
805.682	20.32943
805.861	63.14289
806.039	47.2092
806.218	29.70417
806.397	37.30909
806.575	36.35867
806.754	38.22412
806.932	25.42351
807.111	53.08189
807.289	42.47783
807.468	36.617
807.646	46.22834
807.825	42.02903
808.003	37.89997
808.182	43.5491
808.36	36.93981
808.539	26.79411
808.717	51.91791
808.895	26.79598
809.074	39.97231
809.252	35.3346
809.43	41.19525
809.609	48.57889
809.787	52.75073
809.965	34.28463
810.144	36.70936
810.322	33.35275
810.5	40.54548
810.678	33.1983
810.856	59.98004
811.035	47.86036
811.213	42.88123
811.391	51.18771
811.569	38.42767
811.747	70.08927
811.925	52.35665
812.103	27.08835
812.281	35.31066
812.459	55.36833
812.637	58.375
812.816	47.60856
812.994	59.29442
813.171	49.79906
813.349	44.23796
813.527	48.97426
813.705	52.55891
813.883	66.47119
814.061	49.89837
814.239	60.45111
814.417	63.85001
814.595	42.11933
814.773	41.26679
814.95	39.3993
815.128	42.66139
815.306	32.58843
815.484	35.23884
815.662	31.76092
815.839	26.69267
816.017	30.4419
816.195	54.51171
816.372	32.90087
816.55	43.17643
816.728	56.13962
816.905	33.88542
817.083	59.14925
817.261	37.7112
817.438	61.85456
817.616	59.49161
817.793	33.0065
817.971	47.40954
818.148	46.36142
818.326	53.49739
818.503	41.74071
818.681	53.54236
818.858	32.15367
819.036	37.9245
819.213	41.56479
819.391	29.89164
819.568	29.55355
819.745	27.02667
819.923	46.71395
820.1	33.15895
820.277	27.77151
820.455	32.18272
820.632	33.71188
820.809	33.56757
820.986	23.57683
821.164	20.02064
821.341	17.2959
821.518	23.08936
821.695	17.63395
821.872	16.7635
822.05	14.80182
822.227	11.96062
822.404	12.98602
822.581	14.98498
822.758	12.91295
822.935	12.87309
823.112	14.8121
823.289	12.38485
823.466	15.27093
823.643	13.99831
823.82	17.12053
823.997	15.70056
824.174	18.58446
824.351	23.54223
824.528	22.66205
824.705	20.2838
824.882	23.00692
825.059	29.15728
825.236	19.68506
825.412	21.70262
825.589	25.95771
825.766	34.3993
825.943	23.48735
826.12	26.83293
826.296	18.8021
826.473	22.67738
826.65	22.92648
826.827	28.24617
827.003	19.41332
827.18	21.1868
827.357	24.14851
827.533	22.44716
827.71	12.59221
827.887	18.98969
828.063	21.48105
828.24	19.22156
828.416	26.05581
828.593	21.27033
828.769	29.59984
828.946	32.66719
829.122	34.02196
829.299	31.02853
829.475	19.63386
829.652	32.05278
829.828	49.866
830.005	32.60659
830.181	43.32588
830.357	29.75763
830.534	46.80058
830.71	34.14986
830.886	41.84691
831.063	44.15264
831.239	52.13878
831.415	24.28058
831.592	53.77997
831.768	33.4869
831.944	28.98736
832.12	50.67834
832.296	47.10376
832.473	44.10499
832.649	31.60177
832.825	41.40762
833.001	24.61721
833.177	37.807
833.353	33.80823
833.529	19.59284
833.705	28.56832
833.881	21.33108
834.058	21.87521
834.234	23.18375
834.41	23.12899
834.586	18.1451
834.761	22.9995
834.937	24.83545
835.113	26.09467
835.289	22.98549
835.465	28.47797
835.641	24.22749
835.817	27.87604
835.993	47.01534
836.169	24.56865
836.344	34.50834
836.52	40.73727
836.696	40.64567
836.872	29.96858
837.048	73.19138
837.223	33.3299
837.399	62.30178
837.575	50.85633
837.75	44.79836
837.926	61.67634
838.102	95.53358
838.277	76.53626
838.453	92.44312
838.628	93.93122
838.804	41.93389
838.98	85.82976
839.155	43.93551
839.331	60.94431
839.506	44.29563
839.682	47.29634
839.857	52.92142
840.033	63.80797
840.208	33.65665
840.384	18.97578
840.559	34.63404
840.734	49.54317
840.91	74.07158
841.085	44.95731
841.26	43.66247
841.436	39.57093
841.611	40.56331
841.786	59.36338
841.962	75.91552
842.137	49.86672
842.312	32.0998
842.487	42.99582
842.663	31.93577
842.838	42.64005
843.013	137.38056
843.188	67.61437
843.363	56.21426
843.538	117.43717
843.714	112.08878
843.889	120.2059
844.064	107.9228
844.239	97.69348
844.414	128.49212
844.589	79.61671
844.764	134.67481
844.939	135.49029
845.114	160.04813
845.289	162.20388
845.464	168.88741
845.639	133.11561
845.814	74.3001
845.989	85.85109
846.163	92.18656
846.338	109.52311
846.513	150.20906
846.688	98.57042
846.863	99.69199
847.038	89.40883
847.212	106.85795
847.387	104.21014
847.562	109.61889
847.737	135.19918
847.911	54.38192
848.086	70.18256
848.261	228.44402
848.435	89.30654
848.61	140.6765
848.785	68.15051
848.959	135.17921
849.134	178.74158
849.308	218.77253
849.483	108.20306
849.658	161.42259
849.832	88.62478
850.007	82.24488
850.181	221.14829
850.356	81.19896
850.53	191.44115
850.705	63.89644
850.879	41.11853
851.053	97.0548
851.228	86.51568
851.402	123.2982
851.577	159.3381
851.751	161.07444
851.925	105.08569
852.099	55.38359
852.274	80.19926
852.448	99.85267
852.622	136.85508
852.797	99.08683
852.971	96.98622
853.145	113.23305
853.319	239.6771
853.493	172.33011
853.668	87.95667
853.842	194.62929
854.016	156.69934
854.19	191.11796
854.364	117.0771
854.538	126.62404
854.712	155.6524
854.886	111.60461
855.06	90.27404
855.234	40.64648
855.408	176.60775
855.582	155.45239
855.756	166.22911
855.93	188.78817
856.104	118.31602
856.278	150.69041
856.452	109.2082
856.626	128.80553
856.8	223.62585
856.973	131.70996
857.147	117.85922
857.321	129.19137
857.495	149.85138
857.669	109.95013
857.842	93.04166
858.016	159.06612
858.19	75.13583
858.364	286.67974
858.537	95.78818
858.711	119.16416
858.885	94.98529
859.058	90.586
859.232	51.30091
859.405	61.52694
859.579	145.27851
859.753	133.87905
859.926	78.95989
860.1	54.16276
860.273	104.19401
860.447	179.07651
860.62	98.53859
860.794	201.79107
860.967	124.22433
861.141	172.5475
861.314	238.07316
861.487	126.79818
861.661	162.96688
861.834	191.63732
862.008	155.49957
862.181	107.87062
862.354	114.30306
862.528	133.42417
862.701	95.31245
862.874	60.50543
863.047	98.9644
863.221	90.3158
863.394	52.56059
863.567	169.15391
863.74	41.86437
863.913	150.72745
864.087	129.33478
864.26	144.51331
864.433	98.41858
864.606	209.50023
864.779	108.98921
864.952	51.88667
865.125	90.15502
865.298	114.97878
865.471	114.30126
865.644	184.84309
865.817	155.27976
865.99	151.97162
866.163	188.04886
866.336	90.06504
866.509	107.9832
866.682	90.95822
866.855	170.40602
867.028	65.17777
867.2	128.23528
867.373	45.60176
867.546	113.92385
867.719	200.68185
867.892	129.47828
868.064	74.0383
868.237	130.97951
868.41	109.58053
868.583	73.58558
868.755	70.09592
868.928	101.49286
869.101	232.88169
869.273	158.96123
869.446	126.93617
869.619	164.47888
869.791	105.6264
869.964	159.2015
870.136	151.42936
870.309	116.77108
870.481	115.48428
870.654	58.90262
870.826	128.16417
870.999	90.4011
871.171	132.52078
871.344	82.43503
871.516	99.30779
871.689	74.26366
871.861	117.10032
872.033	75.63033
872.206	96.60486
872.378	158.35992
872.55	95.46189
872.723	61.81776
872.895	99.45473
873.067	154.1997
873.24	157.10209
873.412	85.15743
873.584	106.03098
873.756	94.35125
873.928	117.9245
874.101	124.17581
874.273	126.6139
874.445	47.41394
874.617	63.3729
874.789	111.79758
874.961	94.9359
875.133	129.88292
875.305	105.45816
875.477	74.93278
875.649	57.84324
875.821	74.67719
875.993	167.3995
876.165	66.87165
876.337	117.99659
876.509	102.31987
876.681	110.36674
876.853	115.81498
877.025	110.94417
877.197	74.81935
877.369	69.33749
877.541	133.17329
877.712	38.15226
877.884	61.6333
878.056	116.07857
878.228	61.42155
878.4	119.98388
878.571	64.86154
878.743	46.69612
878.915	94.32299
879.086	63.12352
879.258	76.78846
879.43	64.50236
879.601	57.47849
879.773	63.65772
879.945	18.25014
880.116	27.4972
880.288	18.3351
880.459	20.28477
880.631	16.21814
880.802	19.7788
880.974	18.46745
881.145	13.2583
881.317	17.80113
881.488	13.3014
881.66	15.39208
881.831	13.99581
882.002	18.97506
882.174	14.30914
882.345	18.20726
882.517	10.78231
882.688	22.45077
882.859	17.91442
883.03	28.01393
883.202	27.49022
883.373	23.80292
883.544	23.09057
883.715	36.20372
883.887	31.49607
884.058	27.05417
884.229	37.99226
884.4	38.07615
884.571	43.76939
884.742	36.99488
884.914	39.23168
885.085	57.31947
885.256	74.26096
885.427	59.2163
885.598	70.62263
885.769	69.64042
885.94	71.41785
886.111	47.69017
886.282	86.64348
886.453	64.61305
886.624	51.76079
886.795	81.49341
886.966	69.88773
887.136	91.70769
887.307	64.46312
887.478	128.43318
887.649	97.67371
887.82	110.02151
887.991	89.83266
888.161	125.38005
888.332	104.79758
888.503	54.65054
888.674	150.69426
888.844	174.94549
889.015	131.82246
889.186	61.65977
889.356	162.67151
889.527	58.87225
889.698	224.69411
889.868	83.23166
890.039	120.58138
890.209	96.49386
890.38	127.51077
890.551	111.06084
890.721	165.42246
890.892	132.24767
891.062	96.41743
891.233	119.61778
891.403	89.08966
891.574	78.33526
891.744	93.21764
891.914	108.80295
892.085	102.91932
892.255	39.04785
892.425	150.16901
892.596	110.81456
892.766	118.15611
892.936	148.3727
893.107	126.95817
893.277	68.58655
893.447	53.72685
893.618	38.5781
893.788	77.02381
893.958	45.72618
894.128	43.76378
894.298	50.44466
894.468	64.55423
894.639	26.10221
894.809	23.83752
894.979	35.40713
895.149	42.86664
895.319	36.76014
895.489	50.06929
895.659	62.33605
895.829	40.58885
895.999	44.73014
896.169	34.85824
896.339	43.76544
896.509	83.69784
896.679	92.09835
896.849	93.17387
897.019	131.90025
897.189	95.66429
897.358	88.77886
897.528	128.26249
897.698	42.41146
897.868	116.95198
898.038	201.6873
898.208	199.18867
898.377	59.23587
898.547	196.37762
898.717	238.80869
898.886	121.97988
899.056	203.21966
899.226	260.92877
899.395	155.97098
899.565	230.78379
899.735	154.29124
899.904	241.61613
900.074	210.50842
900.244	89.13946
900.413	343.20989
900.583	68.06708
900.752	139.35564
900.922	258.75576
901.091	20.19384
901.261	196.30219
901.43	192.37621
901.599	168.69255
901.769	425.74167
901.938	235.69024
902.108	197.63625
902.277	280.86206
902.446	70.70462
902.616	80.53186
902.785	101.92918
902.954	186.12819
903.124	121.11858
903.293	93.41615
903.462	51.59702
903.631	76.16222
903.801	56.78666
903.97	33.25983
904.139	49.19839
904.308	39.46465
904.477	34.10692
904.646	20.19438
904.816	27.65465
904.985	47.76151
905.154	70.20249
