Data from WindowProjectSample_Transmission__68__00068.txt Node

Date: Sat May 03 17:50:49 EDT 2025
User: jessi
Spectrometer: SR400872
Trigger mode: 0
Integration Time (sec): 5.000010E-1
Scans to average: 6
Electric dark correction enabled: true
Nonlinearity correction enabled: true
Boxcar width: 0
XAxis mode: Wavelengths
Number of Pixels in Spectrum: 3648
>>>>>Begin Spectral Data<<<<<
184.909	3355.57049
185.132	3899.20135
185.355	-4059.80262
185.578	4115.2681
185.801	-359.29995
186.024	-4889.38037
186.247	1564.26154
186.47	458.65053
186.693	-72.67897
186.916	2267.34869
187.139	3047.51075
187.362	-1848.43268
187.585	5348.7919
187.808	28672.4295
188.031	-33.35735
188.254	-4001.88744
188.476	782.9935
188.699	3468.30036
188.922	-227.54861
189.145	-6933.56919
189.368	-232.91882
189.591	-672.5515
189.813	-2977.63126
190.036	931.77313
190.259	-7418.50751
190.482	1284.27776
190.705	3778.30236
190.927	-1909.09295
191.15	-6782.8667
191.373	5495.8555
191.595	-1226.24254
191.818	2059.37465
192.041	-560.99795
192.263	1914.34294
192.486	-2149.77439
192.709	-22683.67644
192.931	1783.05894
193.154	-3719.36992
193.377	-2291.37177
193.599	4385.73008
193.822	1528.90052
194.044	5574.33462
194.267	848.12429
194.489	-135.99995
194.712	2424.73485
194.934	8555.86115
195.157	-22119.87166
195.379	2425.92193
195.602	1607.67854
195.824	1441.28188
196.047	43478.90215
196.269	3239.41372
196.492	-1911.77538
196.714	-1226.52557
196.936	1785.60796
197.159	-11604.01228
197.381	-402.14126
197.604	-5319.63271
197.826	-16585.78974
198.048	9276.37316
198.271	-8025.30226
198.493	4446.42408
198.715	3370.95391
198.938	-703.5365
199.16	-17482.45093
199.382	1175.21196
199.604	-1603.04345
199.827	-3558.63911
200.049	2339.07711
200.271	-6673.73882
200.493	-45299.07502
200.715	3292.11941
200.938	-3001.90474
201.16	-2553.64058
201.382	-1677.48448
201.604	-3282.62457
201.826	3182.32282
202.048	3207.13064
202.27	-1072.93333
202.492	-3295.54865
202.715	-1299.97852
202.937	-16753.11637
203.159	2558.58013
203.381	2226.96633
203.603	-2912.98813
203.825	-804.18339
204.047	53547.4292
204.269	-1266.48927
204.491	-1216.48983
204.713	65771.72886
204.935	-3000.40115
205.156	-960.29883
205.378	-4423.14312
205.6	-1159.91404
205.822	2167.71024
206.044	-411.6933
206.266	6825.39761
206.488	824.51765
206.71	3072.51757
206.932	1588.73896
207.153	-1585.00596
207.375	-2725.08476
207.597	3803.92424
207.819	27769.20467
208.041	4036.51549
208.262	-1455.82466
208.484	-1101.67532
208.706	-1539.12506
208.927	2850.6132
209.149	4858.16347
209.371	-4780.49316
209.593	316.28148
209.814	-23513.08922
210.036	2550.29977
210.258	-795.70735
210.479	4288.86081
210.701	-3260.56749
210.922	-11752.76996
211.144	-858.99287
211.366	5068.72096
211.587	-2168.0839
211.809	-4780.67555
212.03	-787.4544
212.252	-474.52316
212.473	3511.71466
212.695	-541.11542
212.916	-831.23018
213.138	583.23107
213.359	-1392.85405
213.581	12477.30645
213.802	-2014.21934
214.024	-2326.55743
214.245	-5807.15382
214.466	-336.13839
214.688	-2876.8645
214.909	-18302.89796
215.131	-4565.53767
215.352	-2160.50147
215.573	11607.18174
215.795	1662.47369
216.016	6194.75875
216.237	-521.49915
216.459	5827.94308
216.68	-3399.62178
216.901	-2680.18211
217.122	-1904.70472
217.344	-6678.61967
217.565	-2813.1471
217.786	2194.6314
218.007	1578.72591
218.228	-549.85491
218.45	-4226.23771
218.671	1332.5282
218.892	3859.84942
219.113	1533.2509
219.334	253.12952
219.555	-6832.60246
219.776	11507.93303
219.997	3885.40703
220.219	1756.73428
220.44	1098.51166
220.661	1007.47266
220.882	-2612.68831
221.103	-954.53001
221.324	2400.78249
221.545	2942.12543
221.766	-3431.84565
221.987	-600.762
222.208	-9779.52717
222.429	169423.12553
222.65	-211.95296
222.87	-9225.19308
223.091	2477.1997
223.312	-1337.85102
223.533	2341.34473
223.754	1969.86216
223.975	2717.50924
224.196	-5643.08773
224.417	-2589.55946
224.637	7533.02202
224.858	1716.32713
225.079	1250.72153
225.3	1086.39868
225.521	4941.52602
225.741	879.55974
225.962	1048.0024
226.183	-488.64533
226.404	1456.28611
226.624	1123.66407
226.845	1457.76276
227.066	841.59747
227.286	541.93184
227.507	204.51873
227.728	200.84187
227.948	281.78217
228.169	95.29442
228.389	95.94221
228.61	44.84592
228.831	61.69826
229.051	7.20782
229.272	35.89379
229.492	51.61863
229.713	16.0448
229.933	38.12933
230.154	32.34534
230.374	52.92253
230.595	39.73767
230.815	27.10878
231.036	36.79359
231.256	-5.66947
231.477	74.24193
231.697	43.18708
231.917	42.81413
232.138	66.25352
232.358	137.84268
232.579	120.09918
232.799	19.46912
233.019	106.55461
233.24	140.20458
233.46	41.75836
233.68	78.63635
233.901	48.0439
234.121	34.6504
234.341	9.30204
234.561	-4.88839
234.782	23.83902
235.002	78.62412
235.222	-2.9973
235.442	65.65463
235.662	33.05444
235.883	73.14285
236.103	64.81225
236.323	41.39725
236.543	28.75351
236.763	47.59376
236.983	48.23827
237.203	49.64106
237.423	69.62016
237.643	97.90573
237.864	90.28114
238.084	25.17652
238.304	35.30833
238.524	56.54288
238.744	42.93059
238.964	73.32833
239.184	68.71667
239.404	70.26762
239.624	41.12541
239.843	68.12707
240.063	36.65118
240.283	22.83784
240.503	27.10918
240.723	27.14577
240.943	13.26775
241.163	20.34792
241.383	15.41754
241.603	5.82884
241.822	7.96124
242.042	6.71148
242.262	8.07644
242.482	9.66145
242.702	11.4892
242.921	3.70656
243.141	8.07702
243.361	7.4073
243.581	9.7793
243.8	8.32467
244.02	5.07924
244.24	10.70749
244.459	10.57896
244.679	20.03908
244.899	13.60372
245.118	14.02667
245.338	13.09591
245.558	15.7627
245.777	9.32617
245.997	10.44242
246.216	10.72613
246.436	6.00846
246.655	4.23755
246.875	3.07557
247.094	6.59238
247.314	2.21829
247.533	3.66043
247.753	4.61267
247.972	3.50084
248.192	1.19914
248.411	2.19961
248.631	4.11949
248.85	5.13858
249.07	3.76757
249.289	6.92079
249.508	4.94414
249.728	8.31954
249.947	8.59533
250.166	8.75057
250.386	4.99001
250.605	7.20164
250.824	11.78765
251.044	8.7642
251.263	27.80074
251.482	14.54244
251.701	12.9961
251.921	0.22893
252.14	3.87694
252.359	4.87872
252.578	10.61357
252.798	3.38314
253.017	9.12059
253.236	5.90487
253.455	5.6741
253.674	12.75604
253.893	5.63016
254.112	9.06756
254.331	12.43637
254.551	10.65341
254.77	5.30154
254.989	15.47787
255.208	13.42452
255.427	16.21229
255.646	14.57462
255.865	23.80586
256.084	9.31033
256.303	10.60162
256.522	15.21891
256.741	3.63295
256.96	3.81897
257.179	8.95271
257.397	11.85644
257.616	5.48232
257.835	6.71115
258.054	16.18476
258.273	10.28859
258.492	11.57007
258.711	7.03519
258.93	3.08556
259.148	4.31636
259.367	4.48068
259.586	5.61411
259.805	2.52861
260.023	5.17431
260.242	4.03432
260.461	2.85927
260.68	1.63142
260.898	4.89996
261.117	1.50806
261.336	1.25135
261.554	3.93224
261.773	4.00964
261.992	0.89577
262.21	3.76363
262.429	4.69491
262.648	7.59317
262.866	9.09643
263.085	6.16014
263.303	5.46722
263.522	9.37621
263.74	10.28627
263.959	16.17354
264.178	8.38279
264.396	7.61829
264.615	4.92364
264.833	12.21332
265.051	11.00911
265.27	11.22616
265.488	11.83273
265.707	8.08545
265.925	11.63229
266.144	5.37508
266.362	6.81541
266.58	6.30713
266.799	5.64867
267.017	6.7975
267.235	5.96913
267.454	3.75551
267.672	2.22894
267.89	4.4095
268.109	5.01703
268.327	4.58668
268.545	1.10614
268.763	4.4418
268.982	2.09648
269.2	5.68165
269.418	3.37194
269.636	2.32031
269.854	4.55653
270.073	3.7979
270.291	1.68529
270.509	1.81281
270.727	4.73865
270.945	8.06285
271.163	8.06447
271.381	2.08792
271.599	3.12135
271.817	5.53788
272.036	1.88855
272.254	3.47959
272.472	2.77579
272.69	2.75479
272.908	2.70334
273.126	4.40046
273.344	5.8432
273.562	2.17397
273.779	2.83874
273.997	4.20318
274.215	4.87092
274.433	3.24839
274.651	5.04851
274.869	4.99935
275.087	3.13461
275.305	4.82796
275.523	2.16741
275.74	3.53751
275.958	5.83311
276.176	8.57225
276.394	2.91393
276.612	3.36588
276.829	3.69983
277.047	3.03042
277.265	3.4173
277.483	4.50004
277.7	4.88776
277.918	3.83157
278.136	6.99243
278.353	3.60167
278.571	1.84013
278.789	5.55358
279.006	1.12369
279.224	3.05898
279.442	5.44802
279.659	4.07109
279.877	2.80166
280.094	6.11243
280.312	0.97203
280.529	3.90553
280.747	0.93876
280.964	2.87007
281.182	6.73732
281.399	2.91911
281.617	4.29216
281.834	2.88403
282.052	2.45265
282.269	3.31017
282.487	2.85586
282.704	2.28693
282.921	2.69643
283.139	3.68822
283.356	4.53365
283.574	3.83914
283.791	2.16273
284.008	5.88148
284.226	2.91154
284.443	3.58295
284.66	4.60565
284.877	3.67522
285.095	2.60229
285.312	1.85582
285.529	1.10929
285.746	0.92193
285.964	2.20776
286.181	1.53068
286.398	2.1755
286.615	2.88468
286.832	2.83803
287.05	0.8385
287.267	1.92212
287.484	2.19305
287.701	2.84566
287.918	2.91289
288.135	3.05767
288.352	1.6391
288.569	1.45814
288.786	2.55032
289.003	1.99029
289.22	3.1551
289.437	2.02327
289.654	3.19725
289.871	3.52797
290.088	3.32491
290.305	2.47314
290.522	1.93338
290.739	2.44678
290.956	3.42972
291.173	4.04991
291.39	3.6748
291.607	2.61206
291.824	1.94198
292.04	1.17303
292.257	3.15208
292.474	3.50806
292.691	2.06901
292.908	1.28206
293.125	2.15805
293.341	1.35695
293.558	5.6783
293.775	2.53835
293.992	2.21092
294.208	1.00045
294.425	1.0747
294.642	2.03556
294.858	2.52336
295.075	0.90571
295.292	2.06845
295.508	2.69489
295.725	4.14316
295.942	2.03992
296.158	1.59721
296.375	2.36807
296.591	1.74814
296.808	2.0369
297.024	2.33854
297.241	2.61585
297.458	2.74642
297.674	0.51443
297.891	2.41964
298.107	2.09899
298.323	1.45874
298.54	3.32938
298.756	1.87834
298.973	0.96053
299.189	3.56067
299.406	1.88583
299.622	3.57869
299.838	3.65982
300.055	3.42345
300.271	1.40725
300.487	1.68062
300.704	2.07967
300.92	1.54825
301.136	5.15656
301.353	3.54014
301.569	2.80211
301.785	3.12721
302.001	3.65149
302.218	3.30745
302.434	3.48194
302.65	1.79762
302.866	2.49614
303.083	5.45291
303.299	5.15697
303.515	3.08859
303.731	3.81341
303.947	2.31796
304.163	2.86732
304.379	3.56674
304.595	3.77773
304.812	2.66484
305.028	2.60226
305.244	2.90181
305.46	3.99535
305.676	4.20868
305.892	4.98358
306.108	4.08016
306.324	3.16941
306.54	5.53343
306.756	4.0186
306.972	3.74069
307.187	3.69467
307.403	4.92421
307.619	3.0464
307.835	4.52117
308.051	5.17216
308.267	2.54449
308.483	5.09655
308.699	4.28104
308.914	3.97504
309.13	3.89705
309.346	2.77404
309.562	3.08041
309.778	2.69795
309.993	4.49685
310.209	4.40676
310.425	2.93945
310.641	4.2428
310.856	3.5419
311.072	3.21869
311.288	4.00677
311.503	4.95537
311.719	2.67774
311.935	2.89918
312.15	5.03993
312.366	4.74741
312.581	4.9185
312.797	4.5374
313.013	5.0406
313.228	3.82405
313.444	4.08387
313.659	3.40297
313.875	4.66827
314.09	4.05991
314.306	5.4889
314.521	4.97527
314.737	4.88126
314.952	4.55885
315.168	4.566
315.383	4.92962
315.599	3.64148
315.814	3.97039
316.029	4.79881
316.245	3.28781
316.46	2.52798
316.675	5.32348
316.891	6.26066
317.106	7.02459
317.321	4.55441
317.537	4.85675
317.752	5.18536
317.967	5.35775
318.183	3.50995
318.398	3.82892
318.613	5.33674
318.828	5.89138
319.043	4.81746
319.259	3.98154
319.474	4.79506
319.689	5.28358
319.904	2.43636
320.119	5.52547
320.334	4.42339
320.549	4.2229
320.765	5.66712
320.98	4.68124
321.195	4.9352
321.41	4.36571
321.625	5.00882
321.84	5.96165
322.055	5.94697
322.27	3.36932
322.485	3.11949
322.7	4.75799
322.915	5.37823
323.13	4.05373
323.345	6.32423
323.56	5.69184
323.775	5.34923
323.989	5.10806
324.204	4.66946
324.419	5.62312
324.634	3.31933
324.849	4.73134
325.064	7.37555
325.279	5.83562
325.493	5.19907
325.708	5.53263
325.923	3.88317
326.138	4.40836
326.352	6.36072
326.567	5.37549
326.782	4.24717
326.997	4.27072
327.211	5.454
327.426	4.94273
327.641	4.71649
327.855	3.51907
328.07	5.87239
328.285	6.64559
328.499	4.40894
328.714	5.14701
328.928	5.07547
329.143	4.92514
329.358	5.92605
329.572	5.71462
329.787	6.44581
330.001	7.47319
330.216	3.15526
330.43	7.25006
330.645	6.1521
330.859	5.58629
331.074	3.73415
331.288	4.77888
331.503	6.88884
331.717	3.50855
331.931	4.98498
332.146	5.27967
332.36	6.84678
332.575	5.46432
332.789	4.99917
333.003	5.22994
333.218	5.80263
333.432	4.98889
333.646	6.25284
333.86	6.93848
334.075	6.92961
334.289	4.61366
334.503	3.65686
334.717	6.20669
334.932	5.25449
335.146	5.85803
335.36	4.0088
335.574	5.66127
335.788	5.05957
336.003	5.71279
336.217	5.98129
336.431	5.06267
336.645	4.42883
336.859	4.23649
337.073	5.22549
337.287	5.51181
337.501	4.02418
337.715	6.01195
337.929	5.67028
338.143	4.64799
338.357	5.2066
338.571	5.04605
338.785	6.34709
338.999	4.96301
339.213	5.24191
339.427	4.10226
339.641	6.23384
339.855	4.79452
340.069	4.31899
340.283	6.1138
340.497	6.68959
340.711	5.97137
340.924	5.3183
341.138	4.65574
341.352	3.83564
341.566	5.50087
341.78	4.05861
341.993	4.68747
342.207	4.70701
342.421	5.74042
342.635	5.44406
342.848	4.99964
343.062	2.96705
343.276	4.87924
343.49	6.99258
343.703	4.89785
343.917	6.18212
344.131	6.58485
344.344	4.67255
344.558	4.99832
344.771	4.26563
344.985	6.51323
345.199	7.38546
345.412	5.79053
345.626	6.10711
345.839	3.81436
346.053	4.47533
346.266	4.69478
346.48	5.99586
346.693	5.99346
346.907	5.66587
347.12	4.50459
347.334	5.44242
347.547	5.81121
347.76	5.48178
347.974	6.22597
348.187	5.63518
348.401	5.19812
348.614	4.51745
348.827	5.19379
349.041	5.86091
349.254	3.80988
349.467	4.986
349.681	4.47358
349.894	4.43592
350.107	6.58944
350.32	7.31929
350.534	4.07169
350.747	5.35588
350.96	4.658
351.173	4.64474
351.386	5.13055
351.6	4.84451
351.813	5.03126
352.026	5.23637
352.239	4.4357
352.452	4.88573
352.665	6.50308
352.878	4.87315
353.092	7.47233
353.305	6.14205
353.518	5.69395
353.731	4.54177
353.944	6.62555
354.157	5.17503
354.37	5.27143
354.583	4.31739
354.796	4.87603
355.009	6.40642
355.222	5.79002
355.435	5.69184
355.647	6.88983
355.86	5.01625
356.073	5.90541
356.286	5.35153
356.499	6.64174
356.712	6.61435
356.925	6.27219
357.138	6.86818
357.35	5.06216
357.563	5.53571
357.776	6.12256
357.989	6.24062
358.201	6.73725
358.414	6.29589
358.627	7.08279
358.84	5.85203
359.052	5.28013
359.265	5.23426
359.478	6.89916
359.69	3.86702
359.903	7.02453
360.116	7.11831
360.328	4.91593
360.541	6.8875
360.753	6.01755
360.966	6.16424
361.179	6.42425
361.391	6.15536
361.604	5.84024
361.816	6.20508
362.029	6.17912
362.241	5.79354
362.454	6.39182
362.666	5.8694
362.879	6.98626
363.091	6.10848
363.304	5.8732
363.516	6.02959
363.728	5.43113
363.941	6.52945
364.153	6.46865
364.366	4.80892
364.578	5.61945
364.79	6.60735
365.003	6.68889
365.215	5.83459
365.427	6.99237
365.639	7.09366
365.852	6.43732
366.064	7.4813
366.276	6.17252
366.488	6.58345
366.701	6.21963
366.913	6.04699
367.125	6.29114
367.337	5.79985
367.549	6.0058
367.762	6.07453
367.974	6.20959
368.186	6.19308
368.398	7.21875
368.61	6.66402
368.822	6.80471
369.034	6.07164
369.246	7.28957
369.458	8.51163
369.67	5.64115
369.882	7.62305
370.094	4.65812
370.306	7.30206
370.518	6.34365
370.73	6.04903
370.942	6.18745
371.154	6.42863
371.366	6.48269
371.578	7.18252
371.79	6.73911
372.002	7.60897
372.214	8.58256
372.425	6.52637
372.637	8.09363
372.849	6.97752
373.061	4.89887
373.273	7.11626
373.484	7.16717
373.696	7.42476
373.908	4.9344
374.12	7.38086
374.331	7.59461
374.543	5.98555
374.755	6.10246
374.967	6.65238
375.178	7.8179
375.39	6.65487
375.602	6.98533
375.813	5.7059
376.025	6.37212
376.236	7.06566
376.448	7.32213
376.66	7.13808
376.871	7.27177
377.083	7.71856
377.294	8.78532
377.506	6.94798
377.717	8.27866
377.929	7.48266
378.14	7.1254
378.352	7.59162
378.563	7.95694
378.775	8.41589
378.986	6.54071
379.197	7.45224
379.409	6.70752
379.62	7.80595
379.832	7.51551
380.043	7.0811
380.254	7.75575
380.466	6.37161
380.677	9.54839
380.888	8.91631
381.1	9.59806
381.311	9.18684
381.522	8.0359
381.733	9.51507
381.945	7.60614
382.156	7.17024
382.367	7.3354
382.578	10.09407
382.789	9.98868
383.001	7.08091
383.212	9.30746
383.423	9.16274
383.634	8.60709
383.845	8.48151
384.056	7.59571
384.267	7.98999
384.478	7.94075
384.69	7.0682
384.901	8.31792
385.112	8.19643
385.323	9.5007
385.534	8.54399
385.745	8.66543
385.956	8.07494
386.167	7.26657
386.378	8.48485
386.588	7.79952
386.799	7.49383
387.01	7.14537
387.221	8.76348
387.432	8.27704
387.643	9.45721
387.854	8.26692
388.065	8.0111
388.275	8.18255
388.486	7.6573
388.697	8.49539
388.908	7.73682
389.119	9.10522
389.329	9.53519
389.54	8.30684
389.751	8.73782
389.962	9.36732
390.172	8.4524
390.383	8.54566
390.594	8.14809
390.804	7.94297
391.015	8.2312
391.226	8.66357
391.436	9.07342
391.647	8.97296
391.858	9.04444
392.068	7.53406
392.279	7.99261
392.489	9.19012
392.7	9.13354
392.91	8.5202
393.121	8.2646
393.331	9.01145
393.542	9.69317
393.752	9.52634
393.963	9.28117
394.173	9.4085
394.384	9.49752
394.594	9.19264
394.804	8.17825
395.015	9.04299
395.225	9.38904
395.436	8.27931
395.646	9.20494
395.856	8.62123
396.067	7.91862
396.277	9.55033
396.487	9.13397
396.697	9.43369
396.908	9.61448
397.118	9.38229
397.328	9.07006
397.538	9.63729
397.749	8.79565
397.959	9.81795
398.169	9.22821
398.379	8.13738
398.589	9.29014
398.8	9.52712
399.01	9.41768
399.22	9.04302
399.43	10.66948
399.64	9.21549
399.85	9.63971
400.06	9.33802
400.27	8.77789
400.48	9.01732
400.69	9.8531
400.9	8.95443
401.11	8.22399
401.32	9.75662
401.53	8.80902
401.74	10.25476
401.95	9.42314
402.16	9.20071
402.37	9.50196
402.58	9.11404
402.79	9.83604
403	10.02976
403.209	8.92252
403.419	10.19063
403.629	8.93076
403.839	10.25875
404.049	10.20514
404.258	9.1284
404.468	9.12494
404.678	10.20079
404.888	10.54268
405.097	9.6252
405.307	9.45316
405.517	10.0951
405.727	10.1977
405.936	9.41961
406.146	9.89068
406.356	10.58002
406.565	9.4161
406.775	9.4064
406.984	9.27544
407.194	11.12951
407.404	9.70965
407.613	10.02678
407.823	10.19283
408.032	10.58863
408.242	10.32429
408.451	9.35448
408.661	9.5815
408.87	11.14147
409.08	9.27163
409.289	10.27851
409.499	10.16014
409.708	10.0248
409.918	8.54707
410.127	10.0845
410.336	10.99031
410.546	10.64768
410.755	9.74355
410.964	9.73429
411.174	9.23732
411.383	10.41854
411.592	10.07065
411.802	9.22549
412.011	10.46865
412.22	9.67907
412.429	10.7169
412.639	10.90275
412.848	10.7094
413.057	11.09764
413.266	10.58601
413.475	10.13615
413.685	10.43912
413.894	10.7436
414.103	10.72633
414.312	10.60636
414.521	9.93738
414.73	10.43394
414.939	11.50426
415.148	10.39285
415.357	10.5613
415.566	10.43946
415.776	10.25921
415.985	10.18669
416.194	11.00268
416.403	11.74173
416.611	9.76334
416.82	10.42124
417.029	10.88659
417.238	10.36186
417.447	10.26093
417.656	10.75888
417.865	10.55365
418.074	11.25161
418.283	12.08142
418.492	13.43714
418.7	13.07877
418.909	14.90317
419.118	13.39899
419.327	14.15713
419.536	14.10894
419.744	14.32315
419.953	16.11566
420.162	16.36395
420.371	15.68437
420.579	16.47191
420.788	17.3254
420.997	17.6628
421.205	17.79597
421.414	17.54434
421.623	17.81791
421.831	17.06747
422.04	17.75686
422.249	16.5005
422.457	16.7312
422.666	15.80088
422.874	16.7545
423.083	17.17293
423.291	17.1385
423.5	17.39177
423.708	17.64593
423.917	18.28491
424.125	17.6528
424.334	17.47865
424.542	19.46875
424.751	18.70834
424.959	18.0727
425.167	18.035
425.376	17.88504
425.584	16.12939
425.793	15.8169
426.001	14.86426
426.209	14.59947
426.418	13.1916
426.626	12.42614
426.834	11.99081
427.042	11.79894
427.251	11.32552
427.459	11.95682
427.667	11.50943
427.875	10.53166
428.084	10.96406
428.292	12.13005
428.5	11.86474
428.708	10.62958
428.916	10.91171
429.124	11.37231
429.333	11.17311
429.541	11.26286
429.749	11.56571
429.957	11.40005
430.165	12.98982
430.373	10.68803
430.581	11.54857
430.789	12.40633
430.997	11.1988
431.205	10.91939
431.413	11.62094
431.621	11.27547
431.829	11.91392
432.037	11.52946
432.245	12.05275
432.453	12.15859
432.661	11.76213
432.869	13.3137
433.076	12.07907
433.284	12.89266
433.492	13.67039
433.7	13.83949
433.908	12.83547
434.116	13.35916
434.323	12.92668
434.531	12.79763
434.739	12.61181
434.947	12.19715
435.154	12.42733
435.362	11.73677
435.57	11.57599
435.778	11.24014
435.985	11.87528
436.193	11.43105
436.401	12.72136
436.608	12.00148
436.816	11.6175
437.023	12.82494
437.231	13.00074
437.439	12.08253
437.646	12.43259
437.854	12.22704
438.061	12.56364
438.269	12.39483
438.476	12.81056
438.684	12.83064
438.891	13.27325
439.099	13.20689
439.306	13.11827
439.514	13.32049
439.721	15.26799
439.929	14.80377
440.136	16.05918
440.343	16.02931
440.551	15.83834
440.758	17.70596
440.965	16.13996
441.173	15.73546
441.38	15.46623
441.587	15.01245
441.795	14.66745
442.002	14.0644
442.209	13.80715
442.416	13.41582
442.624	13.15498
442.831	12.69287
443.038	12.00848
443.245	11.8603
443.452	12.06996
443.66	12.66101
443.867	12.2598
444.074	12.31766
444.281	12.92144
444.488	13.31609
444.695	14.10084
444.902	14.22744
445.109	16.18728
445.316	15.84372
445.523	16.71493
445.73	16.79565
445.937	17.72131
446.144	18.52219
446.351	19.23285
446.558	17.77998
446.765	19.92172
446.972	18.89033
447.179	18.41448
447.386	18.86066
447.593	16.61796
447.8	17.80035
448.007	15.94965
448.214	14.89169
448.42	14.27473
448.627	14.69485
448.834	13.66674
449.041	13.13496
449.248	12.64735
449.454	12.78522
449.661	13.19471
449.868	11.8419
450.075	11.92479
450.281	11.21743
450.488	11.6354
450.695	11.78958
450.901	11.83614
451.108	11.85092
451.315	12.9647
451.521	12.11073
451.728	12.91889
451.935	11.76787
452.141	12.25825
452.348	12.20829
452.554	12.40196
452.761	12.05252
452.967	13.34975
453.174	12.46655
453.38	12.3537
453.587	11.64156
453.793	12.25006
454	12.60699
454.206	13.62036
454.413	12.78183
454.619	12.80083
454.825	11.88212
455.032	12.59307
455.238	12.72534
455.445	11.66263
455.651	12.43509
455.857	11.21051
456.064	12.1746
456.27	12.20164
456.476	12.02054
456.682	11.5335
456.889	12.40251
457.095	12.59105
457.301	13.62546
457.507	12.42465
457.714	12.62611
457.92	12.48069
458.126	12.00453
458.332	12.63898
458.538	12.92734
458.744	14.07881
458.951	14.94945
459.157	17.39031
459.363	17.08359
459.569	17.54174
459.775	18.13106
459.981	18.17338
460.187	18.65161
460.393	18.40514
460.599	18.19626
460.805	16.74788
461.011	15.58735
461.217	15.01232
461.423	13.78599
461.629	12.88511
461.835	12.82801
462.041	12.41936
462.247	13.40338
462.453	12.29409
462.658	12.25983
462.864	13.05778
463.07	12.63861
463.276	12.53274
463.482	12.62412
463.688	13.49049
463.893	12.14394
464.099	12.32758
464.305	13.52521
464.511	12.41797
464.716	12.48834
464.922	13.21346
465.128	11.88206
465.333	13.36382
465.539	13.22573
465.745	12.87334
465.95	12.58392
466.156	14.50893
466.362	13.216
466.567	12.74588
466.773	12.51983
466.978	13.59648
467.184	12.10041
467.389	11.5468
467.595	12.70386
467.8	12.30909
468.006	13.55888
468.211	13.45575
468.417	12.09609
468.622	12.96692
468.828	12.87358
469.033	12.76708
469.239	14.24727
469.444	12.27121
469.649	13.02016
469.855	12.75441
470.06	12.75862
470.266	12.2745
470.471	13.21196
470.676	12.92725
470.881	11.75821
471.087	14.19865
471.292	13.79075
471.497	12.05919
471.703	12.71815
471.908	12.45479
472.113	12.92255
472.318	13.45913
472.523	12.36653
472.729	13.24027
472.934	13.10961
473.139	12.56777
473.344	13.09507
473.549	13.50481
473.754	12.48475
473.959	14.19892
474.164	12.34742
474.369	12.68869
474.575	13.37398
474.78	12.82513
474.985	12.61552
475.19	11.91025
475.395	12.50792
475.6	12.88152
475.804	13.93431
476.009	13.15307
476.214	12.9235
476.419	12.59766
476.624	12.13665
476.829	12.53797
477.034	13.41624
477.239	12.7458
477.444	13.1809
477.648	13.42588
477.853	13.34359
478.058	12.74482
478.263	12.6212
478.468	12.57273
478.672	12.694
478.877	14.09042
479.082	14.12293
479.287	13.35718
479.491	13.05352
479.696	12.46268
479.901	13.63212
480.105	13.60159
480.31	12.79554
480.515	13.2232
480.719	14.75067
480.924	13.68309
481.128	13.67939
481.333	15.1848
481.538	15.62622
481.742	16.21355
481.947	18.34811
482.151	19.937
482.356	21.53945
482.56	25.40163
482.765	28.85365
482.969	34.18775
483.174	38.47167
483.378	43.94054
483.582	45.69963
483.787	48.03817
483.991	48.65564
484.196	48.48545
484.4	47.27198
484.604	46.45529
484.809	42.09227
485.013	38.97941
485.217	34.45585
485.422	30.50854
485.626	27.92094
485.83	27.03023
486.034	26.27931
486.239	27.57692
486.443	28.54667
486.647	29.66687
486.851	31.73939
487.055	34.17893
487.26	34.33167
487.464	35.92323
487.668	35.19818
487.872	35.78181
488.076	35.55859
488.28	33.88544
488.484	31.3144
488.688	30.23986
488.892	28.31438
489.096	25.95633
489.3	23.97852
489.504	22.3786
489.708	21.38021
489.912	20.99611
490.116	20.75557
490.32	21.17782
490.524	23.04945
490.728	24.81335
490.932	26.51156
491.136	28.34277
491.34	29.91247
491.544	30.34482
491.748	30.27063
491.951	29.88541
492.155	29.00455
492.359	27.7997
492.563	24.78942
492.767	23.0221
492.97	20.31719
493.174	18.15378
493.378	16.46216
493.582	14.78293
493.785	14.26243
493.989	13.94612
494.193	13.12277
494.396	12.64387
494.6	12.93699
494.804	12.33645
495.007	12.13975
495.211	12.6394
495.414	12.70212
495.618	13.53497
495.822	14.38554
496.025	14.21464
496.229	14.95174
496.432	14.5379
496.636	15.122
496.839	15.25029
497.043	16.28397
497.246	15.60105
497.45	15.11777
497.653	15.37623
497.856	14.89608
498.06	14.41764
498.263	14.05235
498.467	13.83568
498.67	14.29201
498.873	13.83021
499.077	13.206
499.28	13.33423
499.483	13.59295
499.686	13.8709
499.89	13.39115
500.093	13.86756
500.296	12.99887
500.499	14.36713
500.703	13.18989
500.906	13.44024
501.109	14.40063
501.312	13.3806
501.515	13.19776
501.719	13.82179
501.922	13.87333
502.125	13.43879
502.328	13.33516
502.531	12.68747
502.734	13.37494
502.937	12.60873
503.14	13.74927
503.343	13.2457
503.546	13.35127
503.749	13.28841
503.952	13.75525
504.155	13.08483
504.358	13.96485
504.561	13.77904
504.764	12.59452
504.967	13.64557
505.17	13.45637
505.373	14.53827
505.576	13.20938
505.778	13.68822
505.981	12.94737
506.184	14.13617
506.387	12.4545
506.59	14.70109
506.793	14.06842
506.995	13.74758
507.198	12.50005
507.401	14.05261
507.604	13.81585
507.806	13.06126
508.009	13.29408
508.212	14.17712
508.414	13.27218
508.617	13.31119
508.82	13.57526
509.022	14.627
509.225	13.87424
509.427	12.87293
509.63	14.33928
509.833	13.60081
510.035	13.36637
510.238	12.70674
510.44	14.21134
510.643	12.68416
510.845	14.75399
511.048	13.9463
511.25	13.30785
511.453	13.6297
511.655	13.71916
511.858	13.57936
512.06	14.04937
512.262	13.82327
512.465	14.17901
512.667	13.68151
512.869	12.96384
513.072	13.7351
513.274	13.91418
513.476	13.90708
513.679	14.01399
513.881	13.20595
514.083	14.45127
514.286	13.29262
514.488	13.25341
514.69	13.01337
514.892	12.83554
515.094	14.26633
515.297	13.03813
515.499	13.71597
515.701	12.97624
515.903	14.75469
516.105	14.80486
516.307	14.17491
516.509	12.71569
516.711	13.23454
516.913	13.77994
517.116	13.83663
517.318	13.66726
517.52	14.9149
517.722	15.31326
517.924	14.94738
518.126	16.61545
518.328	16.25468
518.529	17.17673
518.731	17.76377
518.933	16.05282
519.135	16.28335
519.337	16.70685
519.539	15.65658
519.741	13.68128
519.943	13.74692
520.145	13.27678
520.346	14.171
520.548	13.41479
520.75	13.90667
520.952	13.40367
521.153	14.04464
521.355	14.00657
521.557	13.08999
521.759	13.69471
521.96	13.43747
522.162	13.1121
522.364	14.48838
522.565	13.34941
522.767	14.05877
522.969	14.33742
523.17	14.00618
523.372	13.71825
523.573	13.70645
523.775	13.72681
523.977	13.11081
524.178	14.77195
524.38	13.63149
524.581	14.68668
524.783	14.94333
524.984	16.34612
525.186	16.65932
525.387	17.64956
525.589	17.57987
525.79	17.89032
525.991	17.87621
526.193	18.65334
526.394	17.95106
526.596	19.00673
526.797	19.65001
526.998	19.58358
527.2	21.10873
527.401	24.22622
527.602	26.90692
527.803	31.30235
528.005	33.55984
528.206	35.58961
528.407	37.3992
528.608	37.42565
528.81	37.71084
529.011	36.32615
529.212	37.22385
529.413	34.35117
529.614	31.375
529.815	28.67854
530.017	26.2055
530.218	22.95642
530.419	20.71874
530.62	19.75291
530.821	18.95977
531.022	17.20439
531.223	18.299
531.424	17.99346
531.625	18.48728
531.826	18.50612
532.027	19.52221
532.228	21.88856
532.429	22.5579
532.63	23.37652
532.831	25.10575
533.032	25.02879
533.233	26.2723
533.433	25.62817
533.634	25.74394
533.835	24.19713
534.036	23.14056
534.237	21.56129
534.438	19.89782
534.638	17.43701
534.839	16.84228
535.04	16.56667
535.241	15.62702
535.441	17.14212
535.642	16.9525
535.843	16.72729
536.043	17.19692
536.244	17.54191
536.445	17.99021
536.645	18.9459
536.846	18.56146
537.047	18.79415
537.247	16.9415
537.448	16.4079
537.648	15.90543
537.849	14.62744
538.049	14.17724
538.25	14.19751
538.451	14.02362
538.651	13.43534
538.851	14.25806
539.052	14.87023
539.252	14.55995
539.453	13.91254
539.653	14.75977
539.854	15.67572
540.054	17.60185
540.254	20.34558
540.455	22.63335
540.655	23.28539
540.855	26.05376
541.056	27.6205
541.256	27.33395
541.456	28.70167
541.657	27.914
541.857	28.17384
542.057	26.32973
542.257	24.7852
542.458	24.52447
542.658	22.99152
542.858	20.29384
543.058	20.14208
543.258	18.98924
543.458	16.98581
543.659	16.35933
543.859	16.93704
544.059	16.46942
544.259	15.12999
544.459	15.22404
544.659	14.13552
544.859	14.4068
545.059	13.50561
545.259	14.49846
545.459	14.09976
545.659	14.89496
545.859	14.47647
546.059	14.85097
546.259	14.47876
546.459	14.26751
546.659	14.24073
546.859	15.11608
547.059	14.47554
547.258	14.38734
547.458	14.31628
547.658	13.41213
547.858	13.15753
548.058	13.91796
548.258	13.58546
548.457	13.19706
548.657	15.16422
548.857	13.30569
549.057	14.28569
549.256	14.3067
549.456	13.48111
549.656	12.3444
549.855	14.9129
550.055	13.4481
550.255	15.10943
550.454	13.88146
550.654	14.42461
550.853	14.75421
551.053	14.32719
551.253	13.97419
551.452	14.23859
551.652	13.11894
551.851	13.03003
552.051	13.81056
552.25	13.58357
552.45	13.37892
552.649	13.67393
552.849	13.4747
553.048	13.76887
553.248	14.21197
553.447	13.3448
553.646	14.40475
553.846	15.19768
554.045	14.2692
554.244	12.90091
554.444	14.97857
554.643	13.19644
554.842	14.64622
555.042	15.17456
555.241	13.1453
555.44	12.96881
555.64	14.40953
555.839	15.13321
556.038	14.06894
556.237	13.20995
556.436	13.90168
556.636	14.17075
556.835	13.24052
557.034	14.92178
557.233	13.59229
557.432	12.56317
557.631	14.35596
557.83	13.58934
558.029	13.35601
558.228	13.21527
558.427	13.02871
558.626	14.14314
558.825	12.99779
559.024	13.60232
559.223	15.16178
559.422	13.55045
559.621	14.0043
559.82	11.9139
560.019	13.76034
560.218	13.47155
560.417	11.64041
560.616	13.2154
560.815	16.41405
561.014	12.67615
561.212	15.23031
561.411	13.74919
561.61	12.44048
561.809	13.50504
562.008	14.71523
562.206	13.50806
562.405	13.86391
562.604	13.30459
562.803	13.88343
563.001	13.3787
563.2	12.55651
563.399	14.22776
563.597	12.69501
563.796	13.51655
563.995	12.88689
564.193	14.16738
564.392	13.50718
564.59	15.47896
564.789	12.27897
564.988	13.42904
565.186	14.03924
565.385	13.85726
565.583	13.6732
565.782	13.86844
565.98	13.78298
566.179	13.85092
566.377	13.10698
566.575	13.17536
566.774	14.64293
566.972	14.23858
567.171	15.17699
567.369	14.57928
567.567	13.58403
567.766	13.98692
567.964	12.17537
568.162	13.90874
568.361	14.28691
568.559	13.38695
568.757	14.06526
568.956	13.49427
569.154	13.67341
569.352	14.20817
569.55	13.50837
569.748	13.54726
569.947	13.29276
570.145	13.10056
570.343	13.06132
570.541	14.58914
570.739	12.83916
570.937	13.85638
571.135	14.27569
571.333	15.27986
571.532	15.40437
571.73	13.97663
571.928	14.76784
572.126	14.26789
572.324	13.45849
572.522	14.78598
572.72	16.0541
572.918	13.85718
573.116	14.01588
573.313	13.76004
573.511	13.89159
573.709	13.35739
573.907	14.65624
574.105	13.33318
574.303	12.49454
574.501	12.62484
574.699	14.15334
574.896	14.1614
575.094	14.19265
575.292	12.61958
575.49	14.62169
575.688	13.44128
575.885	14.50075
576.083	15.23651
576.281	14.17102
576.478	12.74132
576.676	14.02982
576.874	12.35781
577.071	13.45033
577.269	15.57802
577.467	13.54327
577.664	13.47997
577.862	14.63553
578.059	12.6057
578.257	14.04668
578.455	13.11797
578.652	13.62556
578.85	11.68626
579.047	13.51973
579.245	13.24314
579.442	13.31437
579.64	13.42698
579.837	11.79838
580.034	15.63099
580.232	13.37319
580.429	12.0882
580.627	13.94256
580.824	14.77795
581.021	13.90158
581.219	13.00692
581.416	12.5967
581.613	14.68861
581.811	14.94698
582.008	12.36586
582.205	14.44015
582.402	13.61398
582.6	15.02228
582.797	13.4871
582.994	13.40901
583.191	14.10185
583.388	13.0859
583.586	14.14512
583.783	14.30519
583.98	12.63367
584.177	13.59264
584.374	10.80708
584.571	13.1553
584.768	13.28556
584.965	12.71272
585.162	13.80984
585.359	15.09537
585.556	13.43751
585.753	13.89367
585.95	12.08969
586.147	12.72844
586.344	14.0465
586.541	12.89227
586.738	12.18589
586.935	13.34749
587.132	12.49672
587.329	14.36161
587.526	13.54402
587.722	18.38854
587.919	12.32567
588.116	14.11875
588.313	15.05911
588.51	15.62049
588.706	13.19827
588.903	13.92921
589.1	14.67331
589.297	16.08818
589.493	13.53719
589.69	13.9418
589.887	12.85954
590.083	12.60065
590.28	13.05993
590.477	14.57344
590.673	14.67366
590.87	14.61123
591.067	13.77632
591.263	13.7856
591.46	13.6499
591.656	13.20136
591.853	14.46288
592.049	12.48009
592.246	12.80817
592.442	14.8903
592.639	14.54524
592.835	12.5338
593.032	14.02638
593.228	12.18831
593.425	11.9326
593.621	11.8599
593.817	14.11206
594.014	12.80459
594.21	13.71064
594.406	14.76076
594.603	14.29381
594.799	12.99617
594.995	11.09185
595.192	14.80093
595.388	13.47683
595.584	13.44347
595.78	12.44487
595.977	16.22757
596.173	15.49891
596.369	13.55329
596.565	13.05402
596.761	12.76177
596.957	15.07421
597.154	13.05337
597.35	13.43983
597.546	13.17007
597.742	14.47973
597.938	13.45167
598.134	12.8813
598.33	13.60146
598.526	14.91126
598.722	13.76903
598.918	15.3272
599.114	13.72942
599.31	12.24323
599.506	13.25996
599.702	12.9781
599.898	13.09421
600.094	14.05297
600.29	13.97872
600.485	14.1531
600.681	12.56869
600.877	15.46878
601.073	13.74803
601.269	15.32508
601.465	14.89173
601.66	12.72181
601.856	11.73155
602.052	15.48999
602.248	13.38533
602.443	12.17017
602.639	12.77559
602.835	13.2723
603.03	12.97836
603.226	14.74755
603.422	12.87617
603.617	13.50679
603.813	13.67
604.009	13.20917
604.204	15.124
604.4	12.64011
604.595	14.67097
604.791	12.77233
604.986	13.92682
605.182	13.04348
605.377	13.3191
605.573	12.72856
605.768	13.31713
605.964	14.15856
606.159	14.1275
606.355	14.48884
606.55	12.82258
606.746	14.6494
606.941	12.96468
607.136	15.81374
607.332	16.71959
607.527	11.83352
607.722	14.14582
607.918	13.46226
608.113	13.38518
608.308	14.81045
608.503	14.24227
608.699	14.25245
608.894	14.23508
609.089	13.29052
609.284	13.9282
609.479	13.50474
609.675	14.64161
609.87	13.31623
610.065	14.47226
610.26	14.70069
610.455	14.21826
610.65	13.33034
610.845	13.20376
611.04	14.30312
611.235	13.37325
611.43	12.79214
611.625	12.00178
611.82	15.14618
612.015	12.93345
612.21	15.11948
612.405	11.5973
612.6	15.05622
612.795	14.67792
612.99	14.0731
613.185	12.15405
613.38	12.25572
613.575	12.97404
613.77	16.89516
613.965	11.33365
614.159	12.32157
614.354	15.05197
614.549	14.55932
614.744	14.28512
614.938	11.93832
615.133	11.26414
615.328	14.98718
615.523	14.34004
615.717	16.99341
615.912	11.90892
616.107	13.3271
616.301	12.86034
616.496	12.93493
616.691	14.92592
616.885	14.42375
617.08	17.62183
617.274	14.49971
617.469	15.82712
617.664	14.36932
617.858	12.52723
618.053	13.92524
618.247	13.05293
618.442	10.39457
618.636	15.0698
618.831	12.30601
619.025	12.78795
619.219	16.88119
619.414	9.18839
619.608	12.91813
619.803	12.933
619.997	16.3894
620.191	14.87769
620.386	13.59586
620.58	13.39342
620.774	11.20686
620.969	11.17474
621.163	13.25845
621.357	11.72422
621.551	13.1307
621.746	13.53487
621.94	12.93256
622.134	17.99256
622.328	16.30676
622.522	11.16956
622.716	14.4891
622.911	15.09253
623.105	14.73513
623.299	14.10343
623.493	17.85954
623.687	12.25919
623.881	12.96257
624.075	13.69214
624.269	15.11631
624.463	10.73075
624.657	11.28684
624.851	14.24731
625.045	14.85363
625.239	15.16029
625.433	13.54441
625.627	15.50657
625.821	13.16278
626.015	12.80485
626.209	14.04467
626.403	12.06978
626.596	14.5073
626.79	14.92037
626.984	12.34484
627.178	14.53537
627.372	14.55583
627.565	14.85324
627.759	11.9089
627.953	12.15399
628.147	14.15689
628.34	14.51901
628.534	16.42367
628.728	13.44423
628.921	14.42886
629.115	14.33813
629.309	14.92001
629.502	14.87929
629.696	13.60919
629.89	13.19152
630.083	13.95628
630.277	14.06904
630.47	16.16035
630.664	12.73514
630.857	11.31457
631.051	14.60888
631.244	15.66135
631.438	14.72234
631.631	12.04396
631.825	15.8878
632.018	14.62275
632.212	16.61857
632.405	15.76598
632.598	12.81316
632.792	13.57615
632.985	10.76481
633.178	13.68905
633.372	13.5463
633.565	13.48271
633.758	16.40521
633.952	12.41623
634.145	12.36661
634.338	13.19591
634.531	12.44081
634.724	12.98027
634.918	13.59949
635.111	13.10375
635.304	13.2013
635.497	17.68474
635.69	14.01147
635.883	15.40452
636.077	11.96262
636.27	14.56703
636.463	13.67557
636.656	13.91439
636.849	13.36304
637.042	14.45484
637.235	15.93018
637.428	15.2162
637.621	15.06068
637.814	15.6077
638.007	16.11574
638.2	15.77896
638.393	16.78981
638.586	10.97019
638.778	12.89258
638.971	13.19463
639.164	16.54569
639.357	13.52871
639.55	16.34274
639.743	15.03241
639.935	14.49591
640.128	17.22938
640.321	15.25458
640.514	13.98305
640.707	18.34095
640.899	14.8205
641.092	10.72395
641.285	27.46005
641.477	10.48855
641.67	18.55532
641.863	16.61423
642.055	14.4455
642.248	13.12222
642.441	12.80904
642.633	14.52525
642.826	15.85086
643.018	16.5075
643.211	17.485
643.403	17.05435
643.596	18.3456
643.788	17.48032
643.981	13.75923
644.173	15.7399
644.366	13.95456
644.558	10.69901
644.751	16.52602
644.943	11.56749
645.135	17.01398
645.328	17.45478
645.52	14.53086
645.712	16.55647
645.905	20.33319
646.097	12.16923
646.289	13.82994
646.482	18.35516
646.674	12.63124
646.866	17.1756
647.058	15.10986
647.251	12.05898
647.443	13.30736
647.635	14.02872
647.827	11.83339
648.019	13.346
648.211	14.37297
648.404	14.21853
648.596	17.89804
648.788	14.79945
648.98	15.09715
649.172	15.87322
649.364	15.33829
649.556	10.95558
649.748	19.9908
649.94	13.1246
650.132	15.84127
650.324	12.80918
650.516	13.6899
650.708	17.38516
650.9	11.99004
651.092	11.13747
651.284	12.21558
651.476	12.97091
651.667	15.90912
651.859	17.60908
652.051	14.17521
652.243	14.26685
652.435	13.3032
652.627	16.12327
652.818	15.15395
653.01	11.55262
653.202	12.38969
653.394	13.21569
653.585	15.44927
653.777	23.8884
653.969	17.41863
654.16	17.06639
654.352	12.19982
654.544	14.24151
654.735	16.7597
654.927	14.68125
655.118	17.99827
655.31	16.15859
655.502	17.50991
655.693	13.81405
655.885	16.07525
656.076	17.69649
656.268	15.03235
656.459	18.11747
656.651	17.71034
656.842	14.15483
657.034	13.02361
657.225	16.73145
657.416	18.03753
657.608	18.2104
657.799	15.39093
657.99	17.73488
658.182	14.59332
658.373	14.29877
658.564	16.88813
658.756	15.29215
658.947	15.02888
659.138	13.40674
659.33	14.29588
659.521	14.05112
659.712	14.87923
659.903	14.25728
660.094	14.23876
660.286	12.04803
660.477	18.50047
660.668	16.38845
660.859	14.89177
661.05	11.94561
661.241	16.57459
661.432	15.68143
661.623	14.17617
661.814	14.14851
662.006	11.3768
662.197	15.50247
662.388	18.35697
662.579	15.54292
662.77	20.86323
662.96	21.21474
663.151	16.64273
663.342	11.44832
663.533	16.57513
663.724	15.39776
663.915	19.60521
664.106	15.28996
664.297	18.98269
664.488	17.33085
664.678	13.8387
664.869	16.86464
665.06	17.82863
665.251	15.83499
665.442	16.0814
665.632	12.24433
665.823	18.99185
666.014	8.1561
666.204	17.61286
666.395	17.92752
666.586	21.86596
666.776	17.25929
666.967	19.95512
667.158	16.02794
667.348	18.81727
667.539	13.16833
667.729	17.84467
667.92	13.0823
668.111	18.26029
668.301	17.06267
668.492	15.64049
668.682	16.48195
668.873	15.95626
669.063	13.15789
669.253	16.21216
669.444	17.87924
669.634	15.35143
669.825	20.55584
670.015	18.43453
670.206	13.59036
670.396	20.76229
670.586	15.79051
670.777	16.81095
670.967	10.49427
671.157	14.50326
671.347	14.34496
671.538	19.35857
671.728	17.53087
671.918	21.28894
672.108	17.68566
672.299	15.33375
672.489	17.01533
672.679	14.57732
672.869	16.94569
673.059	21.20305
673.249	17.93519
673.44	12.96171
673.63	15.62711
673.82	18.08186
674.01	13.23442
674.2	17.38613
674.39	23.55486
674.58	18.11592
674.77	16.23881
674.96	15.43207
675.15	27.07892
675.34	20.16178
675.53	16.00761
675.72	15.8026
675.91	12.3866
676.099	21.70688
676.289	23.30895
676.479	19.17328
676.669	15.05389
676.859	17.7054
677.049	14.62984
677.238	16.83611
677.428	21.6659
677.618	18.16233
677.808	20.51436
677.997	19.42847
678.187	13.81189
678.377	16.60986
678.567	15.25958
678.756	14.89731
678.946	16.46651
679.136	13.6051
679.325	15.18514
679.515	14.32289
679.704	13.609
679.894	17.93903
680.084	17.98613
680.273	19.18355
680.463	14.98452
680.652	14.70763
680.842	16.77762
681.031	19.25243
681.221	14.7126
681.41	17.72442
681.6	16.06305
681.789	18.92312
681.978	19.74405
682.168	17.64807
682.357	17.38586
682.547	18.29094
682.736	16.67771
682.925	19.89895
683.115	19.4282
683.304	18.71894
683.493	17.84716
683.682	17.75036
683.872	18.93067
684.061	20.6582
684.25	18.41303
684.439	22.338
684.629	19.39837
684.818	27.87472
685.007	17.34746
685.196	16.13885
685.385	22.27132
685.574	17.8543
685.763	18.03826
685.952	18.94669
686.142	14.94615
686.331	21.99428
686.52	12.36443
686.709	22.45305
686.898	22.6405
687.087	19.10259
687.276	22.60543
687.465	21.08826
687.654	17.11838
687.842	22.5846
688.031	14.07407
688.22	22.0308
688.409	18.54237
688.598	18.66523
688.787	26.28412
688.976	19.16013
689.165	23.91672
689.353	16.65765
689.542	20.39011
689.731	20.35015
689.92	24.30233
690.108	20.95923
690.297	17.02111
690.486	18.54144
690.675	20.99218
690.863	24.04085
691.052	24.47362
691.241	19.02536
691.429	19.29373
691.618	24.33708
691.806	14.53912
691.995	17.72195
692.184	18.27516
692.372	17.05048
692.561	20.53502
692.749	19.64393
692.938	28.36154
693.126	20.95107
693.315	18.98593
693.503	21.90262
693.692	21.24171
693.88	23.21958
694.068	26.68496
694.257	19.32084
694.445	20.73919
694.634	11.86379
694.822	22.6792
695.01	23.66196
695.199	24.48484
695.387	25.07525
695.575	23.6532
695.763	19.5317
695.952	17.51321
696.14	14.41895
696.328	17.69533
696.516	19.7036
696.705	20.60157
696.893	19.9897
697.081	13.88779
697.269	23.02072
697.457	17.0359
697.645	16.3476
697.833	23.00274
698.021	17.52082
698.21	18.45694
698.398	19.11305
698.586	16.47777
698.774	15.51483
698.962	18.44192
699.15	16.83573
699.338	14.86482
699.526	20.78931
699.714	17.86002
699.901	17.1613
700.089	22.7908
700.277	16.67376
700.465	18.93977
700.653	21.38935
700.841	20.27557
701.029	16.64015
701.217	23.81503
701.404	19.98031
701.592	25.07072
701.78	27.25421
701.968	18.62961
702.155	19.1024
702.343	14.26395
702.531	25.05028
702.718	20.41414
702.906	18.85478
703.094	17.65635
703.281	25.09223
703.469	20.36449
703.657	24.71237
703.844	32.19016
704.032	27.23478
704.219	17.60409
704.407	22.22165
704.595	25.5701
704.782	21.10692
704.97	18.80321
705.157	17.97569
705.345	26.06361
705.532	32.37812
705.719	22.17588
705.907	26.13119
706.094	22.08395
706.282	29.03529
706.469	20.16239
706.656	21.59357
706.844	19.97906
707.031	25.03431
707.218	21.33105
707.406	27.76521
707.593	24.59618
707.78	24.64342
707.968	21.01337
708.155	19.00429
708.342	23.83426
708.529	22.83432
708.716	21.86462
708.904	29.11965
709.091	25.00839
709.278	16.47793
709.465	30.77972
709.652	29.05944
709.839	27.313
710.026	23.61732
710.213	15.04
710.4	22.80229
710.587	25.89966
710.774	25.96874
710.961	27.02206
711.148	21.74093
711.335	27.42257
711.522	21.04728
711.709	24.74017
711.896	31.5552
712.083	26.48631
712.27	19.17426
712.457	23.35866
712.644	16.53732
712.831	32.58183
713.017	23.34906
713.204	25.05772
713.391	20.50346
713.578	28.61094
713.765	29.03592
713.951	25.10931
714.138	37.71829
714.325	25.87978
714.512	24.02293
714.698	19.83577
714.885	31.13134
715.072	25.16003
715.258	25.10016
715.445	20.899
715.631	29.64801
715.818	13.15219
716.005	20.6268
716.191	26.29214
716.378	21.69116
716.564	27.99485
716.751	20.22329
716.937	22.33499
717.124	28.59142
717.31	20.91589
717.497	31.93106
717.683	20.81074
717.869	35.12786
718.056	21.65338
718.242	26.08793
718.429	23.12754
718.615	19.00634
718.801	24.96447
718.988	28.67135
719.174	27.12892
719.36	25.13912
719.547	29.40944
719.733	25.97563
719.919	26.78419
720.105	27.23506
720.291	23.88693
720.478	25.24832
720.664	25.33757
720.85	23.79339
721.036	38.65941
721.222	34.82304
721.408	24.85679
721.595	35.81638
721.781	33.2297
721.967	30.21091
722.153	33.42717
722.339	28.75525
722.525	27.62397
722.711	21.02158
722.897	19.38884
723.083	22.94594
723.269	30.54222
723.455	39.78782
723.641	43.5193
723.827	26.75516
724.012	29.15756
724.198	24.05596
724.384	33.96489
724.57	28.73632
724.756	17.7003
724.942	15.77031
725.127	31.07452
725.313	32.64929
725.499	34.82621
725.685	36.33975
725.87	27.229
726.056	23.01537
726.242	34.85552
726.428	17.86782
726.613	32.53887
726.799	24.58508
726.985	20.30546
727.17	17.79926
727.356	36.25513
727.541	20.94131
727.727	25.6494
727.913	31.34833
728.098	23.40217
728.284	31.07787
728.469	20.67408
728.655	22.45417
728.84	31.76975
729.026	30.42608
729.211	31.09636
729.397	29.41353
729.582	29.61557
729.767	27.77263
729.953	28.81534
730.138	31.7025
730.323	15.29652
730.509	20.65682
730.694	36.09249
730.879	29.89954
731.065	27.07007
731.25	40.38396
731.435	30.08453
731.621	18.31001
731.806	24.35902
731.991	27.8105
732.176	17.69547
732.361	35.17432
732.547	30.89387
732.732	18.31767
732.917	40.25431
733.102	20.54441
733.287	21.71501
733.472	26.76993
733.657	27.57153
733.842	18.38686
734.027	23.7805
734.212	25.72935
734.397	22.45478
734.582	28.17097
734.767	31.51768
734.952	35.2317
735.137	12.70748
735.322	35.57625
735.507	29.07989
735.692	28.28601
735.877	40.90067
736.062	38.37209
736.247	30.12699
736.431	24.84342
736.616	35.46369
736.801	28.43776
736.986	27.00222
737.171	22.00547
737.355	16.57947
737.54	35.61315
737.725	27.63844
737.909	46.31338
738.094	22.97441
738.279	33.3753
738.463	27.08125
738.648	31.93024
738.833	30.09414
739.017	40.89321
739.202	25.50763
739.386	27.53056
739.571	22.0121
739.756	32.99381
739.94	27.66604
740.125	33.89015
740.309	22.9976
740.494	32.8101
740.678	27.77984
740.863	31.46704
741.047	29.57145
741.231	37.42966
741.416	22.63328
741.6	40.25401
741.785	23.27957
741.969	34.54768
742.153	35.97372
742.338	14.52346
742.522	28.26096
742.706	33.11682
742.89	20.36529
743.075	27.96405
743.259	39.04743
743.443	34.2253
743.627	36.14872
743.812	44.87712
743.996	10.61162
744.18	25.82422
744.364	25.38432
744.548	47.97188
744.732	26.47642
744.916	34.89807
745.1	33.22266
745.285	26.4757
745.469	33.41422
745.653	42.83254
745.837	19.80094
746.021	44.95802
746.205	40.21059
746.389	31.59285
746.573	27.5513
746.757	42.85105
746.94	27.912
747.124	38.7293
747.308	20.36176
747.492	38.3339
747.676	25.5615
747.86	49.10596
748.044	25.04556
748.227	17.18455
748.411	57.36386
748.595	30.95311
748.779	23.0567
748.963	32.15351
749.146	31.22732
749.33	24.50317
749.514	20.92825
749.697	38.25823
749.881	25.11077
750.065	20.68772
750.248	31.07507
750.432	47.73565
750.616	30.45863
750.799	19.22086
750.983	47.96917
751.166	52.25404
751.35	16.66338
751.533	34.1991
751.717	38.91907
751.9	40.01305
752.084	25.16664
752.267	20.89639
752.451	25.35574
752.634	32.5793
752.818	32.60579
753.001	36.77126
753.184	38.53929
753.368	34.02087
753.551	5.96667
753.734	24.41352
753.918	46.64474
754.101	23.91188
754.284	35.83671
754.467	26.78928
754.651	26.30694
754.834	22.592
755.017	39.55237
755.2	39.60452
755.384	21.70718
755.567	36.42361
755.75	39.25239
755.933	28.22518
756.116	32.51782
756.299	25.27755
756.482	24.93705
756.665	34.60074
756.848	30.94452
757.032	33.8289
757.215	18.68447
757.398	22.91998
757.581	23.0654
757.764	53.86297
757.947	28.13873
758.129	41.29163
758.312	7.53585
758.495	28.54376
758.678	30.29533
758.861	27.69827
759.044	47.83139
759.227	25.10954
759.41	26.04727
759.592	35.5379
759.775	29.73565
759.958	40.15009
760.141	19.54372
760.324	48.0321
760.506	41.40608
760.689	38.07626
760.872	52.42083
761.054	35.07827
761.237	28.02976
761.42	35.49809
761.602	38.44864
761.785	33.7837
761.968	41.66472
762.15	46.8222
762.333	28.50697
762.515	36.19207
762.698	27.19665
762.88	36.96455
763.063	33.4015
763.245	36.61112
763.428	23.62445
763.61	23.48065
763.793	21.02086
763.975	32.29765
764.158	27.55396
764.34	27.07075
764.522	23.09441
764.705	29.90063
764.887	41.41153
765.069	19.92499
765.252	36.04791
765.434	36.7476
765.616	30.85745
765.799	25.82209
765.981	36.47666
766.163	23.78833
766.345	38.12082
766.528	25.96266
766.71	13.56329
766.892	32.39133
767.074	40.79333
767.256	31.5409
767.438	43.89589
767.62	32.54217
767.802	50.8755
767.985	37.75516
768.167	47.16155
768.349	26.80523
768.531	38.56161
768.713	31.78015
768.895	38.11043
769.077	36.38006
769.259	58.62799
769.441	80.88815
769.623	42.02677
769.804	48.50114
769.986	47.05314
770.168	59.03416
770.35	67.50873
770.532	51.74948
770.714	55.93082
770.896	57.24655
771.077	22.49811
771.259	57.89951
771.441	49.10009
771.623	64.55758
771.804	78.53401
771.986	21.08908
772.168	39.2813
772.35	60.7075
772.531	77.06732
772.713	53.15349
772.894	65.1001
773.076	50.18257
773.258	34.98993
773.439	66.57558
773.621	71.43593
773.802	30.88274
773.984	43.52781
774.166	51.37684
774.347	68.05212
774.529	61.49032
774.71	18.02567
774.891	44.30181
775.073	40.28702
775.254	67.06465
775.436	40.20919
775.617	77.40064
775.799	38.50295
775.98	69.70893
776.161	74.83312
776.343	74.76479
776.524	45.71225
776.705	39.71441
776.886	23.60503
777.068	53.03377
777.249	91.96337
777.43	78.65415
777.611	29.98285
777.793	46.21618
777.974	78.14339
778.155	42.38198
778.336	33.95845
778.517	83.47733
778.698	36.3731
778.879	21.91641
779.061	6.75081
779.242	56.10238
779.423	56.05802
779.604	38.61558
779.785	42.11978
779.966	51.94533
780.147	62.95814
780.328	64.83634
780.509	92.46364
780.69	60.44343
780.871	39.97073
781.051	27.44036
781.232	52.08764
781.413	49.22404
781.594	44.66113
781.775	40.15056
781.956	36.55064
782.137	18.46341
782.317	37.35249
782.498	52.37622
782.679	49.27921
782.86	49.71413
783.04	38.10117
783.221	52.47265
783.402	84.42121
783.583	48.00653
783.763	60.49605
783.944	40.90585
784.124	29.00719
784.305	73.76465
784.486	56.42794
784.666	49.25301
784.847	23.02889
785.027	96.82105
785.208	36.41369
785.388	39.15841
785.569	38.36002
785.749	43.84368
785.93	37.42918
786.11	23.11489
786.291	52.95678
786.471	48.59593
786.652	57.02902
786.832	44.35387
787.012	52.22318
787.193	26.80312
787.373	51.11027
787.553	43.51315
787.734	51.74442
787.914	43.12146
788.094	58.46836
788.275	54.31541
788.455	42.6081
788.635	30.93871
788.815	50.07257
788.995	29.49649
789.176	27.33926
789.356	35.19021
789.536	42.99222
789.716	55.32533
789.896	35.6654
790.076	38.08777
790.256	47.27518
790.436	14.20232
790.616	28.54167
790.796	53.71733
790.976	41.58914
791.156	35.81785
791.336	56.79172
791.516	48.72833
791.696	43.15217
791.876	25.63462
792.056	49.64803
792.236	59.2105
792.416	56.62882
792.596	55.96779
792.776	52.20081
792.956	59.34092
793.135	73.55789
793.315	27.47421
793.495	69.15462
793.675	57.01495
793.854	59.3494
794.034	60.89597
794.214	32.66963
794.394	60.09383
794.573	66.32738
794.753	45.83233
794.933	33.51281
795.112	50.64974
795.292	61.36879
795.472	80.37896
795.651	27.45367
795.831	47.49332
796.01	42.80525
796.19	44.19946
796.369	47.40242
796.549	54.61198
796.728	46.63402
796.908	29.07534
797.087	33.29643
797.267	45.66789
797.446	28.94563
797.626	52.64492
797.805	54.19326
797.984	34.80631
798.164	55.30968
798.343	34.77736
798.522	51.66545
798.702	48.91154
798.881	27.47441
799.06	42.3557
799.239	20.29777
799.419	33.56587
799.598	73.93464
799.777	54.36752
799.956	63.00486
800.136	43.06618
800.315	36.57649
800.494	52.55131
800.673	59.4081
800.852	52.53251
801.031	67.39391
801.21	55.79571
801.389	39.97876
801.568	48.95538
801.747	79.84922
801.926	47.22214
802.105	71.62863
802.284	41.13076
802.463	71.99268
802.642	51.40139
802.821	51.74439
803	66.80171
803.179	62.13051
803.358	70.12224
803.537	36.85316
803.716	55.65835
803.895	37.02297
804.073	45.11155
804.252	38.85876
804.431	55.49093
804.61	47.82912
804.789	62.79289
804.967	40.96357
805.146	41.18574
805.325	87.06012
805.503	57.45559
805.682	26.28348
805.861	92.51382
806.039	69.63699
806.218	40.69877
806.397	50.62799
806.575	50.28266
806.754	54.6954
806.932	35.24665
807.111	75.51682
807.289	63.31852
807.468	48.93134
807.646	64.22358
807.825	58.638
808.003	53.63207
808.182	64.08493
808.36	50.76554
808.539	36.77088
808.717	74.38862
808.895	35.75202
809.074	53.69078
809.252	48.04302
809.43	66.28058
809.609	70.06277
809.787	79.1627
809.965	47.36714
810.144	51.20813
810.322	48.31896
810.5	59.94015
810.678	45.55322
810.856	92.29914
811.035	70.65472
811.213	67.71041
811.391	72.08515
811.569	55.7525
811.747	115.38803
811.925	70.23864
812.103	38.7937
812.281	45.47629
812.459	89.86349
812.637	89.80984
812.816	74.19414
812.994	91.3459
813.171	70.36945
813.349	64.36627
813.527	77.65308
813.705	73.36877
813.883	104.99727
814.061	70.30106
814.239	94.05544
814.417	100.37852
814.595	63.49194
814.773	59.24906
814.95	59.05278
815.128	63.77264
815.306	55.91169
815.484	52.51158
815.662	42.43124
815.839	33.17537
816.017	44.22777
816.195	71.48954
816.372	52.04794
816.55	71.23448
816.728	81.81549
816.905	58.89643
817.083	84.61297
817.261	63.01597
817.438	101.95362
817.616	97.48301
817.793	44.31519
817.971	73.37977
818.148	67.02597
818.326	81.02586
818.503	63.74995
818.681	84.58987
818.858	46.01791
819.036	58.04189
819.213	58.41892
819.391	42.1337
819.568	41.95522
819.745	37.31512
819.923	66.66772
820.1	43.30891
820.277	41.08071
820.455	45.57952
820.632	49.49725
820.809	49.44772
820.986	34.29657
821.164	26.48891
821.341	25.83884
821.518	34.258
821.695	27.50623
821.872	28.02626
822.05	23.71809
822.227	21.3512
822.404	22.47497
822.581	23.57328
822.758	21.56284
822.935	21.9158
823.112	24.31742
823.289	21.53748
823.466	24.19795
823.643	23.02585
823.82	26.23519
823.997	23.84365
824.174	27.3845
824.351	33.29937
824.528	32.75396
824.705	30.02058
824.882	32.5396
825.059	41.9042
825.236	30.01743
825.412	29.97096
825.589	36.83736
825.766	50.19764
825.943	32.65972
826.12	37.10539
826.296	28.6931
826.473	34.36503
826.65	35.19213
826.827	42.16963
827.003	28.72969
827.18	32.00083
827.357	35.61515
827.533	31.31475
827.71	19.5749
827.887	27.73304
828.063	31.64838
828.24	29.08694
828.416	35.96748
828.593	29.23116
828.769	41.27379
828.946	43.13964
829.122	46.34382
829.299	46.02061
829.475	23.41621
829.652	42.74397
829.828	71.51199
830.005	43.40456
830.181	57.04542
830.357	38.80976
830.534	65.63381
830.71	48.26751
830.886	61.95898
831.063	60.81955
831.239	72.64035
831.415	35.46922
831.592	81.83127
831.768	49.25244
831.944	40.39189
832.12	81.27403
832.296	71.70371
832.473	61.37569
832.649	43.66969
832.825	60.79934
833.001	35.17593
833.177	55.1636
833.353	48.6461
833.529	28.34171
833.705	41.3526
833.881	30.95926
834.058	31.33908
834.234	31.53127
834.41	33.42396
834.586	26.23556
834.761	30.0779
834.937	34.74862
835.113	34.41717
835.289	31.128
835.465	39.42337
835.641	33.92356
835.817	36.32378
835.993	66.88074
836.169	30.46118
836.344	47.79904
836.52	54.50196
836.696	52.67594
836.872	38.82287
837.048	116.99851
837.223	44.20369
837.399	96.76214
837.575	74.14817
837.75	66.88875
837.926	101.8302
838.102	153.10328
838.277	107.92602
838.453	163.0555
838.628	155.49302
838.804	56.89255
838.98	152.21351
839.155	72.04274
839.331	93.76785
839.506	71.20552
839.682	62.68934
839.857	84.96246
840.033	98.90445
840.208	51.37975
840.384	24.09692
840.559	50.92275
840.734	73.03675
840.91	106.93054
841.085	67.49084
841.26	65.29186
841.436	57.42004
841.611	51.28922
841.786	88.22518
841.962	128.60348
842.137	81.11079
842.312	39.32694
842.487	70.88422
842.663	60.38204
842.838	82.80307
843.013	254.05425
843.188	120.82375
843.363	107.00697
843.538	221.74083
843.714	216.71345
843.889	226.89948
844.064	187.32426
844.239	156.02529
844.414	242.14056
844.589	151.13574
844.764	261.24603
844.939	284.27668
845.114	274.25169
845.289	306.44636
845.464	358.37975
845.639	255.8604
845.814	147.36741
845.989	187.51912
846.163	183.38148
846.338	255.42937
846.513	314.84767
846.688	217.97299
846.863	234.73341
847.038	151.2757
847.212	198.94343
847.387	223.22489
847.562	222.61526
847.737	297.26336
847.911	109.89668
848.086	148.385
848.261	356.17603
848.435	180.35814
848.61	271.38182
848.785	159.08567
848.959	306.93337
849.134	300.24926
849.308	611.27318
849.483	242.47798
849.658	352.87392
849.832	186.69152
850.007	121.01678
850.181	491.07871
850.356	246.94749
850.53	414.26823
850.705	140.33423
850.879	94.5306
851.053	183.45069
851.228	200.8644
851.402	293.12916
851.577	272.39234
851.751	403.72657
851.925	188.86754
852.099	69.23355
852.274	157.54613
852.448	210.05632
852.622	306.21749
852.797	217.86034
852.971	242.31316
853.145	244.29993
853.319	463.39485
853.493	426.87632
853.668	244.81392
853.842	507.9395
854.016	358.45492
854.19	443.57087
854.364	232.82437
854.538	313.97829
854.712	334.23964
854.886	213.29008
855.06	208.38819
855.234	81.39402
855.408	372.52826
855.582	343.26439
855.756	491.04343
855.93	369.54423
856.104	310.52001
856.278	331.75967
856.452	210.39726
856.626	264.75722
856.8	481.53723
856.973	338.26199
857.147	320.31548
857.321	305.33706
857.495	354.4869
857.669	259.69615
857.842	259.64569
858.016	405.43515
858.19	146.31677
858.364	501.25638
858.537	224.64107
858.711	325.42237
858.885	231.98297
859.058	173.83927
859.232	123.87389
859.405	103.80132
859.579	310.61553
859.753	406.07743
859.926	178.75187
860.1	152.48848
860.273	266.29938
860.447	416.17803
860.62	219.61919
860.794	495.15405
860.967	234.16614
861.141	316.32881
861.314	467.41473
861.487	290.29411
861.661	349.90005
861.834	520.68778
862.008	331.49596
862.181	345.75949
862.354	251.22168
862.528	405.23053
862.701	220.09755
862.874	131.36993
863.047	197.24312
863.221	180.79394
863.394	116.12711
863.567	302.81514
863.74	93.61771
863.913	309.31874
864.087	303.86625
864.26	367.41895
864.433	228.47338
864.606	490.58609
864.779	301.11083
864.952	100.57115
865.125	268.04146
865.298	273.35951
865.471	286.81973
865.644	460.17864
865.817	344.64546
865.99	371.96026
866.163	395.5842
866.336	181.51655
866.509	281.86023
866.682	263.88996
866.855	436.75472
867.028	125.87751
867.2	246.6796
867.373	80.58364
867.546	244.87855
867.719	498.03446
867.892	338.50856
868.064	146.11522
868.237	248.16109
868.41	265.12718
868.583	154.4225
868.755	171.19345
868.928	210.43607
869.101	523.22793
869.273	399.68094
869.446	285.2513
869.619	412.47562
869.791	350.25315
869.964	408.1552
870.136	426.21988
870.309	216.48943
870.481	284.41579
870.654	126.72706
870.826	222.74358
870.999	196.90707
871.171	363.54231
871.344	171.10098
871.516	187.11371
871.689	161.99353
871.861	258.13009
872.033	169.14101
872.206	214.21056
872.378	276.05383
872.55	240.14735
872.723	137.17337
872.895	210.87631
873.067	339.96604
873.24	291.94308
873.412	177.41509
873.584	218.71175
873.756	230.82232
873.928	239.95333
874.101	236.02301
874.273	276.80052
874.445	91.04559
874.617	138.14644
874.789	202.19807
874.961	204.37001
875.133	269.95625
875.305	238.65402
875.477	143.97424
875.649	118.08786
875.821	129.07153
875.993	348.31197
876.165	204.79996
876.337	245.43968
876.509	222.18469
876.681	232.03045
876.853	224.71358
877.025	261.68522
877.197	166.53397
877.369	155.48336
877.541	270.40174
877.712	66.28044
877.884	138.8288
878.056	237.20297
878.228	125.7245
878.4	270.4742
878.571	127.06155
878.743	79.72459
878.915	188.43785
879.086	105.32268
879.258	129.84916
879.43	117.15458
879.601	107.82859
879.773	100.7508
879.945	24.19024
880.116	41.92854
880.288	29.17935
880.459	30.51906
880.631	27.54454
880.802	32.39445
880.974	29.95094
881.145	22.13087
881.317	29.22375
881.488	22.81898
881.66	25.7296
881.831	25.30739
882.002	30.10667
882.174	23.59382
882.345	28.78862
882.517	17.7723
882.688	33.07396
882.859	27.46357
883.03	41.88786
883.202	39.08276
883.373	34.96967
883.544	32.73023
883.715	55.50079
883.887	48.17769
884.058	40.2976
884.229	55.0744
884.4	60.04002
884.571	66.53832
884.742	55.1283
884.914	59.96604
885.085	90.40924
885.256	124.13677
885.427	101.70174
885.598	123.82213
885.769	120.2783
885.94	112.92603
886.111	72.69004
886.282	133.36495
886.453	112.60469
886.624	85.8381
886.795	158.09804
886.966	127.76856
887.136	156.02194
887.307	107.27363
887.478	206.81364
887.649	192.21392
887.82	202.42344
887.991	152.66686
888.161	226.03012
888.332	210.92321
888.503	112.15574
888.674	302.9592
888.844	341.0897
889.015	343.10025
889.186	162.83943
889.356	315.93901
889.527	123.56055
889.698	529.36221
889.868	190.47945
890.039	318.90946
890.209	195.47709
890.38	271.06288
890.551	269.72929
890.721	347.85058
890.892	329.88638
891.062	295.06556
891.233	361.18877
891.403	275.65288
891.574	185.68719
891.744	189.77134
891.914	242.58872
892.085	348.75295
892.255	68.18653
892.425	317.14187
892.596	211.30844
892.766	288.74672
892.936	381.16709
893.107	245.85116
893.277	119.33981
893.447	105.35854
893.618	71.10305
893.788	147.91358
893.958	86.47001
894.128	71.97074
894.298	88.63768
894.468	105.94099
894.639	51.51416
894.809	35.25417
894.979	57.03942
895.149	67.00984
895.319	48.92898
895.489	78.57801
895.659	102.47088
895.829	62.79051
895.999	69.89753
896.169	59.90343
896.339	64.47943
896.509	135.30815
896.679	157.94492
896.849	175.05376
897.019	248.36364
897.189	237.94605
897.358	171.72788
897.528	269.89973
897.698	129.86843
897.868	238.29611
898.038	553.51523
898.208	478.87825
898.377	126.27871
898.547	768.73794
898.717	838.66494
898.886	316.3463
899.056	550.89353
899.226	883.72882
899.395	668.5562
899.565	712.18671
899.735	438.27457
899.904	628.21047
900.074	869.607
900.244	279.47379
900.413	1658.50827
900.583	249.50704
900.752	3415.35753
900.922	613.2001
901.091	19.47396
901.261	650.41462
901.43	525.51325
901.599	655.96896
901.769	1418.33216
901.938	680.82722
902.108	662.24705
902.277	736.35879
902.446	240.57334
902.616	267.53914
902.785	399.51585
902.954	525.90073
903.124	292.72157
903.293	216.11787
903.462	93.00215
903.631	143.0163
903.801	100.94709
903.97	53.17296
904.139	81.00868
904.308	66.58751
904.477	53.81376
904.646	29.70735
904.816	49.33922
904.985	77.39836
905.154	108.12775
