Data from WindowProjectSample_Transmission__41__00041.txt Node

Date: Sat May 03 16:29:10 EDT 2025
User: jessi
Spectrometer: SR400872
Trigger mode: 0
Integration Time (sec): 5.000010E-1
Scans to average: 6
Electric dark correction enabled: true
Nonlinearity correction enabled: true
Boxcar width: 0
XAxis mode: Wavelengths
Number of Pixels in Spectrum: 3648
>>>>>Begin Spectral Data<<<<<
184.909	178622.72185
185.132	1703.44874
185.355	-2041.53742
185.578	3204.48915
185.801	-505.80249
186.024	6031.02017
186.247	1224.6069
186.47	1020.90531
186.693	-464.16113
186.916	231.00504
187.139	10413.62924
187.362	2941.00267
187.585	2719.31593
187.808	-1533.57384
188.031	124.69881
188.254	7244.70981
188.476	564.19136
188.699	-4400.46854
188.922	-355.53979
189.145	-4324.66673
189.368	-523.04475
189.591	-921.56593
189.813	-2386.72024
190.036	4570.09077
190.259	3361.38458
190.482	2365.28891
190.705	8774.54457
190.927	-1682.3722
191.15	-1669.83673
191.373	4851.38607
191.595	-1901.97323
191.818	8942.36151
192.041	-197.66723
192.263	-2328.80738
192.486	-1147.94782
192.709	9208.95169
192.931	-2811.10376
193.154	-2006.28249
193.377	4805.95426
193.599	5865.84943
193.822	-1837.52837
194.044	-1894.48083
194.267	632.17175
194.489	51.50754
194.712	2220.66837
194.934	3399.7341
195.157	-8306.73598
195.379	2112.72194
195.602	5248.57576
195.824	5548.30327
196.047	-9145.71695
196.269	-10285.45686
196.492	-1130.85477
196.714	-5530.81864
196.936	4573.74115
197.159	-2553.92701
197.381	-532.1694
197.604	571.04454
197.826	-3509.7704
198.048	-1378.77596
198.271	-12342.03817
198.493	9802.29084
198.715	-2498.92544
198.938	-824.68641
199.16	-3634.20351
199.382	1874.1377
199.604	-1648.93802
199.827	-1293.80368
200.049	-4346.46961
200.271	2577.73398
200.493	-26102.65654
200.715	4990.07346
200.938	12696.93066
201.16	-226307.893
201.382	-5712.83271
201.604	-1066.98071
201.826	-6962.8354
202.048	-7330.57415
202.27	-4587.6431
202.492	-3784.55548
202.715	-1420.96859
202.937	-3528.5962
203.159	1101.61992
203.381	-92022.70154
203.603	-1015.9013
203.825	-1317.77013
204.047	2181.67136
204.269	-913.30272
204.491	7024.35242
204.713	-9525.00682
204.935	37025.10774
205.156	2008.31851
205.378	-8062.12128
205.6	-1623.93569
205.822	6360.1372
206.044	-246.29395
206.266	-2006.80119
206.488	804.14843
206.71	-509522.77889
206.932	-15836.38638
207.153	11048.65543
207.375	-2197.19399
207.597	15502.67667
207.819	1773.85148
208.041	6251.096
208.262	634.76729
208.484	-869.18241
208.706	-948.99435
208.927	11023.02269
209.149	-8055.10951
209.371	-2694.84822
209.593	-2260.00538
209.814	-4283.20044
210.036	2717.94152
210.258	-667.74797
210.479	2217.18911
210.701	790.55808
210.922	4031.22907
211.144	-1503.64265
211.366	5554.54543
211.587	-663.60086
211.809	-3746.80366
212.03	-2524.37042
212.252	-340.00409
212.473	3162.41699
212.695	-888.22167
212.916	-915.97468
213.138	717.89153
213.359	-1227.94201
213.581	-3179.00124
213.802	-1267.83125
214.024	10403.86085
214.245	-1054.22279
214.466	-239.13989
214.688	-3658.41377
214.909	-780.24176
215.131	9561.07099
215.352	-1109.27625
215.573	-250652.05467
215.795	4509.20298
216.016	-3922.20258
216.237	-525.72804
216.459	-11963.80802
216.68	-1613.02117
216.901	-1742.01421
217.122	1848.08782
217.344	-8912.61765
217.565	-1621.77443
217.786	23033.50444
218.007	1060.17176
218.228	-4030.23588
218.45	-5858.29521
218.671	-1466.04016
218.892	788.4037
219.113	1832.95412
219.334	330.50903
219.555	-6251.31991
219.776	33814.38114
219.997	-6772.9802
220.219	-8840.71409
220.44	-5059.46722
220.661	-1364.99809
220.882	13477.83321
221.103	-892.58558
221.324	2466.20474
221.545	-6544.79155
221.766	-1501.77671
221.987	-458.48527
222.208	1883.09904
222.429	6796.56513
222.65	-75.54928
222.87	-670.911
223.091	37861.69292
223.312	817.36505
223.533	-2121.69049
223.754	3600.26766
223.975	1811.56412
224.196	-814.15585
224.417	-29805.45101
224.637	-2009.59761
224.858	465.40504
225.079	3601.85026
225.3	1770.91017
225.521	3560.99723
225.741	-2794.83623
225.962	1601.62712
226.183	1008.21509
226.404	1887.46598
226.624	1911.03582
226.845	1390.72227
227.066	2486.09796
227.286	687.32963
227.507	379.09092
227.728	410.72648
227.948	536.55385
228.169	123.17972
228.389	124.37476
228.61	56.34791
228.831	91.11155
229.051	9.71161
229.272	46.36672
229.492	62.37982
229.713	22.04216
229.933	51.02968
230.154	42.30189
230.374	68.42453
230.595	54.46322
230.815	39.4555
231.036	53.73456
231.256	-10.59913
231.477	111.33671
231.697	67.62757
231.917	57.78129
232.138	83.58094
232.358	176.04202
232.579	175.75991
232.799	31.79612
233.019	162.09587
233.24	234.59471
233.46	67.18196
233.68	114.87012
233.901	94.60326
234.121	48.19675
234.341	16.72463
234.561	-4.18702
234.782	32.94029
235.002	120.59061
235.222	-1.77559
235.442	91.66152
235.662	49.05567
235.883	100.34773
236.103	85.46903
236.323	70.0921
236.543	48.36477
236.763	69.02054
236.983	73.32228
237.203	74.88092
237.423	106.94631
237.643	153.40076
237.864	139.14263
238.084	34.44297
238.304	54.18739
238.524	77.25934
238.744	73.22082
238.964	115.45096
239.184	107.97545
239.404	103.47869
239.624	53.66775
239.843	98.47847
240.063	53.90963
240.283	36.48078
240.503	36.50724
240.723	36.59751
240.943	17.82115
241.163	27.95658
241.383	19.35442
241.603	9.2693
241.822	11.84222
242.042	8.41456
242.262	10.11131
242.482	12.81701
242.702	14.3268
242.921	5.08473
243.141	10.24449
243.361	8.64845
243.581	13.03226
243.8	12.0426
244.02	7.93186
244.24	12.87042
244.459	13.87351
244.679	28.19271
244.899	17.60882
245.118	21.19935
245.338	17.45796
245.558	20.61119
245.777	12.1632
245.997	13.35257
246.216	14.28185
246.436	7.67367
246.655	5.82502
246.875	4.40687
247.094	7.88916
247.314	2.74625
247.533	4.48647
247.753	6.07963
247.972	4.33814
248.192	1.78818
248.411	3.00454
248.631	5.43355
248.85	6.78472
249.07	4.90225
249.289	8.73401
249.508	6.61772
249.728	10.96353
249.947	10.93129
250.166	12.5827
250.386	6.84435
250.605	9.82702
250.824	15.07389
251.044	10.82935
251.263	36.48663
251.482	20.25135
251.701	17.60787
251.921	0.871
252.14	5.33486
252.359	5.87738
252.578	13.68216
252.798	5.14178
253.017	13.21062
253.236	6.5449
253.455	7.5106
253.674	16.55848
253.893	8.60434
254.112	11.22558
254.331	16.49661
254.551	14.44453
254.77	5.60795
254.989	22.93499
255.208	19.21976
255.427	22.56872
255.646	20.63155
255.865	32.6497
256.084	13.57423
256.303	15.62539
256.522	21.51503
256.741	3.18728
256.96	5.70548
257.179	15.04557
257.397	15.51106
257.616	8.41764
257.835	8.84414
258.054	22.25969
258.273	13.15381
258.492	15.42591
258.711	8.64351
258.93	4.09979
259.148	5.51466
259.367	5.59203
259.586	7.47328
259.805	3.39025
260.023	6.87293
260.242	5.18834
260.461	3.50518
260.68	2.01588
260.898	5.93248
261.117	1.80433
261.336	1.40589
261.554	5.14061
261.773	4.91587
261.992	0.61597
262.21	4.77795
262.429	6.23436
262.648	10.20067
262.866	12.09492
263.085	7.83514
263.303	7.20445
263.522	12.28938
263.74	13.54105
263.959	21.91939
264.178	10.37767
264.396	10.81597
264.615	6.81498
264.833	17.31324
265.051	15.4233
265.27	13.39257
265.488	16.31317
265.707	9.79901
265.925	15.15484
266.144	6.59746
266.362	8.82949
266.58	8.91516
266.799	6.92439
267.017	8.57605
267.235	7.37842
267.454	4.40539
267.672	3.21379
267.89	5.85893
268.109	6.74063
268.327	6.16627
268.545	1.64043
268.763	5.80759
268.982	3.12856
269.2	7.6578
269.418	3.8319
269.636	2.67938
269.854	6.64472
270.073	4.26633
270.291	2.17332
270.509	2.92946
270.727	5.78681
270.945	9.95417
271.163	10.14324
271.381	2.49565
271.599	4.25685
271.817	7.09414
272.036	2.63927
272.254	4.50155
272.472	3.42987
272.69	3.40806
272.908	3.47301
273.126	5.87842
273.344	7.45328
273.562	2.80317
273.779	3.76572
273.997	5.24199
274.215	6.03796
274.433	4.66256
274.651	6.30783
274.869	6.58333
275.087	3.73893
275.305	6.09894
275.523	3.56896
275.74	4.20081
275.958	7.7762
276.176	11.20901
276.394	3.27082
276.612	4.1259
276.829	4.63402
277.047	3.68202
277.265	4.29247
277.483	5.41572
277.7	6.18906
277.918	5.12901
278.136	8.95799
278.353	4.77228
278.571	2.107
278.789	6.97
279.006	1.79574
279.224	4.39779
279.442	7.02457
279.659	4.59488
279.877	3.70666
280.094	7.69501
280.312	1.83422
280.529	5.01418
280.747	1.21461
280.964	3.67204
281.182	8.41739
281.399	4.16124
281.617	5.51085
281.834	3.84854
282.052	3.06218
282.269	4.38972
282.487	3.69706
282.704	2.90202
282.921	3.18149
283.139	4.33053
283.356	6.17172
283.574	4.8287
283.791	2.64157
284.008	7.19486
284.226	4.28016
284.443	4.487
284.66	5.54259
284.877	4.77341
285.095	3.23177
285.312	2.32106
285.529	1.59485
285.746	1.13421
285.964	2.70972
286.181	1.69194
286.398	2.69152
286.615	3.72826
286.832	3.62433
287.05	1.19501
287.267	2.49754
287.484	2.98172
287.701	3.87265
287.918	3.69949
288.135	3.80054
288.352	1.84627
288.569	2.00946
288.786	3.45109
289.003	2.89337
289.22	4.04142
289.437	2.6056
289.654	4.00502
289.871	4.52151
290.088	3.87035
290.305	3.12583
290.522	2.50916
290.739	3.28084
290.956	4.3896
291.173	5.32076
291.39	4.93195
291.607	3.43495
291.824	2.6377
292.04	1.70243
292.257	4.0463
292.474	4.55159
292.691	2.94664
292.908	1.51504
293.125	2.42396
293.341	1.71468
293.558	7.1663
293.775	2.95305
293.992	2.83599
294.208	1.25764
294.425	1.79349
294.642	2.42402
294.858	4.20907
295.075	1.13958
295.292	2.62494
295.508	3.53971
295.725	5.24034
295.942	2.50063
296.158	1.943
296.375	3.04603
296.591	2.3826
296.808	2.53317
297.024	3.0067
297.241	3.33342
297.458	3.50907
297.674	0.51732
297.891	2.67956
298.107	2.34198
298.323	1.73041
298.54	4.10996
298.756	2.23993
298.973	1.18754
299.189	4.30942
299.406	2.09535
299.622	4.3674
299.838	4.4941
300.055	4.04616
300.271	1.50452
300.487	1.70054
300.704	2.16247
300.92	1.48577
301.136	5.8804
301.353	4.33565
301.569	3.13062
301.785	3.62277
302.001	4.23447
302.218	3.58781
302.434	3.85826
302.65	1.60112
302.866	2.58413
303.083	6.14435
303.299	5.84031
303.515	3.44148
303.731	3.92272
303.947	1.81517
304.163	2.37522
304.379	3.74062
304.595	4.01551
304.812	2.44725
305.028	2.3012
305.244	2.74421
305.46	4.18484
305.676	4.55883
305.892	5.23883
306.108	3.77447
306.324	3.05926
306.54	5.91156
306.756	4.19247
306.972	3.99854
307.187	3.28487
307.403	5.36264
307.619	2.4734
307.835	4.51901
308.051	5.10034
308.267	1.72662
308.483	5.07298
308.699	3.96707
308.914	3.62359
309.13	3.50531
309.346	1.8061
309.562	2.18892
309.778	1.75743
309.993	4.02912
310.209	3.51622
310.425	1.82066
310.641	3.35933
310.856	2.20575
311.072	2.13011
311.288	3.28441
311.503	3.65649
311.719	1.45032
311.935	1.34504
312.15	4.09857
312.366	3.77636
312.581	4.28147
312.797	3.68782
313.013	4.23656
313.228	2.70911
313.444	3.45468
313.659	2.5632
313.875	3.89175
314.09	3.18505
314.306	5.18528
314.521	4.49288
314.737	4.26795
314.952	3.70228
315.168	3.53824
315.383	4.2403
315.599	2.9308
315.814	3.03338
316.029	4.53682
316.245	1.9218
316.46	1.40355
316.675	5.11414
316.891	5.92763
317.106	6.88024
317.321	4.2029
317.537	4.36319
317.752	4.51781
317.967	4.45606
318.183	2.59841
318.398	2.94128
318.613	4.68998
318.828	5.17581
319.043	4.26932
319.259	2.75341
319.474	3.77592
319.689	4.66884
319.904	1.5007
320.119	4.77378
320.334	3.86891
320.549	3.68623
320.765	5.16008
320.98	3.72097
321.195	4.39586
321.41	3.44268
321.625	4.56346
321.84	5.75305
322.055	5.66644
322.27	2.46952
322.485	2.19258
322.7	3.53248
322.915	5.13875
323.13	2.55013
323.345	5.55033
323.56	4.40492
323.775	4.3208
323.989	4.21548
324.204	3.88488
324.419	4.81558
324.634	2.08278
324.849	3.38148
325.064	6.76138
325.279	5.022
325.493	4.54677
325.708	4.79907
325.923	2.44665
326.138	2.98973
326.352	5.54862
326.567	4.68134
326.782	3.02172
326.997	2.73489
327.211	4.16317
327.426	3.813
327.641	3.42496
327.855	2.18184
328.07	4.32635
328.285	5.92384
328.499	3.07727
328.714	4.12117
328.928	4.41238
329.143	3.88069
329.358	5.11161
329.572	4.83539
329.787	5.59415
330.001	7.0013
330.216	1.62458
330.43	6.38434
330.645	5.77979
330.859	4.89585
331.074	2.81096
331.288	3.80467
331.503	5.80329
331.717	2.26881
331.931	3.5467
332.146	4.10259
332.36	5.99357
332.575	4.54078
332.789	3.79096
333.003	3.86854
333.218	4.40442
333.432	3.18633
333.646	4.54494
333.86	5.74443
334.075	5.73207
334.289	3.41047
334.503	2.35584
334.717	4.96939
334.932	4.43584
335.146	5.06244
335.36	3.04739
335.574	4.63643
335.788	4.10153
336.003	5.3425
336.217	4.81241
336.431	4.39362
336.645	3.12208
336.859	2.68951
337.073	3.58751
337.287	4.28697
337.501	2.56198
337.715	4.47097
337.929	4.64467
338.143	2.77954
338.357	3.70349
338.571	2.90736
338.785	4.92771
338.999	3.28277
339.213	3.50603
339.427	2.39681
339.641	4.99185
339.855	3.51629
340.069	2.93443
340.283	5.2148
340.497	6.09327
340.711	4.51475
340.924	3.57608
341.138	2.57367
341.352	2.32774
341.566	4.05596
341.78	2.25054
341.993	3.01531
342.207	2.87488
342.421	4.45912
342.635	3.85321
342.848	3.4795
343.062	1.16636
343.276	3.17414
343.49	6.42424
343.703	3.12905
343.917	4.83607
344.131	4.99511
344.344	2.91805
344.558	3.25433
344.771	2.79809
344.985	5.41814
345.199	5.79541
345.412	3.94082
345.626	4.38936
345.839	2.13826
346.053	2.65189
346.266	2.47327
346.48	4.74477
346.693	4.40512
346.907	4.53458
347.12	2.66079
347.334	4.06609
347.547	4.34076
347.76	3.71355
347.974	5.09995
348.187	4.19655
348.401	3.76294
348.614	3.1632
348.827	3.57026
349.041	4.44768
349.254	1.96972
349.467	3.53331
349.681	2.50472
349.894	2.80494
350.107	5.42621
350.32	6.07359
350.534	2.04534
350.747	3.49994
350.96	2.80758
351.173	2.99165
351.386	3.47865
351.6	3.42753
351.813	3.38016
352.026	3.87053
352.239	2.68968
352.452	3.44697
352.665	5.02357
352.878	3.31824
353.092	6.49628
353.305	4.52084
353.518	4.1417
353.731	2.88595
353.944	5.34879
354.157	3.27882
354.37	3.14928
354.583	2.44677
354.796	2.49079
355.009	5.13943
355.222	4.06867
355.435	4.12444
355.647	5.24752
355.86	3.15373
356.073	3.87495
356.286	3.46083
356.499	5.03797
356.712	4.71471
356.925	4.5913
357.138	5.14493
357.35	2.99844
357.563	3.76619
357.776	4.28294
357.989	3.94338
358.201	4.69476
358.414	4.22148
358.627	5.55596
358.84	4.03698
359.052	3.0179
359.265	2.97086
359.478	5.24278
359.69	1.47396
359.903	4.93881
360.116	5.26855
360.328	2.59386
360.541	5.23717
360.753	3.4768
360.966	3.86861
361.179	4.06049
361.391	3.99403
361.604	3.43911
361.816	3.83269
362.029	3.87386
362.241	3.51292
362.454	3.94837
362.666	3.41023
362.879	4.72189
363.091	4.18655
363.304	3.69961
363.516	4.10533
363.728	3.14761
363.941	4.71617
364.153	4.28955
364.366	2.25116
364.578	3.20659
364.79	4.98922
365.003	4.39134
365.215	4.01254
365.427	4.91553
365.639	5.54447
365.852	4.72486
366.064	6.2811
366.276	3.83935
366.488	4.81166
366.701	4.08287
366.913	4.15344
367.125	3.9224
367.337	3.65214
367.549	3.8017
367.762	4.32103
367.974	4.6019
368.186	3.96298
368.398	5.58869
368.61	4.85183
368.822	5.14225
369.034	4.4346
369.246	5.41944
369.458	7.12873
369.67	3.83973
369.882	6.28247
370.094	2.66169
370.306	6.05213
370.518	4.38537
370.73	3.72987
370.942	4.14301
371.154	4.48069
371.366	4.39469
371.578	5.4036
371.79	4.14642
372.002	5.7982
372.214	6.79612
372.425	4.77013
372.637	6.15508
372.849	4.9076
373.061	2.74362
373.273	5.48316
373.484	5.34721
373.696	5.69288
373.908	2.77047
374.12	5.95953
374.331	5.87231
374.543	4.1689
374.755	3.94225
374.967	5.0784
375.178	6.27705
375.39	5.01217
375.602	5.35182
375.813	3.88328
376.025	3.99168
376.236	5.07595
376.448	5.45664
376.66	5.03988
376.871	5.32124
377.083	6.27035
377.294	6.99321
377.506	4.99332
377.717	6.73259
377.929	5.58677
378.14	5.05692
378.352	5.91033
378.563	6.15441
378.775	6.8119
378.986	4.7024
379.197	5.75011
379.409	4.82927
379.62	6.23508
379.832	5.7822
380.043	5.37671
380.254	5.93463
380.466	4.65227
380.677	8.3859
380.888	7.7676
381.1	8.19259
381.311	8.26628
381.522	6.17522
381.733	8.51843
381.945	5.79678
382.156	5.86593
382.367	5.52957
382.578	8.61306
382.789	9.02259
383.001	5.41959
383.212	7.63548
383.423	7.99548
383.634	7.29798
383.845	6.69414
384.056	5.85381
384.267	6.32028
384.478	6.25917
384.69	5.35031
384.901	7.08247
385.112	6.80094
385.323	7.95249
385.534	6.90754
385.745	7.12784
385.956	6.99
386.167	5.83546
386.378	7.06808
386.588	6.0013
386.799	5.77125
387.01	5.4674
387.221	7.64974
387.432	6.60355
387.643	8.57539
387.854	6.73259
388.065	6.52449
388.275	6.63158
388.486	6.49057
388.697	6.85007
388.908	6.40827
389.119	8.04463
389.329	8.44216
389.54	7.06531
389.751	7.40015
389.962	8.18434
390.172	7.13232
390.383	6.89617
390.594	6.43326
390.804	6.59399
391.015	6.78501
391.226	7.59182
391.436	8.04085
391.647	8.11385
391.858	8.04067
392.068	6.2643
392.279	6.61155
392.489	7.80753
392.7	8.47826
392.91	6.89731
393.121	7.02959
393.331	8.19452
393.542	8.58456
393.752	8.40907
393.963	7.91894
394.173	8.04341
394.384	8.1537
394.594	7.90939
394.804	6.82144
395.015	7.75376
395.225	8.24417
395.436	7.05465
395.646	8.39164
395.856	7.38195
396.067	6.87123
396.277	8.78469
396.487	8.20377
396.697	8.09523
396.908	8.74211
397.118	8.51615
397.328	8.21188
397.538	8.77059
397.749	7.3757
397.959	9.01851
398.169	8.64434
398.379	7.03686
398.589	8.80537
398.8	8.42549
399.01	8.52953
399.22	8.33805
399.43	10.12912
399.64	7.95764
399.85	9.05074
400.06	8.4922
400.27	7.58579
400.48	8.56311
400.69	9.44584
400.9	8.12165
401.11	7.51235
401.32	9.1203
401.53	7.72488
401.74	10.00017
401.95	9.06391
402.16	8.08779
402.37	8.99717
402.58	8.02966
402.79	8.98336
403	9.50142
403.209	8.25087
403.419	9.6268
403.629	8.24429
403.839	9.67472
404.049	9.76442
404.258	8.47146
404.468	8.43316
404.678	9.78875
404.888	9.93878
405.097	8.78807
405.307	9.03585
405.517	9.53325
405.727	9.48945
405.936	8.84785
406.146	9.19973
406.356	10.15264
406.565	9.21689
406.775	8.48873
406.984	8.5188
407.194	10.74861
407.404	9.22236
407.613	9.46898
407.823	9.95608
408.032	10.38142
408.242	9.99388
408.451	8.80771
408.661	8.9282
408.87	10.85776
409.08	8.49079
409.289	9.46936
409.499	9.41271
409.708	9.44963
409.918	7.76585
410.127	9.60366
410.336	10.84966
410.546	10.09724
410.755	9.03635
410.964	9.07161
411.174	8.78943
411.383	9.91407
411.592	9.61838
411.802	8.54711
412.011	9.96128
412.22	9.34553
412.429	10.88687
412.639	10.68532
412.848	10.29608
413.057	10.96672
413.266	10.24108
413.475	9.58142
413.685	10.25314
413.894	10.27865
414.103	10.72113
414.312	10.33593
414.521	9.55112
414.73	10.08482
414.939	11.44864
415.148	10.51602
415.357	10.2127
415.566	9.95282
415.776	9.72059
415.985	9.53532
416.194	10.65771
416.403	11.7843
416.611	9.19972
416.82	9.79551
417.029	10.40323
417.238	9.73894
417.447	9.7717
417.656	10.29099
417.865	9.80441
418.074	10.23598
418.283	10.55533
418.492	11.26492
418.7	11.08262
418.909	11.8872
419.118	10.8433
419.327	11.30052
419.536	10.89346
419.744	10.84349
419.953	12.09147
420.162	12.30562
420.371	11.41361
420.579	12.27088
420.788	13.22087
420.997	13.32599
421.205	13.50422
421.414	13.24032
421.623	12.99561
421.831	12.7965
422.04	13.574
422.249	12.40994
422.457	12.75994
422.666	11.71657
422.874	12.90648
423.083	13.01524
423.291	12.95245
423.5	13.02619
423.708	13.39396
423.917	13.99748
424.125	13.30192
424.334	13.17833
424.542	15.20049
424.751	14.4319
424.959	13.77554
425.167	14.03675
425.376	13.75585
425.584	12.26561
425.793	12.11986
426.001	11.14489
426.209	12.12026
426.418	10.98246
426.626	10.7524
426.834	10.79664
427.042	11.4621
427.251	10.79827
427.459	12.1988
427.667	11.35926
427.875	10.2925
428.084	10.94099
428.292	12.12361
428.5	11.83111
428.708	10.71197
428.916	10.77739
429.124	11.35681
429.333	11.02628
429.541	10.96155
429.749	11.39566
429.957	11.1929
430.165	13.26928
430.373	10.17172
430.581	11.41381
430.789	12.40579
430.997	11.05462
431.205	10.71994
431.413	11.53369
431.621	11.10921
431.829	12.02379
432.037	10.98687
432.245	12.03138
432.453	11.78199
432.661	11.35154
432.869	12.99749
433.076	11.16494
433.284	11.69629
433.492	12.12901
433.7	12.61846
433.908	11.45045
434.116	12.12731
434.323	11.95335
434.531	11.7483
434.739	12.07787
434.947	12.28387
435.154	12.45618
435.362	11.74608
435.57	11.54854
435.778	11.26189
435.985	11.98191
436.193	11.30089
436.401	12.74607
436.608	11.64162
436.816	11.4101
437.023	13.03531
437.231	13.0654
437.439	11.85718
437.646	12.49754
437.854	12.18379
438.061	12.46269
438.269	11.85095
438.476	12.63045
438.684	11.98875
438.891	11.65809
439.099	11.64888
439.306	11.39692
439.514	11.40801
439.721	12.47975
439.929	11.74927
440.136	12.5187
440.343	12.45694
440.551	12.24925
440.758	14.01714
440.965	12.70861
441.173	12.24358
441.38	11.98416
441.587	12.46674
441.795	11.90966
442.002	12.36019
442.209	12.62004
442.416	12.57848
442.624	12.60035
442.831	12.36802
443.038	11.91349
443.245	11.43441
443.452	11.79728
443.66	12.70047
443.867	11.68577
444.074	11.91044
444.281	11.83074
444.488	11.81563
444.695	12.26422
444.902	12.02248
445.109	12.88932
445.316	12.12469
445.523	12.57795
445.73	12.83454
445.937	13.72607
446.144	14.26113
446.351	14.49837
446.558	13.51072
446.765	15.52368
446.972	14.77387
447.179	14.13276
447.386	14.82793
447.593	13.0446
447.8	14.07549
448.007	12.44208
448.214	12.34522
448.42	12.24242
448.627	13.232
448.834	12.39433
449.041	12.26094
449.248	12.37731
449.454	13.11338
449.661	13.84585
449.868	12.16191
450.075	11.88386
450.281	10.9441
450.488	11.43023
450.695	11.6049
450.901	11.61203
451.108	11.94637
451.315	13.03078
451.521	12.00772
451.728	13.18577
451.935	11.83188
452.141	12.10401
452.348	12.52276
452.554	12.33894
452.761	12.16718
452.967	13.6187
453.174	12.4169
453.38	12.54715
453.587	11.41335
453.793	12.49394
454	13.08003
454.206	13.98386
454.413	13.24021
454.619	12.99694
454.825	11.77466
455.032	12.82472
455.238	13.01404
455.445	11.58941
455.651	12.44551
455.857	11.10659
456.064	12.14778
456.27	12.19979
456.476	12.27672
456.682	11.50298
456.889	12.80987
457.095	12.90144
457.301	14.06267
457.507	12.61851
457.714	12.66816
457.92	12.67962
458.126	11.88164
458.332	12.53396
458.538	12.31619
458.744	12.52136
458.951	12.53764
459.157	14.08435
459.363	13.41252
459.569	13.58299
459.775	14.24139
459.981	13.88329
460.187	14.24068
460.393	14.22266
460.599	14.51073
460.805	13.27829
461.011	12.9911
461.217	13.76879
461.423	13.72666
461.629	12.862
461.835	13.38451
462.041	12.57521
462.247	14.03108
462.453	12.62086
462.658	12.34238
462.864	13.08093
463.07	12.98039
463.276	12.89128
463.482	12.74748
463.688	13.86957
463.893	12.323
464.099	12.62979
464.305	13.91792
464.511	12.34335
464.716	12.59187
464.922	13.27225
465.128	12.13872
465.333	14.12804
465.539	13.30891
465.745	12.77079
465.95	12.82116
466.156	14.98632
466.362	13.75414
466.567	12.68876
466.773	12.66468
466.978	13.97255
467.184	12.27279
467.389	11.43235
467.595	13.27197
467.8	12.14862
468.006	13.62825
468.211	13.91852
468.417	12.09401
468.622	13.10711
468.828	13.5793
469.033	12.98489
469.239	14.90488
469.444	12.52826
469.649	13.65549
469.855	12.69173
470.06	12.82738
470.266	11.98484
470.471	13.35889
470.676	13.47699
470.881	11.58317
471.087	13.99953
471.292	14.39116
471.497	11.86346
471.703	12.54288
471.908	12.50347
472.113	13.16394
472.318	13.75251
472.523	12.34649
472.729	13.21977
472.934	13.25475
473.139	12.52935
473.344	13.46362
473.549	13.76542
473.754	12.38839
473.959	14.94592
474.164	12.3932
474.369	13.0334
474.575	13.55166
474.78	13.07364
474.985	12.35328
475.19	11.76655
475.395	12.66866
475.6	12.9829
475.804	14.2816
476.009	13.11163
476.214	13.15428
476.419	12.80322
476.624	11.98257
476.829	12.68297
477.034	13.69948
477.239	12.67523
477.444	13.66701
477.648	13.60376
477.853	13.89856
478.058	13.19043
478.263	12.78358
478.468	12.75434
478.672	12.62254
478.877	14.32908
479.082	14.75786
479.287	13.76635
479.491	13.32591
479.696	12.47224
479.901	13.95084
480.105	13.91681
480.31	12.7484
480.515	13.35146
480.719	15.01505
480.924	13.11379
481.128	12.57238
481.333	13.8619
481.538	13.68124
481.742	13.20487
481.947	14.29085
482.151	15.60757
482.356	16.58039
482.56	19.8536
482.765	22.22395
482.969	26.67047
483.174	30.29117
483.378	34.56411
483.582	35.89757
483.787	37.96528
483.991	38.34899
484.196	38.33737
484.4	37.17127
484.604	37.16595
484.809	33.3477
485.013	31.00714
485.217	27.55849
485.422	24.43215
485.626	22.03588
485.83	21.31579
486.034	20.90985
486.239	21.55525
486.443	22.47179
486.647	23.34036
486.851	24.87903
487.055	27.06839
487.26	26.98135
487.464	28.35798
487.668	27.63196
487.872	28.43469
488.076	28.12092
488.28	26.95709
488.484	24.85008
488.688	23.95916
488.892	22.61559
489.096	20.71089
489.3	18.9998
489.504	17.76187
489.708	16.99917
489.912	16.7369
490.116	16.39545
490.32	16.46774
490.524	18.18432
490.728	19.44094
490.932	20.75008
491.136	22.12386
491.34	23.65005
491.544	24.08143
491.748	23.8334
491.951	23.77017
492.155	22.82118
492.359	22.02946
492.563	19.85125
492.767	18.25543
492.97	16.18727
493.174	14.3622
493.378	13.84225
493.582	13.38119
493.785	13.81443
493.989	14.04356
494.193	13.95368
494.396	13.78483
494.6	14.1442
494.804	13.65291
495.007	13.25215
495.211	13.38345
495.414	13.65907
495.618	13.91675
495.822	14.78675
496.025	14.04785
496.229	14.34923
496.432	13.53564
496.636	13.89812
496.839	13.90171
497.043	14.71801
497.246	14.08643
497.45	13.6357
497.653	13.9
497.856	13.96329
498.06	13.35178
498.263	13.75086
498.467	13.62555
498.67	14.40623
498.873	14.29962
499.077	13.57792
499.28	13.69907
499.483	14.23321
499.686	14.45999
499.89	13.95804
500.093	14.45873
500.296	13.40951
500.499	15.12481
500.703	13.71097
500.906	14.19632
501.109	14.98439
501.312	13.95082
501.515	13.64833
501.719	13.83711
501.922	14.66833
502.125	13.88817
502.328	13.64092
502.531	13.10406
502.734	13.84526
502.937	12.51779
503.14	13.74264
503.343	13.25426
503.546	13.53151
503.749	13.4306
503.952	14.16108
504.155	13.20007
504.358	14.05495
504.561	14.24907
504.764	13.11544
504.967	13.97125
505.17	13.70282
505.373	14.99247
505.576	13.7798
505.778	14.43486
505.981	13.33476
506.184	14.76708
506.387	12.70192
506.59	15.13115
506.793	14.61994
506.995	14.36578
507.198	12.53883
507.401	14.31847
507.604	14.38328
507.806	13.46439
508.009	13.60653
508.212	14.65477
508.414	13.68743
508.617	13.69752
508.82	14.10792
509.022	15.25533
509.225	14.28475
509.427	13.23662
509.63	14.84984
509.833	14.02198
510.035	13.84376
510.238	12.98279
510.44	14.92846
510.643	12.78029
510.845	15.74339
511.048	14.52815
511.25	13.82081
511.453	14.04042
511.655	14.26232
511.858	13.79932
512.06	14.67157
512.262	14.2892
512.465	14.66597
512.667	13.96075
512.869	13.31374
513.072	14.78602
513.274	14.79216
513.476	14.56718
513.679	14.76096
513.881	13.1605
514.083	15.12461
514.286	13.38981
514.488	13.47555
514.69	13.1121
514.892	12.97009
515.094	14.38946
515.297	13.43826
515.499	13.98109
515.701	13.32828
515.903	15.29485
516.105	15.21106
516.307	14.42218
516.509	12.73517
516.711	13.20216
516.913	14.11745
517.116	14.31493
517.318	13.78177
517.52	15.09372
517.722	14.70704
517.924	13.56726
518.126	14.5362
518.328	13.96127
518.529	14.80785
518.731	15.53285
518.933	14.04977
519.135	14.52171
519.337	15.24801
519.539	14.62331
519.741	13.30973
519.943	14.23348
520.145	14.10696
520.346	14.60025
520.548	13.75461
520.75	14.42188
520.952	13.6956
521.153	14.36423
521.355	14.60755
521.557	13.62809
521.759	14.15853
521.96	13.97667
522.162	13.47485
522.364	14.83077
522.565	13.45399
522.767	14.72655
522.969	14.97108
523.17	14.52049
523.372	14.50082
523.573	13.95033
523.775	14.05601
523.977	13.53606
524.178	15.37797
524.38	13.96689
524.581	14.92913
524.783	14.1419
524.984	14.81753
525.186	14.61494
525.387	15.01565
525.589	14.54408
525.79	14.34104
525.991	14.30028
526.193	14.98982
526.394	14.06614
526.596	15.16217
526.797	15.58628
526.998	15.35667
527.2	16.22571
527.401	18.9553
527.602	20.79397
527.803	24.47597
528.005	26.28624
528.206	28.3939
528.407	29.73333
528.608	29.77068
528.81	30.0021
529.011	28.92633
529.212	29.49936
529.413	27.39873
529.614	25.22815
529.815	23.03591
530.017	20.85972
530.218	18.48236
530.419	16.72527
530.62	15.79932
530.821	15.12364
531.022	13.99921
531.223	15.08042
531.424	15.10881
531.625	14.96271
531.826	14.96605
532.027	15.5516
532.228	17.29402
532.429	17.8206
532.63	18.5813
532.831	19.86632
533.032	20.24125
533.233	20.92866
533.433	20.36685
533.634	20.49791
533.835	19.35724
534.036	18.52065
534.237	17.32242
534.438	16.20659
534.638	14.31997
534.839	14.50293
535.04	14.89574
535.241	14.49416
535.441	15.84578
535.642	14.9755
535.843	14.07549
536.043	14.13656
536.244	14.3831
536.445	14.4646
536.645	15.27158
536.846	14.85475
537.047	15.51628
537.247	14.20101
537.448	14.64061
537.648	14.82818
537.849	14.57597
538.049	14.44272
538.25	14.98421
538.451	15.11933
538.651	13.96856
538.851	14.82809
539.052	15.31612
539.252	15.07485
539.453	14.4708
539.653	14.73669
539.854	14.48783
540.054	14.64248
540.254	16.02866
540.455	17.82612
540.655	18.51407
540.855	20.50034
541.056	21.76637
541.256	21.85631
541.456	22.84105
541.657	22.14333
541.857	22.56445
542.057	20.98534
542.257	19.74
542.458	19.71056
542.658	18.50952
542.858	16.39973
543.058	16.31859
543.258	15.45949
543.458	13.99999
543.659	13.96822
543.859	15.24286
544.059	15.21995
544.259	14.52017
544.459	15.13966
544.659	14.12209
544.859	15.16354
545.059	14.16259
545.259	14.99342
545.459	14.82569
545.659	15.38352
545.859	14.84287
546.059	14.94318
546.259	14.16572
546.459	13.70523
546.659	13.85787
546.859	15.12836
547.059	15.05588
547.258	14.92113
547.458	14.82393
547.658	13.91539
547.858	13.79464
548.058	14.61236
548.258	14.17371
548.457	13.71428
548.657	16.37968
548.857	14.19196
549.057	14.93032
549.256	14.66709
549.456	14.0961
549.656	12.58154
549.855	15.62134
550.055	14.01808
550.255	15.82175
550.454	14.70396
550.654	14.69097
550.853	15.62895
551.053	15.07724
551.253	14.74646
551.452	14.68349
551.652	13.49556
551.851	12.70742
552.051	14.09987
552.25	14.1166
552.45	13.80447
552.649	14.12127
552.849	13.88169
553.048	14.34398
553.248	14.74741
553.447	13.82348
553.646	15.13683
553.846	16.05193
554.045	15.22502
554.244	13.19382
554.444	15.9016
554.643	13.62456
554.842	15.57234
555.042	16.29291
555.241	13.58133
555.44	13.11694
555.64	14.87996
555.839	15.71117
556.038	14.60239
556.237	13.22514
556.436	14.17942
556.636	14.76636
556.835	13.51716
557.034	15.65699
557.233	14.42819
557.432	13.21278
557.631	15.24784
557.83	13.89755
558.029	13.72805
558.228	13.57417
558.427	13.27077
558.626	14.49299
558.825	13.44434
559.024	13.95339
559.223	16.09219
559.422	14.21074
559.621	14.78766
559.82	11.98653
560.019	14.32738
560.218	13.90325
560.417	11.58484
560.616	13.42955
560.815	17.41946
561.014	12.93618
561.212	15.80344
561.411	14.40044
561.61	12.94368
561.809	13.93238
562.008	15.43689
562.206	13.9598
562.405	15.07238
562.604	14.10468
562.803	14.13529
563.001	13.91982
563.2	13.01426
563.399	14.91018
563.597	13.03059
563.796	14.09082
563.995	12.6943
564.193	15.07787
564.392	14.1307
564.59	16.64579
564.789	12.47208
564.988	13.71913
565.186	14.42857
565.385	14.02728
565.583	14.23962
565.782	14.40272
565.98	14.33657
566.179	14.38188
566.377	13.40726
566.575	13.62926
566.774	15.55057
566.972	15.38326
567.171	16.27096
567.369	15.38933
567.567	14.48383
567.766	14.73573
567.964	12.65759
568.162	14.49111
568.361	15.18397
568.559	14.18908
568.757	14.64929
568.956	14.39839
569.154	14.24369
569.352	15.18631
569.55	14.1843
569.748	14.14245
569.947	13.29281
570.145	13.33773
570.343	13.58541
570.541	15.63928
570.739	13.15786
570.937	14.25253
571.135	14.78632
571.333	15.87707
571.532	15.90902
571.73	14.51523
571.928	15.66569
572.126	14.96037
572.324	14.01476
572.522	15.88031
572.72	17.34365
572.918	14.1805
573.116	14.73766
573.313	14.29164
573.511	14.17031
573.709	13.8132
573.907	15.09904
574.105	13.7693
574.303	12.88189
574.501	13.06426
574.699	14.85076
574.896	14.73237
575.094	15.06679
575.292	12.89218
575.49	15.51522
575.688	14.11437
575.885	15.51755
576.083	16.34483
576.281	14.55634
576.478	13.4471
576.676	14.77323
576.874	12.71451
577.071	14.04547
577.269	16.97409
577.467	14.41874
577.664	14.39401
577.862	15.07306
578.059	13.45775
578.257	15.16735
578.455	13.85991
578.652	14.28638
578.85	12.19592
579.047	14.49452
579.245	14.01374
579.442	13.80546
579.64	14.40134
579.837	12.22427
580.034	16.94642
580.232	13.80351
580.429	12.40193
580.627	14.69512
580.824	15.5653
581.021	14.64458
581.219	13.93522
581.416	12.97302
581.613	16.07574
581.811	15.46204
582.008	13.29894
582.205	15.12144
582.402	14.33599
582.6	16.90743
582.797	14.19396
582.994	14.7913
583.191	14.8139
583.388	14.39143
583.586	14.90779
583.783	15.26605
583.98	13.50528
584.177	14.36538
584.374	10.63405
584.571	13.53165
584.768	14.1883
584.965	13.49449
585.162	15.01282
585.359	15.67806
585.556	13.95721
585.753	14.47922
585.95	12.58648
586.147	13.14519
586.344	14.65898
586.541	13.91937
586.738	12.46522
586.935	14.08847
587.132	12.83577
587.329	15.75525
587.526	13.73995
587.722	20.33186
587.919	12.12399
588.116	14.84033
588.313	16.14104
588.51	16.89186
588.706	13.90496
588.903	15.14933
589.1	15.20188
589.297	17.8126
589.493	14.29643
589.69	14.98271
589.887	13.66586
590.083	12.83151
590.28	13.54075
590.477	15.25018
590.673	14.74973
590.87	16.08272
591.067	13.90737
591.263	14.50831
591.46	15.24334
591.656	13.8795
591.853	16.21933
592.049	13.23497
592.246	13.20287
592.442	15.73545
592.639	15.64148
592.835	12.59523
593.032	14.79729
593.228	12.55863
593.425	12.29224
593.621	12.34773
593.817	14.51769
594.014	13.3955
594.21	14.33
594.406	15.67883
594.603	15.28279
594.799	13.94399
594.995	10.95229
595.192	15.6635
595.388	13.63175
595.584	13.6553
595.78	12.60692
595.977	17.43395
596.173	16.68895
596.369	14.219
596.565	13.44741
596.761	13.10903
596.957	16.5048
597.154	13.88455
597.35	14.06629
597.546	13.64253
597.742	15.29415
597.938	15.02875
598.134	13.30228
598.33	14.81764
598.526	16.46194
598.722	14.87596
598.918	16.58142
599.114	15.0876
599.31	13.21196
599.506	14.64055
599.702	13.41813
599.898	14.63634
600.094	15.68186
600.29	15.32049
600.485	15.45851
600.681	13.76218
600.877	16.5956
601.073	14.27163
601.269	17.34337
601.465	16.22008
601.66	13.10958
601.856	11.66689
602.052	17.07119
602.248	13.63756
602.443	11.99243
602.639	12.91059
602.835	13.58451
603.03	13.51324
603.226	15.83852
603.422	13.30404
603.617	14.40836
603.813	14.50509
604.009	14.17939
604.204	16.05933
604.4	12.88995
604.595	16.0318
604.791	13.48761
604.986	14.99003
605.182	13.91411
605.377	14.15004
605.573	13.91969
605.768	14.87951
605.964	15.24725
606.159	15.3051
606.355	16.34701
606.55	13.95283
606.746	15.98055
606.941	14.22383
607.136	17.38351
607.332	18.52921
607.527	12.6993
607.722	14.66617
607.918	14.32573
608.113	13.45659
608.308	15.69457
608.503	15.38526
608.699	15.1818
608.894	15.60931
609.089	13.76078
609.284	14.989
609.479	14.06284
609.675	15.56701
609.87	14.51123
610.065	15.88705
610.26	16.31433
610.455	15.47786
610.65	14.52179
610.845	14.91703
611.04	16.35519
611.235	14.20374
611.43	14.2358
611.625	12.93779
611.82	16.68144
612.015	13.13514
612.21	16.75469
612.405	11.92946
612.6	17.3132
612.795	16.55534
612.99	15.46318
613.185	13.14259
613.38	13.33865
613.575	14.45237
613.77	18.99179
613.965	12.18416
614.159	13.18615
614.354	16.59076
614.549	16.10743
614.744	15.78372
614.938	12.94591
615.133	12.66162
615.328	16.9416
615.523	16.64992
615.717	19.29841
615.912	13.79765
616.107	14.93725
616.301	14.04824
616.496	13.76787
616.691	17.12583
616.885	15.89585
617.08	19.62667
617.274	16.11898
617.469	18.67115
617.664	15.77361
617.858	13.5678
618.053	15.74871
618.247	14.58025
618.442	11.16401
618.636	17.5921
618.831	13.92201
619.025	13.96694
619.219	19.74196
619.414	9.58224
619.608	14.92382
619.803	13.58525
619.997	18.70942
620.191	17.06584
620.386	15.80813
620.58	14.76816
620.774	12.33628
620.969	12.2549
621.163	14.78627
621.357	12.55156
621.551	14.41808
621.746	15.19637
621.94	15.00757
622.134	21.02342
622.328	18.60333
622.522	12.32137
622.716	16.69094
622.911	16.71154
623.105	16.87066
623.299	15.29451
623.493	20.61088
623.687	13.3262
623.881	14.54019
624.075	15.7557
624.269	17.12457
624.463	12.31362
624.657	12.23523
624.851	16.09054
625.045	16.59513
625.239	16.47646
625.433	14.55441
625.627	17.94355
625.821	14.55499
626.015	14.32178
626.209	15.25131
626.403	13.22657
626.596	16.14967
626.79	16.92308
626.984	13.39363
627.178	16.2048
627.372	16.28269
627.565	16.42401
627.759	13.01142
627.953	13.13565
628.147	15.99457
628.34	16.43367
628.534	18.89714
628.728	14.73103
628.921	16.78009
629.115	16.61055
629.309	16.93075
629.502	18.00809
629.696	15.51704
629.89	15.27991
630.083	16.03478
630.277	16.39865
630.47	18.67419
630.664	14.40559
630.857	12.55107
631.051	17.53689
631.244	17.58013
631.438	17.1805
631.631	13.7199
631.825	17.77778
632.018	17.03911
632.212	18.76514
632.405	17.65994
632.598	14.28431
632.792	15.80092
632.985	11.53969
633.178	15.16977
633.372	15.31558
633.565	15.38921
633.758	18.67099
633.952	13.70211
634.145	13.97755
634.338	14.66867
634.531	14.99548
634.724	14.48885
634.918	15.52776
635.111	14.41529
635.304	14.59315
635.497	19.92286
635.69	16.15704
635.883	18.30626
636.077	13.6478
636.27	16.47139
636.463	16.23114
636.656	16.34805
636.849	14.30918
637.042	16.99198
637.235	19.84607
637.428	17.69622
637.621	17.2322
637.814	18.64068
638.007	19.56665
638.2	19.4948
638.393	19.98439
638.586	13.78681
638.778	14.8665
638.971	16.22176
639.164	20.02829
639.357	17.24861
639.55	18.39447
639.743	17.98914
639.935	17.66847
640.128	21.09681
640.321	17.67759
640.514	16.07507
640.707	22.06035
640.899	18.29983
641.092	12.43845
641.285	34.60191
641.477	11.99487
641.67	21.67237
641.863	19.44309
642.055	17.06421
642.248	16.0152
642.441	15.36921
642.633	18.09733
642.826	19.18656
643.018	19.86942
643.211	21.19206
643.403	21.7067
643.596	21.82862
643.788	21.91724
643.981	15.55241
644.173	18.37015
644.366	16.10537
644.558	11.9947
644.751	19.0109
644.943	13.38633
645.135	21.4973
645.328	20.83301
645.52	18.94102
645.712	19.6779
645.905	24.65255
646.097	14.56513
646.289	17.96525
646.482	22.28389
646.674	15.47377
646.866	19.92013
647.058	18.1035
647.251	14.13552
647.443	15.88836
647.635	16.21514
647.827	15.01256
648.019	14.73038
648.211	17.27883
648.404	18.19852
648.596	21.80181
648.788	17.59727
648.98	17.04058
649.172	18.62045
649.364	18.18372
649.556	12.85379
649.748	24.04126
649.94	14.92272
650.132	19.02047
650.324	15.04537
650.516	16.22118
650.708	20.28793
650.9	13.65347
651.092	16.51803
651.284	13.94521
651.476	14.09963
651.667	18.75862
651.859	20.75947
652.051	17.16305
652.243	17.50768
652.435	16.21053
652.627	18.43306
652.818	18.23736
653.01	13.28513
653.202	15.00907
653.394	15.99193
653.585	17.79879
653.777	29.91803
653.969	21.95061
654.16	20.98623
654.352	14.89636
654.544	16.91887
654.735	21.28246
654.927	17.53956
655.118	22.6675
655.31	19.51019
655.502	19.91791
655.693	16.34985
655.885	19.37451
656.076	21.55629
656.268	17.90566
656.459	22.0853
656.651	21.7411
656.842	15.90845
657.034	15.88358
657.225	19.48694
657.416	21.64984
657.608	21.58529
657.799	17.98418
657.99	21.65776
658.182	16.15363
658.373	16.44694
658.564	20.13584
658.756	18.25941
658.947	17.81367
659.138	15.02387
659.33	16.14476
659.521	16.01404
659.712	17.45941
659.903	17.37725
660.094	16.09701
660.286	14.32733
660.477	23.11067
660.668	19.72739
660.859	17.94609
661.05	14.04107
661.241	19.46978
661.432	19.73566
661.623	17.016
661.814	16.69296
662.006	12.55885
662.197	18.06768
662.388	21.70382
662.579	18.61718
662.77	22.72057
662.96	26.34283
663.151	21.17393
663.342	13.91023
663.533	19.86658
663.724	18.27487
663.915	23.67742
664.106	18.49537
664.297	23.9915
664.488	20.74163
664.678	17.33253
664.869	20.28984
665.06	22.22504
665.251	18.80377
665.442	20.41014
665.632	15.51109
665.823	26.55084
666.014	10.63581
666.204	20.81112
666.395	22.87906
666.586	27.87307
666.776	21.97325
666.967	24.18474
667.158	19.3375
667.348	23.91303
667.539	14.79063
667.729	22.2005
667.92	15.93264
668.111	22.43844
668.301	21.49583
668.492	19.02509
668.682	19.16288
668.873	18.90133
669.063	15.3994
669.253	19.78874
669.444	22.52625
669.634	17.92439
669.825	26.33057
670.015	21.96472
670.206	17.68495
670.396	27.3262
670.586	19.91728
670.777	20.81146
670.967	12.8782
671.157	19.42649
671.347	16.7522
671.538	25.10969
671.728	22.11826
671.918	26.03762
672.108	22.35748
672.299	20.03619
672.489	21.51136
672.679	18.23257
672.869	21.38909
673.059	26.31302
673.249	20.96808
673.44	15.91138
673.63	19.11338
673.82	24.04552
674.01	17.20313
674.2	22.07412
674.39	30.26615
674.58	23.13201
674.77	20.60849
674.96	21.34399
675.15	35.05824
675.34	25.88328
675.53	21.32049
675.72	19.25325
675.91	15.01023
676.099	28.00376
676.289	29.277
676.479	24.0134
676.669	18.8052
676.859	22.03602
677.049	18.2777
677.238	20.27282
677.428	27.60907
677.618	22.69557
677.808	25.70253
677.997	21.98723
678.187	17.05415
678.377	20.68991
678.567	19.02438
678.756	19.69129
678.946	18.46997
679.136	15.98298
679.325	17.6837
679.515	18.00494
679.704	16.62434
679.894	22.617
680.084	21.32835
680.273	23.74725
680.463	18.00457
680.652	17.71302
680.842	20.72479
681.031	24.01779
681.221	17.57167
681.41	22.73986
681.6	20.36929
681.789	23.55938
681.978	25.07245
682.168	22.10371
682.357	22.35856
682.547	23.49773
682.736	21.75037
682.925	26.06804
683.115	25.86476
683.304	24.88797
683.493	23.10828
683.682	23.89783
683.872	23.21754
684.061	27.22559
684.25	24.54109
684.439	30.21461
684.629	24.04949
684.818	36.13463
685.007	22.07159
685.196	21.07189
685.385	29.02189
685.574	23.73494
685.763	23.67187
685.952	22.88216
686.142	18.7647
686.331	28.03241
686.52	15.70616
686.709	30.08885
686.898	30.19977
687.087	24.62336
687.276	29.71782
687.465	27.68915
687.654	22.02484
687.842	29.29995
688.031	17.21887
688.22	28.87754
688.409	24.10229
688.598	24.04288
688.787	33.59924
688.976	23.7963
689.165	31.37137
689.353	20.7799
689.542	25.87493
689.731	27.77599
689.92	31.99804
690.108	28.34055
690.297	23.18283
690.486	24.66232
690.675	27.22143
690.863	32.91306
691.052	30.59711
691.241	27.4152
691.429	24.40985
691.618	32.20714
691.806	19.36463
691.995	22.51628
692.184	23.81385
692.372	22.51047
692.561	25.11375
692.749	25.37088
692.938	37.74166
693.126	27.59113
693.315	25.34871
693.503	28.89112
693.692	29.17983
693.88	31.36957
694.068	35.60092
694.257	25.31013
694.445	27.28801
694.634	15.97426
694.822	31.14809
695.01	32.05166
695.199	33.36218
695.387	34.83343
695.575	32.17865
695.763	25.76796
695.952	23.30614
696.14	20.04655
696.328	22.74392
696.516	26.31071
696.705	26.86097
696.893	27.813
697.081	17.70288
697.269	28.8539
697.457	21.93714
697.645	19.76334
697.833	28.5702
698.021	20.52052
698.21	22.44606
698.398	24.05141
698.586	19.51081
698.774	19.20563
698.962	23.47786
699.15	20.39082
699.338	18.49213
699.526	26.53312
699.714	21.74563
699.901	21.88338
700.089	28.6239
700.277	21.20645
700.465	25.3883
700.653	28.52688
700.841	26.95182
701.029	22.9582
701.217	32.17161
701.404	26.5311
701.592	33.90406
701.78	36.86501
701.968	25.0565
702.155	25.09673
702.343	19.16904
702.531	33.64406
702.718	29.07635
702.906	27.26146
703.094	25.17562
703.281	33.77938
703.469	26.53649
703.657	32.05851
703.844	45.60754
704.032	37.09907
704.219	24.99704
704.407	30.1843
704.595	35.53933
704.782	29.11313
704.97	25.85186
705.157	26.83443
705.345	36.74546
705.532	44.17543
705.719	31.47799
705.907	37.21952
706.094	29.58278
706.282	38.82238
706.469	27.99563
706.656	30.10356
706.844	28.39536
707.031	34.7165
707.218	31.26885
707.406	37.9449
707.593	33.42029
707.78	32.84355
707.968	28.92851
708.155	24.40123
708.342	35.1901
708.529	34.04007
708.716	31.31772
708.904	39.53931
709.091	32.54893
709.278	22.28029
709.465	41.25739
709.652	39.77902
709.839	36.94293
710.026	31.83017
710.213	20.31704
710.4	31.96444
710.587	36.22924
710.774	35.18626
710.961	35.8537
711.148	29.78183
711.335	37.02342
711.522	28.87885
711.709	32.46513
711.896	43.22957
712.083	37.17191
712.27	25.64297
712.457	31.28656
712.644	22.23625
712.831	43.96673
713.017	31.31896
713.204	35.7602
713.391	26.90611
713.578	39.15653
713.765	40.42456
713.951	35.55579
714.138	50.94976
714.325	36.06174
714.512	32.34497
714.698	23.89092
714.885	41.59053
715.072	35.95997
715.258	32.31725
715.445	29.04669
715.631	40.09414
715.818	18.09167
716.005	29.29482
716.191	36.78576
716.378	28.99613
716.564	38.20394
716.751	28.35432
716.937	29.99874
717.124	39.22996
717.31	28.481
717.497	44.80042
717.683	28.91907
717.869	49.36518
718.056	29.78101
718.242	38.8556
718.429	33.62987
718.615	25.33072
718.801	34.48086
718.988	40.09199
719.174	37.92493
719.36	34.85444
719.547	41.95086
719.733	38.38988
719.919	38.18234
720.105	42.1863
720.291	37.0833
720.478	37.32901
720.664	33.18009
720.85	30.43411
721.036	55.72764
721.222	47.14137
721.408	36.12091
721.595	50.69402
721.781	48.26378
721.967	44.64898
722.153	48.61574
722.339	41.01697
722.525	41.03896
722.711	30.72181
722.897	26.25595
723.083	33.66243
723.269	44.75386
723.455	56.14572
723.641	61.48471
723.827	39.41301
724.012	39.94276
724.198	35.41224
724.384	47.56099
724.57	40.22254
724.756	25.45637
724.942	22.91865
725.127	45.98242
725.313	48.4317
725.499	47.64846
725.685	52.79439
725.87	39.44274
726.056	29.71774
726.242	45.32925
726.428	27.18812
726.613	44.80484
726.799	35.66677
726.985	27.89193
727.17	26.49208
727.356	52.11355
727.541	30.60522
727.727	35.81002
727.913	43.76566
728.098	33.02622
728.284	42.40643
728.469	27.75275
728.655	30.98838
728.84	45.27574
729.026	44.01522
729.211	44.55804
729.397	40.72236
729.582	42.90719
729.767	37.78043
729.953	40.45066
730.138	47.29523
730.323	21.99444
730.509	29.15776
730.694	49.33043
730.879	41.62042
731.065	39.44148
731.25	54.87791
731.435	41.2788
731.621	26.99998
731.806	33.9529
731.991	41.25543
732.176	25.86771
732.361	49.25306
732.547	42.2705
732.732	24.44817
732.917	57.52735
733.102	28.93717
733.287	32.61664
733.472	39.18622
733.657	39.16487
733.842	26.62271
734.027	37.28679
734.212	36.18295
734.397	32.46014
734.582	39.53819
734.767	45.86536
734.952	53.22676
735.137	20.23581
735.322	51.92317
735.507	43.78646
735.692	41.50284
735.877	62.92538
736.062	58.86106
736.247	42.12988
736.431	39.07409
736.616	53.76
736.801	44.0348
736.986	39.48699
737.171	33.25476
737.355	30.35503
737.54	53.29303
737.725	41.93226
737.909	68.57244
738.094	35.40854
738.279	50.04118
738.463	39.83106
738.648	47.96199
738.833	44.23377
739.017	60.36917
739.202	38.90281
739.386	39.87067
739.571	33.09266
739.756	47.75531
739.94	42.02792
740.125	50.9437
740.309	36.96771
740.494	46.34123
740.678	43.7075
740.863	46.5817
741.047	44.79398
741.231	56.34919
741.416	34.01348
741.6	58.00535
741.785	34.09503
741.969	52.29421
742.153	53.91988
742.338	20.77189
742.522	42.27444
742.706	53.46977
742.89	31.18675
743.075	44.2275
743.259	58.46323
743.443	52.74733
743.627	56.96033
743.812	68.75464
743.996	20.42032
744.18	44.04731
744.364	38.17291
744.548	72.52853
744.732	44.91784
744.916	52.4983
745.1	52.00374
745.285	41.2965
745.469	48.69566
745.653	62.64409
745.837	29.92477
746.021	68.92378
746.205	55.5934
746.389	48.57601
746.573	40.94284
746.757	62.83613
746.94	41.49891
747.124	59.19395
747.308	32.63222
747.492	56.56325
747.676	39.80514
747.86	72.89033
748.044	42.32493
748.227	31.23609
748.411	88.23683
748.595	50.76194
748.779	34.21916
748.963	52.76032
749.146	48.38037
749.33	37.78119
749.514	36.91677
749.697	58.76467
749.881	37.69455
750.065	36.06658
750.248	46.04851
750.432	72.47523
750.616	45.25963
750.799	30.7173
750.983	68.37651
751.166	76.28745
751.35	27.64685
751.533	53.78031
751.717	58.76148
751.9	63.7104
752.084	41.09465
752.267	32.2947
752.451	37.3309
752.634	49.12035
752.818	53.19064
753.001	54.65051
753.184	59.48331
753.368	50.02957
753.551	13.01438
753.734	38.83591
753.918	71.54578
754.101	36.96749
754.284	54.41742
754.467	40.90208
754.651	40.46407
754.834	41.43424
755.017	60.98684
755.2	61.31685
755.384	33.28159
755.567	55.61377
755.75	61.81787
755.933	44.04941
756.116	52.21759
756.299	39.97592
756.482	37.79149
756.665	55.91773
756.848	48.74586
757.032	54.34364
757.215	32.25199
757.398	35.51162
757.581	38.51554
757.764	80.18376
757.947	50.70837
758.129	59.60772
758.312	15.33477
758.495	48.42208
758.678	43.25342
758.861	47.61464
759.044	73.2307
759.227	37.59801
759.41	36.40682
759.592	57.2718
759.775	49.84688
759.958	61.44061
760.141	31.05068
760.324	71.07775
760.506	65.7779
760.689	55.30973
760.872	79.30141
761.054	51.80572
761.237	40.52507
761.42	55.10069
761.602	60.46739
761.785	52.41918
761.968	62.21336
762.15	72.03418
762.333	46.24799
762.515	51.07812
762.698	39.17401
762.88	52.57544
763.063	47.67624
763.245	55.28805
763.428	34.01247
763.61	35.16763
763.793	31.13115
763.975	45.31893
764.158	37.18813
764.34	36.48017
764.522	33.37669
764.705	42.50627
764.887	60.81788
765.069	29.32447
765.252	53.72967
765.434	54.22626
765.616	49.45534
765.799	40.67221
765.981	54.39754
766.163	37.75437
766.345	61.7896
766.528	40.13624
766.71	21.97847
766.892	48.06731
767.074	62.77147
767.256	49.37206
767.438	72.40032
767.62	50.50753
767.802	82.88378
767.985	61.31955
768.167	76.57651
768.349	45.9053
768.531	64.1411
768.713	56.51005
768.895	70.85461
769.077	54.48923
769.259	94.74449
769.441	128.74848
769.623	64.82586
769.804	82.51155
769.986	78.73638
770.168	100.39683
770.35	117.20965
770.532	87.06717
770.714	89.94764
770.896	99.2284
771.077	41.53772
771.259	97.55327
771.441	81.621
771.623	104.40563
771.804	129.16236
771.986	36.62788
772.168	69.54122
772.35	103.60669
772.531	138.46902
772.713	82.71558
772.894	102.39089
773.076	72.8848
773.258	64.26889
773.439	107.57233
773.621	118.51729
773.802	48.97319
773.984	76.59948
774.166	84.95917
774.347	123.57145
774.529	103.14018
774.71	27.44843
774.891	77.09382
775.073	74.44365
775.254	120.869
775.436	62.23752
775.617	130.23963
775.799	76.51325
775.98	126.06438
776.161	123.03751
776.343	104.50676
776.524	75.97747
776.705	72.05441
776.886	43.58166
777.068	84.27814
777.249	143.21311
777.43	124.73131
777.611	55.6144
777.793	80.2198
777.974	121.02061
778.155	68.92919
778.336	66.35934
778.517	125.16307
778.698	63.68607
778.879	34.7535
779.061	19.2107
779.242	96.86877
779.423	87.91717
779.604	62.78036
779.785	78.33177
779.966	89.69417
780.147	106.18072
780.328	107.33535
780.509	145.82037
780.69	106.82328
780.871	67.65968
781.051	43.08151
781.232	89.94424
781.413	91.51033
781.594	67.32974
781.775	71.53626
781.956	66.75404
782.137	36.39804
782.317	64.81606
782.498	86.2099
782.679	92.43758
782.86	82.68642
783.04	65.87564
783.221	95.37563
783.402	130.08584
783.583	84.97819
783.763	101.84292
783.944	76.8527
784.124	49.73882
784.305	128.40038
784.486	101.81419
784.666	77.62117
784.847	48.84188
785.027	164.72202
785.208	64.28233
785.388	59.20762
785.569	63.09409
785.749	73.17854
785.93	67.8999
786.11	42.9438
786.291	94.46966
786.471	94.59442
786.652	104.74218
786.832	83.75581
787.012	89.64143
787.193	48.60609
787.373	79.97361
787.553	70.5605
787.734	88.82735
787.914	70.68841
788.094	88.47291
788.275	83.55958
788.455	67.33218
788.635	48.03611
788.815	84.41089
788.995	50.07976
789.176	48.05104
789.356	60.38934
789.536	68.12689
789.716	87.03577
789.896	60.64687
790.076	66.70621
790.256	85.37325
790.436	30.24718
790.616	56.56423
790.796	86.89895
790.976	66.34151
791.156	71.52647
791.336	92.38497
791.516	88.43723
791.696	72.00103
791.876	44.58899
792.056	93.60679
792.236	103.71641
792.416	92.9593
792.596	92.85455
792.776	101.19084
792.956	95.23681
793.135	125.38343
793.315	56.76135
793.495	111.89935
793.675	97.6625
793.854	103.49849
794.034	101.51421
794.214	51.21842
794.394	104.60656
794.573	111.09952
794.753	83.78205
794.933	65.97805
795.112	81.81704
795.292	97.72916
795.472	124.97884
795.651	49.71566
795.831	78.68094
796.01	67.54947
796.19	68.89546
796.369	69.88292
796.549	92.37794
796.728	74.83055
796.908	50.29608
797.087	54.40078
797.267	82.01014
797.446	51.84548
797.626	85.93076
797.805	86.66566
797.984	61.4744
798.164	88.11318
798.343	59.49654
798.522	82.68365
798.702	83.26287
798.881	52.74824
799.06	77.06198
799.239	36.39328
799.419	51.93445
799.598	121.48001
799.777	97.7112
799.956	109.91263
800.136	72.22757
800.315	64.34832
800.494	86.32103
800.673	103.99835
800.852	109.31523
801.031	112.90235
801.21	97.44177
801.389	63.23112
801.568	90.03902
801.747	135.3339
801.926	81.41382
802.105	119.86241
802.284	70.80098
802.463	115.64537
802.642	93.07056
802.821	91.47864
803	116.53722
803.179	103.7401
803.358	117.56781
803.537	68.68499
803.716	99.02599
803.895	63.92066
804.073	80.27662
804.252	69.02502
804.431	98.89856
804.61	86.06518
804.789	115.12768
804.967	74.33453
805.146	68.11564
805.325	146.12374
805.503	96.88991
805.682	47.58193
805.861	158.11911
806.039	116.46279
806.218	70.04984
806.397	92.95722
806.575	92.56657
806.754	89.11635
806.932	62.09663
807.111	131.01938
807.289	107.46767
807.468	93.16859
807.646	106.92936
807.825	90.9941
808.003	95.41557
808.182	110.74331
808.36	94.11077
808.539	71.31882
808.717	123.54868
808.895	63.42377
809.074	96.51608
809.252	79.90016
809.43	113.19521
809.609	129.96416
809.787	134.11481
809.965	89.07318
810.144	93.7199
810.322	77.51084
810.5	106.38573
810.678	87.25715
810.856	155.29939
811.035	122.13832
811.213	127.51082
811.391	118.46742
811.569	87.79394
811.747	192.29341
811.925	145.29058
812.103	87.49233
812.281	73.30948
812.459	162.76984
812.637	136.35553
812.816	132.74782
812.994	158.18207
813.171	122.02258
813.349	120.28841
813.527	150.88509
813.705	143.05983
813.883	149.18299
814.061	134.43313
814.239	150.83866
814.417	176.21417
814.595	114.10909
814.773	115.86037
814.95	111.32533
815.128	106.49911
815.306	83.51969
815.484	95.84321
815.662	70.4913
815.839	64.57405
816.017	82.70531
816.195	118.02743
816.372	93.56183
816.55	141.56598
816.728	147.2003
816.905	91.29546
817.083	134.85604
817.261	103.02218
817.438	190.66535
817.616	165.96025
817.793	86.25646
817.971	116.16884
818.148	123.14704
818.326	140.46146
818.503	111.07357
818.681	143.98827
818.858	79.14126
819.036	102.43671
819.213	109.17353
819.391	73.06459
819.568	71.07177
819.745	60.44504
819.923	104.42291
820.1	70.21145
820.277	61.59948
820.455	72.96458
820.632	75.93742
820.809	80.26802
820.986	50.28457
821.164	41.78604
821.341	36.13839
821.518	50.01761
821.695	37.72385
821.872	35.36992
822.05	31.50267
822.227	26.91876
822.404	28.31235
822.581	30.66766
822.758	28.72397
822.935	28.62657
823.112	31.42371
823.289	27.22307
823.466	32.23599
823.643	32.18402
823.82	36.5961
823.997	35.01076
824.174	41.56242
824.351	51.75527
824.528	50.29347
824.705	48.75006
824.882	51.5019
825.059	65.65355
825.236	51.18668
825.412	51.33791
825.589	62.39905
825.766	80.02074
825.943	56.57098
826.12	62.20137
826.296	44.26927
826.473	51.34261
826.65	50.16216
826.827	59.64113
827.003	42.17471
827.18	45.15281
827.357	49.18964
827.533	43.85618
827.71	27.96159
827.887	40.61627
828.063	45.71942
828.24	41.09453
828.416	54.19111
828.593	46.83528
828.769	62.57907
828.946	67.94943
829.122	72.12781
829.299	80.35636
829.475	47.88502
829.652	76.91768
829.828	117.42506
830.005	78.66827
830.181	108.73956
830.357	83.87191
830.534	99.01648
830.71	84.7544
830.886	116.07298
831.063	105.69557
831.239	141.50604
831.415	64.78074
831.592	126.64079
831.768	83.82077
831.944	67.06456
832.12	135.80911
832.296	124.83513
832.473	105.69304
832.649	73.41206
832.825	97.75649
833.001	59.05607
833.177	79.57655
833.353	72.51393
833.529	43.71668
833.705	58.12125
833.881	44.20741
834.058	43.54825
834.234	43.92419
834.41	47.57294
834.586	38.01153
834.761	43.90739
834.937	51.51656
835.113	52.30445
835.289	47.55255
835.465	59.73342
835.641	55.51281
835.817	61.34784
835.993	110.02879
836.169	60.68049
836.344	86.30934
836.52	98.91107
836.696	114.80064
836.872	74.75441
837.048	203.68266
837.223	87.9401
837.399	193.89187
837.575	150.27548
837.75	131.53378
837.926	185.91832
838.102	286.85548
838.277	218.97438
838.453	297.17344
838.628	295.28415
838.804	98.19208
838.98	265.22855
839.155	146.68206
839.331	167.93688
839.506	119.298
839.682	112.66926
839.857	161.14064
840.033	170.47006
840.208	80.4908
840.384	49.15599
840.559	86.66187
840.734	135.35001
840.91	175.88528
841.085	121.82302
841.26	114.82577
841.436	129.53572
841.611	106.88867
841.786	157.96632
841.962	244.05358
842.137	168.73928
842.312	112.9076
842.487	154.71614
842.663	146.78902
842.838	131.34191
843.013	580.28066
843.188	341.29295
843.363	259.38781
843.538	518.16687
843.714	511.37812
843.889	479.52041
844.064	532.35791
844.239	291.98367
844.414	591.29036
844.589	317.57399
844.764	741.26769
844.939	491.43563
845.114	438.44364
845.289	698.28938
845.464	822.4019
845.639	746.90338
845.814	256.32043
845.989	508.57415
846.163	397.49372
846.338	729.51215
846.513	665.97583
846.688	376.71704
846.863	805.80144
847.038	402.82568
847.212	328.85755
847.387	775.37551
847.562	416.26483
847.737	607.34265
847.911	298.20735
848.086	249.58413
848.261	507.17464
848.435	348.64584
848.61	543.45095
848.785	296.01469
848.959	545.86655
849.134	689.11176
849.308	1111.46321
849.483	683.77432
849.658	715.08162
849.832	391.99679
850.007	266.03381
850.181	1107.86774
850.356	673.82194
850.53	951.81624
850.705	400.28895
850.879	283.43975
851.053	521.54032
851.228	432.2006
851.402	938.18828
851.577	674.66178
851.751	829.81399
851.925	427.01009
852.099	325.05898
852.274	310.47788
852.448	397.25895
852.622	1051.06943
852.797	420.69626
852.971	482.90668
853.145	902.01968
853.319	1007.38164
853.493	1243.92223
853.668	480.54114
853.842	1540.68111
854.016	1130.69023
854.19	1645.25642
854.364	676.41663
854.538	618.91143
854.712	777.55814
854.886	393.65149
855.06	396.34865
855.234	195.77718
855.408	837.26682
855.582	599.9344
855.756	968.05138
855.93	587.41489
856.104	698.49724
856.278	806.38268
856.452	387.25432
856.626	703.47128
856.8	1163.34497
856.973	1125.45885
857.147	1161.97455
857.321	1521.64099
857.495	575.0912
857.669	834.12487
857.842	677.91374
858.016	515.07706
858.19	400.96647
858.364	1333.95024
858.537	662.69015
858.711	1282.98404
858.885	885.69601
859.058	314.46268
859.232	298.68557
859.405	376.98303
859.579	797.82262
859.753	661.78886
859.926	949.70311
860.1	535.23807
860.273	1131.01817
860.447	956.41225
860.62	665.10241
860.794	845.69157
860.967	661.30097
861.141	578.84119
861.314	763.03658
861.487	682.90035
861.661	559.51372
861.834	854.14364
862.008	1144.78729
862.181	865.77079
862.354	1496.97115
862.528	683.36067
862.701	457.31459
862.874	383.06353
863.047	504.05508
863.221	543.64316
863.394	339.19211
863.567	500.71104
863.74	166.47565
863.913	1066.6817
864.087	624.55766
864.26	667.50468
864.433	734.92325
864.606	1015.72539
864.779	1737.92558
864.952	320.29528
865.125	1065.04006
865.298	634.16326
865.471	642.85509
865.644	990.14014
865.817	605.63529
865.99	970.9836
866.163	909.04494
866.336	458.03602
866.509	465.44378
866.682	604.78883
866.855	1353.50619
867.028	200.05433
867.2	653.01879
867.373	136.74965
867.546	485.34056
867.719	1268.89789
867.892	661.49864
868.064	442.19654
868.237	485.98857
868.41	499.68569
868.583	263.46457
868.755	326.90895
868.928	702.12577
869.101	936.41728
869.273	1734.53153
869.446	504.97654
869.619	976.23252
869.791	473.9041
869.964	812.48026
870.136	1068.19329
870.309	423.11231
870.481	399.09411
870.654	410.37374
870.826	446.39582
870.999	345.36478
871.171	539.29306
871.344	314.14342
871.516	466.33569
871.689	455.77581
871.861	504.49111
872.033	375.19295
872.206	362.68053
872.378	517.42062
872.55	499.42384
872.723	412.79325
872.895	654.22001
873.067	559.19041
873.24	508.71761
873.412	492.32124
873.584	378.92288
873.756	683.12381
873.928	757.44961
874.101	396.09992
874.273	527.00963
874.445	174.8417
874.617	343.4527
874.789	380.67456
874.961	389.54059
875.133	494.15317
875.305	545.33372
875.477	419.81654
875.649	230.30438
875.821	323.93576
875.993	735.67961
876.165	380.83883
876.337	554.10472
876.509	510.17332
876.681	472.73698
876.853	472.7452
877.025	769.15172
877.197	280.17463
877.369	332.7188
877.541	432.28262
877.712	116.66141
877.884	229.26571
878.056	540.57169
878.228	235.50232
878.4	519.85065
878.571	248.87549
878.743	180.28249
878.915	322.0627
879.086	171.20322
879.258	211.67858
879.43	195.36556
879.601	168.84661
879.773	159.29055
879.945	45.23241
880.116	65.25985
880.288	44.19713
880.459	47.00117
880.631	35.12935
880.802	41.98652
880.974	38.84167
881.145	29.83613
881.317	36.59736
881.488	30.7182
881.66	33.26517
881.831	31.43102
882.002	41.32685
882.174	32.32571
882.345	39.75761
882.517	26.72876
882.688	47.53604
882.859	38.99399
883.03	63.34419
883.202	60.26964
883.373	54.36918
883.544	59.56693
883.715	88.73986
883.887	88.40994
884.058	77.05821
884.229	102.723
884.4	99.46141
884.571	129.59515
884.742	101.81739
884.914	118.91772
885.085	166.1497
885.256	209.24247
885.427	187.62348
885.598	194.8119
885.769	216.19578
885.94	202.70882
886.111	137.60091
886.282	219.06722
886.453	233.12661
886.624	185.95127
886.795	264.99471
886.966	239.21834
887.136	284.70135
887.307	220.7358
887.478	424.99028
887.649	370.21911
887.82	409.63939
887.991	264.40465
888.161	441.91817
888.332	433.82907
888.503	250.13312
888.674	474.11673
888.844	714.11898
889.015	721.19341
889.186	332.98649
889.356	660.79541
889.527	359.12032
889.698	1024.43341
889.868	321.55182
890.039	574.96522
890.209	379.19353
890.38	642.87143
890.551	498.30747
890.721	831.64238
890.892	537.32044
891.062	1130.27527
891.233	549.79033
891.403	789.66328
891.574	594.88261
891.744	410.36534
891.914	383.51929
892.085	535.4561
892.255	154.45548
892.425	559.56883
892.596	424.43905
892.766	533.49192
892.936	783.74332
893.107	465.43054
893.277	243.86251
893.447	211.92556
893.618	151.02418
893.788	251.05588
893.958	133.23939
894.128	112.79382
894.298	131.48698
894.468	167.90326
894.639	85.66289
894.809	53.44892
894.979	80.12944
895.149	110.83619
895.319	87.89177
895.489	116.01051
895.659	162.3017
895.829	92.7376
895.999	112.0008
896.169	98.64059
896.339	137.75282
896.509	270.14646
896.679	256.58704
896.849	287.35498
897.019	366.96868
897.189	358.61208
897.358	303.49573
897.528	529.80237
897.698	242.84723
897.868	385.679
898.038	899.29261
898.208	1041.74331
898.377	266.83928
898.547	1836.75073
898.717	3339.08696
898.886	932.54393
899.056	795.19058
899.226	2124.79021
899.395	2294.71484
899.565	2577.30375
899.735	4691.61702
899.904	1738.46582
900.074	5962.00998
900.244	734.4681
900.413	3593.09046
900.583	908.33817
900.752	-2091.3856
900.922	1122.8568
901.091	416.51814
901.261	2179.85778
901.43	1333.25484
901.599	3402.87177
901.769	2801.88758
901.938	2767.36991
902.108	1019.39586
902.277	1455.22754
902.446	553.72304
902.616	684.77622
902.785	629.85426
902.954	851.80066
903.124	519.63016
903.293	370.56291
903.462	150.29128
903.631	226.00712
903.801	157.87681
903.97	91.22351
904.139	123.74029
904.308	103.13013
904.477	89.11376
904.646	55.90142
904.816	81.2668
904.985	119.04906
905.154	170.13212
