Data from WindowProjectSample_Transmission__72__00072.txt Node

Date: Mon May 05 18:41:43 EDT 2025
User: jessi
Spectrometer: SR400872
Trigger mode: 0
Integration Time (sec): 5.000010E-1
Scans to average: 20
Electric dark correction enabled: true
Nonlinearity correction enabled: true
Boxcar width: 0
XAxis mode: Wavelengths
Number of Pixels in Spectrum: 3648
>>>>>Begin Spectral Data<<<<<
184.909	21523.54081
185.132	-5376.36868
185.355	-3128.04192
185.578	-18232.20631
185.801	1584.54685
186.024	10885.15492
186.247	-1785.85337
186.47	1113.74805
186.693	345.30087
186.916	319.7816
187.139	-3794.78976
187.362	3373.78809
187.585	4244.62536
187.808	4082.50295
188.031	-50.41204
188.254	-55227.45845
188.476	-738.5085
188.699	6468.38038
188.922	646.13784
189.145	-16094.41336
189.368	-731.4168
189.591	-1547.77444
189.813	3230.0311
190.036	-53341.78748
190.259	-937.86525
190.482	-4564.42622
190.705	7169.943
190.927	-2556.02899
191.15	13770.58304
191.373	3670.98858
191.595	-9075.46678
191.818	-4214.9633
192.041	-6089.33675
192.263	-3438.55961
192.486	-820.40321
192.709	-4020.59109
192.931	8202.33542
193.154	-29556.62222
193.377	-2815.8598
193.599	-2537.61217
193.822	-9663.0677
194.044	-2062.96411
194.267	1187.73318
194.489	254.98411
194.712	-46940.13328
194.934	-32036.7889
195.157	1296.60892
195.379	1591.67139
195.602	-6757.3235
195.824	-1282.08039
196.047	-10040.19678
196.269	2803.07754
196.492	-6846.66772
196.714	29380.16447
196.936	-8871.87829
197.159	-1208.19987
197.381	1319.26485
197.604	487.84628
197.826	12237.50803
198.048	-11260.44471
198.271	-2777.12392
198.493	7860.10916
198.715	2361.17068
198.938	-546.59164
199.16	7323.4568
199.382	-102638.83052
199.604	2671.86066
199.827	-1102.86619
200.049	-2820.73106
200.271	15126.79206
200.493	1262.80367
200.715	-38987.79346
200.938	-6167.16711
201.16	-4415.98565
201.382	21663.62532
201.604	2479.39364
201.826	2327.74815
202.048	-1931.32843
202.27	-1967.75235
202.492	-37572.7717
202.715	3024.99174
202.937	-4733.43514
203.159	-6558.72379
203.381	1582.94246
203.603	6664.85215
203.825	6842.8044
204.047	2288.81888
204.269	-3025.30227
204.491	2270.1772
204.713	6156.06374
204.935	-501449.33894
205.156	1261.27349
205.378	-2948.88476
205.6	1686.88545
205.822	157654.30711
206.044	-1100.45902
206.266	1594.0571
206.488	4886.54251
206.71	-5328.61077
206.932	1149.25271
207.153	12260.71653
207.375	-7021.65125
207.597	-39378.07711
207.819	-2800.54981
208.041	2416.09234
208.262	502.98278
208.484	744.28799
208.706	-811.20469
208.927	-930.31386
209.149	574.61463
209.371	-3009.03904
209.593	-247.85614
209.814	-818.77693
210.036	543.62948
210.258	-635.92889
210.479	1641.82982
210.701	1665.82088
210.922	3533.63715
211.144	-3816.8318
211.366	2172.58547
211.587	8361.11514
211.809	-8328.82513
212.03	2446.38346
212.252	461.64798
212.473	2196.71618
212.695	-6828.88938
212.916	2771.32952
213.138	-672.39812
213.359	3744.65056
213.581	5315.4484
213.802	-802.07418
214.024	1175.93069
214.245	2218.13194
214.466	2718.27599
214.688	-3210.02822
214.909	-1257.2182
215.131	-1804.05277
215.352	-3240.59044
215.573	14883.88807
215.795	5168.06227
216.016	5557.05815
216.237	874.08573
216.459	3713.33405
216.68	1934.13139
216.901	5291.38253
217.122	-3290.58849
217.344	-11346.75843
217.565	3509.98809
217.786	9166.6798
218.007	16000.04097
218.228	-792.44151
218.45	5886.47559
218.671	778.255
218.892	38348.49838
219.113	1628.12086
219.334	-408.84278
219.555	10508.20135
219.776	3224.71693
219.997	23169.98474
220.219	2962.6528
220.44	-11304.42032
220.661	485.57534
220.882	1506.05819
221.103	-1153.9609
221.324	2358.66291
221.545	2416.18461
221.766	-9168.30779
221.987	943.7914
222.208	1617.6933
222.429	4445.75355
222.65	203.80722
222.87	18699.28891
223.091	761.35661
223.312	592.17402
223.533	1333.23792
223.754	1525.73933
223.975	1354.50833
224.196	2144.8673
224.417	1405.06861
224.637	659.92737
224.858	86.28636
225.079	1144.48047
225.3	667.63435
225.521	3802.90725
225.741	506.18152
225.962	503.8986
226.183	155.01508
226.404	670.64009
226.624	429.21469
226.845	684.2677
227.066	420.90427
227.286	257.75696
227.507	126.81387
227.728	102.93034
227.948	239.89594
228.169	75.77062
228.389	87.57744
228.61	49.23152
228.831	66.17779
229.051	0.58952
229.272	41.16291
229.492	57.84791
229.713	13.46742
229.933	37.3664
230.154	32.38474
230.374	55.7117
230.595	41.30024
230.815	24.39618
231.036	40.05968
231.256	-9.07537
231.477	70.85869
231.697	39.29346
231.917	44.39478
232.138	54.94648
232.358	108.45926
232.579	106.44414
232.799	18.10455
233.019	102.1384
233.24	114.49647
233.46	41.74812
233.68	65.35291
233.901	44.16288
234.121	27.86791
234.341	15.23563
234.561	-3.81068
234.782	19.66563
235.002	69.5284
235.222	-1.89289
235.442	66.252
235.662	33.42848
235.883	63.75244
236.103	52.8332
236.323	37.21357
236.543	27.95915
236.763	40.17888
236.983	43.3387
237.203	42.47612
237.423	64.7615
237.643	90.20552
237.864	74.39096
238.084	19.55199
238.304	26.56775
238.524	45.94699
238.744	39.42673
238.964	77.45407
239.184	63.4241
239.404	64.87453
239.624	34.29095
239.843	62.19734
240.063	37.14951
240.283	21.43286
240.503	25.04444
240.723	24.86952
240.943	13.83269
241.163	20.20608
241.383	15.31389
241.603	8.63685
241.822	10.33554
242.042	6.29398
242.262	8.27486
242.482	9.72783
242.702	10.56621
242.921	2.90584
243.141	6.58387
243.361	6.32416
243.581	9.59706
243.8	7.69348
244.02	5.46754
244.24	9.92959
244.459	9.66046
244.679	18.96148
244.899	11.70266
245.118	13.57644
245.338	12.23294
245.558	13.8778
245.777	8.71975
245.997	10.93444
246.216	11.274
246.436	6.24816
246.655	4.72936
246.875	3.47437
247.094	6.50108
247.314	2.37374
247.533	3.74504
247.753	4.50773
247.972	3.45935
248.192	1.14879
248.411	1.99907
248.631	3.65815
248.85	4.60053
249.07	3.958
249.289	5.78236
249.508	5.09808
249.728	6.86402
249.947	7.6678
250.166	8.8293
250.386	4.62742
250.605	6.87563
250.824	10.80402
251.044	8.22152
251.263	29.43482
251.482	14.78125
251.701	11.75638
251.921	-0.14176
252.14	3.2573
252.359	3.90709
252.578	10.35565
252.798	3.6304
253.017	9.36759
253.236	4.43533
253.455	5.99912
253.674	10.52667
253.893	4.63766
254.112	7.75028
254.331	11.31984
254.551	8.74523
254.77	4.09291
254.989	13.64014
255.208	10.18693
255.427	15.97595
255.646	11.90166
255.865	22.7778
256.084	8.66753
256.303	10.84262
256.522	13.41666
256.741	2.74329
256.96	3.52257
257.179	8.79854
257.397	11.3403
257.616	5.97962
257.835	5.8759
258.054	15.63772
258.273	10.56951
258.492	11.43242
258.711	6.94635
258.93	2.87762
259.148	4.87295
259.367	4.71253
259.586	5.49567
259.805	2.34237
260.023	5.41489
260.242	4.06167
260.461	2.91728
260.68	1.27144
260.898	4.66043
261.117	1.39476
261.336	1.1046
261.554	3.7326
261.773	3.54345
261.992	0.98395
262.21	3.37169
262.429	3.75447
262.648	7.57023
262.866	8.17886
263.085	5.78796
263.303	4.89636
263.522	9.08879
263.74	8.9137
263.959	15.78676
264.178	7.18328
264.396	6.4792
264.615	4.8264
264.833	10.87547
265.051	8.93509
265.27	10.91338
265.488	11.47937
265.707	6.49384
265.925	11.23524
266.144	5.14537
266.362	5.78604
266.58	5.23115
266.799	4.90501
267.017	6.22318
267.235	5.39264
267.454	3.39202
267.672	1.67098
267.89	4.09662
268.109	4.31431
268.327	4.47708
268.545	1.155
268.763	4.0245
268.982	1.64042
269.2	4.47174
269.418	3.38429
269.636	1.84921
269.854	4.86282
270.073	3.01815
270.291	1.75876
270.509	1.8723
270.727	4.68068
270.945	7.61668
271.163	7.26822
271.381	1.38246
271.599	2.9936
271.817	5.26138
272.036	1.66634
272.254	3.31619
272.472	2.49523
272.69	2.57939
272.908	2.46394
273.126	4.63515
273.344	5.45812
273.562	1.83964
273.779	2.60124
273.997	3.99043
274.215	4.23054
274.433	2.85549
274.651	4.5032
274.869	4.89178
275.087	3.04192
275.305	4.20555
275.523	2.5827
275.74	3.17216
275.958	5.48071
276.176	8.38529
276.394	2.56299
276.612	3.29013
276.829	3.19505
277.047	2.88447
277.265	3.18647
277.483	3.70927
277.7	4.48243
277.918	3.5045
278.136	6.43612
278.353	2.87956
278.571	1.78033
278.789	4.47108
279.006	1.1054
279.224	3.04485
279.442	5.08819
279.659	3.39046
279.877	2.71621
280.094	5.86223
280.312	1.02206
280.529	3.51989
280.747	1.20289
280.964	2.80966
281.182	5.90009
281.399	2.65932
281.617	3.72999
281.834	2.60465
282.052	1.97181
282.269	3.31936
282.487	2.48209
282.704	2.17427
282.921	2.31258
283.139	3.43857
283.356	4.06119
283.574	4.03879
283.791	1.94518
284.008	5.79508
284.226	3.08349
284.443	3.35052
284.66	4.42067
284.877	3.6497
285.095	2.11602
285.312	1.70744
285.529	0.88887
285.746	0.86546
285.964	2.20381
286.181	1.52759
286.398	1.94124
286.615	2.7393
286.832	2.60263
287.05	0.55069
287.267	1.82483
287.484	1.86801
287.701	2.66716
287.918	2.74735
288.135	2.61189
288.352	1.29288
288.569	1.50302
288.786	2.48766
289.003	2.10847
289.22	3.10173
289.437	1.66091
289.654	3.01335
289.871	3.25
290.088	3.03139
290.305	2.17131
290.522	1.75978
290.739	2.05357
290.956	3.17441
291.173	3.62406
291.39	3.53659
291.607	2.37886
291.824	1.79565
292.04	1.2824
292.257	3.05057
292.474	3.42038
292.691	1.99531
292.908	1.02567
293.125	1.68096
293.341	1.02314
293.558	5.02987
293.775	1.99435
293.992	1.9819
294.208	0.93923
294.425	1.33842
294.642	2.06628
294.858	2.55093
295.075	0.67802
295.292	2.01527
295.508	2.31487
295.725	4.11911
295.942	1.79873
296.158	1.50628
296.375	2.25369
296.591	1.62695
296.808	1.87874
297.024	2.17732
297.241	2.45941
297.458	2.64092
297.674	0.4412
297.891	2.04386
298.107	1.80609
298.323	1.29472
298.54	3.46604
298.756	1.67562
298.973	1.01583
299.189	3.55511
299.406	1.58543
299.622	3.23393
299.838	3.24383
300.055	2.9928
300.271	1.2782
300.487	1.39634
300.704	1.7951
300.92	1.21716
301.136	4.81815
301.353	3.28152
301.569	2.5084
301.785	2.72469
302.001	3.07967
302.218	2.76869
302.434	2.9503
302.65	1.38304
302.866	2.18204
303.083	4.62409
303.299	4.62726
303.515	2.79988
303.731	2.93015
303.947	1.2631
304.163	2.04869
304.379	2.75991
304.595	3.06192
304.812	1.94888
305.028	2.02724
305.244	2.33554
305.46	3.21665
305.676	3.39172
305.892	3.86732
306.108	3.16132
306.324	2.22294
306.54	4.5675
306.756	3.2034
306.972	3.17733
307.187	2.62276
307.403	4.15234
307.619	2.27588
307.835	3.9342
308.051	4.17674
308.267	1.87675
308.483	3.89457
308.699	3.2762
308.914	2.84272
309.13	2.61547
309.346	1.47503
309.562	1.83107
309.778	1.55819
309.993	3.29458
310.209	2.84234
310.425	1.7342
310.641	2.60552
310.856	1.90348
311.072	1.68382
311.288	2.52492
311.503	2.89385
311.719	1.1991
311.935	1.13057
312.15	3.3351
312.366	2.86358
312.581	3.24028
312.797	2.73786
313.013	3.59748
313.228	2.25788
313.444	2.76498
313.659	2.29507
313.875	3.33144
314.09	2.68986
314.306	4.09216
314.521	3.60243
314.737	3.49447
314.952	2.82908
315.168	2.93224
315.383	3.28665
315.599	2.70394
315.814	2.63959
316.029	3.53759
316.245	1.94697
316.46	1.37802
316.675	3.96971
316.891	4.51534
317.106	5.68967
317.321	3.19819
317.537	3.5574
317.752	3.72332
317.967	3.99375
318.183	2.15635
318.398	2.61553
318.613	3.78426
318.828	4.19984
319.043	3.77797
319.259	2.70295
319.474	3.28148
319.689	4.17174
319.904	1.49603
320.119	3.8674
320.334	3.43572
320.549	2.76659
320.765	4.07483
320.98	3.38107
321.195	3.60105
321.41	3.09285
321.625	3.76439
321.84	4.77494
322.055	4.67695
322.27	2.5519
322.485	2.06718
322.7	3.42171
322.915	3.95583
323.13	2.46901
323.345	4.6318
323.56	4.23548
323.775	3.77025
323.989	3.51054
324.204	3.3738
324.419	4.18492
324.634	2.11658
324.849	2.97424
325.064	6.24346
325.279	4.08094
325.493	3.58213
325.708	4.00477
325.923	2.52912
326.138	2.71655
326.352	4.77485
326.567	4.13719
326.782	2.76296
326.997	2.72313
327.211	3.76187
327.426	3.6273
327.641	3.04682
327.855	1.94809
328.07	3.68785
328.285	4.93946
328.499	2.72615
328.714	3.44012
328.928	3.77667
329.143	3.10424
329.358	4.36824
329.572	4.25015
329.787	4.68605
330.001	5.65756
330.216	2.22744
330.43	5.19313
330.645	4.81519
330.859	4.19386
331.074	2.62437
331.288	3.53632
331.503	4.74699
331.717	2.43118
331.931	3.53242
332.146	3.53027
332.36	5.13944
332.575	3.64451
332.789	3.57105
333.003	3.60977
333.218	3.82863
333.432	2.85415
333.646	4.18256
333.86	5.00143
334.075	4.81903
334.289	3.13758
334.503	2.69401
334.717	4.10427
334.932	3.9195
335.146	4.56465
335.36	3.04829
335.574	4.25601
335.788	3.91005
336.003	4.44057
336.217	4.18002
336.431	4.07144
336.645	3.0287
336.859	2.42851
337.073	3.3785
337.287	3.68184
337.501	2.3354
337.715	3.78509
337.929	4.1507
338.143	2.39999
338.357	3.23914
338.571	2.85405
338.785	4.05477
338.999	3.16576
339.213	3.19539
339.427	2.47456
339.641	4.8242
339.855	3.37097
340.069	3.04765
340.283	4.46637
340.497	5.29685
340.711	4.08376
340.924	3.5284
341.138	2.71459
341.352	2.52808
341.566	3.69551
341.78	2.30612
341.993	3.23086
342.207	2.90204
342.421	3.92739
342.635	3.42265
342.848	3.26486
343.062	1.72551
343.276	3.08616
343.49	5.37813
343.703	2.92516
343.917	4.58676
344.131	4.5716
344.344	3.14333
344.558	3.31445
344.771	2.57432
344.985	4.99839
345.199	5.02283
345.412	3.90668
345.626	4.01606
345.839	2.21598
346.053	2.80162
346.266	2.76812
346.48	4.28232
346.693	3.94666
346.907	3.89178
347.12	2.9471
347.334	3.90408
347.547	3.96384
347.76	3.4697
347.974	4.59223
348.187	3.86737
348.401	3.37707
348.614	3.12544
348.827	3.46181
349.041	4.1799
349.254	2.35154
349.467	3.31573
349.681	2.84122
349.894	3.06593
350.107	4.78481
350.32	5.29812
350.534	2.5102
350.747	3.30416
350.96	3.07306
351.173	3.16036
351.386	3.45944
351.6	3.24372
351.813	3.24264
352.026	3.53244
352.239	2.81497
352.452	3.28287
352.665	4.68463
352.878	3.79118
353.092	5.41321
353.305	4.38306
353.518	3.88412
353.731	3.0813
353.944	4.52873
354.157	3.40713
354.37	3.17304
354.583	2.86415
354.796	2.58163
355.009	4.5013
355.222	4.02036
355.435	3.81184
355.647	4.5432
355.86	3.12526
356.073	3.80494
356.286	3.28734
356.499	4.51012
356.712	4.1565
356.925	4.1989
357.138	4.44441
357.35	3.04769
357.563	3.59476
357.776	3.91266
357.989	3.71744
358.201	4.14275
358.414	4.0394
358.627	4.92023
358.84	3.70668
359.052	2.81857
359.265	3.20324
359.478	4.70563
359.69	2.00295
359.903	4.45565
360.116	4.60345
360.328	2.72942
360.541	4.48137
360.753	3.24775
360.966	3.51669
361.179	3.6135
361.391	3.44446
361.604	3.31228
361.816	3.53617
362.029	3.49528
362.241	3.2593
362.454	3.52908
362.666	3.11694
362.879	4.06184
363.091	3.53716
363.304	3.48319
363.516	3.69837
363.728	3.14133
363.941	4.12805
364.153	3.76134
364.366	2.35455
364.578	3.09614
364.79	3.94794
365.003	3.86865
365.215	3.35076
365.427	4.29891
365.639	4.54038
365.852	3.91677
366.064	5.43192
366.276	3.5891
366.488	4.11697
366.701	3.58592
366.913	3.62293
367.125	3.61355
367.337	3.20813
367.549	3.39862
367.762	3.85771
367.974	3.81675
368.186	3.50063
368.398	4.49619
368.61	4.20155
368.822	4.34363
369.034	3.69069
369.246	4.45814
369.458	6.17555
369.67	3.21104
369.882	5.25771
370.094	2.61075
370.306	5.08713
370.518	3.64388
370.73	3.34852
370.942	3.39929
371.154	3.85628
371.366	3.62098
371.578	4.10002
371.79	3.44812
372.002	4.67144
372.214	5.38309
372.425	3.72182
372.637	4.95839
372.849	4.2092
373.061	2.47785
373.273	4.19519
373.484	4.19381
373.696	4.55862
373.908	2.42885
374.12	4.72775
374.331	4.23991
374.543	3.39165
374.755	3.29171
374.967	4.02279
375.178	4.60915
375.39	3.69108
375.602	3.95338
375.813	2.82121
376.025	3.29474
376.236	4.01082
376.448	4.18753
376.66	3.6981
376.871	3.70154
377.083	4.74388
377.294	5.16217
377.506	3.65737
377.717	4.98112
377.929	4.22025
378.14	3.66081
378.352	4.22153
378.563	4.28087
378.775	4.87488
378.986	3.39053
379.197	3.94766
379.409	3.46515
379.62	4.49749
379.832	4.34354
380.043	3.80735
380.254	4.07704
380.466	3.31644
380.677	6.10481
380.888	5.39863
381.1	5.83722
381.311	5.92095
381.522	4.12255
381.733	6.1003
381.945	4.06279
382.156	4.14309
382.367	3.72821
382.578	6.09138
382.789	6.16103
383.001	3.68872
383.212	5.07526
383.423	5.27076
383.634	4.89491
383.845	4.6218
384.056	3.8098
384.267	4.17733
384.478	4.11409
384.69	3.36086
384.901	4.42255
385.112	4.34262
385.323	5.33426
385.534	4.47641
385.745	4.40161
385.956	4.42933
386.167	3.47198
386.378	4.53851
386.588	3.63097
386.799	3.53818
387.01	3.12131
387.221	4.66012
387.432	4.15625
387.643	5.43527
387.854	4.02688
388.065	4.05308
388.275	4.11909
388.486	3.82558
388.697	4.13028
388.908	3.91637
389.119	5.00825
389.329	5.26536
389.54	4.24325
389.751	4.51747
389.962	5.07018
390.172	4.30162
390.383	4.16035
390.594	3.83404
390.804	3.86325
391.015	3.91334
391.226	4.28761
391.436	4.58733
391.647	4.33281
391.858	4.58145
392.068	3.15062
392.279	3.52085
392.489	4.35483
392.7	4.93652
392.91	3.76287
393.121	3.74906
393.331	4.58355
393.542	4.96802
393.752	4.80756
393.963	4.49225
394.173	4.43493
394.384	4.62056
394.594	4.2708
394.804	3.59039
395.015	4.39671
395.225	4.59298
395.436	3.71234
395.646	4.64203
395.856	3.99732
396.067	3.49867
396.277	4.85833
396.487	4.62897
396.697	4.47316
396.908	4.70528
397.118	4.64759
397.328	4.4199
397.538	4.87809
397.749	3.81335
397.959	4.86177
398.169	4.67007
398.379	3.47714
398.589	4.75402
398.8	4.38892
399.01	4.4537
399.22	4.02706
399.43	5.80976
399.64	4.1675
399.85	4.7568
400.06	4.42397
400.27	3.82565
400.48	4.21924
400.69	5.31831
400.9	3.99974
401.11	3.69819
401.32	4.84139
401.53	4.12815
401.74	5.44577
401.95	4.76124
402.16	3.88238
402.37	4.55156
402.58	4.03415
402.79	4.76218
403	5.0491
403.209	3.8544
403.419	5.14435
403.629	3.86093
403.839	4.98721
404.049	4.95035
404.258	4.13992
404.468	3.83854
404.678	4.58846
404.888	5.10356
405.097	4.07843
405.307	4.35411
405.517	4.91548
405.727	4.71902
405.936	4.18129
406.146	4.70829
406.356	5.29065
406.565	4.36228
406.775	4.13005
406.984	4.07506
407.194	5.51588
407.404	4.46345
407.613	4.80419
407.823	5.05003
408.032	5.18891
408.242	5.18353
408.451	4.18203
408.661	4.43211
408.87	5.60855
409.08	3.97434
409.289	4.6938
409.499	4.68604
409.708	4.60511
409.918	3.36129
410.127	4.65997
410.336	5.5564
410.546	4.91077
410.755	4.22439
410.964	4.32145
411.174	3.92601
411.383	4.77017
411.592	4.77884
411.802	4.00927
412.011	4.97705
412.22	4.43303
412.429	5.63202
412.639	5.54196
412.848	5.2519
413.057	5.46924
413.266	5.47539
413.475	4.67287
413.685	4.8944
413.894	5.23857
414.103	5.36133
414.312	5.11996
414.521	4.43656
414.73	4.62981
414.939	5.95844
415.148	4.9407
415.357	4.79433
415.566	4.49141
415.776	4.41207
415.985	4.41927
416.194	5.14381
416.403	5.80119
416.611	3.92668
416.82	4.43485
417.029	4.83343
417.238	4.35158
417.447	4.209
417.656	4.52488
417.865	4.3843
418.074	4.55543
418.283	4.78897
418.492	5.26773
418.7	5.13762
418.909	5.90896
419.118	5.15023
419.327	5.39936
419.536	5.27582
419.744	5.11927
419.953	6.07984
420.162	6.22795
420.371	5.50823
420.579	5.64287
420.788	6.50962
420.997	6.55454
421.205	6.75098
421.414	6.52849
421.623	6.60248
421.831	6.24595
422.04	6.84001
422.249	6.02178
422.457	6.57883
422.666	5.93348
422.874	6.69777
423.083	6.73883
423.291	6.6864
423.5	6.53411
423.708	6.60846
423.917	7.07718
424.125	6.58982
424.334	6.37311
424.542	7.94934
424.751	7.41878
424.959	7.07002
425.167	7.34969
425.376	7.1888
425.584	6.26326
425.793	6.54149
426.001	5.60294
426.209	6.0238
426.418	5.14069
426.626	5.0717
426.834	4.84027
427.042	5.22053
427.251	4.94957
427.459	5.64506
427.667	5.28648
427.875	4.57901
428.084	4.8925
428.292	5.92258
428.5	5.52282
428.708	4.63099
428.916	4.58304
429.124	5.26066
429.333	4.98066
429.541	5.04173
429.749	5.16406
429.957	5.20274
430.165	6.80942
430.373	4.39319
430.581	5.35194
430.789	6.08425
430.997	5.14896
431.205	4.8136
431.413	5.42101
431.621	5.05064
431.829	5.70857
432.037	5.11746
432.245	5.56485
432.453	5.54355
432.661	5.13021
432.869	6.31006
433.076	4.91711
433.284	5.24531
433.492	5.66606
433.7	5.98038
433.908	5.21252
434.116	5.61535
434.323	5.53036
434.531	5.4344
434.739	5.79091
434.947	6.00961
435.154	5.9622
435.362	5.64128
435.57	5.49826
435.778	5.21209
435.985	5.7775
436.193	5.30977
436.401	6.27413
436.608	5.6575
436.816	5.35381
437.023	6.4163
437.231	6.41223
437.439	5.6864
437.646	5.89537
437.854	5.71004
438.061	5.94338
438.269	5.44861
438.476	5.91361
438.684	5.55292
438.891	5.39473
439.099	5.22888
439.306	5.01973
439.514	5.05392
439.721	5.97705
439.929	5.5247
440.136	6.29566
440.343	6.23377
440.551	6.14638
440.758	7.62088
440.965	6.52736
441.173	6.22047
441.38	6.04603
441.587	6.10375
441.795	5.8269
442.002	5.84908
442.209	5.80323
442.416	6.01895
442.624	6.05825
442.831	5.98116
443.038	5.57202
443.245	5.19262
443.452	5.60488
443.66	6.05827
443.867	5.44573
444.074	5.49534
444.281	5.44414
444.488	5.62707
444.695	5.74731
444.902	5.45083
445.109	6.34464
445.316	6.02985
445.523	6.25628
445.73	6.17023
445.937	6.96724
446.144	7.31317
446.351	7.5621
446.558	6.75668
446.765	8.16332
446.972	7.83733
447.179	7.29504
447.386	8.12217
447.593	6.7976
447.8	7.60339
448.007	6.54234
448.214	6.27989
448.42	5.87233
448.627	6.44397
448.834	5.87224
449.041	5.75565
449.248	5.73872
449.454	6.3182
449.661	6.83565
449.868	5.69821
450.075	5.7074
450.281	4.87792
450.488	5.36363
450.695	5.39831
450.901	5.49245
451.108	5.52407
451.315	6.39412
451.521	5.74306
451.728	6.44526
451.935	5.38198
452.141	5.73191
452.348	5.79762
452.554	5.79212
452.761	5.54791
452.967	6.70938
453.174	5.94071
453.38	6.06057
453.587	5.36247
453.793	5.97553
454	6.49168
454.206	7.06034
454.413	6.48444
454.619	6.10536
454.825	5.59669
455.032	6.34174
455.238	6.33789
455.445	5.32541
455.651	6.00156
455.857	5.0591
456.064	5.74369
456.27	5.77819
456.476	5.80681
456.682	5.3122
456.889	6.21931
457.095	6.24258
457.301	7.38513
457.507	6.00428
457.714	6.09802
457.92	6.05004
458.126	5.62362
458.332	5.92609
458.538	5.72742
458.744	5.8567
458.951	5.7223
459.157	7.51408
459.363	6.57633
459.569	6.81665
459.775	7.54858
459.981	7.00179
460.187	7.40713
460.393	7.86233
460.599	8.09139
460.805	7.37698
461.011	6.83332
461.217	7.05232
461.423	6.95014
461.629	6.34045
461.835	6.75465
462.041	6.33539
462.247	7.21094
462.453	6.2084
462.658	6.25463
462.864	6.74415
463.07	6.43115
463.276	6.30806
463.482	6.3189
463.688	6.95753
463.893	5.98737
464.099	6.1232
464.305	7.00646
464.511	5.97935
464.716	6.1221
464.922	6.70454
465.128	5.82526
465.333	7.15827
465.539	6.6747
465.745	6.32229
465.95	6.34811
466.156	7.86965
466.362	7.04937
466.567	6.40235
466.773	6.08759
466.978	7.32446
467.184	5.92708
467.389	5.47867
467.595	6.60794
467.8	6.05962
468.006	7.3311
468.211	7.1453
468.417	5.97976
468.622	6.74425
468.828	6.95009
469.033	6.70742
469.239	8.05243
469.444	6.3081
469.649	7.00535
469.855	6.41886
470.06	6.41985
470.266	6.04728
470.471	6.8039
470.676	6.6847
470.881	5.64299
471.087	7.19265
471.292	8.04547
471.497	5.85084
471.703	6.46211
471.908	6.24413
472.113	6.56348
472.318	7.08087
472.523	6.03937
472.729	6.73644
472.934	6.92276
473.139	6.29826
473.344	6.86229
473.549	7.25057
473.754	6.26956
473.959	8.16253
474.164	6.23385
474.369	6.55619
474.575	7.12728
474.78	6.7021
474.985	6.34116
475.19	5.69621
475.395	6.23334
475.6	6.60732
475.804	7.42126
476.009	6.57725
476.214	6.52477
476.419	6.39804
476.624	5.76837
476.829	6.15757
477.034	6.93506
477.239	6.11102
477.444	6.90195
477.648	6.83468
477.853	6.85326
478.058	6.41738
478.263	6.15471
478.468	6.04079
478.672	6.11284
478.877	7.38506
479.082	7.47404
479.287	6.88784
479.491	6.65175
479.696	6.27128
479.901	7.09019
480.105	7.11679
480.31	6.3958
480.515	6.81106
480.719	7.87791
480.924	6.45178
481.128	6.16578
481.333	6.75825
481.538	6.84854
481.742	6.91607
481.947	7.73848
482.151	8.45689
482.356	8.9081
482.56	10.38772
482.765	11.23578
482.969	13.14739
483.174	14.66765
483.378	16.92522
483.582	17.59755
483.787	19.3606
483.991	19.79901
484.196	20.40959
484.4	20.2526
484.604	21.00667
484.809	19.25174
485.013	18.64503
485.217	17.33229
485.422	15.82516
485.626	14.52865
485.83	13.62605
486.034	12.89883
486.239	12.85253
486.443	12.81477
486.647	12.76746
486.851	13.48987
487.055	14.4226
487.26	14.05454
487.464	14.79323
487.668	14.52458
487.872	14.98218
488.076	15.41267
488.28	14.93411
488.484	14.16602
488.688	14.02039
488.892	13.52285
489.096	12.75239
489.3	11.85669
489.504	11.28344
489.708	10.73168
489.912	10.53594
490.116	10.204
490.32	9.54453
490.524	10.24174
490.728	10.66875
490.932	10.88798
491.136	11.40145
491.34	12.53177
491.544	12.78845
491.748	12.77354
491.951	12.96489
492.155	12.6289
492.359	12.51458
492.563	11.54898
492.767	11.12699
492.97	10.29363
493.174	9.43157
493.378	8.74853
493.582	7.64293
493.785	7.39064
493.989	7.49398
494.193	7.44486
494.396	7.13975
494.6	7.62509
494.804	7.17844
495.007	6.81423
495.211	6.95289
495.414	6.93218
495.618	7.16679
495.822	7.63783
496.025	7.07313
496.229	7.38457
496.432	6.59773
496.636	7.05646
496.839	6.86061
497.043	7.78065
497.246	7.19393
497.45	6.83366
497.653	7.08306
497.856	7.13386
498.06	6.68076
498.263	7.00382
498.467	6.96948
498.67	7.5586
498.873	7.34891
499.077	7.0437
499.28	7.06917
499.483	7.27063
499.686	7.45068
499.89	7.31739
500.093	7.62745
500.296	6.75792
500.499	7.9637
500.703	7.16997
500.906	7.38257
501.109	7.98994
501.312	7.20261
501.515	7.09541
501.719	7.31537
501.922	7.77325
502.125	7.21689
502.328	7.11753
502.531	6.68087
502.734	7.10298
502.937	6.41901
503.14	7.3105
503.343	6.70788
503.546	6.87564
503.749	6.71779
503.952	7.41302
504.155	6.64079
504.358	7.40828
504.561	7.16984
504.764	6.49855
504.967	7.16186
505.17	7.09594
505.373	7.95872
505.576	7.22031
505.778	7.60739
505.981	6.79729
506.184	7.86231
506.387	6.36515
506.59	8.1615
506.793	7.70905
506.995	7.40653
507.198	6.28883
507.401	7.38077
507.604	7.30268
507.806	6.66136
508.009	6.68015
508.212	7.51133
508.414	6.77384
508.617	6.83411
508.82	6.99501
509.022	7.87992
509.225	7.21499
509.427	6.44523
509.63	7.81217
509.833	7.19777
510.035	6.91983
510.238	6.51443
510.44	7.77655
510.643	6.3214
510.845	8.13955
511.048	7.36685
511.25	6.92906
511.453	7.08041
511.655	7.32938
511.858	6.97691
512.06	7.52867
512.262	7.27838
512.465	7.57594
512.667	6.87164
512.869	6.67016
513.072	7.25459
513.274	7.57077
513.476	7.48733
513.679	7.66153
513.881	6.76869
514.083	8.11103
514.286	6.89701
514.488	6.94818
514.69	6.77078
514.892	6.60528
515.094	7.55086
515.297	6.88411
515.499	7.26869
515.701	6.79639
515.903	8.02854
516.105	8.10945
516.307	7.5791
516.509	6.33613
516.711	6.61653
516.913	7.22045
517.116	7.13393
517.318	6.87275
517.52	7.64592
517.722	7.29094
517.924	6.5115
518.126	7.19586
518.328	6.85747
518.529	7.56104
518.731	8.39213
518.933	7.0442
519.135	7.31603
519.337	7.97248
519.539	7.50494
519.741	6.48738
519.943	7.09658
520.145	7.22517
520.346	7.66288
520.548	7.20839
520.75	7.43695
520.952	7.19119
521.153	7.44042
521.355	7.45081
521.557	6.8346
521.759	7.37818
521.96	7.28003
522.162	6.75983
522.364	7.88573
522.565	7.02312
522.767	7.61604
522.969	7.73953
523.17	7.58188
523.372	7.47698
523.573	6.92401
523.775	7.10385
523.977	6.85745
524.178	8.16747
524.38	6.91235
524.581	7.44769
524.783	7.01175
524.984	7.35477
525.186	7.15727
525.387	7.72421
525.589	7.58497
525.79	7.61035
525.991	7.60644
526.193	8.19981
526.394	7.61225
526.596	8.56005
526.797	8.79379
526.998	8.46201
527.2	8.78562
527.401	10.36021
527.602	10.87203
527.803	12.59073
528.005	13.25391
528.206	14.35922
528.407	15.29419
528.608	15.41723
528.81	15.97307
529.011	15.55517
529.212	16.52871
529.413	15.60736
529.614	15.03035
529.815	14.43453
530.017	13.56138
530.218	12.15415
530.419	10.87131
530.62	10.45412
530.821	9.90539
531.022	8.59593
531.223	9.13134
531.424	8.89797
531.625	8.84327
531.826	8.41891
532.027	8.76919
532.228	9.73539
532.429	9.67968
532.63	9.79917
532.831	10.52961
533.032	10.72233
533.233	11.39727
533.433	11.22857
533.634	11.46881
533.835	10.91816
534.036	10.52332
534.237	10.30603
534.438	9.74787
534.638	8.92991
534.839	8.57723
535.04	8.51944
535.241	7.84176
535.441	8.53401
535.642	8.04423
535.843	7.42516
536.043	7.49643
536.244	7.64047
536.445	7.94364
536.645	8.70052
536.846	8.38001
537.047	8.86895
537.247	7.85404
537.448	7.65813
537.648	7.55072
537.849	7.49709
538.049	7.56738
538.25	7.94109
538.451	7.83291
538.651	7.29316
538.851	7.90552
539.052	8.27306
539.252	7.99336
539.453	7.62149
539.653	7.75777
539.854	7.57989
540.054	7.56261
540.254	8.84499
540.455	9.68559
540.655	9.52391
540.855	10.85989
541.056	11.76583
541.256	11.79169
541.456	12.75583
541.657	12.49373
541.857	13.29806
542.057	12.24471
542.257	11.97679
542.458	12.30945
542.658	12.28059
542.858	10.70755
543.058	10.8253
543.258	10.2688
543.458	8.99887
543.659	8.63238
543.859	9.06763
544.059	8.70347
544.259	8.18868
544.459	8.82783
544.659	8.03873
544.859	8.51014
545.059	8.00597
545.259	8.62649
545.459	8.30007
545.659	8.69723
545.859	8.12747
546.059	8.24874
546.259	7.66327
546.459	7.29545
546.659	7.44894
546.859	8.27728
547.059	8.01309
547.258	8.17113
547.458	8.08101
547.658	7.43523
547.858	7.36207
548.058	8.02103
548.258	7.85202
548.457	7.57123
548.657	9.29165
548.857	7.93946
549.057	8.52105
549.256	8.35771
549.456	7.643
549.656	6.87582
549.855	9.13517
550.055	7.62801
550.255	8.95389
550.454	8.1147
550.654	8.39035
550.853	8.71346
551.053	8.38643
551.253	8.04344
551.452	8.21983
551.652	7.00272
551.851	6.85727
552.051	7.42003
552.25	7.37065
552.45	7.22444
552.649	7.4262
552.849	7.12132
553.048	7.63558
553.248	8.07858
553.447	6.94146
553.646	8.0979
553.846	9.17255
554.045	8.57809
554.244	6.94005
554.444	8.54499
554.643	7.15451
554.842	8.66465
555.042	9.03065
555.241	7.30985
555.44	7.1451
555.64	8.09697
555.839	8.64477
556.038	8.01615
556.237	7.24662
556.436	7.89048
556.636	7.9477
556.835	7.22572
557.034	8.65137
557.233	7.66419
557.432	6.83965
557.631	8.30081
557.83	7.55047
558.029	7.31003
558.228	7.29447
558.427	7.09775
558.626	7.99982
558.825	7.0933
559.024	7.58741
559.223	8.97416
559.422	7.60393
559.621	7.92461
559.82	6.13883
560.019	7.5704
560.218	7.40355
560.417	5.98281
560.616	7.33949
560.815	9.85399
561.014	6.61785
561.212	8.61125
561.411	7.57777
561.61	6.69518
561.809	7.40957
562.008	8.8522
562.206	7.41849
562.405	7.96239
562.604	7.42606
562.803	7.88251
563.001	7.50527
563.2	6.83383
563.399	7.96634
563.597	7.05885
563.796	7.66526
563.995	6.84235
564.193	8.07573
564.392	7.29618
564.59	9.01238
564.789	6.42325
564.988	7.39948
565.186	7.6279
565.385	7.34497
565.583	7.22117
565.782	7.36384
565.98	7.18956
566.179	7.15739
566.377	6.76689
566.575	6.86786
566.774	8.26569
566.972	8.04799
567.171	8.85927
567.369	8.43329
567.567	7.85038
567.766	7.86128
567.964	6.38377
568.162	8.1815
568.361	8.44962
568.559	7.52642
568.757	7.83531
568.956	7.65114
569.154	7.6901
569.352	8.07031
569.55	7.48091
569.748	7.51926
569.947	6.92598
570.145	6.88143
570.343	6.90941
570.541	8.48804
570.739	6.7008
570.937	7.57847
571.135	7.83259
571.333	9.00067
571.532	8.7778
571.73	7.60922
571.928	8.142
572.126	7.87852
572.324	7.28099
572.522	8.33393
572.72	9.17928
572.918	7.55145
573.116	7.945
573.313	7.4201
573.511	7.58388
573.709	7.24695
573.907	8.31521
574.105	7.42286
574.303	6.5538
574.501	6.5767
574.699	7.86975
574.896	7.72869
575.094	7.98085
575.292	6.65122
575.49	8.21646
575.688	7.40122
575.885	8.47726
576.083	9.29011
576.281	8.02051
576.478	7.15784
576.676	8.08229
576.874	6.80975
577.071	7.78801
577.269	9.36417
577.467	7.65861
577.664	7.72468
577.862	8.41709
578.059	7.26059
578.257	8.60268
578.455	7.77178
578.652	7.86312
578.85	6.44811
579.047	8.06293
579.245	7.55981
579.442	7.84861
579.64	7.726
579.837	6.62531
580.034	9.99887
580.232	7.54002
580.429	7.13771
580.627	8.34457
580.824	8.82588
581.021	8.34501
581.219	7.62298
581.416	7.30865
581.613	9.04491
581.811	8.94672
582.008	7.26476
582.205	8.78796
582.402	8.26315
582.6	9.25712
582.797	8.15741
582.994	8.45298
583.191	8.82811
583.388	7.99307
583.586	8.75492
583.783	8.99513
583.98	7.43845
584.177	8.11338
584.374	6.01089
584.571	7.9949
584.768	8.05715
584.965	7.80772
585.162	8.76239
585.359	9.22451
585.556	8.16129
585.753	8.37509
585.95	7.08344
586.147	7.38546
586.344	8.70311
586.541	8.04166
586.738	7.26818
586.935	8.07641
587.132	7.47114
587.329	8.87554
587.526	8.16568
587.722	12.4436
587.919	6.87094
588.116	8.53689
588.313	9.28653
588.51	9.88734
588.706	7.80482
588.903	8.46605
589.1	8.81255
589.297	10.53629
589.493	7.95742
589.69	8.577
589.887	7.53133
590.083	7.04809
590.28	7.25538
590.477	8.74328
590.673	8.50438
590.87	9.09159
591.067	7.45058
591.263	8.48167
591.46	8.33824
591.656	7.77897
591.853	9.50636
592.049	7.36091
592.246	7.57959
592.442	9.05048
592.639	9.22005
592.835	7.25799
593.032	8.37622
593.228	6.86672
593.425	6.85685
593.621	6.74833
593.817	8.14673
594.014	7.14806
594.21	8.1397
594.406	8.81612
594.603	8.1109
594.799	7.37037
594.995	5.98294
595.192	9.0256
595.388	7.50873
595.584	7.45293
595.78	6.66785
595.977	10.11006
596.173	9.06863
596.369	7.42232
596.565	6.80248
596.761	6.55707
596.957	8.58893
597.154	6.977
597.35	7.29057
597.546	7.18119
597.742	8.07446
597.938	7.96071
598.134	7.16806
598.33	8.03272
598.526	9.1343
598.722	8.39034
598.918	9.60027
599.114	8.66679
599.31	6.98561
599.506	8.19525
599.702	7.4498
599.898	8.36743
600.094	8.97733
600.29	8.80708
600.485	8.87047
600.681	7.44558
600.877	9.382
601.073	8.0416
601.269	10.06595
601.465	9.31852
601.66	7.14574
601.856	6.29584
602.052	9.89082
602.248	7.59369
602.443	6.043
602.639	6.71688
602.835	7.0431
603.03	6.83077
603.226	8.57186
603.422	6.93319
603.617	7.33148
603.813	7.3495
604.009	7.18232
604.204	8.60551
604.4	6.47675
604.595	8.62618
604.791	6.88022
604.986	7.88
605.182	6.93521
605.377	7.34858
605.573	7.41492
605.768	7.70633
605.964	8.37827
606.159	8.58621
606.355	8.75098
606.55	7.89946
606.746	9.11327
606.941	8.10351
607.136	9.73761
607.332	10.86372
607.527	7.09054
607.722	8.45309
607.918	7.81746
608.113	7.18992
608.308	8.75345
608.503	8.50047
608.699	8.26967
608.894	8.35395
609.089	7.28741
609.284	8.45587
609.479	7.7404
609.675	8.80594
609.87	8.04953
610.065	9.03345
610.26	9.27388
610.455	9.49671
610.65	8.89104
610.845	9.54622
611.04	10.16781
611.235	9.23987
611.43	9.24647
611.625	8.52996
611.82	10.98343
612.015	8.89078
612.21	11.35387
612.405	8.22584
612.6	11.10032
612.795	10.8893
612.99	10.1787
613.185	8.24024
613.38	8.70596
613.575	9.28684
613.77	12.38122
613.965	7.83503
614.159	8.3819
614.354	10.42673
614.549	10.12163
614.744	9.5033
614.938	7.78915
615.133	7.39254
615.328	10.41243
615.523	10.14506
615.717	11.87369
615.912	8.17333
616.107	8.84415
616.301	8.33401
616.496	8.02828
616.691	10.50513
616.885	9.40617
617.08	11.90954
617.274	9.73762
617.469	11.01906
617.664	9.46344
617.858	8.02552
618.053	9.14891
618.247	8.36288
618.442	6.22644
618.636	10.31678
618.831	8.08856
619.025	8.02278
619.219	12.14072
619.414	5.58588
619.608	8.25568
619.803	7.92109
619.997	11.27752
620.191	9.98587
620.386	9.33561
620.58	8.73407
620.774	6.87526
620.969	7.14841
621.163	9.10434
621.357	7.61638
621.551	8.63055
621.746	8.95934
621.94	8.31854
622.134	12.98168
622.328	11.45591
622.522	7.16523
622.716	9.9768
622.911	9.96115
623.105	9.80056
623.299	9.2754
623.493	12.60228
623.687	7.95462
623.881	7.93871
624.075	9.50922
624.269	10.13023
624.463	6.58609
624.657	6.86853
624.851	9.43725
625.045	9.64216
625.239	9.57879
625.433	7.79062
625.627	10.60761
625.821	7.83453
626.015	7.4916
626.209	8.50742
626.403	6.65685
626.596	8.94444
626.79	9.42467
626.984	7.03831
627.178	8.97263
627.372	8.96954
627.565	9.34631
627.759	6.97763
627.953	7.36014
628.147	9.0869
628.34	9.34473
628.534	11.19031
628.728	8.35955
628.921	9.83103
629.115	9.66641
629.309	10.0082
629.502	10.0063
629.696	9.00577
629.89	8.80824
630.083	9.29388
630.277	9.20252
630.47	10.96342
630.664	8.71234
630.857	7.28729
631.051	9.9752
631.244	10.64862
631.438	10.26305
631.631	8.32149
631.825	10.67373
632.018	9.6292
632.212	11.42933
632.405	10.62514
632.598	8.01009
632.792	8.99113
632.985	6.09449
633.178	8.42614
633.372	8.84168
633.565	8.45761
633.758	10.28694
633.952	7.57458
634.145	7.48821
634.338	8.54446
634.531	8.08616
634.724	7.46869
634.918	8.92143
635.111	8.37227
635.304	8.47665
635.497	11.96732
635.69	9.40439
635.883	10.60043
636.077	7.59488
636.27	9.61554
636.463	9.23522
636.656	9.23532
636.849	8.54083
637.042	9.59923
637.235	11.67652
637.428	10.09333
637.621	9.76742
637.814	11.11429
638.007	11.30563
638.2	11.21434
638.393	11.76818
638.586	7.66127
638.778	8.60078
638.971	9.09997
639.164	11.4029
639.357	9.77832
639.55	11.42642
639.743	10.09344
639.935	10.05679
640.128	12.62786
640.321	10.73013
640.514	9.58948
640.707	13.12836
640.899	10.35683
641.092	7.24788
641.285	24.99981
641.477	6.45419
641.67	13.3834
641.863	11.7077
642.055	9.88673
642.248	9.81466
642.441	9.18844
642.633	10.51761
642.826	11.18197
643.018	11.6693
643.211	12.62182
643.403	13.09014
643.596	13.29664
643.788	12.09612
643.981	9.07312
644.173	11.07383
644.366	9.11954
644.558	7.19895
644.751	11.33235
644.943	8.04075
645.135	12.52279
645.328	12.287
645.52	11.15959
645.712	11.74146
645.905	15.13714
646.097	8.29378
646.289	10.54553
646.482	13.76434
646.674	8.87088
646.866	11.72027
647.058	11.04213
647.251	8.57651
647.443	9.06683
647.635	9.6092
647.827	8.59258
648.019	8.47902
648.211	9.88364
648.404	10.31305
648.596	13.22211
648.788	10.52567
648.98	10.4398
649.172	11.16619
649.364	10.98341
649.556	7.66904
649.748	14.79006
649.94	8.73515
650.132	11.37482
650.324	9.03178
650.516	8.83071
650.708	11.81612
650.9	8.09543
651.092	7.70974
651.284	7.93616
651.476	8.36252
651.667	11.14671
651.859	12.77498
652.051	9.89128
652.243	10.60593
652.435	9.52469
652.627	11.07235
652.818	11.0454
653.01	7.71107
653.202	8.93204
653.394	9.70797
653.585	10.98723
653.777	17.85708
653.969	13.11348
654.16	12.24126
654.352	8.78138
654.544	10.10545
654.735	12.62153
654.927	10.31278
655.118	12.82103
655.31	11.93107
655.502	11.99539
655.693	9.80819
655.885	11.40567
656.076	13.21724
656.268	11.00323
656.459	13.02192
656.651	12.97958
656.842	9.76149
657.034	9.18694
657.225	11.82171
657.416	12.92829
657.608	12.79544
657.799	10.23258
657.99	12.27821
658.182	8.94662
658.373	8.99861
658.564	12.39417
658.756	10.47793
658.947	9.71152
659.138	8.63182
659.33	9.15686
659.521	8.83512
659.712	10.00658
659.903	9.47738
660.094	9.25226
660.286	7.60374
660.477	13.41548
660.668	11.36871
660.859	10.25218
661.05	8.37941
661.241	11.45347
661.432	11.30937
661.623	10.32342
661.814	9.98104
662.006	7.95059
662.197	10.73818
662.388	13.05142
662.579	11.53122
662.77	13.70607
662.96	16.24362
663.151	13.01043
663.342	7.90046
663.533	12.17035
663.724	10.96804
663.915	15.06907
664.106	11.43284
664.297	14.89572
664.488	12.44476
664.678	9.96118
664.869	12.82664
665.06	12.92925
665.251	11.77665
665.442	12.75974
665.632	9.51615
665.823	15.36613
666.014	5.99974
666.204	13.1534
666.395	14.2648
666.586	16.43931
666.776	12.91897
666.967	15.11646
667.158	11.56563
667.348	14.87417
667.539	9.66694
667.729	13.55607
667.92	10.14372
668.111	13.42452
668.301	12.93737
668.492	11.00391
668.682	11.66626
668.873	11.13897
669.063	8.93092
669.253	11.85699
669.444	14.45535
669.634	11.33969
669.825	15.21725
670.015	14.13328
670.206	10.38538
670.396	15.99313
670.586	11.04808
670.777	12.75467
670.967	7.60369
671.157	11.27194
671.347	10.6451
671.538	15.04697
671.728	13.79598
671.918	16.18918
672.108	13.83202
672.299	11.37397
672.489	12.41358
672.679	10.46813
672.869	13.85046
673.059	16.67965
673.249	12.86352
673.44	9.77896
673.63	11.76293
673.82	14.32198
674.01	10.1436
674.2	12.94268
674.39	18.44445
674.58	13.41449
674.77	12.56548
674.96	11.97575
675.15	21.42261
675.34	14.90362
675.53	12.38353
675.72	11.00611
675.91	8.94524
676.099	16.76743
676.289	17.88823
676.479	15.01887
676.669	11.10638
676.859	13.55734
677.049	10.53098
677.238	12.14263
677.428	16.10843
677.618	13.66774
677.808	16.73878
677.997	13.43425
678.187	10.45197
678.377	12.55964
678.567	11.12956
678.756	11.31762
678.946	12.30949
679.136	9.39102
679.325	10.98716
679.515	10.17492
679.704	9.36195
679.894	13.99742
680.084	12.98443
680.273	14.84808
680.463	10.3481
680.652	10.10039
680.842	11.91769
681.031	14.41558
681.221	10.31124
681.41	13.62876
681.6	11.95064
681.789	13.71261
681.978	15.16857
682.168	13.58971
682.357	13.24069
682.547	14.05649
682.736	13.41986
682.925	16.0326
683.115	15.74911
683.304	14.36966
683.493	13.36104
683.682	14.43752
683.872	14.32987
684.061	16.38822
684.25	14.57284
684.439	19.06783
684.629	15.15166
684.818	21.88046
685.007	13.72664
685.196	12.90911
685.385	18.23616
685.574	14.32198
685.763	14.46303
685.952	14.42368
686.142	11.17787
686.331	17.15787
686.52	10.09762
686.709	19.28234
686.898	18.81098
687.087	15.77019
687.276	18.3338
687.465	17.4333
687.654	13.28512
687.842	17.71472
688.031	11.41046
688.22	17.83517
688.409	15.18115
688.598	14.99488
688.787	20.89142
688.976	14.73818
689.165	19.65854
689.353	13.36059
689.542	16.42549
689.731	17.1406
689.92	20.35307
690.108	16.86316
690.297	13.84146
690.486	15.33214
690.675	16.21133
690.863	19.21209
691.052	18.91931
691.241	15.83337
691.429	15.75302
691.618	18.81942
691.806	11.83093
691.995	14.15226
692.184	15.0225
692.372	13.90511
692.561	15.61618
692.749	15.9797
692.938	24.4903
693.126	16.96123
693.315	14.81673
693.503	17.84533
693.692	18.41417
693.88	18.07639
694.068	21.70929
694.257	16.27094
694.445	17.05887
694.634	10.4179
694.822	18.04239
695.01	19.15437
695.199	21.63006
695.387	20.17824
695.575	19.01599
695.763	15.43653
695.952	14.65797
696.14	11.25568
696.328	13.47091
696.516	15.87401
696.705	16.1914
696.893	15.81984
697.081	10.59603
697.269	17.35157
697.457	11.65544
697.645	11.30705
697.833	16.57492
698.021	12.27012
698.21	13.00186
698.398	13.32593
698.586	11.17683
698.774	10.7138
698.962	13.71654
699.15	11.2363
699.338	9.98626
699.526	14.99519
699.714	12.51869
699.901	12.46733
700.089	16.19849
700.277	12.48362
700.465	14.30691
700.653	16.5414
700.841	16.25155
701.029	12.99822
701.217	19.66847
701.404	15.2947
701.592	19.59075
701.78	22.68643
701.968	15.41083
702.155	14.87225
702.343	12.50112
702.531	19.95807
702.718	17.67674
702.906	14.26944
703.094	14.61679
703.281	20.00459
703.469	15.4976
703.657	20.22357
703.844	27.55621
704.032	23.18496
704.219	16.10147
704.407	18.67627
704.595	22.04236
704.782	18.46969
704.97	17.15175
705.157	17.20053
705.345	23.90745
705.532	30.60891
705.719	21.34136
705.907	24.6108
706.094	21.71912
706.282	27.88097
706.469	21.34117
706.656	22.86468
706.844	21.25202
707.031	25.72379
707.218	24.59114
707.406	28.89307
707.593	26.85089
707.78	25.71727
707.968	24.00819
708.155	21.90639
708.342	26.73857
708.529	26.35206
708.716	25.97827
708.904	30.21817
709.091	26.87901
709.278	20.66949
709.465	31.46827
709.652	29.93505
709.839	28.33494
710.026	24.18051
710.213	17.90388
710.4	24.05158
710.587	25.0132
710.774	26.9491
710.961	27.19587
711.148	23.99591
711.335	26.68635
711.522	23.13323
711.709	25.8086
711.896	30.60316
712.083	27.24983
712.27	20.51525
712.457	24.29564
712.644	18.74027
712.831	31.39675
713.017	24.69684
713.204	26.4061
713.391	21.12248
713.578	26.46223
713.765	28.07233
713.951	23.3074
714.138	33.1212
714.325	23.06593
714.512	21.08625
714.698	18.13431
714.885	26.04601
715.072	20.83567
715.258	20.29634
715.445	17.82557
715.631	24.43005
715.818	10.75491
716.005	17.45338
716.191	21.99226
716.378	18.11499
716.564	22.03932
716.751	15.81857
716.937	17.99866
717.124	23.33044
717.31	15.94129
717.497	27.16962
717.683	16.46992
717.869	27.80464
718.056	17.82014
718.242	21.60756
718.429	18.86673
718.615	14.80983
718.801	19.6631
718.988	24.2791
719.174	22.05076
719.36	18.62246
719.547	23.85752
719.733	21.42809
719.919	20.87754
720.105	22.75572
720.291	20.11176
720.478	21.60279
720.664	19.82884
720.85	18.30484
721.036	32.21461
721.222	27.42713
721.408	20.25962
721.595	27.94762
721.781	27.556
721.967	26.19283
722.153	27.58939
722.339	23.97609
722.525	22.46509
722.711	16.7362
722.897	15.05219
723.083	19.14116
723.269	25.1054
723.455	34.136
723.641	39.15473
723.827	21.97976
724.012	23.2114
724.198	21.07794
724.384	27.13907
724.57	22.38062
724.756	15.85277
724.942	13.45364
725.127	26.44419
725.313	27.46795
725.499	27.18412
725.685	30.75671
725.87	22.95923
726.056	17.58685
726.242	27.32902
726.428	15.1079
726.613	25.95753
726.799	19.74647
726.985	16.81323
727.17	14.75899
727.356	30.81839
727.541	17.53396
727.727	20.90676
727.913	25.48022
728.098	19.46717
728.284	24.73562
728.469	16.58465
728.655	18.04882
728.84	26.65504
729.026	24.81493
729.211	25.72396
729.397	23.26894
729.582	25.61742
729.767	21.23215
729.953	23.49268
730.138	28.17895
730.323	12.48027
730.509	16.89999
730.694	30.07238
730.879	24.46967
731.065	23.31594
731.25	33.29993
731.435	24.74596
731.621	15.32755
731.806	19.25095
731.991	22.91601
732.176	15.36122
732.361	29.53532
732.547	23.64334
732.732	15.0973
732.917	32.6438
733.102	16.85149
733.287	19.18245
733.472	21.51875
733.657	22.55281
733.842	14.94968
734.027	19.06166
734.212	21.22893
734.397	18.94129
734.582	22.37343
734.767	26.80741
734.952	29.46816
735.137	11.81125
735.322	28.89926
735.507	24.3357
735.692	23.4735
735.877	33.7535
736.062	32.40722
736.247	24.08519
736.431	22.4811
736.616	28.20646
736.801	23.76527
736.986	22.93103
737.171	18.28225
737.355	17.00683
737.54	29.83214
737.725	23.2917
737.909	37.99798
738.094	21.05845
738.279	26.88451
738.463	21.7504
738.648	26.21003
738.833	25.00437
739.017	35.05977
739.202	21.4599
739.386	21.62242
739.571	18.52569
739.756	27.88888
739.94	23.28967
740.125	25.99433
740.309	20.3342
740.494	27.63772
740.678	24.2699
740.863	26.50784
741.047	24.47038
741.231	31.65616
741.416	20.86679
741.6	31.96101
741.785	19.77357
741.969	28.37418
742.153	32.0925
742.338	13.25699
742.522	22.88088
742.706	28.53035
742.89	17.68745
743.075	23.88174
743.259	31.11446
743.443	30.85135
743.627	31.64914
743.812	37.13002
743.996	14.86035
744.18	23.27388
744.364	21.24218
744.548	38.31665
744.732	23.00205
744.916	29.22608
745.1	27.9634
745.285	22.90462
745.469	27.67887
745.653	34.18199
745.837	18.38924
746.021	38.55566
746.205	31.74306
746.389	25.69883
746.573	23.50801
746.757	34.13049
746.94	21.92664
747.124	32.23563
747.308	18.74855
747.492	31.3023
747.676	20.09633
747.86	40.64171
748.044	22.90472
748.227	15.72716
748.411	49.43779
748.595	26.43331
748.779	21.2322
748.963	27.7791
749.146	25.47233
749.33	20.42948
749.514	19.83491
749.697	31.3671
749.881	20.8683
750.065	18.91673
750.248	25.35962
750.432	39.83993
750.616	25.16352
750.799	19.27339
750.983	41.49969
751.166	41.41994
751.35	16.84897
751.533	29.80254
751.717	35.43806
751.9	35.41667
752.084	23.62261
752.267	20.62357
752.451	20.04809
752.634	26.3867
752.818	29.10264
753.001	30.57761
753.184	33.00453
753.368	27.91477
753.551	7.11407
753.734	20.74804
753.918	41.19932
754.101	21.53875
754.284	30.56812
754.467	22.30877
754.651	20.94139
754.834	20.30624
755.017	32.03088
755.2	33.25843
755.384	18.57985
755.567	30.18586
755.75	31.45013
755.933	22.61499
756.116	31.38278
756.299	21.7183
756.482	20.11746
756.665	29.12201
756.848	25.52582
757.032	27.70939
757.215	17.25367
757.398	19.7679
757.581	20.97615
757.764	44.52247
757.947	25.03181
758.129	32.38483
758.312	9.72145
758.495	23.81134
758.678	25.58418
758.861	23.63273
759.044	39.2311
759.227	20.70045
759.41	20.61893
759.592	32.25928
759.775	24.01557
759.958	32.79365
760.141	18.66988
760.324	42.21506
760.506	36.13257
760.689	31.48553
760.872	41.68378
761.054	28.14781
761.237	25.25353
761.42	27.18761
761.602	32.1018
761.785	28.28634
761.968	33.8627
762.15	38.67103
762.333	26.04586
762.515	29.56949
762.698	23.92635
762.88	31.76541
763.063	29.50337
763.245	34.17693
763.428	20.75643
763.61	22.91409
763.793	18.79892
763.975	27.96565
764.158	23.53823
764.34	22.1933
764.522	20.28329
764.705	24.03574
764.887	35.87622
765.069	17.06218
765.252	29.5767
765.434	31.29633
765.616	27.22192
765.799	22.06577
765.981	30.81973
766.163	21.88242
766.345	34.69673
766.528	21.37832
766.71	12.50551
766.892	27.49221
767.074	36.42239
767.256	23.46015
767.438	38.28176
767.62	27.93096
767.802	43.67419
767.985	31.26096
768.167	40.29668
768.349	22.67864
768.531	32.26734
768.713	30.00157
768.895	34.80082
769.077	29.22758
769.259	45.95568
769.441	64.32223
769.623	33.5736
769.804	40.03877
769.986	37.40598
770.168	44.63825
770.35	54.66799
770.532	42.20154
770.714	45.62783
770.896	44.53159
771.077	19.37092
771.259	48.81872
771.441	42.5391
771.623	50.03416
771.804	61.42102
771.986	22.80685
772.168	32.47487
772.35	45.73207
772.531	65.65774
772.713	39.69592
772.894	51.09798
773.076	39.5581
773.258	32.67744
773.439	53.59246
773.621	60.04863
773.802	27.93849
773.984	32.19063
774.166	41.65529
774.347	55.34825
774.529	50.31784
774.71	18.37858
774.891	37.02279
775.073	33.90593
775.254	52.87464
775.436	31.39555
775.617	65.28245
775.799	32.75384
775.98	53.59012
776.161	62.06221
776.343	60.65806
776.524	38.78425
776.705	36.72821
776.886	20.55365
777.068	45.35145
777.249	89.36178
777.43	63.56142
777.611	26.45409
777.793	34.54581
777.974	61.49966
778.155	33.48757
778.336	28.33776
778.517	69.80248
778.698	31.82098
778.879	18.95049
779.061	10.65847
779.242	46.30931
779.423	45.71961
779.604	33.98437
779.785	35.5687
779.966	42.39355
780.147	54.32937
780.328	51.63157
780.509	71.7548
780.69	52.8726
780.871	31.51822
781.051	23.75986
781.232	41.02938
781.413	41.97503
781.594	37.02171
781.775	34.43235
781.956	33.27829
782.137	18.94995
782.317	35.34417
782.498	41.6576
782.679	39.61588
782.86	42.62864
783.04	31.65066
783.221	43.54957
783.402	65.6372
783.583	40.07333
783.763	52.12568
783.944	34.98924
784.124	23.36633
784.305	63.73195
784.486	49.24107
784.666	39.45358
784.847	22.11922
785.027	84.47769
785.208	32.61617
785.388	31.59597
785.569	31.66473
785.749	37.58819
785.93	33.8693
786.11	23.2001
786.291	46.73662
786.471	42.61702
786.652	51.74624
786.832	38.38177
787.012	42.64752
787.193	26.81622
787.373	40.57743
787.553	34.95807
787.734	41.89912
787.914	35.59793
788.094	53.36039
788.275	43.96825
788.455	36.93686
788.635	26.63435
788.815	43.06481
788.995	28.87734
789.176	22.83872
789.356	30.95763
789.536	36.55805
789.716	42.25787
789.896	32.00937
790.076	33.6475
790.256	44.19469
790.436	16.18287
790.616	28.67726
790.796	43.65169
790.976	35.59457
791.156	32.54375
791.336	47.34278
791.516	43.17585
791.696	36.66705
791.876	23.99762
792.056	40.47023
792.236	53.63004
792.416	50.18964
792.596	44.19767
792.776	45.88007
792.956	48.70456
793.135	61.57339
793.315	27.94781
793.495	53.96953
793.675	50.25657
793.854	49.99965
794.034	52.41322
794.214	27.74949
794.394	50.86051
794.573	55.22187
794.753	42.87992
794.933	30.32623
795.112	42.83603
795.292	52.27379
795.472	63.28698
795.651	25.24253
795.831	38.78652
796.01	36.4915
796.19	35.85056
796.369	39.50005
796.549	44.61567
796.728	38.93924
796.908	25.27614
797.087	28.36358
797.267	36.47499
797.446	27.14972
797.626	46.07039
797.805	46.51774
797.984	31.08345
798.164	48.46387
798.343	29.22931
798.522	41.48003
798.702	40.11478
798.881	25.71069
799.06	36.8218
799.239	18.27428
799.419	28.61006
799.598	62.14533
799.777	45.06098
799.956	54.41144
800.136	35.65778
800.315	29.38075
800.494	43.41018
800.673	53.3256
800.852	49.39654
801.031	54.55275
801.21	46.81094
801.389	35.33297
801.568	42.47479
801.747	64.41215
801.926	40.49822
802.105	59.15016
802.284	34.33754
802.463	60.57949
802.642	44.10157
802.821	43.02728
803	58.89186
803.179	52.80105
803.358	54.6417
803.537	32.34461
803.716	39.89747
803.895	32.99009
804.073	39.43758
804.252	30.84255
804.431	46.21419
804.61	37.21623
804.789	49.8883
804.967	33.90562
805.146	33.70637
805.325	70.71935
805.503	45.48956
805.682	25.55072
805.861	84.44606
806.039	60.13681
806.218	33.72864
806.397	43.81568
806.575	39.10064
806.754	44.31453
806.932	29.29624
807.111	52.79715
807.289	51.67762
807.468	42.58184
807.646	53.10576
807.825	48.14988
808.003	44.15053
808.182	54.35756
808.36	41.90979
808.539	30.88141
808.717	59.73393
808.895	34.16953
809.074	46.31472
809.252	41.44893
809.43	50.40351
809.609	56.85825
809.787	66.67163
809.965	37.98306
810.144	43.86745
810.322	38.60528
810.5	47.92462
810.678	38.35306
810.856	73.62407
811.035	54.31932
811.213	50.38859
811.391	62.04165
811.569	46.59264
811.747	94.93751
811.925	58.68489
812.103	33.2922
812.281	41.20098
812.459	68.95638
812.637	66.90985
812.816	54.73065
812.994	74.47358
813.171	62.33593
813.349	48.30307
813.527	58.83656
813.705	63.50883
813.883	82.74986
814.061	56.41895
814.239	69.25415
814.417	75.9018
814.595	52.27357
814.773	48.90256
814.95	45.62464
815.128	48.79302
815.306	44.97165
815.484	41.48902
815.662	33.06679
815.839	27.44358
816.017	36.7303
816.195	59.53976
816.372	38.02409
816.55	55.37537
816.728	67.11589
816.905	41.72961
817.083	67.97252
817.261	42.98108
817.438	89.63456
817.616	69.91282
817.793	36.7686
817.971	53.99127
818.148	52.0786
818.326	64.53606
818.503	47.56329
818.681	69.8886
818.858	40.3951
819.036	44.82554
819.213	48.15247
819.391	36.32435
819.568	36.27825
819.745	31.71326
819.923	55.86849
820.1	40.82072
820.277	33.43408
820.455	39.75402
820.632	42.50465
820.809	45.67173
820.986	29.93585
821.164	24.84819
821.341	22.30748
821.518	33.12587
821.695	24.63338
821.872	22.01939
822.05	19.29664
822.227	15.87913
822.404	16.82868
822.581	19.47676
822.758	16.90003
822.935	16.93391
823.112	19.05345
823.289	16.39353
823.466	19.85215
823.643	18.66344
823.82	22.43877
823.997	20.89683
824.174	23.88549
824.351	30.97688
824.528	29.45951
824.705	28.25145
824.882	29.98534
825.059	37.34381
825.236	27.89076
825.412	29.00731
825.589	34.74074
825.766	47.44742
825.943	30.30047
826.12	34.37189
826.296	25.92271
826.473	31.27099
826.65	31.7441
826.827	36.13204
827.003	25.21738
827.18	27.67387
827.357	30.71124
827.533	26.5539
827.71	16.46029
827.887	23.69934
828.063	26.6791
828.24	23.06945
828.416	30.36484
828.593	25.67618
828.769	35.82397
828.946	36.27534
829.122	38.63816
829.299	36.71196
829.475	25.66336
829.652	37.7708
829.828	58.63632
830.005	38.94166
830.181	51.71086
830.357	40.47815
830.534	53.47241
830.71	42.62783
830.886	52.00955
831.063	49.53624
831.239	62.96498
831.415	31.63576
831.592	63.69974
831.768	37.80264
831.944	37.32801
832.12	69.59292
832.296	62.8476
832.473	52.71201
832.649	37.82682
832.825	53.31182
833.001	32.00177
833.177	47.42519
833.353	42.93154
833.529	25.8863
833.705	40.09266
833.881	26.70469
834.058	26.06723
834.234	28.36779
834.41	28.16386
834.586	22.15359
834.761	25.97561
834.937	29.59136
835.113	30.69421
835.289	26.31015
835.465	31.54697
835.641	29.14116
835.817	32.45984
835.993	52.06136
836.169	28.601
836.344	43.6894
836.52	48.62088
836.696	45.0439
836.872	37.95861
837.048	95.56611
837.223	38.27023
837.399	71.42378
837.575	57.65384
837.75	53.26307
837.926	76.23653
838.102	108.82183
838.277	86.64231
838.453	118.10081
838.628	118.44468
838.804	46.05954
838.98	104.11856
839.155	55.19019
839.331	78.55295
839.506	54.5667
839.682	55.53328
839.857	72.93515
840.033	85.98942
840.208	41.50917
840.384	22.88428
840.559	43.69101
840.734	63.2118
840.91	82.46327
841.085	52.22624
841.26	50.65196
841.436	45.14735
841.611	45.96429
841.786	66.55864
841.962	88.8775
842.137	58.79216
842.312	39.89356
842.487	54.75777
842.663	48.11336
842.838	53.94149
843.013	158.08546
843.188	82.10305
843.363	83.66777
843.538	129.80409
843.714	130.36383
843.889	139.33002
844.064	151.01714
844.239	121.21048
844.414	137.64196
844.589	93.50563
844.764	164.38374
844.939	162.50475
845.114	177.67851
845.289	176.42653
845.464	229.02474
845.639	160.46162
845.814	84.07387
845.989	91.64496
846.163	120.40685
846.338	120.26291
846.513	166.31281
846.688	107.71043
846.863	114.05341
847.038	111.36742
847.212	114.35256
847.387	119.88404
847.562	126.90527
847.737	156.9531
847.911	68.30814
848.086	69.9249
848.261	255.55916
848.435	107.10498
848.61	160.66641
848.785	80.77693
848.959	166.27762
849.134	219.0998
849.308	231.53069
849.483	127.46606
849.658	191.42239
849.832	104.89814
850.007	90.28662
850.181	252.99258
850.356	102.62926
850.53	240.81176
850.705	79.92548
850.879	50.22016
851.053	116.23241
851.228	105.05249
851.402	128.65457
851.577	172.47041
851.751	190.97348
851.925	133.17886
852.099	64.43393
852.274	93.25052
852.448	118.07144
852.622	156.26042
852.797	127.90823
852.971	117.30098
853.145	125.88287
853.319	355.29661
853.493	188.27976
853.668	104.8592
853.842	230.47601
854.016	189.47086
854.19	211.05062
854.364	128.01248
854.538	144.12618
854.712	192.67314
854.886	123.81851
855.06	105.72006
855.234	40.68442
855.408	200.04527
855.582	170.79144
855.756	171.36391
855.93	218.25218
856.104	152.81695
856.278	176.35417
856.452	124.50995
856.626	167.16301
856.8	270.60144
856.973	152.58606
857.147	152.46315
857.321	149.99525
857.495	185.62715
857.669	125.51192
857.842	109.80948
858.016	186.24467
858.19	92.61116
858.364	294.71784
858.537	110.26103
858.711	133.05898
858.885	116.12066
859.058	108.80051
859.232	58.96927
859.405	77.7472
859.579	176.73574
859.753	148.03951
859.926	100.17695
860.1	71.46535
860.273	132.89048
860.447	211.64621
860.62	117.15599
860.794	252.49748
860.967	146.70608
861.141	191.46813
861.314	266.7388
861.487	162.78993
861.661	209.18469
861.834	209.36843
862.008	187.37156
862.181	138.01933
862.354	142.64531
862.528	154.31547
862.701	111.41395
862.874	80.62709
863.047	119.68945
863.221	114.01136
863.394	64.33086
863.567	212.45043
863.74	50.17861
863.913	174.08376
864.087	149.26783
864.26	178.72398
864.433	127.33886
864.606	236.63168
864.779	139.95295
864.952	63.34123
865.125	110.07151
865.298	129.89314
865.471	132.45532
865.644	265.77905
865.817	216.03378
865.99	183.87387
866.163	205.90752
866.336	116.78785
866.509	128.5971
866.682	113.71022
866.855	195.40744
867.028	85.14823
867.2	167.38152
867.373	52.87864
867.546	147.19899
867.719	270.01618
867.892	170.3145
868.064	96.80001
868.237	161.4313
868.41	138.50914
868.583	80.58032
868.755	83.87368
868.928	131.55099
869.101	281.94513
869.273	202.06235
869.446	165.37322
869.619	195.0988
869.791	128.21683
869.964	193.91593
870.136	177.90435
870.309	147.73446
870.481	147.8482
870.654	68.7632
870.826	147.5108
870.999	109.37686
871.171	180.72722
871.344	113.00038
871.516	133.02441
871.689	100.82979
871.861	144.08172
872.033	100.6562
872.206	119.24845
872.378	193.57378
872.55	119.08216
872.723	85.11231
872.895	128.07151
873.067	195.25259
873.24	217.16496
873.412	111.88795
873.584	122.56205
873.756	118.4714
873.928	160.99979
874.101	158.10708
874.273	169.40685
874.445	64.0384
874.617	78.83025
874.789	145.97457
874.961	122.39634
875.133	161.19233
875.305	140.21176
875.477	90.28102
875.649	73.84554
875.821	92.4169
875.993	232.23412
876.165	92.84208
876.337	155.25458
876.509	120.2627
876.681	155.86405
876.853	149.00746
877.025	147.56278
877.197	98.98311
877.369	92.36377
877.541	182.46632
877.712	56.30541
877.884	87.46171
878.056	168.11844
878.228	88.82111
878.4	160.00334
878.571	95.85813
878.743	64.75969
878.915	149.47513
879.086	86.01692
879.258	111.26811
879.43	97.81818
879.601	88.23143
879.773	91.88615
879.945	23.14255
880.116	39.86475
880.288	26.66821
880.459	28.35709
880.631	22.43765
880.802	27.09957
880.974	25.27692
881.145	18.98606
881.317	24.17998
881.488	18.75013
881.66	21.00949
881.831	19.18159
882.002	25.92324
882.174	20.49328
882.345	25.84183
882.517	15.91723
882.688	30.12706
882.859	26.7338
883.03	41.0669
883.202	40.05911
883.373	35.43883
883.544	37.41247
883.715	58.63813
883.887	49.91994
884.058	46.32042
884.229	60.78315
884.4	63.22248
884.571	69.66964
884.742	62.92129
884.914	68.38605
885.085	85.40472
885.256	112.53908
885.427	91.23831
885.598	109.58863
885.769	112.17689
885.94	111.39078
886.111	74.52623
886.282	125.69055
886.453	102.21025
886.624	76.86272
886.795	125.02095
886.966	104.68986
887.136	136.41839
887.307	94.0309
887.478	167.13001
887.649	146.23638
887.82	153.75761
887.991	121.38503
888.161	168.61521
888.332	158.79699
888.503	84.68703
888.674	208.49719
888.844	230.28232
889.015	178.3557
889.186	84.65367
889.356	211.49871
889.527	84.9305
889.698	357.01887
889.868	119.70519
890.039	156.37263
890.209	132.42231
890.38	181.95883
890.551	156.84922
890.721	220.71985
890.892	174.75502
891.062	129.24984
891.233	162.11997
891.403	122.63476
891.574	102.03714
891.744	133.87865
891.914	177.06847
892.085	136.6304
892.255	53.0852
892.425	217.41881
892.596	173.13478
892.766	158.6593
892.936	214.97999
893.107	182.98837
893.277	98.31843
893.447	76.3707
893.618	64.73102
893.788	122.33717
893.958	56.34019
894.128	67.60813
894.298	73.84061
894.468	104.43063
894.639	45.1314
894.809	33.75152
894.979	55.21718
895.149	62.5347
895.319	51.18304
895.489	73.07314
895.659	88.25195
895.829	60.90852
895.999	64.13176
896.169	49.67516
896.339	58.05666
896.509	120.14102
896.679	135.61014
896.849	134.79404
897.019	183.21245
897.189	140.27938
897.358	128.25707
897.528	187.75784
897.698	69.99966
897.868	179.85368
898.038	285.02269
898.208	265.24543
898.377	98.16757
898.547	281.10872
898.717	428.98192
898.886	171.54319
899.056	268.77194
899.226	400.15052
899.395	240.79941
899.565	309.82972
899.735	204.41534
899.904	328.67955
900.074	282.39308
900.244	136.36567
900.413	508.96835
900.583	125.26943
900.752	190.62375
900.922	305.56647
901.091	44.763
901.261	281.13191
901.43	246.29354
901.599	261.15339
901.769	563.90176
901.938	301.1956
902.108	280.74749
902.277	380.53477
902.446	106.26215
902.616	126.06961
902.785	174.7327
902.954	289.08655
903.124	198.01716
903.293	150.5354
903.462	86.85415
903.631	121.97906
903.801	88.82334
903.97	50.95133
904.139	81.11342
904.308	62.17235
904.477	50.23582
904.646	30.85814
904.816	48.76673
904.985	69.66965
905.154	102.54199
