Data from WindowProjectSample3_Transmission__48__00048.txt Node

Date: Sun May 04 11:16:16 EDT 2025
User: jessi
Spectrometer: SR400872
Trigger mode: 0
Integration Time (sec): 5.000050E-1
Scans to average: 20
Electric dark correction enabled: true
Nonlinearity correction enabled: true
Boxcar width: 0
XAxis mode: Wavelengths
Number of Pixels in Spectrum: 3648
>>>>>Begin Spectral Data<<<<<
184.909	-1294.0269
185.132	-1463.45702
185.355	-1144.17093
185.578	-1079.47906
185.801	1036.48473
186.024	-940.33698
186.247	-5032.53048
186.47	-1700.47304
186.693	-276.86703
186.916	-300.3789
187.139	-791.55107
187.362	-2870.83365
187.585	-685.04425
187.808	-5390.49103
188.031	9865.36376
188.254	-2345.70069
188.476	-8721.76858
188.699	-1039.52446
188.922	589.85636
189.145	-1213.04253
189.368	3037.60344
189.591	-2345.2002
189.813	-1514.25414
190.036	-852.42534
190.259	-1125.64441
190.482	-1593.14605
190.705	-2356.10015
190.927	-706.05551
191.15	-1503.35975
191.373	-1115.25996
191.595	-1252.58758
191.818	-1289.65736
192.041	-638.06906
192.263	-1094.17422
192.486	-574.33891
192.709	-1552.48959
192.931	-3187.17203
193.154	-1149.03974
193.377	-1615.37028
193.599	-3240.67798
193.822	-3447.13811
194.044	-3155.65315
194.267	-1646.63919
194.489	-122.61234
194.712	-952.06683
194.934	-1715.8557
195.157	-901.01798
195.379	-1167.9181
195.602	-843.86664
195.824	-1292.05015
196.047	-1993.20292
196.269	-1072.16814
196.492	-1373.22629
196.714	-1272.56298
196.936	-1225.82269
197.159	-914.64047
197.381	-685.81477
197.604	-557.43351
197.826	-2080.73398
198.048	-1135.3696
198.271	-1579.67184
198.493	-1142.66
198.715	-940.60254
198.938	-3348.99589
199.16	-4091.6814
199.382	-1211.97647
199.604	-1142.17665
199.827	-1861.59433
200.049	-1530.8366
200.271	-1192.28347
200.493	-1393.31661
200.715	-993.2052
200.938	-828.85367
201.16	-944.11556
201.382	-1033.12399
201.604	-1279.74929
201.826	-715.71202
202.048	-827.8136
202.27	-1441.07473
202.492	-1423.30271
202.715	-1817.94169
202.937	-1937.9007
203.159	-1305.96495
203.381	-1550.42494
203.603	-973.05861
203.825	-4934.66145
204.047	-1699.40695
204.269	-1376.67775
204.491	-1193.14802
204.713	-1482.14492
204.935	-1368.56255
205.156	-2590.87455
205.378	-2658.77074
205.6	-1559.01524
205.822	-1089.4955
206.044	1303.59993
206.266	-1258.16182
206.488	-823.87306
206.71	-1722.41193
206.932	-1754.36905
207.153	-1079.56971
207.375	-1373.14728
207.597	-1065.8116
207.819	-1111.22683
208.041	-1154.98271
208.262	-1773.76265
208.484	-891.35335
208.706	-2022.37063
208.927	-806.26765
209.149	-1396.93294
209.371	-1185.50469
209.593	-1419.72419
209.814	-588.96547
210.036	-840.71686
210.258	-694.19903
210.479	-1017.01157
210.701	-1777.43885
210.922	-1214.01982
211.144	-1012.98267
211.366	-1108.10248
211.587	1382.73864
211.809	-1142.14084
212.03	-6433.68341
212.252	832.4807
212.473	-942.34538
212.695	-18026.55963
212.916	-3440.31271
213.138	-1784.17295
213.359	-917.85197
213.581	-1421.43863
213.802	-874.47599
214.024	-1342.34629
214.245	-11285.89554
214.466	-894.18103
214.688	-1426.73147
214.909	-1012.10321
215.131	-2738.23579
215.352	-3889.95302
215.573	-1077.20062
215.795	-1826.62276
216.016	-1461.82872
216.237	-2972.77623
216.459	-1421.62246
216.68	-1044.76694
216.901	-1512.16169
217.122	12078.07444
217.344	-978.4303
217.565	-1279.45348
217.786	-1314.73593
218.007	-968.11113
218.228	-1283.14408
218.45	-1145.67981
218.671	-1051.4692
218.892	-975.0372
219.113	-1525.00091
219.334	-103.89509
219.555	-1592.40547
219.776	-1529.91879
219.997	-1241.29643
220.219	16667.09105
220.44	-1212.84973
220.661	-3199.17428
220.882	-912.54752
221.103	1647.01647
221.324	-2684.0926
221.545	-1146.95153
221.766	-1317.51549
221.987	-1788.13224
222.208	-2023.54593
222.429	-749.67921
222.65	-831.41681
222.87	-1510.95456
223.091	-3438.06571
223.312	3109.43078
223.533	-1158.64309
223.754	-1549.18115
223.975	-2162.0823
224.196	8472.09084
224.417	-7718.57151
224.637	3924.84038
224.858	138.33133
225.079	-1876.95548
225.3	26074.65485
225.521	-1045.64967
225.741	-5134.70297
225.962	7064.92411
226.183	338.3483
226.404	-3584.89035
226.624	2432.67787
226.845	-82871.67424
227.066	-642729.84462
227.286	876.16884
227.507	328.27993
227.728	284.46492
227.948	657.76
228.169	163.25233
228.389	168.18918
228.61	96.66655
228.831	133.31328
229.051	8.38377
229.272	70.75759
229.492	102.35473
229.713	26.97886
229.933	71.62118
230.154	59.03188
230.374	101.96407
230.595	74.22937
230.815	43.92408
231.036	74.50856
231.256	-10.36965
231.477	126.87544
231.697	74.14939
231.917	78.22264
232.138	117.10674
232.358	233.85914
232.579	188.48908
232.799	28.53969
233.019	192.21357
233.24	239.24745
233.46	78.49374
233.68	119.37821
233.901	77.84733
234.121	55.45166
234.341	18.58505
234.561	-8.28222
234.782	75.18413
235.002	133.93271
235.222	-2.02509
235.442	116.97173
235.662	56.15127
235.883	111.59946
236.103	94.38598
236.323	67.26883
236.543	50.7383
236.763	72.97959
236.983	84.06182
237.203	77.51175
237.423	111.70353
237.643	167.0735
237.864	148.70673
238.084	38.71609
238.304	47.18154
238.524	85.19132
238.744	77.97528
238.964	132.15142
239.184	114.47026
239.404	127.44144
239.624	65.05505
239.843	107.95006
240.063	65.91216
240.283	43.63689
240.503	45.76316
240.723	46.13382
240.943	27.91066
241.163	34.07725
241.383	24.32072
241.603	14.01975
241.822	14.54596
242.042	10.35793
242.262	14.43668
242.482	15.43825
242.702	17.02365
242.921	5.64315
243.141	10.62203
243.361	10.35305
243.581	15.4317
243.8	13.15453
244.02	7.75691
244.24	15.58231
244.459	14.41368
244.679	28.79023
244.899	18.44141
245.118	22.93118
245.338	20.47298
245.558	23.18592
245.777	13.24815
245.997	17.4589
246.216	17.5148
246.436	10.58417
246.655	7.37284
246.875	5.73285
247.094	10.43997
247.314	3.69254
247.533	6.16704
247.753	6.71379
247.972	5.38416
248.192	2.28634
248.411	3.19401
248.631	5.48019
248.85	6.8894
249.07	6.79499
249.289	9.36113
249.508	6.62385
249.728	10.6069
249.947	11.46441
250.166	14.95514
250.386	6.80382
250.605	11.64182
250.824	18.67535
251.044	12.46005
251.263	39.42815
251.482	22.58743
251.701	19.14829
251.921	0.54025
252.14	5.6042
252.359	6.94416
252.578	16.23849
252.798	5.9411
253.017	14.03519
253.236	6.83233
253.455	9.1608
253.674	18.72567
253.893	8.03315
254.112	12.79248
254.331	18.81831
254.551	16.24334
254.77	7.93517
254.989	21.96457
255.208	17.80221
255.427	26.39238
255.646	22.70385
255.865	32.76538
256.084	14.82016
256.303	18.55436
256.522	22.73802
256.741	5.21561
256.96	6.33036
257.179	13.83225
257.397	17.46816
257.616	10.20154
257.835	10.04521
258.054	24.5624
258.273	16.93471
258.492	17.18717
258.711	11.28649
258.93	4.84961
259.148	7.78151
259.367	7.4113
259.586	9.25448
259.805	4.23066
260.023	7.64738
260.242	5.65906
260.461	4.38811
260.68	2.50848
260.898	6.68134
261.117	2.25201
261.336	1.62807
261.554	5.35062
261.773	5.42961
261.992	1.58785
262.21	5.22605
262.429	6.50848
262.648	11.07106
262.866	12.60819
263.085	9.44923
263.303	7.51473
263.522	14.49622
263.74	13.81811
263.959	23.93164
264.178	12.55658
264.396	10.67069
264.615	7.8466
264.833	17.93323
265.051	14.40969
265.27	17.69249
265.488	17.27246
265.707	10.78289
265.925	17.18104
266.144	8.2197
266.362	9.41963
266.58	9.67364
266.799	8.21659
267.017	9.41245
267.235	9.00705
267.454	5.95013
267.672	3.02142
267.89	7.26738
268.109	7.77033
268.327	7.29672
268.545	1.3197
268.763	6.79217
268.982	2.76828
269.2	7.77861
269.418	4.91659
269.636	4.25937
269.854	7.20773
270.073	5.34228
270.291	2.9478
270.509	3.10249
270.727	7.26643
270.945	11.96745
271.163	11.57646
271.381	2.63485
271.599	4.98563
271.817	8.13936
272.036	2.85288
272.254	5.54821
272.472	3.72859
272.69	3.742
272.908	4.16556
273.126	6.32866
273.344	8.29777
273.562	3.04184
273.779	4.36736
273.997	6.75004
274.215	6.46905
274.433	4.67776
274.651	7.05274
274.869	7.13778
275.087	4.15986
275.305	6.46552
275.523	4.43293
275.74	4.88409
275.958	8.99427
276.176	12.82243
276.394	3.75832
276.612	5.45541
276.829	5.39964
277.047	4.82593
277.265	5.09537
277.483	6.11957
277.7	6.36632
277.918	5.68274
278.136	10.17498
278.353	4.81169
278.571	2.97293
278.789	8.00766
279.006	1.66963
279.224	4.76535
279.442	8.17731
279.659	5.73226
279.877	3.65158
280.094	8.28599
280.312	1.88432
280.529	5.79555
280.747	2.25657
280.964	4.92142
281.182	8.9247
281.399	4.85177
281.617	5.88146
281.834	4.35577
282.052	3.15264
282.269	5.32551
282.487	4.29072
282.704	3.71134
282.921	3.50913
283.139	5.3575
283.356	6.79427
283.574	6.32937
283.791	3.13335
284.008	8.35769
284.226	5.05215
284.443	5.59439
284.66	7.04093
284.877	5.68191
285.095	3.70567
285.312	2.84916
285.529	1.64503
285.746	1.63915
285.964	3.49689
286.181	2.2867
286.398	3.05417
286.615	4.58051
286.832	4.28737
287.05	1.10314
287.267	2.87716
287.484	3.11742
287.701	4.3802
287.918	4.16782
288.135	4.34752
288.352	1.85999
288.569	2.3706
288.786	4.15017
289.003	3.11709
289.22	5.07362
289.437	2.85837
289.654	4.59226
289.871	4.73392
290.088	4.91831
290.305	3.77119
290.522	3.23591
290.739	3.24259
290.956	4.90327
291.173	5.8045
291.39	5.45774
291.607	3.80414
291.824	3.29174
292.04	2.27823
292.257	4.85746
292.474	5.22592
292.691	3.51024
292.908	1.74186
293.125	2.8086
293.341	1.81511
293.558	8.19644
293.775	3.6479
293.992	3.87457
294.208	1.32835
294.425	2.26257
294.642	3.2455
294.858	4.61494
295.075	1.28573
295.292	3.2347
295.508	4.0087
295.725	5.62047
295.942	2.95192
296.158	2.14816
296.375	3.56938
296.591	2.69482
296.808	2.60347
297.024	3.19196
297.241	3.4861
297.458	3.75684
297.674	0.40029
297.891	2.95846
298.107	2.43963
298.323	1.83722
298.54	4.23225
298.756	2.1987
298.973	0.9663
299.189	4.51987
299.406	1.90691
299.622	4.53868
299.838	4.57732
300.055	4.05888
300.271	1.04275
300.487	1.79822
300.704	1.89856
300.92	1.16485
301.136	6.2149
301.353	4.84994
301.569	3.39475
301.785	3.46013
302.001	4.13174
302.218	3.69861
302.434	3.88934
302.65	1.38677
302.866	2.42629
303.083	6.52038
303.299	6.14021
303.515	3.28357
303.731	3.63442
303.947	1.16929
304.163	2.30565
304.379	3.45267
304.595	3.82528
304.812	2.28373
305.028	2.04746
305.244	2.68073
305.46	4.37734
305.676	4.32826
305.892	5.24178
306.108	3.84139
306.324	2.6888
306.54	6.04456
306.756	4.12111
306.972	4.05406
307.187	2.84958
307.403	5.75083
307.619	2.56452
307.835	4.9186
308.051	5.34239
308.267	1.7573
308.483	4.71925
308.699	3.88244
308.914	3.29345
309.13	3.37306
309.346	0.92301
309.562	1.61146
309.778	1.03121
309.993	3.89843
310.209	3.02517
310.425	1.44272
310.641	2.74629
310.856	1.55887
311.072	1.6415
311.288	2.99408
311.503	3.24861
311.719	0.70488
311.935	0.45
312.15	3.56978
312.366	3.08369
312.581	3.66249
312.797	2.61969
313.013	4.02535
313.228	2.20938
313.444	2.99557
313.659	1.83282
313.875	3.75489
314.09	2.87778
314.306	5.34757
314.521	4.34924
314.737	4.07507
314.952	3.65793
315.168	3.1553
315.383	3.80088
315.599	2.93291
315.814	2.57313
316.029	4.61256
316.245	1.35452
316.46	1.00604
316.675	5.13845
316.891	6.15791
317.106	7.63363
317.321	4.24023
317.537	3.8605
317.752	4.31249
317.967	4.28288
318.183	2.22867
318.398	2.93523
318.613	4.82643
318.828	5.44473
319.043	4.71634
319.259	3.19323
319.474	3.62809
319.689	5.22032
319.904	0.65034
320.119	4.53538
320.334	3.81281
320.549	2.85479
320.765	5.01569
320.98	3.85271
321.195	4.92921
321.41	3.26025
321.625	4.66603
321.84	6.10348
322.055	6.13509
322.27	2.65069
322.485	2.03794
322.7	3.76227
322.915	5.03799
323.13	2.13376
323.345	5.41581
323.56	3.9704
323.775	4.44773
323.989	4.17278
324.204	3.70642
324.419	4.51155
324.634	1.54634
324.849	3.24737
325.064	6.11745
325.279	4.80188
325.493	4.14543
325.708	4.91257
325.923	2.34652
326.138	2.41022
326.352	5.71594
326.567	4.54304
326.782	2.6999
326.997	2.2928
327.211	4.45432
327.426	4.03611
327.641	2.96592
327.855	1.01326
328.07	4.21117
328.285	5.91369
328.499	3.08879
328.714	3.91539
328.928	4.73386
329.143	3.48232
329.358	5.10154
329.572	4.83482
329.787	5.31821
330.001	7.34047
330.216	1.56198
330.43	6.00586
330.645	6.1035
330.859	4.93435
331.074	2.34911
331.288	3.83541
331.503	5.70117
331.717	2.18353
331.931	3.27272
332.146	3.90901
332.36	6.54368
332.575	4.34034
332.789	3.84347
333.003	3.30813
333.218	4.3769
333.432	2.45075
333.646	4.64461
333.86	5.98772
334.075	6.27603
334.289	2.71211
334.503	2.1233
334.717	4.37795
334.932	4.16974
335.146	5.22836
335.36	2.74365
335.574	4.43441
335.788	4.25052
336.003	5.01142
336.217	4.62454
336.431	4.30608
336.645	2.76442
336.859	1.83002
337.073	3.40596
337.287	3.68057
337.501	2.14247
337.715	3.91107
337.929	4.5334
338.143	1.89653
338.357	3.40866
338.571	2.31389
338.785	4.25806
338.999	2.73647
339.213	2.62479
339.427	1.49118
339.641	5.13744
339.855	2.96739
340.069	2.47421
340.283	4.889
340.497	5.87141
340.711	3.98559
340.924	3.02785
341.138	2.15104
341.352	1.56361
341.566	3.66772
341.78	0.79115
341.993	2.5757
342.207	2.10894
342.421	3.78704
342.635	3.30834
342.848	2.63171
343.062	0.33543
343.276	2.3213
343.49	6.37309
343.703	2.46899
343.917	4.58135
344.131	4.65667
344.344	2.44204
344.558	2.78291
344.771	2.00299
344.985	5.02436
345.199	5.62374
345.412	3.73822
345.626	3.67305
345.839	1.03978
346.053	1.79053
346.266	1.83935
346.48	4.16562
346.693	3.64268
346.907	3.81756
347.12	2.02332
347.334	3.50039
347.547	3.77853
347.76	2.81918
347.974	4.98621
348.187	3.71843
348.401	2.8372
348.614	2.60192
348.827	2.8427
349.041	3.92664
349.254	0.81869
349.467	3.09465
349.681	1.66246
349.894	2.51593
350.107	4.82692
350.32	5.6898
350.534	1.11047
350.747	2.79417
350.96	1.89805
351.173	2.03717
351.386	2.66068
351.6	2.52795
351.813	2.18661
352.026	3.1474
352.239	1.48927
352.452	2.93903
352.665	4.41136
352.878	2.68353
353.092	6.02976
353.305	4.02833
353.518	3.22605
353.731	2.0275
353.944	4.47575
354.157	2.1583
354.37	1.99853
354.583	1.70761
354.796	0.7851
355.009	4.6072
355.222	3.06244
355.435	3.20481
355.647	4.5497
355.86	1.58427
356.073	2.90895
356.286	2.34506
356.499	3.97442
356.712	3.38017
356.925	3.44606
357.138	4.18042
357.35	1.54268
357.563	2.38841
357.776	2.9364
357.989	2.38356
358.201	3.44186
358.414	3.06196
358.627	4.07936
358.84	2.35253
359.052	1.49201
359.265	1.34451
359.478	4.04338
359.69	-0.47999
359.903	3.74188
360.116	3.78344
360.328	0.76358
360.541	3.66556
360.753	1.47841
360.966	1.90529
361.179	2.01844
361.391	1.964
361.604	1.38484
361.816	1.91833
362.029	1.65726
362.241	1.35034
362.454	1.75746
362.666	1.50357
362.879	2.43944
363.091	2.0242
363.304	1.433
363.516	2.31601
363.728	0.97204
363.941	3.13156
364.153	1.74259
364.366	-0.14525
364.578	1.22695
364.79	2.97849
365.003	2.32812
365.215	1.99245
365.427	3.03173
365.639	3.90979
365.852	2.81405
366.064	4.77244
366.276	1.84888
366.488	3.02378
366.701	2.01931
366.913	2.28515
367.125	2.31861
367.337	1.61377
367.549	1.92647
367.762	2.57186
367.974	2.54074
368.186	1.56951
368.398	3.75241
368.61	3.30146
368.822	3.4669
369.034	2.46084
369.246	3.19935
369.458	5.35795
369.67	1.4851
369.882	4.86597
370.094	0.24891
370.306	4.4724
370.518	2.11982
370.73	1.72498
370.942	1.54625
371.154	2.18055
371.366	1.84052
371.578	2.80307
371.79	1.42694
372.002	3.92118
372.214	4.57674
372.425	2.83677
372.637	4.09263
372.849	2.84585
373.061	-0.02297
373.273	2.98945
373.484	3.10281
373.696	3.4686
373.908	-0.20151
374.12	3.77667
374.331	2.9272
374.543	1.6905
374.755	1.31326
374.967	2.56021
375.178	3.48151
375.39	2.26148
375.602	2.5127
375.813	0.93208
376.025	0.98921
376.236	2.20125
376.448	2.61921
376.66	1.79257
376.871	1.82797
377.083	3.45093
377.294	3.50493
377.506	1.68096
377.717	3.85576
377.929	2.42582
378.14	1.31035
378.352	3.00842
378.563	2.72468
378.775	3.82605
378.986	1.50107
379.197	2.30913
379.409	1.75629
379.62	3.30656
379.832	2.55298
380.043	1.86411
380.254	2.53562
380.466	0.97658
380.677	5.56231
380.888	5.09841
381.1	5.36854
381.311	5.06907
381.522	2.21138
381.733	5.86137
381.945	2.07095
382.156	2.6197
382.367	1.51905
382.578	5.55677
382.789	5.34659
383.001	1.88678
383.212	3.95922
383.423	4.07274
383.634	3.64174
383.845	2.69998
384.056	1.85125
384.267	2.24317
384.478	2.12284
384.69	0.98187
384.901	3.03098
385.112	2.78275
385.323	4.17753
385.534	2.83857
385.745	2.44827
385.956	2.78932
386.167	1.19271
386.378	2.96136
386.588	0.85211
386.799	1.5273
387.01	0.43306
387.221	3.20049
387.432	2.16004
387.643	4.63838
387.854	1.937
388.065	1.81732
388.275	1.99544
388.486	1.84283
388.697	2.11004
388.908	1.92436
389.119	3.56411
389.329	4.31218
389.54	2.35934
389.751	2.87901
389.962	3.7808
390.172	2.66028
390.383	1.61174
390.594	1.54827
390.804	1.53448
391.015	1.48783
391.226	2.19871
391.436	2.72789
391.647	2.56802
391.858	2.88681
392.068	0.39252
392.279	0.79801
392.489	2.07647
392.7	3.46219
392.91	0.87771
393.121	1.32257
393.331	2.78435
393.542	3.52964
393.752	2.37026
393.963	2.28326
394.173	2.11962
394.384	2.89165
394.594	2.04016
394.804	0.8586
395.015	2.23026
395.225	2.89988
395.436	0.79999
395.646	2.82192
395.856	1.18566
396.067	0.86385
396.277	3.25299
396.487	2.71359
396.697	2.04502
396.908	3.1163
397.118	3.13935
397.328	2.38662
397.538	3.377
397.749	1.55592
397.959	3.34081
398.169	3.10104
398.379	0.95702
398.589	3.18258
398.8	2.28934
399.01	2.04709
399.22	1.80916
399.43	4.88081
399.64	1.81755
399.85	3.05674
400.06	1.95963
400.27	1.59029
400.48	2.42857
400.69	4.11607
400.9	1.80892
401.11	1.54413
401.32	3.38094
401.53	1.77898
401.74	4.3113
401.95	3.20176
402.16	1.19382
402.37	2.95345
402.58	1.6151
402.79	3.14904
403	3.25353
403.209	1.75715
403.419	3.17878
403.629	1.72297
403.839	3.18466
404.049	3.15668
404.258	1.41371
404.468	1.12769
404.678	2.79428
404.888	2.86557
405.097	1.0657
405.307	2.04021
405.517	2.68198
405.727	2.41873
405.936	1.78321
406.146	2.50024
406.356	3.66466
406.565	2.2006
406.775	1.80553
406.984	1.79644
407.194	4.19159
407.404	2.4067
407.613	2.67618
407.823	3.16804
408.032	3.55086
408.242	3.58582
408.451	1.74557
408.661	2.2342
408.87	4.42286
409.08	1.84424
409.289	2.97917
409.499	2.66042
409.708	2.68653
409.918	0.37134
410.127	2.34212
410.336	4.02933
410.546	3.00852
410.755	2.11197
410.964	1.93483
411.174	1.65005
411.383	3.08301
411.592	3.02867
411.802	1.39368
412.011	3.65097
412.22	2.49247
412.429	4.0312
412.639	3.8935
412.848	4.05152
413.057	4.31858
413.266	3.86224
413.475	2.62295
413.685	3.56291
413.894	3.62802
414.103	3.87234
414.312	3.38024
414.521	2.61253
414.73	2.94649
414.939	4.69123
415.148	3.20243
415.357	2.95698
415.566	2.11991
415.776	2.25407
415.985	1.95296
416.194	3.36985
416.403	4.15673
416.611	1.21481
416.82	1.80402
417.029	2.39654
417.238	1.55581
417.447	1.27906
417.656	1.72059
417.865	1.45165
418.074	1.65693
418.283	1.96779
418.492	2.71522
418.7	2.52845
418.909	3.16993
419.118	2.05487
419.327	2.27024
419.536	2.02758
419.744	1.29016
419.953	2.58198
420.162	2.52583
420.371	1.1748
420.579	0.89678
420.788	2.12027
420.997	1.97741
421.205	2.05523
421.414	1.70356
421.623	1.4954
421.831	1.16794
422.04	2.17578
422.249	1.26018
422.457	1.99616
422.666	1.34012
422.874	2.50411
423.083	2.4391
423.291	2.27525
423.5	1.86397
423.708	2.01097
423.917	2.34917
424.125	1.83093
424.334	1.43503
424.542	3.45392
424.751	2.53656
424.959	2.41334
425.167	2.73491
425.376	2.75932
425.584	2.05612
425.793	2.56785
426.001	1.61939
426.209	2.91645
426.418	1.76572
426.626	2.05292
426.834	1.71796
427.042	2.48208
427.251	1.94938
427.459	3.37064
427.667	2.82467
427.875	1.5014
428.084	2.19527
428.292	3.80311
428.5	2.93704
428.708	1.91619
428.916	1.7141
429.124	2.82676
429.333	2.36252
429.541	2.38522
429.749	2.62437
429.957	2.60787
430.165	4.74723
430.373	1.74892
430.581	2.96231
430.789	3.94785
430.997	2.11604
431.205	2.17182
431.413	2.6594
431.621	2.33318
431.829	3.19008
432.037	2.31898
432.245	2.66731
432.453	2.79681
432.661	2.1701
432.869	4.31669
433.076	1.54669
433.284	2.29693
433.492	2.78467
433.7	3.54066
433.908	1.96346
434.116	2.55933
434.323	2.53747
434.531	2.55295
434.739	2.95288
434.947	3.38043
435.154	3.16299
435.362	2.83984
435.57	2.50274
435.778	2.35148
435.985	3.06755
436.193	2.35502
436.401	3.79789
436.608	2.81003
436.816	2.40107
437.023	4.25276
437.231	4.28309
437.439	2.9307
437.646	3.12905
437.854	3.13213
438.061	3.32096
438.269	2.49203
438.476	3.24748
438.684	2.87229
438.891	2.2692
439.099	1.8545
439.306	1.23812
439.514	1.69583
439.721	2.74085
439.929	1.91491
440.136	2.82248
440.343	2.6305
440.551	2.09791
440.758	3.88363
440.965	2.93625
441.173	2.53254
441.38	1.87843
441.587	2.84855
441.795	2.07759
442.002	2.84794
442.209	3.03447
442.416	3.41737
442.624	3.18031
442.831	3.16697
443.038	2.26871
443.245	1.97324
443.452	2.40776
443.66	3.58914
443.867	1.97276
444.074	2.38617
444.281	2.20591
444.488	2.54775
444.695	2.57056
444.902	2.21446
445.109	2.89219
445.316	2.20137
445.523	1.9976
445.73	1.58592
445.937	2.33209
446.144	2.72662
446.351	2.44983
446.558	1.67173
446.765	2.77787
446.972	3.05972
447.179	2.09978
447.386	3.44153
447.593	2.09029
447.8	3.38543
448.007	2.20869
448.214	2.60437
448.42	2.16854
448.627	3.68502
448.834	2.56292
449.041	2.54605
449.248	2.61106
449.454	3.76604
449.661	4.58095
449.868	2.82854
450.075	2.40941
450.281	1.21633
450.488	1.99515
450.695	2.48416
450.901	2.20206
451.108	2.83086
451.315	3.89587
451.521	2.93658
451.728	3.68098
451.935	2.42501
452.141	3.03292
452.348	2.9532
452.554	2.6215
452.761	2.68369
452.967	4.24959
453.174	3.09654
453.38	3.17045
453.587	1.9516
453.793	3.08032
454	3.93616
454.206	4.89828
454.413	4.27842
454.619	3.36877
454.825	2.42094
455.032	3.53408
455.238	4.01666
455.445	2.08029
455.651	3.29621
455.857	1.50325
456.064	2.92541
456.27	2.9087
456.476	2.85774
456.682	1.89303
456.889	3.52743
457.095	3.70217
457.301	5.32439
457.507	3.16138
457.714	3.1815
457.92	2.81411
458.126	2.35478
458.332	2.66551
458.538	2.31401
458.744	2.27727
458.951	2.33565
459.157	3.75829
459.363	2.60258
459.569	2.25308
459.775	3.13508
459.981	1.80607
460.187	2.34954
460.393	2.9351
460.599	3.57757
460.805	2.665
461.011	2.77264
461.217	3.68613
461.423	4.00035
461.629	2.8192
461.835	3.7839
462.041	2.91038
462.247	4.62069
462.453	3.08056
462.658	3.2858
462.864	3.95426
463.07	3.71266
463.276	3.6429
463.482	3.62705
463.688	4.35054
463.893	3.06592
464.099	3.07427
464.305	4.93343
464.511	2.90182
464.716	3.37472
464.922	3.87437
465.128	2.86184
465.333	5.07872
465.539	3.87675
465.745	3.02588
465.95	3.75518
466.156	5.88255
466.362	4.57134
466.567	3.24813
466.773	3.07135
466.978	4.92171
467.184	2.56416
467.389	1.47971
467.595	3.9896
467.8	2.46452
468.006	4.57636
468.211	4.35625
468.417	2.51807
468.622	3.95793
468.828	4.27845
469.033	3.66765
469.239	6.25767
469.444	2.98146
469.649	4.52067
469.855	3.24827
470.06	3.74526
470.266	2.60128
470.471	4.13429
470.676	3.92987
470.881	2.21046
471.087	4.72287
471.292	5.14046
471.497	2.50354
471.703	3.22945
471.908	3.12506
472.113	3.67626
472.318	4.27023
472.523	2.61789
472.729	3.96232
472.934	4.05851
473.139	3.24461
473.344	4.17531
473.549	4.6736
473.754	2.94291
473.959	5.43125
474.164	2.94062
474.369	3.56293
474.575	4.62284
474.78	3.68797
474.985	3.11116
475.19	2.11598
475.395	2.84253
475.6	3.39953
475.804	4.77658
476.009	3.40622
476.214	3.6027
476.419	2.97918
476.624	1.87471
476.829	2.66606
477.034	3.78689
477.239	2.51183
477.444	3.56597
477.648	3.62391
477.853	3.88789
478.058	2.91225
478.263	2.73884
478.468	2.17967
478.672	2.38231
478.877	4.08233
479.082	4.89761
479.287	3.49853
479.491	3.35579
479.696	2.11688
479.901	4.13698
480.105	3.82843
480.31	2.68265
480.515	3.13349
480.719	5.04757
480.924	2.43347
481.128	1.94727
481.333	3.02139
481.538	3.12244
481.742	2.38196
481.947	2.87601
482.151	2.85737
482.356	2.26413
482.56	2.71106
482.765	2.69762
482.969	3.25136
483.174	3.75248
483.378	4.48804
483.582	4.07467
483.787	4.81317
483.991	4.60452
484.196	4.74202
484.4	4.65485
484.604	5.07176
484.809	4.12605
485.013	4.4027
485.217	3.88512
485.422	3.39743
485.626	3.20813
485.83	2.98507
486.034	2.85832
486.239	2.99697
486.443	2.90055
486.647	2.67113
486.851	3.31344
487.055	3.60329
487.26	2.9393
487.464	3.34437
487.668	2.82516
487.872	2.69457
488.076	3.43778
488.28	3.05296
488.484	2.87235
488.688	2.90234
488.892	3.14003
489.096	3.06269
489.3	2.53285
489.504	2.60573
489.708	3.08189
489.912	3.0859
490.116	3.05188
490.32	2.12648
490.524	2.7151
490.728	2.60933
490.932	2.47938
491.136	2.25056
491.34	3.21093
491.544	3.2365
491.748	2.78665
491.951	2.93271
492.155	2.72268
492.359	2.92768
492.563	2.27746
492.767	2.21783
492.97	2.46011
493.174	2.29002
493.378	2.66095
493.582	2.23207
493.785	3.05386
493.989	3.19013
494.193	3.24992
494.396	2.86265
494.6	3.85533
494.804	3.17444
495.007	2.70712
495.211	2.50938
495.414	3.13666
495.618	3.11943
495.822	4.03156
496.025	3.03374
496.229	3.67149
496.432	2.09834
496.636	2.88136
496.839	2.6359
497.043	4.25461
497.246	2.97478
497.45	2.52815
497.653	2.51214
497.856	3.13079
498.06	1.87289
498.263	2.6313
498.467	2.16867
498.67	3.8129
498.873	3.31304
499.077	2.66248
499.28	2.62802
499.483	3.42395
499.686	3.61075
499.89	3.59138
500.093	3.73727
500.296	2.62492
500.499	4.36059
500.703	3.16533
500.906	3.24588
501.109	4.96861
501.312	3.11142
501.515	3.04853
501.719	3.64491
501.922	4.69024
502.125	3.60054
502.328	3.19143
502.531	2.17796
502.734	3.36937
502.937	1.57981
503.14	3.26173
503.343	2.11747
503.546	2.73482
503.749	2.56164
503.952	3.66938
504.155	2.34042
504.358	3.6727
504.561	3.10257
504.764	2.10001
504.967	3.04413
505.17	3.19793
505.373	4.52026
505.576	3.41226
505.778	3.72335
505.981	2.79993
506.184	4.333
506.387	1.90421
506.59	4.85152
506.793	4.16292
506.995	3.57947
507.198	1.54252
507.401	3.18362
507.604	3.46813
507.806	2.10167
508.009	2.3649
508.212	3.30036
508.414	2.43103
508.617	2.24223
508.82	2.76433
509.022	3.77123
509.225	3.08767
509.427	1.40013
509.63	3.94311
509.833	2.76077
510.035	2.76162
510.238	1.53504
510.44	3.76867
510.643	1.07335
510.845	5.02061
511.048	3.24156
511.25	2.65158
511.453	2.83581
511.655	3.29345
511.858	2.52212
512.06	3.52255
512.262	2.81626
512.465	3.53015
512.667	2.19709
512.869	2.12566
513.072	3.26235
513.274	3.79464
513.476	3.38648
513.679	3.68412
513.881	1.93232
514.083	4.51075
514.286	2.44873
514.488	2.69025
514.69	2.33532
514.892	2.12922
515.094	3.46267
515.297	2.80218
515.499	3.27446
515.701	2.44604
515.903	4.49346
516.105	4.37407
516.307	3.57772
516.509	1.334
516.711	1.9238
516.913	3.05124
517.116	2.65535
517.318	2.40347
517.52	3.66684
517.722	3.10772
517.924	1.45551
518.126	2.76968
518.328	1.76778
518.529	2.67952
518.731	3.59445
518.933	1.87785
519.135	2.3427
519.337	3.19941
519.539	2.771
519.741	1.18603
519.943	2.51785
520.145	2.4842
520.346	3.0148
520.548	2.3874
520.75	3.03107
520.952	2.4544
521.153	2.84655
521.355	3.38678
521.557	2.02858
521.759	3.23452
521.96	3.03681
522.162	2.27866
522.364	3.82287
522.565	2.34444
522.767	3.64133
522.969	4.20532
523.17	3.32426
523.372	3.50936
523.573	2.02184
523.775	2.69384
523.977	1.96378
524.178	4.26512
524.38	2.13411
524.581	3.13529
524.783	2.34016
524.984	2.94182
525.186	2.33894
525.387	2.86534
525.589	2.28159
525.79	1.96563
525.991	1.58051
526.193	2.44121
526.394	1.08899
526.596	2.32742
526.797	2.02102
526.998	1.78724
527.2	0.98876
527.401	2.17542
527.602	1.73794
527.803	2.84011
528.005	2.1068
528.206	2.53263
528.407	2.62747
528.608	2.23609
528.81	2.30424
529.011	1.81557
529.212	2.80449
529.413	2.33215
529.614	2.16724
529.815	2.53808
530.017	2.3484
530.218	2.16754
530.419	1.8487
530.62	2.27391
530.821	2.41627
531.022	1.52422
531.223	2.78963
531.424	2.85438
531.625	2.48705
531.826	2.45842
532.027	2.27252
532.228	2.9627
532.429	2.05447
532.63	1.78343
532.831	1.91311
533.032	1.98405
533.233	2.31276
533.433	2.13849
533.634	2.30921
533.835	1.74731
534.036	1.54797
534.237	2.08097
534.438	1.80628
534.638	1.73191
534.839	1.72391
535.04	2.79548
535.241	2.03188
535.441	3.55572
535.642	2.63477
535.843	1.65363
536.043	1.47036
536.244	1.84941
536.445	1.72291
536.645	2.90511
536.846	2.15575
537.047	3.16475
537.247	1.66022
537.448	2.2012
537.648	2.42998
537.849	2.56364
538.049	2.52683
538.25	3.41317
538.451	3.00362
538.651	2.26416
538.851	3.1973
539.052	3.71851
539.252	3.45354
539.453	2.76402
539.653	2.53122
539.854	2.63706
540.054	2.20643
540.254	2.8437
540.455	2.54858
540.655	1.58031
540.855	1.94687
541.056	2.30384
541.256	1.74651
541.456	2.71208
541.657	1.7662
541.857	2.76642
542.057	1.39285
542.257	1.45415
542.458	2.31947
542.658	2.69057
542.858	1.47178
543.058	3.07638
543.258	2.65444
543.458	1.63037
543.659	1.38212
543.859	3.0436
544.059	2.92502
544.259	2.42331
544.459	3.22094
544.659	2.08367
544.859	3.11754
545.059	2.30617
545.259	3.11179
545.459	2.8706
545.659	3.33743
545.859	2.80679
546.059	2.92904
546.259	1.91559
546.459	1.25957
546.659	1.83529
546.859	3.14277
547.059	2.97931
547.258	3.13782
547.458	2.97175
547.658	1.71953
547.858	2.18706
548.058	3.12321
548.258	3.02972
548.457	2.37565
548.657	5.95813
548.857	3.08593
549.057	4.11747
549.256	3.86675
549.456	3.40218
549.656	1.73409
549.855	5.74198
550.055	3.58186
550.255	5.60059
550.454	4.53833
550.654	5.12631
550.853	5.2307
551.053	4.92392
551.253	4.2092
551.452	4.12357
551.652	2.64547
551.851	1.75184
552.051	3.18635
552.25	3.12296
552.45	2.67911
552.649	3.08407
552.849	2.55135
553.048	3.55163
553.248	4.15494
553.447	2.82427
553.646	4.64241
553.846	5.24461
554.045	4.77825
554.244	2.74988
554.444	5.85272
554.643	2.89108
554.842	5.50395
555.042	6.49856
555.241	3.44688
555.44	3.14003
555.64	4.22118
555.839	6.06995
556.038	4.79032
556.237	3.69659
556.436	3.89867
556.636	4.63771
556.835	3.18351
557.034	5.93349
557.233	4.15209
557.432	3.00774
557.631	5.4478
557.83	3.86239
558.029	3.61122
558.228	3.90784
558.427	3.1227
558.626	4.90903
558.825	3.48066
559.024	4.72521
559.223	6.3834
559.422	4.38187
559.621	4.91435
559.82	1.61795
560.019	4.41009
560.218	3.86101
560.417	1.06929
560.616	4.01607
560.815	8.12119
561.014	2.53948
561.212	5.19664
561.411	4.33665
561.61	2.34784
561.809	3.93294
562.008	6.15265
562.206	4.13331
562.405	4.90844
562.604	4.12179
562.803	4.39359
563.001	4.15124
563.2	2.66725
563.399	5.07422
563.597	2.89367
563.796	4.64667
563.995	2.73301
564.193	5.09047
564.392	3.64945
564.59	6.90759
564.789	1.92693
564.988	3.87588
565.186	4.134
565.385	3.60235
565.583	3.2411
565.782	3.66946
565.98	3.34041
566.179	3.58421
566.377	2.03121
566.575	2.71277
566.774	4.82772
566.972	4.76955
567.171	6.08533
567.369	5.36668
567.567	4.04164
567.766	4.49979
567.964	1.59171
568.162	4.99477
568.361	5.55741
568.559	4.20816
568.757	4.97582
568.956	4.43706
569.154	4.06715
569.352	5.47139
569.55	4.07519
569.748	4.23126
569.947	3.25628
570.145	3.30173
570.343	2.59823
570.541	5.46266
570.739	2.3692
570.937	4.2447
571.135	4.46673
571.333	5.8877
571.532	5.58006
571.73	4.32172
571.928	4.95786
572.126	4.43455
572.324	3.34405
572.522	5.31433
572.72	6.72462
572.918	3.86586
573.116	4.17782
573.313	4.16529
573.511	3.62712
573.709	3.78754
573.907	4.59493
574.105	3.6881
574.303	2.21377
574.501	2.38299
574.699	4.20153
574.896	4.29263
575.094	4.90471
575.292	2.63109
575.49	5.08914
575.688	3.9973
575.885	5.86501
576.083	6.30236
576.281	4.64551
576.478	4.07868
576.676	5.03877
576.874	3.30708
577.071	4.3035
577.269	7.68621
577.467	4.60051
577.664	4.78424
577.862	5.65397
578.059	3.8802
578.257	5.96215
578.455	4.66249
578.652	4.93467
578.85	2.67832
579.047	5.24128
579.245	5.03529
579.442	5.0725
579.64	5.265
579.837	2.69514
580.034	8.12311
580.232	4.61052
580.429	3.82805
580.627	6.14503
580.824	7.34092
581.021	6.01027
581.219	4.90196
581.416	4.11877
581.613	7.43205
581.811	6.98143
582.008	4.10977
582.205	6.68277
582.402	5.733
582.6	8.51357
582.797	5.79418
582.994	6.58379
583.191	6.62075
583.388	5.84635
583.586	6.79305
583.783	7.23732
583.98	4.15742
584.177	5.89018
584.374	1.57949
584.571	5.7032
584.768	5.54831
584.965	5.23166
585.162	6.83827
585.359	8.08399
585.556	5.68671
585.753	6.44729
585.95	3.83393
586.147	4.79435
586.344	6.57027
586.541	5.34065
586.738	4.08783
586.935	5.76755
587.132	4.74342
587.329	7.49178
587.526	5.66109
587.722	13.03869
587.919	3.6072
588.116	6.35801
588.313	8.17767
588.51	8.90524
588.706	5.37609
588.903	6.44234
589.1	7.16808
589.297	10.08445
589.493	5.74277
589.69	6.51049
589.887	5.04523
590.083	3.89494
590.28	4.50396
590.477	7.16128
590.673	6.80626
590.87	8.03503
591.067	5.25265
591.263	6.86905
591.46	6.78163
591.656	5.9763
591.853	8.17546
592.049	4.60403
592.246	5.22167
592.442	8.2597
592.639	6.7712
592.835	3.99598
593.032	6.71546
593.228	4.09131
593.425	3.88712
593.621	3.59129
593.817	5.83571
594.014	4.66986
594.21	6.00706
594.406	7.17182
594.603	6.34704
594.799	5.09325
594.995	2.51059
595.192	7.27668
595.388	4.80848
595.584	4.6827
595.78	3.21596
595.977	8.36624
596.173	7.98544
596.369	4.85082
596.565	3.76092
596.761	3.04434
596.957	6.9454
597.154	3.83506
597.35	4.39254
597.546	3.94609
597.742	5.84082
597.938	5.57625
598.134	3.98746
598.33	5.64113
598.526	8.11841
598.722	6.7773
598.918	8.75313
599.114	7.17306
599.31	4.83121
599.506	6.83201
599.702	5.27675
599.898	7.0581
600.094	8.5229
600.29	7.94269
600.485	7.81067
600.681	5.89849
600.877	9.25195
601.073	6.68424
601.269	9.59126
601.465	8.89483
601.66	5.14558
601.856	3.53406
602.052	8.85339
602.248	5.60696
602.443	2.66492
602.639	3.95399
602.835	4.39154
603.03	4.5686
603.226	7.03464
603.422	4.05871
603.617	4.92611
603.813	4.56264
604.009	4.22684
604.204	6.72413
604.4	2.6619
604.595	6.45328
604.791	3.59564
604.986	5.39213
605.182	3.85004
605.377	4.53907
605.573	4.37551
605.768	5.44356
605.964	6.33615
606.159	6.63981
606.355	7.95632
606.55	5.47202
606.746	7.92519
606.941	6.18867
607.136	9.70829
607.332	11.15988
607.527	4.4517
607.722	7.01596
607.918	6.18832
608.113	4.59846
608.308	7.12125
608.503	6.90223
608.699	6.5201
608.894	6.55441
609.089	4.36921
609.284	6.07673
609.479	4.66881
609.675	6.44746
609.87	4.91577
610.065	6.41164
610.26	7.40414
610.455	7.33126
610.65	5.60266
610.845	6.42061
611.04	7.59481
611.235	6.23113
611.43	5.86158
611.625	4.3924
611.82	8.89274
612.015	5.12913
612.21	9.48637
612.405	4.32823
612.6	10.83708
612.795	9.47493
612.99	8.88242
613.185	5.04311
613.38	5.76467
613.575	7.8228
613.77	12.15435
613.965	4.17044
614.159	5.50938
614.354	9.60852
614.549	9.38515
614.744	8.54229
614.938	5.57856
615.133	4.93472
615.328	9.82353
615.523	9.72615
615.717	13.00563
615.912	6.53737
616.107	7.8264
616.301	6.60127
616.496	6.15453
616.691	11.31044
616.885	8.90707
617.08	11.97261
617.274	10.25426
617.469	12.36819
617.664	8.91577
617.858	6.42198
618.053	7.89321
618.247	6.84046
618.442	3.75043
618.636	10.237
618.831	6.93521
619.025	6.98643
619.219	12.80634
619.414	1.39797
619.608	8.21467
619.803	5.94003
619.997	12.19654
620.191	10.42783
620.386	8.92605
620.58	8.32095
620.774	4.62614
620.969	4.96382
621.163	8.42793
621.357	5.47459
621.551	7.19429
621.746	8.32557
621.94	7.93817
622.134	15.81907
622.328	12.61609
622.522	5.03025
622.716	10.29711
622.911	9.88013
623.105	9.91532
623.299	8.92346
623.493	15.09506
623.687	6.48224
623.881	7.34577
624.075	9.73847
624.269	10.34206
624.463	4.45744
624.657	4.88898
624.851	9.33051
625.045	9.86206
625.239	10.05688
625.433	6.29324
625.627	11.01735
625.821	6.78499
626.015	5.96539
626.209	7.49183
626.403	4.67885
626.596	8.21405
626.79	8.95203
626.984	4.62729
627.178	8.31923
627.372	8.09937
627.565	9.09432
627.759	4.32714
627.953	5.14424
628.147	8.42914
628.34	8.94117
628.534	12.12426
628.728	7.2469
628.921	10.30401
629.115	9.89077
629.309	10.11244
629.502	10.54715
629.696	8.98569
629.89	8.04226
630.083	8.98426
630.277	9.76943
630.47	12.95805
630.664	7.83627
630.857	5.65393
631.051	10.27889
631.244	11.45288
631.438	11.11705
631.631	7.18023
631.825	11.33047
632.018	10.65528
632.212	12.90693
632.405	11.70547
632.598	7.24287
632.792	9.33435
632.985	3.46315
633.178	7.66695
633.372	8.80544
633.565	8.61712
633.758	11.9245
633.952	6.6809
634.145	6.87524
634.338	8.44977
634.531	7.88191
634.724	7.18403
634.918	8.99635
635.111	8.33625
635.304	7.76428
635.497	13.82099
635.69	9.53157
635.883	11.61198
636.077	6.13781
636.27	10.23793
636.463	9.51697
636.656	10.28518
636.849	8.10936
637.042	10.33505
637.235	13.45942
637.428	11.39916
637.621	10.75758
637.814	13.08387
638.007	13.63996
638.2	14.06882
638.393	15.22143
638.586	6.80818
638.778	8.61619
638.971	10.21283
639.164	14.97222
639.357	11.54492
639.55	13.67104
639.743	12.22045
639.935	12.83401
640.128	15.30276
640.321	11.85017
640.514	11.09493
640.707	18.06885
640.899	12.40487
641.092	6.11461
641.285	30.6538
641.477	4.8818
641.67	16.74816
641.863	13.96777
642.055	11.46516
642.248	10.79432
642.441	9.75689
642.633	12.14762
642.826	15.74754
643.018	14.27776
643.211	16.33326
643.403	15.48404
643.596	17.07994
643.788	16.71709
643.981	10.06396
644.173	13.58504
644.366	10.41044
644.558	6.44633
644.751	13.88777
644.943	7.42441
645.135	16.76772
645.328	17.06493
645.52	13.91348
645.712	14.44648
645.905	21.23489
646.097	8.32365
646.289	12.67549
646.482	17.504
646.674	10.11991
646.866	14.88665
647.058	13.18398
647.251	8.78889
647.443	9.90507
647.635	11.52478
647.827	8.61797
648.019	8.87128
648.211	12.07896
648.404	12.22413
648.596	16.78927
648.788	13.06639
648.98	12.78075
649.172	12.97105
649.364	12.99007
649.556	6.58163
649.748	19.46592
649.94	8.86838
650.132	13.69237
650.324	9.34472
650.516	9.8476
650.708	15.32592
650.9	7.6458
651.092	10.62732
651.284	6.92443
651.476	8.73329
651.667	13.78004
651.859	15.0154
652.051	11.93035
652.243	12.3917
652.435	9.94758
652.627	12.8642
652.818	13.05632
653.01	6.95797
653.202	9.37941
653.394	10.96203
653.585	13.66678
653.777	26.84952
653.969	16.77363
654.16	16.43159
654.352	9.7027
654.544	12.46723
654.735	16.37915
654.927	13.49892
655.118	18.1451
655.31	15.43801
655.502	15.41984
655.693	10.95369
655.885	14.55971
656.076	17.34161
656.268	12.45008
656.459	16.84538
656.651	17.062
656.842	10.48625
657.034	9.9973
657.225	14.61968
657.416	17.1395
657.608	16.81688
657.799	11.26834
657.99	15.33801
658.182	9.1066
658.373	9.70877
658.564	13.66124
658.756	11.53869
658.947	10.78023
659.138	8.02608
659.33	9.31562
659.521	8.44332
659.712	10.2789
659.903	10.33492
660.094	9.23783
660.286	6.45379
660.477	17.56239
660.668	13.61263
660.859	11.81292
661.05	7.43481
661.241	14.08405
661.432	14.55529
661.623	11.9097
661.814	10.37693
662.006	7.38743
662.197	14.75095
662.388	16.7573
662.579	14.62262
662.77	18.677
662.96	23.90202
663.151	16.61884
663.342	7.63217
663.533	15.34112
663.724	13.21356
663.915	19.59034
664.106	14.00771
664.297	20.25719
664.488	17.10551
664.678	12.95739
664.869	16.45314
665.06	17.89364
665.251	15.65349
665.442	16.50225
665.632	11.20893
665.823	21.80127
666.014	3.94759
666.204	16.21867
666.395	19.66552
666.586	25.93624
666.776	17.85333
666.967	21.65424
667.158	15.10091
667.348	20.7387
667.539	10.29429
667.729	18.10677
667.92	12.03207
668.111	18.17188
668.301	17.09742
668.492	13.50987
668.682	14.25817
668.873	13.69121
669.063	9.9346
669.253	14.47827
669.444	17.76703
669.634	14.09719
669.825	21.2403
670.015	18.68694
670.206	11.97262
670.396	23.60299
670.586	14.20185
670.777	17.07745
670.967	7.18505
671.157	14.74945
671.347	12.56705
671.538	21.17889
671.728	16.72813
671.918	22.93395
672.108	20.24982
672.299	15.75002
672.489	17.08062
672.679	13.20005
672.869	18.9202
673.059	22.32988
673.249	17.56245
673.44	12.17483
673.63	15.3428
673.82	19.52035
674.01	12.0328
674.2	18.33783
674.39	28.28809
674.58	18.23364
674.77	16.96194
674.96	15.32891
675.15	34.51552
675.34	21.08085
675.53	16.4338
675.72	14.74462
675.91	10.456
676.099	24.2122
676.289	25.41795
676.479	20.73914
676.669	15.00451
676.859	19.12523
677.049	11.96138
677.238	16.19404
677.428	24.67928
677.618	17.53104
677.808	20.33302
677.997	18.38211
678.187	11.39987
678.377	15.88542
678.567	14.1449
678.756	13.95515
678.946	14.51794
679.136	9.68763
679.325	11.90416
679.515	11.68646
679.704	9.63874
679.894	16.5283
680.084	15.28504
680.273	19.72817
680.463	10.48651
680.652	10.6994
680.842	13.91546
681.031	18.03787
681.221	11.20473
681.41	16.77479
681.6	14.57328
681.789	17.82637
681.978	20.31301
682.168	16.73536
682.357	17.32441
682.547	18.84745
682.736	16.66595
682.925	21.22292
683.115	21.37904
683.304	20.24772
683.493	18.05677
683.682	19.11794
683.872	18.3812
684.061	23.60689
684.25	20.32066
684.439	26.01702
684.629	20.45611
684.818	34.45176
685.007	17.14302
685.196	16.42068
685.385	25.29412
685.574	20.34631
685.763	19.40421
685.952	19.15622
686.142	13.56915
686.331	26.02896
686.52	10.48198
686.709	25.30766
686.898	25.87187
687.087	21.56531
687.276	26.7014
687.465	22.28405
687.654	16.9012
687.842	26.3287
688.031	12.19167
688.22	24.63026
688.409	19.07915
688.598	19.51588
688.787	31.12844
688.976	19.65163
689.165	28.04697
689.353	16.93028
689.542	22.11772
689.731	22.1497
689.92	28.78342
690.108	24.39875
690.297	17.77804
690.486	19.92873
690.675	23.83611
690.863	29.01276
691.052	28.77176
691.241	23.16776
691.429	21.60305
691.618	27.91501
691.806	15.06325
691.995	18.51379
692.184	21.13897
692.372	18.23248
692.561	20.62341
692.749	20.84199
692.938	33.69749
693.126	24.4866
693.315	18.80471
693.503	24.41316
693.692	25.29653
693.88	26.7298
694.068	34.62678
694.257	21.29294
694.445	23.18881
694.634	11.36715
694.822	28.66009
695.01	28.61963
695.199	29.44566
695.387	31.20125
695.575	29.18687
695.763	22.26225
695.952	20.42893
696.14	13.69826
696.328	17.81943
696.516	22.10762
696.705	22.5771
696.893	22.43109
697.081	11.61606
697.269	24.10809
697.457	14.40034
697.645	13.24516
697.833	23.44163
698.021	14.72805
698.21	15.51334
698.398	16.9646
698.586	12.42787
698.774	10.42883
698.962	15.67247
699.15	12.04449
699.338	10.04301
699.526	19.12285
699.714	13.8476
699.901	14.55534
700.089	22.57894
700.277	14.42057
700.465	18.03341
700.653	23.36912
700.841	23.12009
701.029	15.84093
701.217	26.83259
701.404	22.39284
701.592	29.08315
701.78	32.88805
701.968	19.41563
702.155	19.92184
702.343	15.36587
702.531	31.54064
702.718	25.12614
702.906	21.36118
703.094	19.95716
703.281	30.7191
703.469	22.7212
703.657	29.9478
703.844	45.11163
704.032	33.79536
704.219	20.50597
704.407	27.02017
704.595	33.38266
704.782	25.2216
704.97	22.09827
705.157	22.24913
705.345	35.65841
705.532	41.73689
705.719	27.39266
705.907	34.77613
706.094	26.08309
706.282	36.33111
706.469	23.79305
706.656	25.76462
706.844	24.76665
707.031	31.76109
707.218	27.63149
707.406	36.50137
707.593	30.50452
707.78	29.16522
707.968	25.51704
708.155	19.82012
708.342	30.58828
708.529	29.72603
708.716	27.56128
708.904	38.35974
709.091	30.7089
709.278	18.90394
709.465	38.22681
709.652	38.80002
709.839	35.21447
710.026	28.47348
710.213	15.69555
710.4	28.12884
710.587	33.12525
710.774	33.32427
710.961	34.24665
711.148	27.03582
711.335	35.08691
711.522	25.96761
711.709	29.56377
711.896	42.39031
712.083	34.18796
712.27	21.16397
712.457	28.05869
712.644	17.72123
712.831	42.9737
713.017	28.38361
713.204	32.41204
713.391	23.35945
713.578	36.69722
713.765	36.78013
713.951	31.98736
714.138	51.02475
714.325	33.93012
714.512	28.20766
714.698	23.65934
714.885	40.27563
715.072	31.45097
715.258	29.45736
715.445	24.64231
715.631	37.67468
715.818	11.97691
716.005	24.45426
716.191	32.87919
716.378	25.74293
716.564	36.26119
716.751	22.26797
716.937	25.53142
717.124	38.58811
717.31	24.98498
717.497	41.22586
717.683	25.31114
717.869	49.50162
718.056	27.65535
718.242	34.43781
718.429	31.28258
718.615	23.19108
718.801	31.43809
718.988	40.15826
719.174	35.1222
719.36	30.82155
719.547	42.61876
719.733	34.4395
719.919	36.26201
720.105	39.29424
720.291	31.76151
720.478	36.13738
720.664	32.29875
720.85	30.505
721.036	58.53633
721.222	46.59043
721.408	33.14713
721.595	51.13528
721.781	50.31223
721.967	43.88973
722.153	49.30541
722.339	41.23776
722.525	37.86808
722.711	27.16155
722.897	23.92879
723.083	31.32865
723.269	45.16541
723.455	57.66991
723.641	61.96305
723.827	37.36414
724.012	39.95014
724.198	32.7118
724.384	47.30198
724.57	40.86653
724.756	22.54365
724.942	20.09274
725.127	44.86897
725.313	49.35088
725.499	49.33824
725.685	53.13385
725.87	40.39876
726.056	27.74336
726.242	48.83002
726.428	22.31275
726.613	44.31238
726.799	32.98417
726.985	27.44743
727.17	23.3643
727.356	49.70383
727.541	28.47528
727.727	34.08218
727.913	44.24813
728.098	31.20861
728.284	42.86834
728.469	24.66206
728.655	26.68371
728.84	42.54579
729.026	43.42249
729.211	46.16666
729.397	38.90784
729.582	42.53991
729.767	35.38246
729.953	41.68733
730.138	45.24337
730.323	17.05256
730.509	25.75513
730.694	51.91077
730.879	39.79916
731.065	38.23472
731.25	57.84904
731.435	42.3299
731.621	22.66127
731.806	30.79634
731.991	38.98531
732.176	24.49508
732.361	48.52099
732.547	38.62803
732.732	21.58041
732.917	59.15551
733.102	25.61568
733.287	29.29006
733.472	37.5265
733.657	38.26863
733.842	23.93029
734.027	33.70284
734.212	35.22679
734.397	29.43293
734.582	38.54217
734.767	45.04418
734.952	51.53835
735.137	14.06733
735.322	52.34968
735.507	41.20504
735.692	41.96038
735.877	62.48198
736.062	57.61855
736.247	42.22383
736.431	39.53433
736.616	54.15238
736.801	42.52259
736.986	40.11918
737.171	32.88698
737.355	29.82233
737.54	53.13424
737.725	39.5033
737.909	70.90648
738.094	33.35773
738.279	49.28563
738.463	37.11147
738.648	47.56058
738.833	42.99966
739.017	60.13372
739.202	37.09679
739.386	40.42422
739.571	24.80033
739.756	47.67169
739.94	39.71887
740.125	50.75529
740.309	31.08096
740.494	48.96895
740.678	42.51188
740.863	45.89665
741.047	42.79743
741.231	54.93546
741.416	33.38285
741.6	60.98204
741.785	33.65693
741.969	52.22111
742.153	57.18927
742.338	19.44171
742.522	41.42543
742.706	50.59546
742.89	28.81083
743.075	44.45208
743.259	59.98034
743.443	52.2297
743.627	57.73753
743.812	71.38073
743.996	25.11077
744.18	41.82601
744.364	36.70263
744.548	76.78438
744.732	40.13519
744.916	54.67838
745.1	49.62572
745.285	40.73218
745.469	50.47085
745.653	67.89106
745.837	28.07111
746.021	78.06432
746.205	60.95321
746.389	46.19736
746.573	41.77097
746.757	66.21492
746.94	38.8269
747.124	57.83887
747.308	32.05113
747.492	62.80851
747.676	38.34227
747.86	75.70143
748.044	40.25529
748.227	24.99679
748.411	93.18207
748.595	49.04239
748.779	34.03961
748.963	51.0713
749.146	47.0109
749.33	36.61284
749.514	31.92165
749.697	60.70775
749.881	36.33511
750.065	34.54867
750.248	47.99011
750.432	76.08738
750.616	45.25673
750.799	30.03887
750.983	72.60419
751.166	85.6147
751.35	27.80532
751.533	60.69286
751.717	61.86375
751.9	66.72684
752.084	41.60285
752.267	33.82433
752.451	36.99438
752.634	46.54007
752.818	54.99856
753.001	59.07514
753.184	60.02418
753.368	52.37663
753.551	6.12258
753.734	36.27203
753.918	73.19744
754.101	37.30407
754.284	56.12155
754.467	41.35246
754.651	38.00278
754.834	36.11635
755.017	63.92823
755.2	59.37612
755.384	32.34557
755.567	56.79719
755.75	63.83698
755.933	44.06063
756.116	50.95718
756.299	39.45154
756.482	36.24597
756.665	56.32114
756.848	47.77136
757.032	55.9742
757.215	27.19146
757.398	38.10066
757.581	38.89654
757.764	85.19264
757.947	47.26689
758.129	66.86769
758.312	12.96339
758.495	47.68685
758.678	44.58639
758.861	44.76806
759.044	74.51894
759.227	38.21401
759.41	35.66824
759.592	55.39537
759.775	45.51672
759.958	62.24565
760.141	30.91802
760.324	81.2827
760.506	68.04281
760.689	58.87396
760.872	83.16051
761.054	53.36279
761.237	44.60044
761.42	54.43787
761.602	62.097
761.785	53.64835
761.968	62.72358
762.15	76.05537
762.333	44.949
762.515	53.40659
762.698	39.74697
762.88	55.04593
763.063	50.14225
763.245	54.81027
763.428	32.37561
763.61	35.51124
763.793	26.74163
763.975	43.44603
764.158	35.96325
764.34	34.0638
764.522	29.27793
764.705	36.32028
764.887	56.51303
765.069	23.19904
765.252	51.78256
765.434	54.58128
765.616	45.45845
765.799	37.29756
765.981	57.85205
766.163	36.48104
766.345	60.10194
766.528	39.52963
766.71	16.8636
766.892	50.8773
767.074	66.04976
767.256	43.20152
767.438	75.16522
767.62	53.32295
767.802	86.33033
767.985	58.8637
768.167	82.24596
768.349	41.24992
768.531	60.81859
768.713	57.63584
768.895	65.0815
769.077	57.4973
769.259	93.1632
769.441	139.57953
769.623	71.68003
769.804	83.53563
769.986	80.12967
770.168	100.09755
770.35	119.55465
770.532	86.54711
770.714	91.09531
770.896	100.26405
771.077	39.66922
771.259	96.72724
771.441	77.94755
771.623	106.4992
771.804	131.42982
771.986	39.2544
772.168	61.03112
772.35	102.99319
772.531	144.91837
772.713	75.09333
772.894	109.21395
773.076	74.59268
773.258	64.69072
773.439	106.57465
773.621	117.70352
773.802	51.19465
773.984	66.92142
774.166	82.6777
774.347	114.13617
774.529	105.20944
774.71	34.10876
774.891	73.85645
775.073	65.35972
775.254	113.88418
775.436	64.23274
775.617	134.64064
775.799	66.35754
775.98	122.52399
776.161	125.59221
776.343	124.31801
776.524	77.15339
776.705	66.24325
776.886	36.09796
777.068	87.33349
777.249	156.32477
777.43	142.48423
777.611	52.29965
777.793	72.79947
777.974	119.71799
778.155	67.09003
778.336	55.56091
778.517	142.75203
778.698	58.011
778.879	31.77
779.061	17.65892
779.242	88.57719
779.423	92.95305
779.604	67.45625
779.785	71.83206
779.966	85.53973
780.147	102.90751
780.328	113.83535
780.509	159.51446
780.69	103.0508
780.871	63.55521
781.051	44.23329
781.232	86.45508
781.413	78.79434
781.594	71.53234
781.775	69.27547
781.956	61.38451
782.137	35.67975
782.317	60.22789
782.498	89.55844
782.679	80.53162
782.86	83.49426
783.04	61.36388
783.221	87.91158
783.402	139.38897
783.583	83.88716
783.763	104.94619
783.944	70.77189
784.124	46.80929
784.305	135.48899
784.486	97.23204
784.666	79.00334
784.847	42.04112
785.027	160.27748
785.208	58.42601
785.388	61.5026
785.569	64.00092
785.749	73.41518
785.93	65.97529
786.11	43.76438
786.291	90.95196
786.471	80.58138
786.652	104.37006
786.832	77.42806
787.012	88.24235
787.193	51.31397
787.373	82.3547
787.553	69.94179
787.734	86.94668
787.914	71.09064
788.094	95.42286
788.275	89.01885
788.455	70.47639
788.635	47.04363
788.815	84.36916
788.995	50.40659
789.176	42.44332
789.356	56.00947
789.536	73.35604
789.716	93.04336
789.896	61.10424
790.076	64.0896
790.256	80.75881
790.436	25.53346
790.616	55.53882
790.796	84.75817
790.976	67.28547
791.156	57.75423
791.336	101.9369
791.516	88.02282
791.696	71.78976
791.876	41.096
792.056	79.40742
792.236	104.54819
792.416	101.74577
792.596	90.46552
792.776	91.3284
792.956	94.67082
793.135	125.46312
793.315	54.40803
793.495	115.63094
793.675	91.32459
793.854	102.18356
794.034	102.01428
794.214	51.86624
794.394	104.61685
794.573	117.44403
794.753	79.87893
794.933	57.10377
795.112	85.32176
795.292	104.94513
795.472	134.63887
795.651	49.1437
795.831	78.67555
796.01	71.30838
796.19	70.59653
796.369	77.58551
796.549	95.7449
796.728	73.10682
796.908	43.80746
797.087	52.90488
797.267	65.96566
797.446	48.37123
797.626	93.20716
797.805	90.3075
797.984	55.20781
798.164	92.38094
798.343	55.24742
798.522	84.84623
798.702	78.66996
798.881	48.4014
799.06	73.28493
799.239	32.22
799.419	54.13836
799.598	126.33006
799.777	91.32152
799.956	108.71041
800.136	64.97588
800.315	57.92297
800.494	90.97596
800.673	106.83817
800.852	97.31763
801.031	102.44294
801.21	95.43291
801.389	67.49939
801.568	82.67693
801.747	134.55292
801.926	79.06762
802.105	132.32417
802.284	67.26859
802.463	123.11435
802.642	87.04863
802.821	89.27974
803	120.35905
803.179	105.84487
803.358	116.55533
803.537	61.06219
803.716	80.48586
803.895	60.74069
804.073	72.50386
804.252	64.27852
804.431	92.00764
804.61	77.02543
804.789	117.26711
804.967	67.20036
805.146	62.63938
805.325	143.15482
805.503	92.08518
805.682	43.16369
805.861	161.39459
806.039	118.55955
806.218	65.00562
806.397	88.74949
806.575	83.60855
806.754	91.05421
806.932	54.64231
807.111	136.22729
807.289	108.51501
807.468	82.60851
807.646	108.65144
807.825	94.98557
808.003	85.15262
808.182	106.75641
808.36	86.5394
808.539	60.39063
808.717	135.64081
808.895	60.4812
809.074	92.5536
809.252	84.97334
809.43	102.31783
809.609	116.60968
809.787	132.36404
809.965	76.29264
810.144	87.68177
810.322	78.05833
810.5	95.64161
810.678	75.54054
810.856	160.31671
811.035	115.35479
811.213	107.00088
811.391	129.52851
811.569	90.18027
811.747	192.29815
811.925	123.90237
812.103	62.75669
812.281	78.82057
812.459	144.33043
812.637	143.08705
812.816	120.34284
812.994	143.92767
813.171	123.16656
813.349	104.51179
813.527	128.13014
813.705	137.8436
813.883	170.95974
814.061	123.7179
814.239	149.47627
814.417	159.03893
814.595	98.25909
814.773	100.93068
814.95	93.37974
815.128	105.62473
815.306	73.7446
815.484	88.14385
815.662	64.63005
815.839	56.99346
816.017	68.90512
816.195	136.63537
816.372	76.59096
816.55	115.49616
816.728	138.34988
816.905	81.55937
817.083	146.09669
817.261	83.74021
817.438	164.12916
817.616	156.45529
817.793	77.66572
817.971	113.96551
818.148	120.79857
818.326	137.42282
818.503	99.90729
818.681	135.51511
818.858	75.31878
819.036	89.55018
819.213	99.32908
819.391	69.96598
819.568	65.56365
819.745	61.3043
819.923	109.62075
820.1	71.04682
820.277	62.65805
820.455	73.09527
820.632	77.08414
820.809	77.48871
820.986	49.51067
821.164	38.48271
821.341	33.50693
821.518	46.42244
821.695	32.23818
821.872	29.05337
822.05	23.71302
822.227	16.51812
822.404	17.89273
822.581	19.28837
822.758	16.36504
822.935	16.31718
823.112	19.63943
823.289	14.00997
823.466	19.41125
823.643	17.16399
823.82	22.23863
823.997	20.02688
824.174	25.20609
824.351	34.89766
824.528	34.52266
824.705	31.00022
824.882	35.24499
825.059	50.62777
825.236	31.50064
825.412	36.43798
825.589	46.27885
825.766	68.225
825.943	42.17165
826.12	51.43444
826.296	31.61973
826.473	42.98731
826.65	43.40399
826.827	54.73773
827.003	34.08112
827.18	37.41577
827.357	43.58662
827.533	37.24962
827.71	17.80494
827.887	30.53188
828.063	36.41552
828.24	30.78082
828.416	43.76201
828.593	34.09479
828.769	51.66487
828.946	58.5896
829.122	62.01655
829.299	57.53654
829.475	32.09603
829.652	59.47818
829.828	105.76393
830.005	63.59997
830.181	91.94299
830.357	65.40551
830.534	100.2498
830.71	70.11789
830.886	96.12076
831.063	92.90959
831.239	124.5041
831.415	54.33318
831.592	127.41962
831.768	77.55197
831.944	63.15953
832.12	126.15871
832.296	116.93975
832.473	105.53581
832.649	72.98384
832.825	98.0946
833.001	55.15661
833.177	86.36002
833.353	76.702
833.529	40.75102
833.705	59.6001
833.881	41.55249
834.058	40.70574
834.234	41.87399
834.41	42.92131
834.586	33.07025
834.761	41.2073
834.937	45.19186
835.113	47.19909
835.289	42.34633
835.465	51.70742
835.641	42.77434
835.817	51.48711
835.993	99.32921
836.169	48.39376
836.344	72.94102
836.52	85.62962
836.696	84.73424
836.872	58.75451
837.048	177.52105
837.223	72.52968
837.399	152.54593
837.575	119.86794
837.75	110.66156
837.926	150.98053
838.102	258.99366
838.277	190.52529
838.453	258.86364
838.628	228.79233
838.804	95.55106
838.98	239.39896
839.155	112.96082
839.331	159.13625
839.506	108.01369
839.682	110.51552
839.857	144.61403
840.033	168.73151
840.208	75.58695
840.384	36.11934
840.559	78.54412
840.734	125.73643
840.91	191.27021
841.085	107.25368
841.26	99.96388
841.436	89.78917
841.611	90.75629
841.786	138.59241
841.962	201.83324
842.137	112.73413
842.312	65.80684
842.487	99.35177
842.663	80.90363
842.838	102.92867
843.013	391.94509
843.188	181.54793
843.363	133.45914
843.538	344.04528
843.714	320.10795
843.889	334.60589
844.064	356.66841
844.239	298.70619
844.414	393.25364
844.589	233.5435
844.764	490.09822
844.939	421.80712
845.114	510.96399
845.289	539.06642
845.464	536.14687
845.639	426.21014
845.814	198.77882
845.989	239.7383
846.163	255.65646
846.338	310.33778
846.513	476.33107
846.688	289.50856
846.863	267.34094
847.038	234.28155
847.212	305.5144
847.387	306.55738
847.562	303.25907
847.737	405.32559
847.911	141.23841
848.086	165.8723
848.261	583.98212
848.435	261.46533
848.61	437.1635
848.785	185.14114
848.959	418.70932
849.134	587.42109
849.308	709.42661
849.483	325.77419
849.658	516.64084
849.832	241.42848
850.007	212.29649
850.181	982.01655
850.356	244.05988
850.53	755.29807
850.705	189.37884
850.879	117.62174
851.053	265.44027
851.228	253.94485
851.402	403.50649
851.577	449.97728
851.751	679.18225
851.925	298.22083
852.099	131.95801
852.274	189.63085
852.448	274.17687
852.622	428.92153
852.797	281.99369
852.971	310.43596
853.145	311.2005
853.319	1023.66693
853.493	472.43931
853.668	233.63033
853.842	701.1899
854.016	505.99546
854.19	644.93866
854.364	315.67102
854.538	356.8564
854.712	560.82855
854.886	293.1677
855.06	242.92524
855.234	102.75418
855.408	607.93372
855.582	594.49541
855.756	516.34547
855.93	626.3159
856.104	337.24835
856.278	483.78119
856.452	311.09406
856.626	410.34034
856.8	915.27352
856.973	385.24854
857.147	383.8985
857.321	419.07136
857.495	531.77087
857.669	342.54866
857.842	267.06047
858.016	499.8934
858.19	197.55033
858.364	1279.9013
858.537	269.15369
858.711	316.3918
858.885	274.5522
859.058	246.72428
859.232	124.19146
859.405	159.97157
859.579	466.87511
859.753	396.68076
859.926	244.56749
860.1	124.58423
860.273	292.07237
860.447	561.21721
860.62	285.65785
860.794	693.12106
860.967	332.02981
861.141	596.17253
861.314	1005.54187
861.487	438.27304
861.661	593.96367
861.834	666.0587
862.008	461.50357
862.181	358.11308
862.354	349.80486
862.528	380.95947
862.701	290.28235
862.874	156.59763
863.047	262.72476
863.221	275.64239
863.394	138.57941
863.567	549.27993
863.74	91.32929
863.913	465.14197
864.087	442.93181
864.26	545.66612
864.433	285.29416
864.606	874.67219
864.779	295.55919
864.952	138.19864
865.125	247.65946
865.298	280.77932
865.471	300.57295
865.644	780.5283
865.817	516.87918
865.99	513.19494
866.163	717.69078
866.336	278.95162
866.509	262.12787
866.682	258.30438
866.855	588.13213
867.028	160.13809
867.2	413.63213
867.373	97.60114
867.546	326.4752
867.719	814.99095
867.892	409.69804
868.064	227.0981
868.237	372.86004
868.41	356.6954
868.583	152.95591
868.755	200.74299
868.928	272.36515
869.101	890.02228
869.273	530.14508
869.446	412.17558
869.619	615.77707
869.791	310.32339
869.964	517.45365
870.136	503.35142
870.309	397.30608
870.481	320.39878
870.654	154.10484
870.826	410.24455
870.999	242.43836
871.171	399.37175
871.344	241.73626
871.516	307.89604
871.689	203.65999
871.861	405.54149
872.033	210.60736
872.206	252.25329
872.378	446.48679
872.55	275.16423
872.723	181.40724
872.895	285.93019
873.067	499.91425
873.24	496.78834
873.412	246.95137
873.584	279.57031
873.756	265.6951
873.928	320.27518
874.101	355.69602
874.273	400.30219
874.445	113.17494
874.617	170.7646
874.789	307.94497
874.961	286.55023
875.133	378.72251
875.305	315.2981
875.477	195.37695
875.649	148.00967
875.821	176.58688
875.993	580.50639
876.165	188.48875
876.337	327.12397
876.509	296.10394
876.681	316.8534
876.853	357.76753
877.025	380.79101
877.197	199.53235
877.369	181.46508
877.541	442.53186
877.712	99.13058
877.884	181.56841
878.056	352.92294
878.228	187.35909
878.4	384.20126
878.571	190.51789
878.743	119.92851
878.915	315.78803
879.086	174.59781
879.258	215.43671
879.43	189.92043
879.601	173.75629
879.773	184.33121
879.945	40.53753
880.116	69.64935
880.288	39.63318
880.459	45.35267
880.631	33.09863
880.802	38.50102
880.974	36.1289
881.145	23.78171
881.317	32.34521
881.488	21.94389
881.66	25.40625
881.831	21.83564
882.002	31.94343
882.174	21.53152
882.345	29.13489
882.517	13.25012
882.688	36.29215
882.859	27.03029
883.03	47.50772
883.202	45.81438
883.373	39.24652
883.544	37.84895
883.715	67.09873
883.887	59.00036
884.058	48.02702
884.229	72.87468
884.4	75.36451
884.571	90.51582
884.742	77.22205
884.914	82.68195
885.085	129.57898
885.256	179.01779
885.427	145.53273
885.598	159.69052
885.769	175.18073
885.94	173.11391
886.111	106.91903
886.282	218.82765
886.453	159.89807
886.624	118.68327
886.795	219.39224
886.966	174.04576
887.136	240.59044
887.307	150.53371
887.478	361.75575
887.649	301.85877
887.82	319.44695
887.991	238.42527
888.161	319.71987
888.332	292.29428
888.503	126.70902
888.674	478.41392
888.844	568.84062
889.015	374.65995
889.186	148.47785
889.356	515.23942
889.527	137.49733
889.698	1040.42478
889.868	243.66175
890.039	330.4797
890.209	286.58033
890.38	378.26
890.551	317.85344
890.721	445.47444
890.892	442.18158
891.062	268.00112
891.233	318.8625
891.403	301.40367
891.574	192.3796
891.744	270.94951
891.914	334.80027
892.085	290.92329
892.255	90.85988
892.425	587.36067
892.596	374.13798
892.766	385.19349
892.936	462.57526
893.107	377.80608
893.277	191.88554
893.447	147.42683
893.618	108.70207
893.788	248.64529
893.958	123.92856
894.128	125.33414
894.298	147.67876
894.468	184.00358
894.639	83.2222
894.809	53.98608
894.979	93.33835
895.149	106.40259
895.319	82.7962
895.489	114.64647
895.659	157.17049
895.829	96.06852
895.999	98.15846
896.169	73.80811
896.339	94.2749
896.509	210.25491
896.679	226.67558
896.849	228.54481
897.019	348.36506
897.189	264.22162
897.358	231.96324
897.528	341.01698
897.698	111.64486
897.868	305.99293
898.038	887.92962
898.208	691.42309
898.377	129.87692
898.547	783.19171
898.717	1017.7923
898.886	395.00276
899.056	611.09504
899.226	1463.799
899.395	455.82789
899.565	823.78428
899.735	438.77694
899.904	1051.77418
900.074	987.48365
900.244	271.54356
900.413	1186.86334
900.583	244.2769
900.752	400.67469
900.922	2094.14694
901.091	42.27821
901.261	612.80182
901.43	641.29749
901.599	563.81156
901.769	7101.01784
901.938	723.50351
902.108	764.69163
902.277	1518.31875
902.446	227.39943
902.616	225.8195
902.785	313.85718
902.954	662.47466
903.124	469.509
903.293	306.87519
903.462	160.26278
903.631	234.6035
903.801	175.62168
903.97	79.44514
904.139	139.29563
904.308	104.54653
904.477	81.22076
904.646	45.23225
904.816	61.20865
904.985	115.62631
905.154	175.73208
