Data from WindowProjectSample_Transmission__60__00060__006435282808618015.txt Node

Date: Mon May 05 18:24:32 EDT 2025
User: jessi
Spectrometer: SR400872
Trigger mode: 0
Integration Time (sec): 5.000010E-1
Scans to average: 20
Electric dark correction enabled: true
Nonlinearity correction enabled: true
Boxcar width: 0
XAxis mode: Wavelengths
Number of Pixels in Spectrum: 3648
>>>>>Begin Spectral Data<<<<<
184.909	20622.39719
185.132	-5062.65354
185.355	-3017.96461
185.578	-18036.71252
185.801	1878.21408
186.024	10230.42645
186.247	-1776.8582
186.47	1308.51005
186.693	467.76737
186.916	269.57371
187.139	-3832.68705
187.362	3441.41977
187.585	3913.3276
187.808	3355.29684
188.031	50.06387
188.254	-49801.93638
188.476	-799.56081
188.699	6243.77202
188.922	589.09139
189.145	-15131.72471
189.368	-665.33698
189.591	-1310.76252
189.813	2956.24645
190.036	-50726.94349
190.259	-938.07349
190.482	-4790.46171
190.705	7164.2961
190.927	-2476.60118
191.15	12799.61874
191.373	3539.471
191.595	-8587.36499
191.818	-4087.8841
192.041	-6552.23749
192.263	-3322.47741
192.486	-851.93571
192.709	-3810.6125
192.931	7968.35766
193.154	-27763.29119
193.377	-2818.39652
193.599	-2607.47603
193.822	-9578.34692
194.044	-1981.36405
194.267	1270.65908
194.489	255.97826
194.712	-41341.97399
194.934	-31602.73508
195.157	1107.45182
195.379	1323.30709
195.602	-7270.56695
195.824	-1304.58375
196.047	-8575.35963
196.269	2704.98163
196.492	-6310.9479
196.714	28488.51089
196.936	-8113.49032
197.159	-1184.78259
197.381	985.62901
197.604	487.09502
197.826	11688.18565
198.048	-9955.4287
198.271	-2835.0839
198.493	7580.8999
198.715	2262.67315
198.938	-439.26041
199.16	6903.52915
199.382	-99720.84172
199.604	2718.95906
199.827	-1032.83774
200.049	-2971.18502
200.271	14088.52023
200.493	1205.24458
200.715	-37878.13931
200.938	-6042.62611
201.16	-4201.4834
201.382	21530.67948
201.604	2269.73398
201.826	2241.41546
202.048	-1853.40861
202.27	-1865.87036
202.492	-35403.81602
202.715	2954.34234
202.937	-4490.93762
203.159	-6255.56807
203.381	1484.61753
203.603	6548.31738
203.825	6202.13073
204.047	2198.56365
204.269	-2818.70255
204.491	2150.65393
204.713	6196.79991
204.935	-467979.68566
205.156	1184.52655
205.378	-2896.7894
205.6	1672.07146
205.822	153954.60538
206.044	-1117.64781
206.266	1473.12218
206.488	4973.06637
206.71	-5476.90958
206.932	1114.13687
207.153	12380.49699
207.375	-6735.98975
207.597	-37741.15344
207.819	-2845.16872
208.041	2262.46556
208.262	491.58935
208.484	631.27547
208.706	-785.55466
208.927	-837.96755
209.149	528.79193
209.371	-2910.7422
209.593	-347.14957
209.814	-767.13951
210.036	483.43112
210.258	-630.20005
210.479	1763.92304
210.701	1482.01472
210.922	3404.47484
211.144	-3768.55915
211.366	2022.36633
211.587	8399.20294
211.809	-8129.13868
212.03	2316.65602
212.252	515.23265
212.473	2092.38786
212.695	-6142.33117
212.916	2974.86337
213.138	-761.20009
213.359	3699.94045
213.581	5067.54509
213.802	-923.40687
214.024	1092.70021
214.245	2363.03306
214.466	2549.18564
214.688	-2997.58806
214.909	-1134.07868
215.131	-1703.32505
215.352	-3217.14058
215.573	14943.3802
215.795	5024.02351
216.016	5238.24085
216.237	840.0976
216.459	3686.60454
216.68	1890.48492
216.901	5094.12607
217.122	-3127.09293
217.344	-11278.32913
217.565	3410.76372
217.786	8833.49125
218.007	16199.44804
218.228	-708.28262
218.45	5610.88799
218.671	741.79092
218.892	37353.15238
219.113	1534.86543
219.334	-345.51883
219.555	10061.8806
219.776	3125.0406
219.997	22562.43551
220.219	2704.58132
220.44	-10794.07621
220.661	414.05189
220.882	1463.14411
221.103	-1110.97448
221.324	2103.72408
221.545	2216.36746
221.766	-8991.07569
221.987	864.75234
222.208	1733.66145
222.429	4291.71583
222.65	131.41646
222.87	19011.5424
223.091	698.76281
223.312	585.85373
223.533	1431.77214
223.754	1469.87676
223.975	1324.74048
224.196	2043.88242
224.417	1291.60312
224.637	639.48742
224.858	107.51661
225.079	1040.82077
225.3	638.24996
225.521	3711.44942
225.741	481.56747
225.962	506.10676
226.183	136.60535
226.404	662.94715
226.624	434.60096
226.845	596.58693
227.066	407.03197
227.286	247.13548
227.507	138.19974
227.728	117.24178
227.948	233.26352
228.169	76.85077
228.389	84.98509
228.61	47.64291
228.831	62.85142
229.051	4.17212
229.272	38.00617
229.492	56.08733
229.713	13.0816
229.933	35.9278
230.154	32.49751
230.374	53.23885
230.595	37.02984
230.815	23.1533
231.036	38.5864
231.256	-8.66017
231.477	69.37224
231.697	38.41238
231.917	36.69262
232.138	52.86723
232.358	112.89075
232.579	105.5692
232.799	20.54562
233.019	97.7321
233.24	110.54368
233.46	37.43866
233.68	60.14478
233.901	43.86506
234.121	23.00252
234.341	13.92834
234.561	-3.5277
234.782	38.34613
235.002	68.5411
235.222	-4.65868
235.442	61.64114
235.662	31.85106
235.883	60.97456
236.103	51.33149
236.323	38.06839
236.543	28.66063
236.763	37.45272
236.983	44.29129
237.203	41.17549
237.423	63.23096
237.643	85.46908
237.864	74.46653
238.084	18.01123
238.304	28.48165
238.524	46.06238
238.744	39.85452
238.964	72.28426
239.184	61.54671
239.404	62.8019
239.624	32.98719
239.843	59.77578
240.063	35.75593
240.283	20.9066
240.503	24.50817
240.723	23.88176
240.943	15.94632
241.163	19.75292
241.383	14.09616
241.603	7.82132
241.822	9.6738
242.042	6.15601
242.262	7.96905
242.482	9.19435
242.702	10.47499
242.921	2.42885
243.141	6.6059
243.361	6.03675
243.581	9.43806
243.8	7.24331
244.02	5.52482
244.24	9.14529
244.459	8.97336
244.679	17.79183
244.899	10.93053
245.118	12.54326
245.338	11.56806
245.558	13.69371
245.777	7.9393
245.997	9.91943
246.216	10.06417
246.436	5.81354
246.655	4.7984
246.875	3.074
247.094	6.38834
247.314	1.83855
247.533	3.68866
247.753	4.0987
247.972	3.51939
248.192	1.23881
248.411	1.88728
248.631	3.38913
248.85	4.59395
249.07	3.75886
249.289	5.70019
249.508	4.81863
249.728	7.50972
249.947	7.08365
250.166	8.49843
250.386	4.38282
250.605	6.79276
250.824	10.77131
251.044	7.56528
251.263	28.65466
251.482	14.69096
251.701	11.87729
251.921	0.0239
252.14	2.86077
252.359	4.10183
252.578	9.82567
252.798	3.46777
253.017	8.76098
253.236	3.98537
253.455	5.6054
253.674	10.23283
253.893	5.02288
254.112	7.25035
254.331	11.10192
254.551	8.00802
254.77	3.94926
254.989	12.80866
255.208	9.93028
255.427	15.10188
255.646	11.46381
255.865	22.00658
256.084	9.05925
256.303	10.43221
256.522	13.04934
256.741	2.49251
256.96	3.02077
257.179	7.68658
257.397	10.54259
257.616	5.65143
257.835	6.04949
258.054	15.1364
258.273	10.1945
258.492	11.29771
258.711	6.67212
258.93	2.99686
259.148	4.69847
259.367	4.75681
259.586	5.53239
259.805	2.42603
260.023	5.23601
260.242	3.8653
260.461	2.76847
260.68	1.25832
260.898	4.45161
261.117	1.2786
261.336	0.98751
261.554	3.31824
261.773	3.14734
261.992	0.60787
262.21	3.09715
262.429	3.48869
262.648	7.61807
262.866	7.86514
263.085	5.78542
263.303	4.63666
263.522	8.58591
263.74	8.52867
263.959	15.2665
264.178	6.88921
264.396	6.35488
264.615	4.81756
264.833	10.30069
265.051	8.4909
265.27	10.44929
265.488	11.12541
265.707	6.22694
265.925	10.66783
266.144	4.48308
266.362	5.53717
266.58	5.63036
266.799	5.11438
267.017	6.04355
267.235	5.43928
267.454	3.28156
267.672	1.73106
267.89	4.1279
268.109	4.32911
268.327	4.31359
268.545	1.03199
268.763	3.82369
268.982	1.59384
269.2	3.98082
269.418	3.11468
269.636	1.6873
269.854	4.74767
270.073	3.29871
270.291	1.93699
270.509	1.79046
270.727	4.36534
270.945	6.91402
271.163	7.14034
271.381	1.51763
271.599	3.2015
271.817	5.32357
272.036	1.7162
272.254	3.03659
272.472	2.40395
272.69	2.43972
272.908	2.19895
273.126	4.45801
273.344	5.2281
273.562	1.76822
273.779	2.46529
273.997	3.92922
274.215	4.26685
274.433	2.96007
274.651	4.43092
274.869	4.46722
275.087	2.87784
275.305	3.93072
275.523	2.54502
275.74	2.89811
275.958	5.27316
276.176	7.91827
276.394	2.58787
276.612	3.27174
276.829	3.04635
277.047	2.76442
277.265	2.79562
277.483	3.51161
277.7	4.19561
277.918	3.43612
278.136	6.16184
278.353	2.901
278.571	1.97406
278.789	4.33731
279.006	0.92879
279.224	2.98994
279.442	4.95522
279.659	3.57177
279.877	2.31892
280.094	5.82265
280.312	1.07881
280.529	3.27873
280.747	0.9088
280.964	2.52786
281.182	5.88792
281.399	2.73009
281.617	3.88715
281.834	2.67994
282.052	2.02964
282.269	3.10306
282.487	2.37558
282.704	2.06309
282.921	2.22695
283.139	3.42371
283.356	4.04479
283.574	3.7127
283.791	1.86038
284.008	5.48379
284.226	2.86051
284.443	3.29504
284.66	4.29643
284.877	3.43214
285.095	2.07902
285.312	1.72506
285.529	0.82585
285.746	0.73481
285.964	2.02123
286.181	1.35754
286.398	1.91964
286.615	2.69765
286.832	2.54636
287.05	0.61317
287.267	1.81382
287.484	1.85195
287.701	2.6594
287.918	2.63693
288.135	2.71862
288.352	1.14533
288.569	1.35357
288.786	2.31344
289.003	2.09947
289.22	2.95751
289.437	1.68413
289.654	2.86644
289.871	3.04484
290.088	2.96213
290.305	2.19264
290.522	1.78827
290.739	2.01204
290.956	3.16537
291.173	3.51825
291.39	3.33011
291.607	2.37866
291.824	1.69745
292.04	1.3172
292.257	2.85509
292.474	3.18228
292.691	2.01194
292.908	0.89429
293.125	1.65251
293.341	1.15644
293.558	4.89836
293.775	1.91368
293.992	1.89569
294.208	0.88347
294.425	1.25758
294.642	1.86152
294.858	2.38813
295.075	0.70983
295.292	1.97748
295.508	2.43862
295.725	3.9902
295.942	1.67949
296.158	1.18341
296.375	1.9301
296.591	1.49663
296.808	1.64602
297.024	1.89693
297.241	2.10857
297.458	2.31392
297.674	0.10447
297.891	1.83349
298.107	1.42348
298.323	1.05204
298.54	2.98711
298.756	1.2258
298.973	0.62027
299.189	2.98299
299.406	1.11628
299.622	2.68593
299.838	2.64671
300.055	2.49463
300.271	0.59202
300.487	0.9547
300.704	1.25681
300.92	0.70313
301.136	4.07846
301.353	2.49602
301.569	1.77393
301.785	2.04153
302.001	2.50982
302.218	2.23259
302.434	2.26379
302.65	0.71451
302.866	1.51524
303.083	3.89872
303.299	3.63916
303.515	1.83569
303.731	2.02372
303.947	0.64715
304.163	1.19915
304.379	2.01736
304.595	2.33403
304.812	1.2391
305.028	1.18312
305.244	1.73804
305.46	2.58123
305.676	2.57345
305.892	3.19449
306.108	2.2712
306.324	1.47728
306.54	3.53232
306.756	2.41245
306.972	2.32961
307.187	1.69232
307.403	3.23981
307.619	1.48134
307.835	3.0815
308.051	3.21075
308.267	0.95363
308.483	2.78861
308.699	2.38903
308.914	1.91405
309.13	1.65991
309.346	0.4897
309.562	1.02352
309.778	0.63263
309.993	2.37707
310.209	1.81672
310.425	0.87467
310.641	1.58563
310.856	0.95243
311.072	0.90998
311.288	1.78912
311.503	1.90523
311.719	0.35548
311.935	0.22112
312.15	2.14024
312.366	1.78002
312.581	2.19501
312.797	1.77334
313.013	2.50146
313.228	1.22043
313.444	1.73406
313.659	1.29238
313.875	2.20777
314.09	1.71768
314.306	3.02419
314.521	2.73502
314.737	2.5438
314.952	1.93089
315.168	1.71514
315.383	2.22226
315.599	1.66354
315.814	1.55241
316.029	2.46581
316.245	0.72518
316.46	0.58461
316.675	2.94454
316.891	3.32142
317.106	4.44385
317.321	2.22168
317.537	2.39376
317.752	2.60407
317.967	2.67439
318.183	1.01847
318.398	1.50058
318.613	2.61327
318.828	3.22969
319.043	2.69948
319.259	1.63678
319.474	2.05194
319.689	3.00903
319.904	0.49781
320.119	2.52376
320.334	2.26859
320.549	1.6446
320.765	2.82091
320.98	2.12839
321.195	2.63389
321.41	1.83126
321.625	2.65464
321.84	3.49229
322.055	3.54044
322.27	1.46343
322.485	0.98107
322.7	2.12242
322.915	2.77401
323.13	1.15373
323.345	3.1355
323.56	2.35392
323.775	2.50503
323.989	2.20423
324.204	2.16196
324.419	2.86628
324.634	0.85645
324.849	1.73422
325.064	4.8672
325.279	2.72187
325.493	2.37615
325.708	2.80692
325.923	1.33009
326.138	1.25034
326.352	3.43977
326.567	3.01403
326.782	1.58921
326.997	1.30593
327.211	2.45063
327.426	2.22725
327.641	1.57305
327.855	0.60396
328.07	2.19561
328.285	3.3194
328.499	1.52425
328.714	2.12665
328.928	2.6058
329.143	1.77675
329.358	2.66791
329.572	2.8532
329.787	3.10255
330.001	4.14755
330.216	0.93173
330.43	3.44844
330.645	3.51996
330.859	2.79705
331.074	1.3914
331.288	2.08542
331.503	3.05726
331.717	1.05063
331.931	2.07713
332.146	2.04279
332.36	3.48299
332.575	2.38224
332.789	2.29866
333.003	2.03083
333.218	2.47948
333.432	1.34883
333.646	2.55771
333.86	3.45554
334.075	3.23274
334.289	1.47567
334.503	1.08006
334.717	2.17976
334.932	2.45655
335.146	2.98259
335.36	1.65064
335.574	2.56902
335.788	2.36366
336.003	2.92377
336.217	2.26092
336.431	2.41279
336.645	1.42719
336.859	0.98205
337.073	1.8565
337.287	2.19561
337.501	1.04481
337.715	2.23074
337.929	2.68953
338.143	1.02631
338.357	1.82618
338.571	1.32825
338.785	2.21309
338.999	1.60518
339.213	1.46112
339.427	0.70027
339.641	2.98902
339.855	1.88001
340.069	1.50266
340.283	2.74422
340.497	3.62344
340.711	2.26514
340.924	1.61258
341.138	1.00305
341.352	0.8817
341.566	2.12303
341.78	0.45342
341.993	1.48894
342.207	1.1057
342.421	2.02218
342.635	1.76677
342.848	1.45962
343.062	0.13123
343.276	1.33311
343.49	3.66382
343.703	1.45902
343.917	2.65907
344.131	2.67079
344.344	1.34735
344.558	1.56479
344.771	0.99973
344.985	3.29565
345.199	3.12228
345.412	2.11531
345.626	2.10828
345.839	0.62335
346.053	0.9262
346.266	1.02928
346.48	2.39805
346.693	2.08546
346.907	2.07824
347.12	1.07386
347.334	2.05354
347.547	2.0626
347.76	1.38854
347.974	2.77426
348.187	1.91913
348.401	1.42124
348.614	1.37271
348.827	1.5478
349.041	2.28801
349.254	0.60298
349.467	1.4782
349.681	0.66233
349.894	1.34148
350.107	2.88573
350.32	3.0643
350.534	0.6381
350.747	1.37414
350.96	1.08711
351.173	1.29094
351.386	1.48083
351.6	1.45294
351.813	1.1598
352.026	1.62274
352.239	0.7652
352.452	1.49467
352.665	2.27855
352.878	1.73347
353.092	3.2164
353.305	2.3084
353.518	1.98093
353.731	1.13891
353.944	2.65505
354.157	1.25235
354.37	1.02733
354.583	0.96154
354.796	0.37115
355.009	2.51898
355.222	1.96899
355.435	1.63063
355.647	2.42144
355.86	0.94232
356.073	1.63591
356.286	1.33215
356.499	2.11432
356.712	1.81217
356.925	2.04969
357.138	2.24848
357.35	0.89899
357.563	1.3462
357.776	1.59447
357.989	1.28509
358.201	1.86461
358.414	1.72136
358.627	2.57222
358.84	1.39426
359.052	0.75021
359.265	0.92345
359.478	2.39847
359.69	-0.30202
359.903	1.9534
360.116	2.19352
360.328	0.33756
360.541	2.13519
360.753	0.73834
360.966	1.10322
361.179	1.14836
361.391	1.08385
361.604	0.79288
361.816	1.10346
362.029	0.95083
362.241	0.82267
362.454	0.97405
362.666	0.75749
362.879	1.43488
363.091	1.15174
363.304	0.8064
363.516	1.34483
363.728	0.66751
363.941	1.83724
364.153	1.12079
364.366	-0.04712
364.578	0.72108
364.79	1.58183
365.003	1.30085
365.215	0.99584
365.427	1.66288
365.639	2.17577
365.852	1.49784
366.064	3.11846
366.276	1.1141
366.488	1.68946
366.701	1.11464
366.913	1.35236
367.125	1.26046
367.337	0.91311
367.549	1.01848
367.762	1.50555
367.974	1.42571
368.186	0.82996
368.398	2.04842
368.61	1.95815
368.822	1.90724
369.034	1.32849
369.246	1.81543
369.458	3.5909
369.67	0.83917
369.882	2.73383
370.094	0.14798
370.306	2.70348
370.518	1.28353
370.73	0.82934
370.942	0.89502
371.154	1.26022
371.366	0.97785
371.578	1.4461
371.79	0.85677
372.002	2.22983
372.214	2.73291
372.425	1.44331
372.637	2.22932
372.849	1.69459
373.061	0.06006
373.273	1.69655
373.484	1.70666
373.696	2.05287
373.908	0.01125
374.12	2.31133
374.331	1.64732
374.543	0.92069
374.755	0.77649
374.967	1.52455
375.178	1.85478
375.39	1.1851
375.602	1.45624
375.813	0.4325
376.025	0.73979
376.236	1.50411
376.448	1.57109
376.66	1.03802
376.871	0.97593
377.083	2.2932
377.294	2.24629
377.506	1.04938
377.717	2.36225
377.929	1.56568
378.14	0.86311
378.352	1.65047
378.563	1.55878
378.775	2.34736
378.986	0.78768
379.197	1.35063
379.409	1.01608
379.62	1.97854
379.832	1.79998
380.043	1.25536
380.254	1.50572
380.466	0.83445
380.677	3.34939
380.888	2.83673
381.1	3.14575
381.311	3.06147
381.522	1.54492
381.733	3.45926
381.945	1.35723
382.156	1.64418
382.367	1.05745
382.578	3.44227
382.789	3.25953
383.001	1.21577
383.212	2.42709
383.423	2.64075
383.634	2.41104
383.845	1.94069
384.056	1.331
384.267	1.57896
384.478	1.45524
384.69	0.8703
384.901	1.86731
385.112	1.85333
385.323	2.75038
385.534	1.9778
385.745	1.84236
385.956	1.89556
386.167	1.09056
386.378	1.98744
386.588	1.0616
386.799	1.18334
387.01	0.63085
387.221	2.28329
387.432	1.61488
387.643	2.90395
387.854	1.58926
388.065	1.53336
388.275	1.63841
388.486	1.45422
388.697	1.52773
388.908	1.52986
389.119	2.54544
389.329	2.86092
389.54	1.79203
389.751	2.09752
389.962	2.67258
390.172	2.02586
390.383	1.5497
390.594	1.44794
390.804	1.45945
391.015	1.5406
391.226	2.00428
391.436	2.2504
391.647	2.18486
391.858	2.29533
392.068	0.982
392.279	1.28192
392.489	2.0183
392.7	2.70245
392.91	1.47933
393.121	1.58836
393.331	2.32818
393.542	2.7617
393.752	2.45764
393.963	2.31887
394.173	2.20954
394.384	2.40525
394.594	2.11757
394.804	1.47665
395.015	2.26365
395.225	2.53599
395.436	1.61037
395.646	2.59088
395.856	1.75838
396.067	1.40682
396.277	2.94115
396.487	2.75962
396.697	2.53022
396.908	2.71764
397.118	2.76764
397.328	2.7134
397.538	3.14161
397.749	1.99177
397.959	2.98599
398.169	2.96074
398.379	1.85637
398.589	3.09352
398.8	2.74975
399.01	2.66229
399.22	2.52709
399.43	4.16933
399.64	2.63423
399.85	3.31434
400.06	2.85379
400.27	2.41527
400.48	2.90852
400.69	3.84668
400.9	2.63117
401.11	2.44833
401.32	3.42645
401.53	2.82865
401.74	4.08199
401.95	3.57439
402.16	2.63479
402.37	3.36607
402.58	2.90969
402.79	3.61475
403	4.03874
403.209	2.99953
403.419	4.02085
403.629	2.92162
403.839	4.08273
404.049	3.98284
404.258	3.22022
404.468	3.16662
404.678	3.83845
404.888	4.33984
405.097	3.28269
405.307	3.61618
405.517	4.12801
405.727	3.94741
405.936	3.57666
406.146	4.00845
406.356	4.69641
406.565	3.88198
406.775	3.68802
406.984	3.71016
407.194	5.07669
407.404	4.03874
407.613	4.38441
407.823	4.61094
408.032	4.77402
408.242	4.81593
408.451	3.98044
408.661	4.22829
408.87	5.35122
409.08	4.06817
409.289	4.60588
409.499	4.62073
409.708	4.61323
409.918	3.41815
410.127	4.77832
410.336	5.64229
410.546	5.0949
410.755	4.44395
410.964	4.5508
411.174	4.3238
411.383	5.0378
411.592	5.06066
411.802	4.27304
412.011	5.35558
412.22	4.80994
412.429	5.97082
412.639	5.94191
412.848	5.6911
413.057	5.83262
413.266	5.87136
413.475	5.26829
413.685	5.59509
413.894	5.95778
414.103	5.96623
414.312	5.88773
414.521	5.28687
414.73	5.42423
414.939	6.81256
415.148	5.92412
415.357	5.7901
415.566	5.54884
415.776	5.57644
415.985	5.6486
416.194	6.3847
416.403	7.06662
416.611	5.31196
416.82	5.85241
417.029	6.25229
417.238	5.94029
417.447	5.80972
417.656	6.15801
417.865	6.01716
418.074	6.33843
418.283	6.52502
418.492	7.10495
418.7	6.99835
418.909	7.85662
419.118	7.04177
419.327	7.38543
419.536	7.28497
419.744	7.33882
419.953	8.46023
420.162	8.69847
420.371	8.05663
420.579	8.49647
420.788	9.36766
420.997	9.49581
421.205	9.81382
421.414	9.58566
421.623	9.6397
421.831	9.37426
422.04	9.83135
422.249	8.9931
422.457	9.44492
422.666	8.7913
422.874	9.4979
423.083	9.72155
423.291	9.65447
423.5	9.58595
423.708	9.92568
423.917	10.30871
424.125	9.97181
424.334	9.9458
424.542	11.44775
424.751	10.98776
424.959	10.56998
425.167	10.67121
425.376	10.48932
425.584	9.50899
425.793	9.44246
426.001	8.63739
426.209	8.8228
426.418	7.86918
426.626	7.63382
426.834	7.57363
427.042	7.82946
427.251	7.58927
427.459	8.31476
427.667	7.88042
427.875	7.18406
428.084	7.50739
428.292	8.5148
428.5	8.1662
428.708	7.22227
428.916	7.39188
429.124	7.93982
429.333	7.7049
429.541	7.82513
429.749	8.01117
429.957	7.88676
430.165	9.50394
430.373	7.27771
430.581	8.12912
430.789	8.93627
430.997	7.99661
431.205	7.60972
431.413	8.34192
431.621	8.01745
431.829	8.61591
432.037	8.07555
432.245	8.61758
432.453	8.5276
432.661	8.26775
432.869	9.37693
433.076	8.03158
433.284	8.39676
433.492	8.80985
433.7	9.10625
433.908	8.34977
434.116	8.53136
434.323	8.56317
434.531	8.43743
434.739	8.6931
434.947	8.96544
435.154	8.91468
435.362	8.50438
435.57	8.36596
435.778	8.11291
435.985	8.69709
436.193	8.27475
436.401	9.20352
436.608	8.46369
436.816	8.31596
437.023	9.36577
437.231	9.43183
437.439	8.74893
437.646	8.92552
437.854	8.76114
438.061	8.97162
438.269	8.6314
438.476	9.1758
438.684	8.78781
438.891	8.67793
439.099	8.44843
439.306	8.32285
439.514	8.43457
439.721	9.41854
439.929	9.06257
440.136	9.91617
440.343	9.92282
440.551	9.90358
440.758	11.37964
440.965	10.24741
441.173	9.95811
441.38	9.73651
441.587	9.59686
441.795	9.2886
442.002	9.15477
442.209	9.09109
442.416	9.15404
442.624	9.19674
442.831	9.14398
443.038	8.63917
443.245	8.38169
443.452	8.77856
443.66	9.20187
443.867	8.69788
444.074	8.64926
444.281	8.67541
444.488	8.91268
444.695	9.09269
444.902	8.94491
445.109	9.89023
445.316	9.71169
445.523	10.16845
445.73	10.33863
445.937	11.15607
446.144	11.58468
446.351	12.012
446.558	11.13497
446.765	12.71585
446.972	12.09797
447.179	11.69815
447.386	12.25564
447.593	10.72575
447.8	11.45264
448.007	10.23162
448.214	9.79572
448.42	9.1768
448.627	9.57644
448.834	9.04444
449.041	8.93315
449.248	8.94881
449.454	9.38609
449.661	9.8991
449.868	8.76345
450.075	8.68747
450.281	7.99144
450.488	8.4892
450.695	8.46995
450.901	8.69396
451.108	8.69837
451.315	9.46999
451.521	8.77703
451.728	9.55688
451.935	8.67156
452.141	8.95944
452.348	9.00066
452.554	8.96254
452.761	8.75398
452.967	9.93723
453.174	9.16941
453.38	9.26696
453.587	8.47929
453.793	9.13963
454	9.55183
454.206	10.20293
454.413	9.58992
454.619	9.31658
454.825	8.73935
455.032	9.41361
455.238	9.48851
455.445	8.42823
455.651	9.09115
455.857	8.14646
456.064	8.81491
456.27	8.94021
456.476	8.85284
456.682	8.43764
456.889	9.25652
457.095	9.19089
457.301	10.37189
457.507	9.20011
457.714	9.11153
457.92	9.14744
458.126	8.86965
458.332	9.08124
458.538	8.949
458.744	9.19576
458.951	9.11552
459.157	11.14338
459.363	10.37949
459.569	10.86517
459.775	11.43283
459.981	11.14059
460.187	11.6281
460.393	11.71092
460.599	11.90256
460.805	11.0092
461.011	10.22221
461.217	10.06928
461.423	9.85601
461.629	9.28334
461.835	9.56929
462.041	9.19616
462.247	10.10379
462.453	9.1658
462.658	9.08982
462.864	9.48752
463.07	9.30316
463.276	9.36918
463.482	9.30624
463.688	9.9271
463.893	8.88481
464.099	9.1625
464.305	9.93402
464.511	9.08266
464.716	9.12187
464.922	9.75035
465.128	8.87132
465.333	10.20612
465.539	9.65856
465.745	9.22907
465.95	9.31353
466.156	10.80511
466.362	9.96199
466.567	9.36399
466.773	9.02054
466.978	10.15645
467.184	8.84428
467.389	8.37719
467.595	9.41542
467.8	9.06484
468.006	10.02096
468.211	10.01661
468.417	8.74736
468.622	9.48922
468.828	9.66723
469.033	9.54063
469.239	10.67317
469.444	9.16227
469.649	9.8587
469.855	9.35607
470.06	9.32202
470.266	8.97469
470.471	9.7193
470.676	9.52946
470.881	8.47612
471.087	10.22594
471.292	10.86287
471.497	8.73945
471.703	9.29891
471.908	9.08914
472.113	9.51322
472.318	9.91464
472.523	8.84078
472.729	9.62176
472.934	9.71844
473.139	9.10045
473.344	9.61429
473.549	10.00618
473.754	9.07824
473.959	10.92108
474.164	9.01577
474.369	9.32957
474.575	9.77579
474.78	9.462
474.985	9.12268
475.19	8.5248
475.395	8.99375
475.6	9.4273
475.804	10.21266
476.009	9.51394
476.214	9.46122
476.419	9.3614
476.624	8.72572
476.829	9.14106
477.034	9.80575
477.239	9.15183
477.444	9.8737
477.648	9.95785
477.853	9.89074
478.058	9.46102
478.263	9.17949
478.468	9.1578
478.672	9.11854
478.877	10.26361
479.082	10.27552
479.287	9.73485
479.491	9.53532
479.696	9.13848
479.901	10.03403
480.105	10.06888
480.31	9.35127
480.515	9.69223
480.719	10.72869
480.924	9.52435
481.128	9.14463
481.333	9.87463
481.538	9.82545
481.742	10.15652
481.947	11.19394
482.151	12.24741
482.356	13.08663
482.56	15.25858
482.765	17.02222
482.969	19.97975
483.174	22.64127
483.378	26.01412
483.582	27.28548
483.787	29.31637
483.991	30.16067
484.196	30.61817
484.4	30.21245
484.604	30.61441
484.809	28.05211
485.013	26.41368
485.217	24.01331
485.422	21.62014
485.626	19.67598
485.83	18.43855
486.034	17.57673
486.239	17.82488
486.443	18.16642
486.647	18.51208
486.851	19.5889
487.055	21.19177
487.26	21.27292
487.464	22.23476
487.668	22.01585
487.872	22.64459
488.076	22.88527
488.28	21.96846
488.484	20.64888
488.688	20.16767
488.892	19.06901
489.096	17.78423
489.3	16.41309
489.504	15.27623
489.708	14.49279
489.912	14.1034
490.116	13.76605
490.32	13.40759
490.524	14.45278
490.728	15.32246
490.932	16.14746
491.136	17.09175
491.34	18.281
491.544	18.87067
491.748	18.86489
491.951	19.01331
492.155	18.53504
492.359	17.98668
492.563	16.56034
492.767	15.59239
492.97	14.20445
493.174	12.7057
493.378	11.62796
493.582	10.28751
493.785	9.86448
493.989	9.89425
494.193	9.81432
494.396	9.6188
494.6	10.09194
494.804	9.83126
495.007	9.41874
495.211	9.61015
495.414	9.74268
495.618	9.98228
495.822	10.51399
496.025	9.87802
496.229	10.17382
496.432	9.62765
496.636	9.98408
496.839	9.83012
497.043	10.67608
497.246	10.14553
497.45	9.76757
497.653	9.99788
497.856	10.0511
498.06	9.49141
498.263	9.8443
498.467	9.76897
498.67	10.27064
498.873	10.05212
499.077	9.80277
499.28	9.7645
499.483	10.03149
499.686	10.1841
499.89	10.02156
500.093	10.33634
500.296	9.59206
500.499	10.54899
500.703	9.75488
500.906	10.03704
501.109	10.57273
501.312	9.96266
501.515	9.79814
501.719	9.95815
501.922	10.34088
502.125	9.91942
502.328	9.72663
502.531	9.29953
502.734	9.68863
502.937	9.0632
503.14	9.91265
503.343	9.48007
503.546	9.6955
503.749	9.52853
503.952	10.23332
504.155	9.46328
504.358	10.07934
504.561	9.90156
504.764	9.16246
504.967	9.93347
505.17	9.84179
505.373	10.60129
505.576	9.81247
505.778	10.17071
505.981	9.39145
506.184	10.37125
506.387	9.14304
506.59	10.87555
506.793	10.34418
506.995	10.10508
507.198	9.05891
507.401	10.13435
507.604	10.13125
507.806	9.56617
508.009	9.57903
508.212	10.40848
508.414	9.67937
508.617	9.71374
508.82	10.03448
509.022	10.67539
509.225	10.11331
509.427	9.37325
509.63	10.59332
509.833	10.00612
510.035	9.65377
510.238	9.2907
510.44	10.53275
510.643	9.11295
510.845	10.76878
511.048	10.10716
511.25	9.70773
511.453	9.84981
511.655	10.06995
511.858	9.81114
512.06	10.29216
512.262	10.01381
512.465	10.40914
512.667	9.63674
512.869	9.35974
513.072	10.09284
513.274	10.32092
513.476	10.14909
513.679	10.33684
513.881	9.40101
514.083	10.6819
514.286	9.59552
514.488	9.58101
514.69	9.46103
514.892	9.2149
515.094	10.11127
515.297	9.56191
515.499	9.92611
515.701	9.453
515.903	10.66713
516.105	10.79603
516.307	10.29615
516.509	9.04708
516.711	9.43932
516.913	9.99981
517.116	10.00796
517.318	9.75312
517.52	10.59262
517.722	10.31423
517.924	9.51802
518.126	10.25912
518.328	9.97356
518.529	10.73386
518.731	11.53765
518.933	10.04213
519.135	10.27334
519.337	10.94495
519.539	10.31439
519.741	9.28251
519.943	9.79295
520.145	9.81781
520.346	10.24922
520.548	9.68728
520.75	10.11271
520.952	9.74444
521.153	10.00211
521.355	10.06871
521.557	9.49361
521.759	9.99327
521.96	9.75627
522.162	9.38027
522.364	10.38051
522.565	9.52635
522.767	10.17662
522.969	10.39775
523.17	10.17165
523.372	10.11079
523.573	9.67205
523.775	9.8182
523.977	9.59138
524.178	10.92756
524.38	9.73516
524.581	10.25353
524.783	9.94573
524.984	10.40801
525.186	10.25794
525.387	10.80037
525.589	10.88961
525.79	10.878
525.991	10.9741
526.193	11.64621
526.394	11.06027
526.596	11.9417
526.797	12.26272
526.998	12.00986
527.2	12.55143
527.401	14.50941
527.602	15.73798
527.803	18.03515
528.005	19.40495
528.206	20.97193
528.407	22.23216
528.608	22.50122
528.81	23.01572
529.011	22.61244
529.212	23.47896
529.413	22.11067
529.614	20.71712
529.815	19.51697
530.017	17.88955
530.218	15.96081
530.419	14.2911
530.62	13.5994
530.821	12.80063
531.022	11.45119
531.223	12.08749
531.424	11.73392
531.625	11.78543
531.826	11.50647
532.027	12.05989
532.228	13.28614
532.429	13.47993
532.63	13.92916
532.831	15.04834
533.032	15.28072
533.233	16.06454
533.433	15.86201
533.634	16.0802
533.835	15.40932
534.036	14.69138
534.237	14.1175
534.438	13.29626
534.638	11.9734
534.839	11.41154
535.04	11.08603
535.241	10.36575
535.441	11.092
535.642	10.7323
535.843	10.21056
536.043	10.52177
536.244	10.80199
536.445	11.10215
536.645	11.80998
536.846	11.58536
537.047	11.89774
537.247	10.84341
537.448	10.49719
537.648	10.31752
537.849	10.07725
538.049	9.96682
538.25	10.20802
538.451	10.11694
538.651	9.55794
538.851	10.35629
539.052	10.55547
539.252	10.39082
539.453	10.04555
539.653	10.22323
539.854	10.20068
540.054	10.32151
540.254	11.9516
540.455	13.16496
540.655	13.52424
540.855	15.23536
541.056	16.37816
541.256	16.52477
541.456	17.45189
541.657	17.22567
541.857	17.8101
542.057	16.46372
542.257	16.03269
542.458	16.0886
542.658	15.53294
542.858	13.67895
543.058	13.41606
543.258	12.7021
543.458	11.27336
543.659	10.71369
543.859	11.09304
544.059	10.73911
544.259	10.0744
544.459	10.6407
544.659	9.86943
544.859	10.28008
545.059	9.90105
545.259	10.48907
545.459	10.25419
545.659	10.63382
545.859	10.1574
546.059	10.33529
546.259	9.74859
546.459	9.53285
546.659	9.7127
546.859	10.48547
547.059	10.21055
547.258	10.34827
547.458	10.30451
547.658	9.6379
547.858	9.49924
548.058	10.03073
548.258	9.82155
548.457	9.56604
548.657	11.08406
548.857	9.74001
549.057	10.26674
549.256	10.20689
549.456	9.51127
549.656	8.74666
549.855	11.03605
550.055	9.53145
550.255	10.78024
550.454	10.02717
550.654	10.39651
550.853	10.76351
551.053	10.28444
551.253	9.97655
551.452	10.30768
551.652	9.23533
551.851	8.93344
552.051	9.63949
552.25	9.61022
552.45	9.59044
552.649	9.69403
552.849	9.43389
553.048	9.97585
553.248	10.32024
553.447	9.28862
553.646	10.3434
553.846	11.38931
554.045	10.63222
554.244	9.07516
554.444	10.66368
554.643	9.34442
554.842	10.72239
555.042	10.92995
555.241	9.46781
555.44	9.14135
555.64	10.11441
555.839	10.74606
556.038	10.12183
556.237	9.38412
556.436	9.97692
556.636	9.97447
556.835	9.25835
557.034	10.76491
557.233	9.66396
557.432	8.94412
557.631	10.38087
557.83	9.57135
558.029	9.40348
558.228	9.36377
558.427	9.16844
558.626	9.97779
558.825	9.03731
559.024	9.72083
559.223	11.00412
559.422	9.55944
559.621	10.16892
559.82	8.34295
560.019	9.7703
560.218	9.31737
560.417	8.29692
560.616	9.40076
560.815	11.93932
561.014	8.87132
561.212	10.736
561.411	9.82992
561.61	9.00597
561.809	9.60002
562.008	11.02805
562.206	9.4779
562.405	10.12938
562.604	9.64069
562.803	9.86777
563.001	9.66549
563.2	8.9191
563.399	10.09936
563.597	9.05739
563.796	9.74743
563.995	9.01091
564.193	10.27835
564.392	9.51439
564.59	11.20847
564.789	8.74261
564.988	9.69213
565.186	10.06889
565.385	9.75215
565.583	9.72979
565.782	10.04502
565.98	9.79923
566.179	9.89077
566.377	9.40811
566.575	9.50295
566.774	10.83763
566.972	10.44085
567.171	11.2027
567.369	10.78055
567.567	10.03557
567.766	10.1394
567.964	8.49864
568.162	10.26861
568.361	10.68699
568.559	9.79015
568.757	10.07865
568.956	9.76294
569.154	10.01567
569.352	10.23348
569.55	9.89997
569.748	9.99803
569.947	9.45552
570.145	9.23586
570.343	9.22664
570.541	10.88653
570.739	9.23505
570.937	9.9091
571.135	10.29856
571.333	11.50202
571.532	11.50973
571.73	10.18736
571.928	10.53627
572.126	10.4859
572.324	9.8267
572.522	10.83889
572.72	11.79484
572.918	10.07423
573.116	10.38855
573.313	9.76233
573.511	10.05084
573.709	9.73648
573.907	10.64041
574.105	9.85126
574.303	9.06853
574.501	9.04819
574.699	10.44987
574.896	10.14279
575.094	10.48143
575.292	9.1808
575.49	10.56554
575.688	9.84467
575.885	10.84122
576.083	11.47626
576.281	10.44177
576.478	9.42531
576.676	10.49349
576.874	9.03585
577.071	9.96024
577.269	11.35443
577.467	9.70731
577.664	9.81238
577.862	10.52775
578.059	9.24231
578.257	10.35358
578.455	9.68446
578.652	9.83381
578.85	8.45514
579.047	10.05933
579.245	9.56883
579.442	9.80039
579.64	9.51799
579.837	8.53367
580.034	11.78865
580.232	9.54149
580.429	9.01625
580.627	10.17506
580.824	10.688
581.021	10.2366
581.219	9.54615
581.416	9.37552
581.613	11.01896
581.811	10.81173
582.008	9.18744
582.205	10.62137
582.402	9.9695
582.6	11.21005
582.797	9.94638
582.994	10.22616
583.191	10.62921
583.388	9.83103
583.586	10.54042
583.783	10.83835
583.98	9.11499
584.177	9.96526
584.374	7.98041
584.571	9.66859
584.768	9.80273
584.965	9.52282
585.162	10.44388
585.359	11.26601
585.556	9.98213
585.753	10.21074
585.95	8.75942
586.147	9.16696
586.344	10.27089
586.541	9.75188
586.738	8.9862
586.935	9.74984
587.132	9.3808
587.329	10.84518
587.526	9.79159
587.722	13.92931
587.919	8.85363
588.116	10.36556
588.313	11.02947
588.51	11.61553
588.706	9.66247
588.903	10.45236
589.1	10.86332
589.297	12.45075
589.493	9.93341
589.69	10.46337
589.887	9.56454
590.083	9.04767
590.28	9.54908
590.477	11.01399
590.673	10.52767
590.87	11.15095
591.067	9.54291
591.263	10.28551
591.46	10.22151
591.656	9.71754
591.853	11.29962
592.049	9.49088
592.246	9.58384
592.442	10.7528
592.639	10.91777
592.835	9.31095
593.032	10.2634
593.228	9.02468
593.425	8.88362
593.621	8.75945
593.817	10.31535
594.014	9.40124
594.21	10.31354
594.406	10.91741
594.603	10.48255
594.799	9.49658
594.995	8.37813
595.192	11.24689
595.388	9.86894
595.584	9.80125
595.78	9.18661
595.977	12.54941
596.173	11.66951
596.369	10.10163
596.565	9.45038
596.761	9.33356
596.957	11.20762
597.154	9.72148
597.35	9.88069
597.546	9.87588
597.742	10.6329
597.938	10.3324
598.134	9.67347
598.33	10.21481
598.526	11.01217
598.722	10.4294
598.918	11.48806
599.114	10.60952
599.31	8.99981
599.506	10.0106
599.702	9.4241
599.898	10.22342
600.094	10.79194
600.29	10.72581
600.485	10.67855
600.681	9.58461
600.877	11.72718
601.073	10.14391
601.269	12.09874
601.465	11.45021
601.66	9.34369
601.856	8.58478
602.052	12.23225
602.248	10.10326
602.443	8.8284
602.639	9.31933
602.835	9.62917
603.03	9.63522
603.226	11.15826
603.422	9.77778
603.617	10.21564
603.813	10.25378
604.009	9.90064
604.204	11.49898
604.4	9.38191
604.595	11.3177
604.791	9.63549
604.986	10.67108
605.182	9.72153
605.377	10.14239
605.573	10.0147
605.768	10.22171
605.964	10.78669
606.159	10.82841
606.355	11.05794
606.55	9.87637
606.746	11.20521
606.941	10.28687
607.136	11.9027
607.332	12.79813
607.527	9.22452
607.722	10.57929
607.918	10.1929
608.113	9.56122
608.308	11.17012
608.503	10.89751
608.699	10.91489
608.894	10.96713
609.089	9.83509
609.284	10.77291
609.479	10.1964
609.675	11.13134
609.87	10.32225
610.065	10.98874
610.26	11.37039
610.455	11.15574
610.65	10.60689
610.845	10.93533
611.04	11.31615
611.235	10.38079
611.43	10.54114
611.625	9.64605
611.82	11.86189
612.015	9.75919
612.21	12.15521
612.405	9.11314
612.6	11.973
612.795	12.04701
612.99	11.30845
613.185	9.60145
613.38	9.90271
613.575	10.70499
613.77	13.39268
613.965	8.71361
614.159	9.81164
614.354	11.74644
614.549	11.48751
614.744	10.90108
614.938	9.25145
615.133	9.27691
615.328	11.94242
615.523	11.63608
615.717	13.52071
615.912	10.11012
616.107	10.61016
616.301	10.19151
616.496	9.92009
616.691	12.1608
616.885	11.19752
617.08	13.75554
617.274	11.54616
617.469	12.73723
617.664	11.17319
617.858	10.12069
618.053	10.93558
618.247	10.28667
618.442	8.34047
618.636	12.07282
618.831	9.74808
619.025	9.89678
619.219	13.92625
619.414	7.35235
619.608	10.36997
619.803	9.89066
619.997	13.08353
620.191	11.66809
620.386	11.01942
620.58	10.57543
620.774	8.5054
620.969	8.85036
621.163	10.65259
621.357	9.51335
621.551	10.40177
621.746	10.64539
621.94	10.252
622.134	14.41439
622.328	13.01728
622.522	8.88357
622.716	11.90062
622.911	11.85972
623.105	11.63948
623.299	11.08071
623.493	14.19153
623.687	9.83169
623.881	10.05644
624.075	11.36962
624.269	12.07516
624.463	8.64113
624.657	8.8306
624.851	11.43598
625.045	11.54878
625.239	11.68931
625.433	10.2737
625.627	12.72731
625.821	10.22635
626.015	9.76557
626.209	10.88316
626.403	9.23238
626.596	11.17305
626.79	11.66998
626.984	9.56366
627.178	11.54186
627.372	11.25718
627.565	11.80749
627.759	9.40025
627.953	9.79015
628.147	11.1003
628.34	11.64679
628.534	13.40222
628.728	10.45526
628.921	11.74715
629.115	11.6561
629.309	11.69025
629.502	12.17214
629.696	10.83168
629.89	10.68696
630.083	11.1639
630.277	11.22145
630.47	12.84841
630.664	10.37535
630.857	9.12031
631.051	11.91965
631.244	12.21129
631.438	12.07631
631.631	10.18415
631.825	12.5578
632.018	11.59327
632.212	13.21282
632.405	12.45853
632.598	9.76477
632.792	11.20768
632.985	8.19066
633.178	10.79312
633.372	10.91026
633.565	10.8791
633.758	12.81144
633.952	10.01517
634.145	10.26664
634.338	10.40581
634.531	10.27515
634.724	10.02544
634.918	11.08052
635.111	10.68605
635.304	10.08497
635.497	14.03354
635.69	11.37876
635.883	12.36513
636.077	9.74702
636.27	11.74986
636.463	11.52778
636.656	11.22015
636.849	10.69756
637.042	11.85284
637.235	13.63907
637.428	12.06712
637.621	11.68031
637.814	13.09106
638.007	13.12733
638.2	13.13779
638.393	13.81665
638.586	9.49194
638.778	10.37671
638.971	11.16047
639.164	13.50054
639.357	11.74487
639.55	13.34729
639.743	12.21576
639.935	12.1597
640.128	14.63695
640.321	12.77934
640.514	11.81559
640.707	14.72757
640.899	12.55609
641.092	9.26655
641.285	26.97486
641.477	8.72461
641.67	15.0922
641.863	13.46073
642.055	11.7098
642.248	11.47188
642.441	11.11624
642.633	12.40942
642.826	12.90416
643.018	13.59304
643.211	14.47843
643.403	14.70762
643.596	15.10156
643.788	14.92673
643.981	11.24774
644.173	13.01699
644.366	11.03834
644.558	8.98669
644.751	13.21664
644.943	9.81362
645.135	14.22468
645.328	14.3167
645.52	12.53794
645.712	13.6732
645.905	16.45747
646.097	10.13597
646.289	12.58079
646.482	15.62603
646.674	10.53144
646.866	13.65287
647.058	12.62415
647.251	10.49907
647.443	11.02511
647.635	11.59611
647.827	10.26811
648.019	10.42598
648.211	11.61125
648.404	12.12683
648.596	14.6556
648.788	12.42705
648.98	12.25643
649.172	13.1169
649.364	12.51883
649.556	9.83471
649.748	16.25702
649.94	10.84837
650.132	13.18442
650.324	10.7826
650.516	10.86955
650.708	13.68571
650.9	9.82398
651.092	9.40681
651.284	10.18772
651.476	10.48257
651.667	13.12717
651.859	14.33012
652.051	11.80045
652.243	12.66319
652.435	11.45591
652.627	13.09838
652.818	12.99371
653.01	9.74514
653.202	11.08707
653.394	11.13167
653.585	12.80295
653.777	19.56386
653.969	14.80393
654.16	14.20655
654.352	10.59831
654.544	12.24298
654.735	14.6214
654.927	12.6628
655.118	15.09393
655.31	13.77557
655.502	14.43367
655.693	12.01449
655.885	13.17641
656.076	14.72523
656.268	12.92668
656.459	15.13719
656.651	15.01198
656.842	11.84765
657.034	11.20852
657.225	14.07861
657.416	14.80407
657.608	15.13879
657.799	12.76386
657.99	14.87369
658.182	11.37955
658.373	11.64322
658.564	14.74813
658.756	13.2869
658.947	12.23828
659.138	11.22703
659.33	11.75424
659.521	11.6417
659.712	12.41783
659.903	12.37638
660.094	11.8299
660.286	10.15516
660.477	15.36977
660.668	13.6461
660.859	12.29945
661.05	10.42801
661.241	13.44554
661.432	13.34742
661.623	12.16676
661.814	11.61888
662.006	10.04812
662.197	13.2459
662.388	14.83043
662.579	13.12324
662.77	15.18569
662.96	17.79214
663.151	14.63258
663.342	9.54826
663.533	14.17078
663.724	12.6012
663.915	16.49016
664.106	12.89179
664.297	16.43449
664.488	14.14519
664.678	11.59965
664.869	14.50251
665.06	14.71076
665.251	13.18904
665.442	14.58544
665.632	11.05023
665.823	16.97371
666.014	8.02072
666.204	14.57085
666.395	15.85269
666.586	17.79454
666.776	14.77504
666.967	16.52001
667.158	13.34298
667.348	16.42929
667.539	11.59433
667.729	15.29661
667.92	12.07541
668.111	15.29928
668.301	14.84633
668.492	12.95373
668.682	13.71879
668.873	13.51902
669.063	11.14658
669.253	13.73468
669.444	16.38642
669.634	13.02543
669.825	16.93834
670.015	15.97684
670.206	12.18235
670.396	17.64001
670.586	13.39376
670.777	14.29128
670.967	9.87244
671.157	13.17157
671.347	12.3501
671.538	16.83994
671.728	15.21671
671.918	17.77201
672.108	15.83288
672.299	13.76445
672.489	14.2936
672.679	12.10381
672.869	15.26747
673.059	18.48363
673.249	14.73176
673.44	11.85722
673.63	13.08899
673.82	15.80254
674.01	11.84581
674.2	15.05033
674.39	19.9492
674.58	15.17939
674.77	14.1677
674.96	13.79695
675.15	22.90984
675.34	16.54381
675.53	13.9346
675.72	12.84444
675.91	10.72857
676.099	18.3421
676.289	19.66802
676.479	16.66434
676.669	13.26543
676.859	15.47619
677.049	13.03355
677.238	14.1072
677.428	17.98201
677.618	15.14146
677.808	18.58962
677.997	15.80459
678.187	12.42104
678.377	14.35662
678.567	12.97437
678.756	13.4807
678.946	14.63623
679.136	11.71697
679.325	13.08655
679.515	12.59394
679.704	11.5951
679.894	16.52403
680.084	15.18405
680.273	17.23669
680.463	12.90623
680.652	12.69602
680.842	14.24794
681.031	16.38571
681.221	12.6748
681.41	15.45989
681.6	13.98773
681.789	15.8124
681.978	16.77487
682.168	15.13297
682.357	14.80608
682.547	15.70267
682.736	14.87564
682.925	17.41573
683.115	17.54415
683.304	16.18185
683.493	14.98842
683.682	16.19895
683.872	15.94011
684.061	17.1529
684.25	16.14598
684.439	20.55074
684.629	16.90404
684.818	23.00515
685.007	15.12753
685.196	14.22792
685.385	19.7956
685.574	16.02429
685.763	15.65295
685.952	16.03594
686.142	12.33414
686.331	18.59958
686.52	12.33924
686.709	20.85129
686.898	20.13787
687.087	17.14729
687.276	19.74034
687.465	18.67869
687.654	15.0449
687.842	19.10359
688.031	13.02629
688.22	19.44489
688.409	16.42758
688.598	16.29581
688.787	22.26971
688.976	15.74693
689.165	21.08926
689.353	15.07351
689.542	17.33866
689.731	19.08677
689.92	21.74805
690.108	17.9129
690.297	15.12955
690.486	16.91373
690.675	18.30733
690.863	20.66733
691.052	20.2291
691.241	17.24098
691.429	16.96648
691.618	20.25163
691.806	13.83264
691.995	16.15436
692.184	16.53325
692.372	15.82713
692.561	16.80702
692.749	17.88329
692.938	26.01465
693.126	18.13059
693.315	16.3726
693.503	18.97299
693.692	19.70278
693.88	19.41463
694.068	22.85844
694.257	17.85584
694.445	18.57099
694.634	12.14903
694.822	19.31827
695.01	20.0556
695.199	23.43368
695.387	21.7379
695.575	20.63669
695.763	17.04536
695.952	16.5553
696.14	13.04492
696.328	15.7267
696.516	17.60933
696.705	18.39488
696.893	17.60011
697.081	12.89529
697.269	19.34557
697.457	14.70694
697.645	13.80486
697.833	19.23246
698.021	15.05276
698.21	15.71288
698.398	16.43033
698.586	13.85749
698.774	13.92202
698.962	16.57348
699.15	13.86354
699.338	13.01177
699.526	17.52693
699.714	14.75661
699.901	14.74153
700.089	18.38315
700.277	14.66142
700.465	16.01412
700.653	18.47524
700.841	17.97162
701.029	14.62722
701.217	21.10056
701.404	16.78393
701.592	20.85728
701.78	24.33799
701.968	16.44327
702.155	16.42071
702.343	13.96716
702.531	20.98488
702.718	18.67534
702.906	15.6176
703.094	16.24044
703.281	21.41507
703.469	17.57975
703.657	20.99669
703.844	28.2785
704.032	24.45534
704.219	17.11927
704.407	19.39315
704.595	22.93297
704.782	19.53305
704.97	18.71422
705.157	17.84063
705.345	25.34257
705.532	30.51522
705.719	22.60494
705.907	25.27705
706.094	22.30403
706.282	28.49396
706.469	22.07565
706.656	23.15435
706.844	21.87057
707.031	26.61619
707.218	25.35293
707.406	29.19278
707.593	25.97937
707.78	26.29789
707.968	23.84572
708.155	21.54419
708.342	26.92492
708.529	26.69376
708.716	25.85102
708.904	29.91821
709.091	26.23467
709.278	21.31385
709.465	30.81098
709.652	29.5259
709.839	28.84728
710.026	24.46571
710.213	18.38268
710.4	24.30958
710.587	25.53911
710.774	27.70398
710.961	27.55822
711.148	24.02641
711.335	27.1734
711.522	23.25636
711.709	25.75963
711.896	30.67078
712.083	27.69362
712.27	21.06722
712.457	25.03023
712.644	19.37337
712.831	31.29307
713.017	24.39039
713.204	26.40282
713.391	21.22948
713.578	27.14796
713.765	29.00342
713.951	24.80152
714.138	34.34385
714.325	24.01526
714.512	22.47886
714.698	18.9505
714.885	26.95125
715.072	22.54396
715.258	21.67879
715.445	19.31378
715.631	26.33008
715.818	12.37958
716.005	19.33802
716.191	23.62682
716.378	19.43423
716.564	24.21941
716.751	17.46218
716.937	19.23298
717.124	24.55606
717.31	17.84984
717.497	27.88485
717.683	18.50873
717.869	28.9382
718.056	18.83253
718.242	23.06281
718.429	20.71076
718.615	17.14486
718.801	21.21813
718.988	25.52313
719.174	23.56157
719.36	19.83278
719.547	26.75965
719.733	22.8465
719.919	22.09524
720.105	23.86664
720.291	21.03356
720.478	22.20504
720.664	20.91131
720.85	19.00568
721.036	32.67904
721.222	29.19884
721.408	21.27582
721.595	28.98622
721.781	28.33989
721.967	26.89162
722.153	29.25889
722.339	24.22204
722.525	24.34315
722.711	17.92296
722.897	16.84699
723.083	20.62883
723.269	26.67969
723.455	35.11635
723.641	40.56542
723.827	23.01365
724.012	23.98647
724.198	22.2672
724.384	27.96416
724.57	23.73128
724.756	17.20367
724.942	14.96895
725.127	27.82281
725.313	28.04502
725.499	28.19457
725.685	31.60374
725.87	24.22601
726.056	18.90102
726.242	28.49915
726.428	16.19983
726.613	26.95486
726.799	21.40109
726.985	17.70748
727.17	15.85015
727.356	32.4587
727.541	18.55309
727.727	22.67159
727.913	26.05061
728.098	20.6614
728.284	26.47555
728.469	17.8589
728.655	19.48071
728.84	27.90794
729.026	26.83303
729.211	26.36236
729.397	24.80371
729.582	26.91668
729.767	22.83101
729.953	24.87229
730.138	28.90751
730.323	13.14372
730.509	18.41947
730.694	30.42257
730.879	25.82669
731.065	24.44864
731.25	34.59183
731.435	26.2521
731.621	17.16273
731.806	20.81036
731.991	24.50038
732.176	17.75746
732.361	30.19819
732.547	25.01516
732.732	17.20841
732.917	34.02631
733.102	18.19131
733.287	20.82735
733.472	23.00822
733.657	22.6898
733.842	17.1014
734.027	20.81846
734.212	22.60907
734.397	20.21527
734.582	22.98466
734.767	27.78301
734.952	30.29838
735.137	12.65267
735.322	29.47862
735.507	25.4478
735.692	24.19695
735.877	33.78792
736.062	33.2412
736.247	25.43795
736.431	23.25079
736.616	29.58595
736.801	26.28604
736.986	23.72376
737.171	19.01679
737.355	18.6162
737.54	31.0597
737.725	24.02507
737.909	38.4066
738.094	21.82663
738.279	28.14713
738.463	22.85882
738.648	27.54977
738.833	26.18066
739.017	35.89739
739.202	22.56539
739.386	22.58339
739.571	19.52688
739.756	28.8618
739.94	24.68861
740.125	26.87777
740.309	21.31616
740.494	28.07508
740.678	25.86436
740.863	27.05641
741.047	25.10355
741.231	32.13881
741.416	21.30126
741.6	32.06112
741.785	20.54235
741.969	30.04463
742.153	32.32773
742.338	14.31913
742.522	23.85837
742.706	29.71223
742.89	18.67021
743.075	24.70995
743.259	32.17552
743.443	31.78814
743.627	31.8053
743.812	37.40781
743.996	17.30829
744.18	24.164
744.364	22.48596
744.548	38.6007
744.732	23.59006
744.916	29.46795
745.1	29.15813
745.285	23.94925
745.469	29.32532
745.653	35.33113
745.837	19.2184
746.021	38.73163
746.205	32.36092
746.389	24.9438
746.573	24.27584
746.757	33.1231
746.94	23.1499
747.124	33.0717
747.308	18.89236
747.492	32.06492
747.676	20.58175
747.86	40.18293
748.044	23.14961
748.227	16.47823
748.411	49.30775
748.595	27.13327
748.779	21.12238
748.963	28.36602
749.146	26.03138
749.33	21.62436
749.514	20.88389
749.697	33.14064
749.881	22.61979
750.065	19.81817
750.248	26.95881
750.432	39.42472
750.616	25.62492
750.799	19.79228
750.983	41.28475
751.166	41.32789
751.35	17.87656
751.533	33.01518
751.717	36.3645
751.9	35.61534
752.084	24.2717
752.267	21.77484
752.451	22.10248
752.634	26.20615
752.818	30.48887
753.001	31.25656
753.184	34.27817
753.368	28.52602
753.551	8.53888
753.734	21.63448
753.918	42.34918
754.101	23.0834
754.284	31.22027
754.467	23.49387
754.651	22.18261
754.834	21.04083
755.017	33.57333
755.2	33.75312
755.384	19.92303
755.567	30.64663
755.75	31.99524
755.933	24.4911
756.116	31.32366
756.299	24.36721
756.482	21.35253
756.665	29.91404
756.848	26.58588
757.032	28.03641
757.215	18.39909
757.398	22.37145
757.581	21.43688
757.764	44.57009
757.947	26.46536
758.129	32.52209
758.312	10.70047
758.495	25.30013
758.678	25.6711
758.861	24.27585
759.044	38.93678
759.227	21.26032
759.41	21.23995
759.592	32.45826
759.775	25.24652
759.958	31.8252
760.141	18.54714
760.324	42.36795
760.506	36.05215
760.689	31.81706
760.872	41.14794
761.054	30.2853
761.237	25.01966
761.42	28.50935
761.602	31.80343
761.785	28.8638
761.968	34.13532
762.15	38.78386
762.333	26.43325
762.515	30.26871
762.698	24.42311
762.88	32.18548
763.063	29.64499
763.245	34.66697
763.428	22.01677
763.61	23.65096
763.793	19.50153
763.975	28.19432
764.158	24.53197
764.34	22.56923
764.522	21.22195
764.705	24.95171
764.887	35.87155
765.069	17.33093
765.252	29.54402
765.434	31.21227
765.616	26.71146
765.799	21.99798
765.981	30.8481
766.163	21.85323
766.345	34.99169
766.528	22.96113
766.71	14.7283
766.892	27.58885
767.074	35.58107
767.256	25.08371
767.438	38.76797
767.62	28.67799
767.802	44.09872
767.985	30.96865
768.167	40.80188
768.349	24.74513
768.531	32.16477
768.713	29.73237
768.895	32.71581
769.077	30.87452
769.259	47.35256
769.441	63.08082
769.623	33.3746
769.804	39.3805
769.986	37.51335
770.168	44.84178
770.35	55.23977
770.532	42.28703
770.714	44.49964
770.896	45.08757
771.077	20.00721
771.259	47.81725
771.441	43.66203
771.623	49.58
771.804	61.10007
771.986	21.32186
772.168	33.66184
772.35	49.08964
772.531	61.49403
772.713	41.52916
772.894	51.10746
773.076	39.87706
773.258	32.16276
773.439	54.10732
773.621	59.25356
773.802	28.67327
773.984	33.33541
774.166	42.07509
774.347	57.32125
774.529	49.80934
774.71	18.94685
774.891	36.50146
775.073	35.66817
775.254	52.32991
775.436	31.83508
775.617	65.55961
775.799	32.78018
775.98	53.91945
776.161	59.09035
776.343	60.20443
776.524	39.80232
776.705	36.2102
776.886	21.49216
777.068	41.79123
777.249	89.26436
777.43	64.90001
777.611	28.90786
777.793	36.27219
777.974	61.30584
778.155	32.63676
778.336	28.40234
778.517	68.63868
778.698	31.45768
778.879	20.11177
779.061	12.03779
779.242	45.67832
779.423	45.23324
779.604	36.00692
779.785	37.13647
779.966	42.54247
780.147	53.20109
780.328	53.46764
780.509	72.87879
780.69	51.50171
780.871	32.48634
781.051	23.51192
781.232	41.49317
781.413	41.55242
781.594	35.45108
781.775	35.15475
781.956	32.33592
782.137	19.23289
782.317	33.43353
782.498	42.93242
782.679	41.57859
782.86	41.98155
783.04	32.47969
783.221	42.78105
783.402	63.20685
783.583	40.44401
783.763	50.36499
783.944	34.11813
784.124	24.60702
784.305	61.40483
784.486	48.05695
784.666	38.51086
784.847	22.32487
785.027	82.36526
785.208	32.47091
785.388	32.7755
785.569	33.33076
785.749	37.35153
785.93	33.98168
786.11	24.57652
786.291	45.94118
786.471	43.20148
786.652	51.88309
786.832	38.48835
787.012	43.73285
787.193	27.95524
787.373	41.76395
787.553	32.8634
787.734	43.2363
787.914	35.13669
788.094	53.5028
788.275	42.15878
788.455	35.49138
788.635	26.97119
788.815	43.76532
788.995	29.85935
789.176	23.43197
789.356	31.19965
789.536	37.67583
789.716	45.39426
789.896	31.48227
790.076	34.39797
790.256	43.84702
790.436	17.10835
790.616	28.77603
790.796	42.84611
790.976	38.97613
791.156	31.6209
791.336	46.98082
791.516	42.66405
791.696	37.04071
791.876	23.54753
792.056	42.00385
792.236	52.23748
792.416	49.75322
792.596	44.67165
792.776	45.36304
792.956	49.05685
793.135	62.13964
793.315	27.96058
793.495	53.50492
793.675	47.99087
793.854	51.6735
794.034	50.88596
794.214	28.35523
794.394	50.20017
794.573	56.77482
794.753	41.84747
794.933	30.46661
795.112	41.78006
795.292	52.03602
795.472	62.27897
795.651	26.49935
795.831	41.11459
796.01	35.66531
796.19	36.156
796.369	39.89844
796.549	45.31668
796.728	38.25492
796.908	25.99125
797.087	25.94992
797.267	36.52064
797.446	27.01006
797.626	44.40487
797.805	45.20964
797.984	31.52699
798.164	48.21927
798.343	30.3322
798.522	42.20051
798.702	41.42909
798.881	26.53961
799.06	35.78311
799.239	19.50874
799.419	29.02985
799.598	59.81768
799.777	44.51267
799.956	55.16182
800.136	35.778
800.315	31.67054
800.494	43.84102
800.673	52.54367
800.852	47.38156
801.031	53.94811
801.21	46.4055
801.389	35.68164
801.568	41.91272
801.747	63.76375
801.926	41.05874
802.105	58.93798
802.284	34.12875
802.463	61.151
802.642	43.58999
802.821	43.00542
803	57.97315
803.179	51.4524
803.358	53.08425
803.537	32.01445
803.716	40.86506
803.895	32.52194
804.073	36.95746
804.252	31.43378
804.431	44.75517
804.61	39.82103
804.789	49.95851
804.967	33.5422
805.146	33.71662
805.325	70.6272
805.503	45.65521
805.682	25.33259
805.861	84.79092
806.039	57.13937
806.218	35.97246
806.397	41.95784
806.575	40.20785
806.754	44.7668
806.932	28.8354
807.111	54.05205
807.289	52.21829
807.468	41.54693
807.646	53.05767
807.825	44.90793
808.003	44.16098
808.182	53.5515
808.36	41.07331
808.539	30.51997
808.717	59.81954
808.895	32.51861
809.074	45.875
809.252	38.56209
809.43	48.5875
809.609	56.19653
809.787	58.63469
809.965	39.85401
810.144	40.47952
810.322	39.53437
810.5	45.08982
810.678	36.76936
810.856	70.27878
811.035	55.97254
811.213	50.01324
811.391	59.78444
811.569	42.02814
811.747	92.93518
811.925	58.63171
812.103	33.89677
812.281	41.64525
812.459	66.45422
812.637	64.50457
812.816	54.72313
812.994	74.70683
813.171	61.07652
813.349	47.41702
813.527	53.54068
813.705	62.31285
813.883	79.38453
814.061	54.24493
814.239	66.97431
814.417	74.50526
814.595	52.13357
814.773	48.62431
814.95	45.3796
815.128	52.12066
815.306	45.21025
815.484	38.94961
815.662	30.45472
815.839	27.22322
816.017	38.24405
816.195	57.46521
816.372	39.72493
816.55	53.95078
816.728	66.02789
816.905	42.39408
817.083	65.46974
817.261	41.6316
817.438	88.2358
817.616	68.60126
817.793	35.46679
817.971	54.13603
818.148	53.74072
818.326	63.08497
818.503	48.38288
818.681	68.64181
818.858	41.64153
819.036	43.77278
819.213	47.70351
819.391	36.36369
819.568	35.99039
819.745	32.67086
819.923	53.89312
820.1	40.96173
820.277	34.15211
820.455	39.57225
820.632	41.37564
820.809	44.11968
820.986	29.48566
821.164	25.10828
821.341	22.52258
821.518	33.77265
821.695	25.05462
821.872	22.95856
822.05	20.64125
822.227	17.29499
822.404	18.21826
822.581	20.38236
822.758	17.89559
822.935	17.96972
823.112	19.68722
823.289	16.98432
823.466	19.79956
823.643	18.77524
823.82	21.67984
823.997	19.46671
824.174	22.48592
824.351	28.5903
824.528	27.15431
824.705	24.51796
824.882	26.83092
825.059	32.92199
825.236	24.33964
825.412	25.21876
825.589	30.94805
825.766	42.68267
825.943	27.49008
826.12	31.66549
826.296	23.98842
826.473	29.9071
826.65	29.20618
826.827	34.70869
827.003	24.53566
827.18	27.53527
827.357	30.07953
827.533	26.16652
827.71	16.72827
827.887	23.3632
828.063	26.90072
828.24	22.5347
828.416	29.10902
828.593	25.03101
828.769	33.20503
828.946	33.94621
829.122	36.334
829.299	33.706
829.475	23.27235
829.652	34.90478
829.828	54.62431
830.005	36.30737
830.181	49.37209
830.357	36.42932
830.534	50.40128
830.71	38.4328
830.886	48.86613
831.063	46.87799
831.239	59.20897
831.415	29.5074
831.592	61.26542
831.768	39.74323
831.944	35.6097
832.12	67.79702
832.296	61.9318
832.473	52.86653
832.649	37.49342
832.825	54.37874
833.001	33.05787
833.177	46.07442
833.353	43.87337
833.529	26.17853
833.705	39.60486
833.881	27.2387
834.058	25.64868
834.234	28.22784
834.41	28.55945
834.586	22.4184
834.761	26.73907
834.937	28.75388
835.113	29.61131
835.289	26.18032
835.465	30.14138
835.641	26.98998
835.817	29.95015
835.993	49.77765
836.169	27.40065
836.344	38.9567
836.52	45.14289
836.696	41.37974
836.872	34.05971
837.048	90.10912
837.223	37.65277
837.399	68.81964
837.575	55.28445
837.75	51.47764
837.926	71.43445
838.102	104.53855
838.277	80.60403
838.453	114.74285
838.628	112.58894
838.804	48.30651
838.98	100.5623
839.155	54.64693
839.331	73.88665
839.506	52.39256
839.682	49.56848
839.857	73.1044
840.033	84.23793
840.208	40.87312
840.384	21.88825
840.559	41.56204
840.734	62.6394
840.91	81.01579
841.085	50.4708
841.26	49.535
841.436	44.56364
841.611	43.73593
841.786	64.62865
841.962	86.59169
842.137	54.27931
842.312	31.64342
842.487	52.09353
842.663	39.85337
842.838	48.18201
843.013	152.31043
843.188	78.51625
843.363	78.03775
843.538	125.70044
843.714	128.59372
843.889	132.71368
844.064	142.81169
844.239	118.62261
844.414	129.58197
844.589	91.75149
844.764	163.48481
844.939	158.34897
845.114	174.60523
845.289	171.26334
845.464	227.92142
845.639	150.7466
845.814	73.30421
845.989	88.472
846.163	114.76948
846.338	112.49245
846.513	162.6422
846.688	108.04831
846.863	108.80542
847.038	101.54035
847.212	114.81043
847.387	115.69512
847.562	120.248
847.737	153.12581
847.911	55.36489
848.086	65.94956
848.261	248.30671
848.435	100.36633
848.61	155.65439
848.785	75.6521
848.959	159.57175
849.134	219.40789
849.308	226.54385
849.483	123.57981
849.658	188.49886
849.832	102.51886
850.007	90.81006
850.181	244.73038
850.356	90.67102
850.53	229.00593
850.705	79.09836
850.879	44.83154
851.053	109.05761
851.228	102.94633
851.402	131.49562
851.577	168.20185
851.751	195.99836
851.925	126.61775
852.099	59.84928
852.274	86.54863
852.448	112.57805
852.622	151.60702
852.797	117.45486
852.971	116.86318
853.145	123.57143
853.319	356.33885
853.493	174.05707
853.668	101.72076
853.842	220.29182
854.016	175.63725
854.19	203.94401
854.364	127.36522
854.538	140.70415
854.712	182.01182
854.886	115.79547
855.06	102.7858
855.234	43.55596
855.408	190.4434
855.582	165.41093
855.756	170.08353
855.93	211.42142
856.104	149.88378
856.278	164.88329
856.452	124.71183
856.626	163.18727
856.8	261.94005
856.973	156.62807
857.147	146.61611
857.321	145.47842
857.495	179.36647
857.669	119.84797
857.842	108.06297
858.016	181.0204
858.19	91.29794
858.364	285.31146
858.537	114.59875
858.711	126.60278
858.885	119.92451
859.058	101.64272
859.232	61.67354
859.405	70.10113
859.579	167.76825
859.753	145.26154
859.926	96.29177
860.1	69.18226
860.273	131.54892
860.447	209.50005
860.62	111.00935
860.794	244.93345
860.967	136.11407
861.141	176.67925
861.314	264.46583
861.487	151.86027
861.661	203.77143
861.834	204.46142
862.008	175.60008
862.181	131.93496
862.354	134.60107
862.528	150.55409
862.701	107.20131
862.874	76.14566
863.047	114.20486
863.221	111.44615
863.394	58.69847
863.567	209.32044
863.74	47.83691
863.913	172.17059
864.087	148.60462
864.26	178.32786
864.433	123.10784
864.606	224.50112
864.779	132.04734
864.952	63.3926
865.125	108.01964
865.298	122.8441
865.471	132.06513
865.644	260.80856
865.817	208.77437
865.99	169.67837
866.163	199.57535
866.336	109.68754
866.509	131.78691
866.682	110.75703
866.855	188.2328
867.028	79.16482
867.2	154.84316
867.373	53.44631
867.546	135.68278
867.719	264.46377
867.892	166.36629
868.064	93.36506
868.237	151.22485
868.41	122.9287
868.583	71.98554
868.755	81.1754
868.928	126.6891
869.101	267.66111
869.273	191.50754
869.446	159.81749
869.619	187.57677
869.791	127.51752
869.964	188.20169
870.136	173.42506
870.309	139.38417
870.481	140.36505
870.654	72.42857
870.826	141.68592
870.999	113.85214
871.171	178.00153
871.344	111.93488
871.516	132.46976
871.689	95.98703
871.861	130.09794
872.033	99.35761
872.206	120.64635
872.378	182.48513
872.55	119.22534
872.723	79.84669
872.895	115.64801
873.067	191.04228
873.24	207.73197
873.412	106.7487
873.584	123.85974
873.756	110.55307
873.928	149.22126
874.101	153.61547
874.273	169.81463
874.445	55.47594
874.617	79.65799
874.789	138.05652
874.961	108.06942
875.133	161.42351
875.305	132.61708
875.477	88.87483
875.649	72.07231
875.821	98.69422
875.993	220.03045
876.165	86.08788
876.337	148.92886
876.509	125.0723
876.681	149.25112
876.853	138.31584
877.025	146.26635
877.197	96.59924
877.369	93.61534
877.541	175.98867
877.712	53.10269
877.884	82.99394
878.056	163.16791
878.228	89.68971
878.4	151.7328
878.571	84.5413
878.743	63.42789
878.915	145.43032
879.086	83.98692
879.258	106.9871
879.43	95.72773
879.601	85.1814
879.773	88.23843
879.945	24.16405
880.116	40.34373
880.288	27.59102
880.459	30.16159
880.631	23.30342
880.802	26.96047
880.974	25.77
881.145	18.84492
881.317	24.93381
881.488	19.0734
881.66	21.25806
881.831	19.10923
882.002	25.87432
882.174	19.3301
882.345	24.53054
882.517	14.84898
882.688	27.84939
882.859	23.96989
883.03	36.34844
883.202	34.16498
883.373	29.19211
883.544	28.85457
883.715	50.72821
883.887	41.53513
884.058	35.41353
884.229	49.27273
884.4	52.14762
884.571	57.14903
884.742	51.78299
884.914	54.1601
885.085	77.50145
885.256	96.68832
885.427	81.40802
885.598	93.98237
885.769	99.31196
885.94	94.34964
886.111	60.12682
886.282	112.40489
886.453	91.05459
886.624	61.97285
886.795	110.80791
886.966	95.91979
887.136	122.14226
887.307	80.34279
887.478	153.50011
887.649	138.43106
887.82	142.17877
887.991	111.36476
888.161	158.20426
888.332	147.32525
888.503	78.85512
888.674	201.3267
888.844	213.3472
889.015	165.51963
889.186	78.76591
889.356	196.38008
889.527	74.42823
889.698	342.2175
889.868	110.42769
890.039	145.7229
890.209	129.45264
890.38	171.6258
890.551	147.90681
890.721	207.06946
890.892	169.24955
891.062	115.98422
891.233	154.48377
891.403	118.99454
891.574	92.99533
891.744	115.90696
891.914	157.48589
892.085	133.23801
892.255	42.45455
892.425	204.3363
892.596	167.03457
892.766	151.6523
892.936	207.59532
893.107	176.80148
893.277	98.1629
893.447	73.4825
893.618	55.94616
893.788	115.27224
893.958	60.6983
894.128	62.81922
894.298	70.7977
894.468	98.25963
894.639	46.47085
894.809	33.09498
894.979	50.40814
895.149	59.191
895.319	49.96382
895.489	68.71037
895.659	83.69729
895.829	56.78497
895.999	57.01999
896.169	41.82707
896.339	54.15038
896.509	109.59074
896.679	124.88812
896.849	121.35519
897.019	169.46482
897.189	128.97849
897.358	111.45768
897.528	173.54787
897.698	65.46446
897.868	155.81806
898.038	270.63912
898.208	246.12013
898.377	80.67779
898.547	250.49991
898.717	404.19289
898.886	155.72795
899.056	255.01901
899.226	372.52584
899.395	226.12902
899.565	288.63986
899.735	192.43826
899.904	314.10377
900.074	263.85782
900.244	123.45775
900.413	484.23869
900.583	108.04356
900.752	182.27538
900.922	297.25741
901.091	36.23296
901.261	248.91231
901.43	239.3067
901.599	237.02989
901.769	538.34399
901.938	289.57745
902.108	272.8112
902.277	350.6243
902.446	100.47206
902.616	116.90947
902.785	156.8623
902.954	275.37897
903.124	184.36514
903.293	149.9466
903.462	84.92787
903.631	114.58515
903.801	84.79879
903.97	47.5002
904.139	76.8669
904.308	59.42835
904.477	49.67122
904.646	30.04119
904.816	47.37244
904.985	65.94395
905.154	97.74434
