Data from WindowProjectSample3_Transmission__27__00027.txt Node

Date: Sun May 04 10:27:00 EDT 2025
User: jessi
Spectrometer: SR400872
Trigger mode: 0
Integration Time (sec): 5.000050E-1
Scans to average: 20
Electric dark correction enabled: true
Nonlinearity correction enabled: true
Boxcar width: 0
XAxis mode: Wavelengths
Number of Pixels in Spectrum: 3648
>>>>>Begin Spectral Data<<<<<
184.909	-1606.57898
185.132	-1263.52503
185.355	-1282.10877
185.578	-1075.57931
185.801	-3353.09577
186.024	-1035.81944
186.247	-1493.37394
186.47	-2736.99551
186.693	-272.39854
186.916	-273.79338
187.139	-981.2491
187.362	-1834.88928
187.585	-971.01234
187.808	-830.54148
188.031	-257010.65464
188.254	-1421.04221
188.476	-938.04107
188.699	-1078.45231
188.922	581.60426
189.145	-1229.48088
189.368	-1047.59287
189.591	-3811.77003
189.813	-697.0604
190.036	-1405.54694
190.259	-3194.26609
190.482	-1544.3955
190.705	-1721.72771
190.927	-991.8794
191.15	-1642.76304
191.373	-2182.9999
191.595	-2640.56876
191.818	-1233.77394
192.041	-16117.0356
192.263	-1527.77507
192.486	-418.04301
192.709	-1704.98344
192.931	-4370.1782
193.154	-1195.54592
193.377	-1185.14778
193.599	12447.55746
193.822	-817.53814
194.044	-3751.45373
194.267	-4881.49953
194.489	-180.83759
194.712	-1842.37742
194.934	-1648.85658
195.157	-953.72939
195.379	-749.62936
195.602	-860.48444
195.824	-1007.78331
196.047	-912.1365
196.269	-1053.3546
196.492	-1114.98695
196.714	-1079.38797
196.936	-1549.24497
197.159	-912.62451
197.381	-879.31988
197.604	-1308.55468
197.826	-1950.40128
198.048	-1575.8479
198.271	-1238.64397
198.493	-1025.25797
198.715	-919.95717
198.938	-6001.22222
199.16	-1232.96004
199.382	-915.90802
199.604	-9817.44925
199.827	-1632.90074
200.049	-1013.24005
200.271	-936.77708
200.493	-2166.16297
200.715	-934.51629
200.938	-778.11821
201.16	-1274.34003
201.382	-2689.79614
201.604	-1331.6732
201.826	-1313.82301
202.048	-534.34608
202.27	-875.15799
202.492	-1896.07877
202.715	-2025.15527
202.937	-2310.14701
203.159	-1129.81062
203.381	-1680.74218
203.603	-1301.76453
203.825	4328.74462
204.047	-1136.2149
204.269	-3208.87992
204.491	-1529.262
204.713	-783.58943
204.935	-1262.49862
205.156	-1350.98361
205.378	-3756.75409
205.6	-907.01579
205.822	-1107.41684
206.044	2752.14642
206.266	-1267.92472
206.488	-778.63974
206.71	-1828.30039
206.932	-2481.91785
207.153	-1206.08672
207.375	-928.00601
207.597	-1102.1166
207.819	-880.62568
208.041	-1303.312
208.262	-961.80835
208.484	-1915.88614
208.706	-871.87199
208.927	-840.02699
209.149	-2364.11289
209.371	-808.67748
209.593	-708.85001
209.814	-639.16411
210.036	-764.90137
210.258	-586.00957
210.479	-1477.85436
210.701	12541.50843
210.922	-862.62795
211.144	-904.29747
211.366	-1920.67341
211.587	10686.24229
211.809	-1002.26822
212.03	-3214.44878
212.252	1817.02228
212.473	-1154.71536
212.695	-4188.19659
212.916	-3203.98963
213.138	-5570.81009
213.359	-964.59727
213.581	-1590.82919
213.802	-1031.48042
214.024	-1323.68548
214.245	-11033.54916
214.466	-572.4547
214.688	-1288.25796
214.909	-1630.55706
215.131	-2005.43859
215.352	-964.09611
215.573	-1239.11379
215.795	-3139.51522
216.016	-1114.75697
216.237	-4529.1891
216.459	-13849.72459
216.68	-1659.29647
216.901	-1395.14142
217.122	-3303.06743
217.344	-1214.2295
217.565	-1527.79383
217.786	-1467.02002
218.007	-1232.711
218.228	-4997.78404
218.45	-1148.16832
218.671	-1437.16835
218.892	-1706.88803
219.113	-2372.4555
219.334	-90.29333
219.555	-1305.90739
219.776	-875.70929
219.997	-1341.13118
220.219	-2838.74693
220.44	-1021.91152
220.661	-874.43926
220.882	-997.6454
221.103	-3139.43231
221.324	5983.89121
221.545	-1913.84558
221.766	-1289.42231
221.987	-2328.8005
222.208	-2937.77065
222.429	-926.77479
222.65	-1321.11239
222.87	5112.18866
223.091	-8601.71634
223.312	4281.89263
223.533	-1665.21816
223.754	-1673.81396
223.975	-2403.9158
224.196	150593.16181
224.417	-10337.71428
224.637	2123.22861
224.858	252.52069
225.079	-7436.44115
225.3	2570.59669
225.521	-864.76766
225.741	8492.77573
225.962	6753.91953
226.183	312.14079
226.404	9119.09052
226.624	1720.84145
226.845	7719.54081
227.066	1769.53646
227.286	732.46239
227.507	248.67337
227.728	281.31343
227.948	500.13942
228.169	150.70446
228.389	154.60333
228.61	79.68528
228.831	116.1009
229.051	10.14105
229.272	69.90346
229.492	104.87846
229.713	28.81125
229.933	68.36635
230.154	64.32258
230.374	107.6395
230.595	73.42172
230.815	45.15879
231.036	81.09099
231.256	-9.85767
231.477	141.31862
231.697	78.57072
231.917	85.32812
232.138	118.39869
232.358	255.79489
232.579	204.29029
232.799	39.36106
233.019	204.4926
233.24	237.99749
233.46	79.2751
233.68	133.95018
233.901	83.26214
234.121	54.02795
234.341	23.77122
234.561	-7.45257
234.782	43.59045
235.002	137.11566
235.222	-2.44924
235.442	130.61648
235.662	59.92927
235.883	120.4663
236.103	94.46356
236.323	75.44464
236.543	53.64435
236.763	82.86786
236.983	78.36773
237.203	80.89413
237.423	120.92843
237.643	183.86008
237.864	150.70172
238.084	38.44838
238.304	47.81969
238.524	86.59288
238.744	76.06526
238.964	136.18195
239.184	120.33945
239.404	123.66426
239.624	63.35035
239.843	107.44543
240.063	62.82924
240.283	41.88807
240.503	44.66465
240.723	43.28126
240.943	28.94341
241.163	34.51771
241.383	23.86837
241.603	13.36051
241.822	15.1362
242.042	11.12854
242.262	14.05648
242.482	15.05579
242.702	17.60352
242.921	5.53047
243.141	11.32623
243.361	11.44911
243.581	16.06605
243.8	13.97305
244.02	8.5976
244.24	16.51699
244.459	16.21896
244.679	31.79662
244.899	20.74935
245.118	24.07438
245.338	21.8621
245.558	23.76516
245.777	13.39041
245.997	16.40582
246.216	15.91682
246.436	9.74457
246.655	6.4413
246.875	5.79455
247.094	10.00818
247.314	4.08199
247.533	6.30032
247.753	6.97256
247.972	5.60916
248.192	2.31479
248.411	3.61107
248.631	5.88307
248.85	7.32562
249.07	7.36211
249.289	10.44599
249.508	7.67428
249.728	12.9399
249.947	12.68743
250.166	15.5523
250.386	7.85067
250.605	11.26081
250.824	19.74173
251.044	12.97743
251.263	39.4064
251.482	22.29244
251.701	18.46113
251.921	0.66834
252.14	6.29478
252.359	7.29301
252.578	16.57439
252.798	6.35621
253.017	14.70944
253.236	7.3276
253.455	10.09392
253.674	19.36623
253.893	8.65381
254.112	15.05671
254.331	20.15605
254.551	15.85374
254.77	8.21185
254.989	23.36231
255.208	18.0696
255.427	27.34796
255.646	22.90405
255.865	34.54067
256.084	14.48931
256.303	17.84274
256.522	22.05772
256.741	5.84249
256.96	5.43152
257.179	12.92658
257.397	18.09567
257.616	9.61951
257.835	10.73736
258.054	24.5067
258.273	16.62569
258.492	16.87136
258.711	10.88892
258.93	4.81854
259.148	7.27919
259.367	6.66111
259.586	8.72405
259.805	3.97011
260.023	7.49245
260.242	5.56351
260.461	4.49447
260.68	2.1917
260.898	6.6799
261.117	2.22962
261.336	1.69382
261.554	5.47042
261.773	5.90349
261.992	1.58596
262.21	5.60678
262.429	6.29716
262.648	11.05875
262.866	12.79629
263.085	9.49125
263.303	7.78089
263.522	14.30881
263.74	14.15278
263.959	24.04387
264.178	12.81138
264.396	10.03103
264.615	7.81755
264.833	17.68588
265.051	15.60674
265.27	17.01079
265.488	17.06023
265.707	10.32027
265.925	16.18341
266.144	8.06431
266.362	9.1792
266.58	9.96962
266.799	7.89251
267.017	9.35462
267.235	8.43523
267.454	5.7897
267.672	2.82616
267.89	6.89328
268.109	7.73055
268.327	7.21665
268.545	1.74989
268.763	6.35284
268.982	2.84358
269.2	7.83556
269.418	4.78619
269.636	3.68529
269.854	7.0825
270.073	5.07047
270.291	3.20298
270.509	2.8694
270.727	6.68159
270.945	11.19691
271.163	11.12848
271.381	2.71048
271.599	4.83794
271.817	7.89622
272.036	2.84062
272.254	5.34854
272.472	3.71004
272.69	3.67531
272.908	4.08335
273.126	6.15696
273.344	8.06447
273.562	3.22202
273.779	4.39627
273.997	6.68576
274.215	6.61431
274.433	4.55103
274.651	7.13205
274.869	7.04838
275.087	4.39443
275.305	6.6923
275.523	4.1526
275.74	4.86395
275.958	8.85369
276.176	12.03209
276.394	3.90298
276.612	5.10708
276.829	5.28904
277.047	4.59356
277.265	4.9405
277.483	5.42791
277.7	6.12732
277.918	5.4712
278.136	9.61396
278.353	4.651
278.571	2.75399
278.789	7.59098
279.006	1.6994
279.224	4.47121
279.442	7.81632
279.659	5.58016
279.877	3.76157
280.094	8.15123
280.312	1.85481
280.529	5.57419
280.747	1.90499
280.964	4.62819
281.182	8.50479
281.399	4.48278
281.617	5.64665
281.834	3.99041
282.052	3.13983
282.269	5.00253
282.487	3.99864
282.704	3.79088
282.921	3.34205
283.139	5.16268
283.356	6.6535
283.574	6.10247
283.791	2.95677
284.008	8.09337
284.226	4.88158
284.443	5.21287
284.66	6.21332
284.877	5.42027
285.095	3.48304
285.312	2.56004
285.529	1.59206
285.746	1.40522
285.964	3.04193
286.181	2.23583
286.398	3.12432
286.615	4.29115
286.832	4.16093
287.05	1.1489
287.267	3.00026
287.484	3.09712
287.701	4.21292
287.918	3.92013
288.135	4.27138
288.352	1.80162
288.569	2.42715
288.786	3.8768
289.003	2.99166
289.22	4.70304
289.437	2.59291
289.654	4.29674
289.871	4.40358
290.088	4.43563
290.305	3.49943
290.522	3.0775
290.739	3.05436
290.956	4.63246
291.173	5.43112
291.39	5.21293
291.607	3.49317
291.824	3.00641
292.04	2.18567
292.257	4.65705
292.474	5.0138
292.691	3.28609
292.908	1.70013
293.125	2.77053
293.341	1.87052
293.558	7.46777
293.775	3.28024
293.992	3.24774
294.208	1.30779
294.425	2.20633
294.642	2.90271
294.858	4.373
295.075	1.06566
295.292	3.12286
295.508	3.6405
295.725	5.14016
295.942	2.5664
296.158	1.97862
296.375	3.05618
296.591	2.3964
296.808	2.42071
297.024	2.91533
297.241	3.19714
297.458	3.47063
297.674	0.52124
297.891	2.76308
298.107	2.17019
298.323	1.68833
298.54	3.9914
298.756	2.08913
298.973	0.85977
299.189	4.37088
299.406	1.93884
299.622	4.29734
299.838	4.37577
300.055	3.94189
300.271	0.99991
300.487	1.54104
300.704	1.91401
300.92	1.0749
301.136	5.6448
301.353	4.38574
301.569	3.20156
301.785	3.23903
302.001	3.65251
302.218	3.52635
302.434	3.56423
302.65	1.18795
302.866	2.27777
303.083	5.85754
303.299	5.52738
303.515	3.01588
303.731	3.14299
303.947	1.18968
304.163	2.0563
304.379	3.03602
304.595	3.49302
304.812	2.1995
305.028	1.81202
305.244	2.44777
305.46	4.05361
305.676	3.98838
305.892	4.60771
306.108	3.47487
306.324	2.57324
306.54	5.31168
306.756	3.82502
306.972	3.61265
307.187	2.62507
307.403	5.15986
307.619	2.20461
307.835	4.45235
308.051	4.63453
308.267	1.54499
308.483	4.07383
308.699	3.49109
308.914	2.7269
309.13	2.99618
309.346	0.80334
309.562	1.53858
309.778	0.82556
309.993	3.70184
310.209	2.78943
310.425	1.25708
310.641	2.42429
310.856	1.49316
311.072	1.45962
311.288	2.54842
311.503	2.76633
311.719	0.62387
311.935	0.43561
312.15	3.06453
312.366	2.78985
312.581	3.33843
312.797	2.49143
313.013	3.69841
313.228	2.09022
313.444	2.9468
313.659	1.5518
313.875	3.19935
314.09	2.71769
314.306	4.47157
314.521	3.94704
314.737	3.66289
314.952	3.02477
315.168	2.87487
315.383	3.317
315.599	2.55121
315.814	2.68562
316.029	4.07025
316.245	1.34514
316.46	0.88237
316.675	4.538
316.891	5.39328
317.106	6.58086
317.321	3.70133
317.537	3.3157
317.752	3.74049
317.967	4.02406
318.183	2.0736
318.398	2.44671
318.613	4.29409
318.828	4.66308
319.043	4.0637
319.259	2.51231
319.474	3.17363
319.689	4.51046
319.904	0.68665
320.119	3.93548
320.334	3.37691
320.549	2.56344
320.765	4.39221
320.98	3.36247
321.195	4.09233
321.41	2.73664
321.625	4.00926
321.84	5.37302
322.055	5.3009
322.27	2.2782
322.485	1.66687
322.7	3.30307
322.915	4.3533
323.13	1.78575
323.345	4.82622
323.56	3.49325
323.775	3.93548
323.989	3.66172
324.204	3.07657
324.419	3.96771
324.634	1.29756
324.849	2.80572
325.064	5.39952
325.279	4.23308
325.493	3.63377
325.708	4.31416
325.923	1.98176
326.138	2.10557
326.352	4.78106
326.567	4.07713
326.782	2.53029
326.997	2.02591
327.211	3.60234
327.426	3.55984
327.641	2.49299
327.855	0.91504
328.07	3.62277
328.285	5.16392
328.499	2.627
328.714	3.42561
328.928	3.95489
329.143	3.01585
329.358	4.43038
329.572	4.23459
329.787	4.6124
330.001	6.37021
330.216	1.2791
330.43	5.10235
330.645	5.13235
330.859	4.08798
331.074	2.11926
331.288	3.1394
331.503	4.79899
331.717	1.70363
331.931	3.06408
332.146	3.15132
332.36	5.59277
332.575	3.61011
332.789	3.29758
333.003	2.8018
333.218	3.59884
333.432	2.07249
333.646	3.9955
333.86	4.89933
334.075	5.23094
334.289	2.30447
334.503	1.73632
334.717	3.63588
334.932	3.71804
335.146	4.40434
335.36	2.52687
335.574	3.91364
335.788	3.61808
336.003	4.45807
336.217	4.23458
336.431	3.74657
336.645	2.42265
336.859	1.79896
337.073	2.87613
337.287	3.00948
337.501	1.77389
337.715	3.25378
337.929	3.56715
338.143	1.5526
338.357	2.83344
338.571	1.8811
338.785	3.48477
338.999	2.38907
339.213	2.37127
339.427	1.33235
339.641	4.47975
339.855	2.55917
340.069	2.21012
340.283	4.28442
340.497	4.89323
340.711	3.36143
340.924	2.54662
341.138	1.70557
341.352	1.36101
341.566	2.96584
341.78	0.78067
341.993	2.12857
342.207	1.64515
342.421	3.09118
342.635	2.83449
342.848	2.0767
343.062	0.22822
343.276	2.08328
343.49	5.35429
343.703	2.09007
343.917	3.95678
344.131	3.75861
344.344	2.01854
344.558	2.25225
344.771	1.75838
344.985	4.16692
345.199	4.68713
345.412	3.15457
345.626	3.02019
345.839	0.79261
346.053	1.55642
346.266	1.59161
346.48	3.45314
346.693	3.07421
346.907	3.20102
347.12	1.77607
347.334	3.03539
347.547	3.1313
347.76	2.25724
347.974	4.06044
348.187	3.15775
348.401	2.51561
348.614	2.08706
348.827	2.38822
349.041	3.298
349.254	0.86349
349.467	2.4653
349.681	1.32739
349.894	2.10984
350.107	4.02459
350.32	4.74604
350.534	1.10519
350.747	2.35394
350.96	1.60749
351.173	1.72624
351.386	2.21474
351.6	2.10014
351.813	1.86485
352.026	2.64067
352.239	1.19206
352.452	2.36952
352.665	3.67344
352.878	2.33248
353.092	5.07145
353.305	3.28444
353.518	2.80132
353.731	1.66878
353.944	3.77775
354.157	1.92995
354.37	1.56087
354.583	1.5288
354.796	0.7045
355.009	3.78514
355.222	2.69997
355.435	2.62667
355.647	3.64613
355.86	1.45884
356.073	2.31117
356.286	1.90213
356.499	3.22198
356.712	2.93191
356.925	2.76683
357.138	3.55369
357.35	1.39802
357.563	1.97112
357.776	2.46615
357.989	2.02958
358.201	2.91006
358.414	2.52542
358.627	3.44041
358.84	2.06496
359.052	1.17895
359.265	1.2129
359.478	3.33368
359.69	-0.39006
359.903	3.05329
360.116	3.02826
360.328	0.64128
360.541	3.01097
360.753	1.24854
360.966	1.67405
361.179	1.65356
361.391	1.60255
361.604	1.07183
361.816	1.58758
362.029	1.40758
362.241	1.18569
362.454	1.56367
362.666	1.27778
362.879	2.1034
363.091	1.67543
363.304	1.23325
363.516	1.99795
363.728	0.94685
363.941	2.7426
364.153	1.48841
364.366	-0.0215
364.578	1.03266
364.79	2.50811
365.003	2.01049
365.215	1.74479
365.427	2.5371
365.639	3.35596
365.852	2.3029
366.064	3.99892
366.276	1.61842
366.488	2.55907
366.701	1.61712
366.913	1.87323
367.125	1.94319
367.337	1.33173
367.549	1.58351
367.762	2.14998
367.974	2.14345
368.186	1.33989
368.398	3.06216
368.61	2.71309
368.822	2.83132
369.034	2.11153
369.246	2.61595
369.458	4.40612
369.67	1.15291
369.882	3.95829
370.094	0.23591
370.306	3.66547
370.518	1.78269
370.73	1.43017
370.942	1.21364
371.154	1.83409
371.366	1.46109
371.578	2.22286
371.79	1.25874
372.002	3.22383
372.214	3.77575
372.425	2.20488
372.637	3.26375
372.849	2.35631
373.061	-0.06228
373.273	2.53338
373.484	2.57208
373.696	2.83381
373.908	-0.13903
374.12	3.12843
374.331	2.33716
374.543	1.31763
374.755	1.01637
374.967	2.25638
375.178	2.72581
375.39	1.84255
375.602	2.05676
375.813	0.75976
376.025	0.71535
376.236	1.96203
376.448	2.06957
376.66	1.43786
376.871	1.33295
377.083	2.88897
377.294	2.84396
377.506	1.41919
377.717	3.24088
377.929	1.96416
378.14	1.08336
378.352	2.4345
378.563	2.30792
378.775	3.09739
378.986	1.2814
379.197	2.10941
379.409	1.46025
379.62	2.71789
379.832	2.06889
380.043	1.7691
380.254	2.12997
380.466	0.74464
380.677	4.53798
380.888	4.03968
381.1	4.46401
381.311	3.80666
381.522	1.71661
381.733	4.73351
381.945	1.63711
382.156	2.18
382.367	1.5008
382.578	4.56519
382.789	4.3609
383.001	1.46546
383.212	3.14514
383.423	3.27368
383.634	3.03484
383.845	2.28853
384.056	1.32753
384.267	1.8122
384.478	1.75003
384.69	0.81866
384.901	2.41018
385.112	2.10759
385.323	3.34444
385.534	2.32293
385.745	2.1498
385.956	2.39316
386.167	0.92388
386.378	2.43605
386.588	0.71942
386.799	1.26872
387.01	0.31809
387.221	2.71461
387.432	1.65406
387.643	3.64384
387.854	1.59625
388.065	1.53339
388.275	1.71578
388.486	1.55051
388.697	1.80463
388.908	1.64622
389.119	2.95124
389.329	3.49464
389.54	1.98071
389.751	2.13205
389.962	2.95225
390.172	2.20845
390.383	1.29685
390.594	1.26763
390.804	1.2635
391.015	1.33593
391.226	1.83981
391.436	2.29905
391.647	2.08625
391.858	2.48908
392.068	0.3964
392.279	0.7397
392.489	1.82782
392.7	2.85199
392.91	0.75856
393.121	1.1672
393.331	2.23043
393.542	2.87689
393.752	2.31618
393.963	1.97303
394.173	1.73057
394.384	2.44297
394.594	1.84286
394.804	0.8122
395.015	1.93234
395.225	2.39924
395.436	0.82533
395.646	2.35619
395.856	1.17289
396.067	0.83125
396.277	2.83514
396.487	2.39168
396.697	1.94528
396.908	2.53332
397.118	2.61801
397.328	2.12314
397.538	2.876
397.749	1.32489
397.959	2.76132
398.169	2.58876
398.379	0.88977
398.589	2.6736
398.8	2.00738
399.01	1.90422
399.22	1.7569
399.43	4.156
399.64	1.64787
399.85	2.50573
400.06	1.86184
400.27	1.5215
400.48	2.08659
400.69	3.37439
400.9	1.63238
401.11	1.48387
401.32	2.85987
401.53	1.7625
401.74	3.62299
401.95	2.73365
402.16	1.21645
402.37	2.64988
402.58	1.563
402.79	2.70997
403	2.89372
403.209	1.56882
403.419	2.77213
403.629	1.73125
403.839	2.7965
404.049	2.90304
404.258	1.49123
404.468	1.18875
404.678	2.75633
404.888	2.69605
405.097	1.23651
405.307	2.06509
405.517	2.5162
405.727	2.36637
405.936	1.85192
406.146	2.45251
406.356	3.33781
406.565	2.23226
406.775	1.85962
406.984	1.8786
407.194	3.82265
407.404	2.38249
407.613	2.65096
407.823	3.01594
408.032	3.49499
408.242	3.38737
408.451	1.97365
408.661	2.34548
408.87	4.04743
409.08	1.97287
409.289	2.80629
409.499	2.55348
409.708	2.55618
409.918	0.72609
410.127	2.48457
410.336	3.95991
410.546	3.04162
410.755	2.25348
410.964	2.17146
411.174	1.84991
411.383	2.99891
411.592	3.05048
411.802	1.72961
412.011	3.62422
412.22	2.66117
412.429	4.07658
412.639	3.86637
412.848	3.97998
413.057	4.08236
413.266	3.79079
413.475	2.75149
413.685	3.53897
413.894	3.60851
414.103	3.83069
414.312	3.36252
414.521	2.77241
414.73	2.89067
414.939	4.45888
415.148	3.33908
415.357	3.03345
415.566	2.57673
415.776	2.4504
415.985	2.30578
416.194	3.51585
416.403	4.14041
416.611	1.79369
416.82	2.31761
417.029	2.78999
417.238	2.18977
417.447	2.06241
417.656	2.30493
417.865	2.15626
418.074	2.34651
418.283	2.57101
418.492	3.26147
418.7	3.11963
418.909	3.70689
419.118	2.70746
419.327	2.9362
419.536	2.7783
419.744	2.26667
419.953	3.33948
420.162	3.30377
420.371	2.33645
420.579	2.29751
420.788	3.2934
420.997	3.28802
421.205	3.42417
421.414	2.98913
421.623	3.03341
421.831	2.69236
422.04	3.44421
422.249	2.61749
422.457	3.2363
422.666	2.54142
422.874	3.58644
423.083	3.60666
423.291	3.5399
423.5	3.23527
423.708	3.37827
423.917	3.81895
424.125	3.22683
424.334	3.02418
424.542	4.81916
424.751	4.04069
424.959	3.89227
425.167	4.17448
425.376	3.99428
425.584	3.22085
425.793	3.62785
426.001	2.82823
426.209	3.82659
426.418	2.84672
426.626	3.07311
426.834	2.86294
427.042	3.43609
427.251	2.89529
427.459	4.05427
427.667	3.70473
427.875	2.63492
428.084	3.10975
428.292	4.37604
428.5	3.79184
428.708	2.79223
428.916	2.73028
429.124	3.57988
429.333	3.20734
429.541	3.32856
429.749	3.47398
429.957	3.41088
430.165	5.09118
430.373	2.57444
430.581	3.60728
430.789	4.49609
430.997	3.03739
431.205	3.09035
431.413	3.53042
431.621	3.18287
431.829	3.9083
432.037	3.23601
432.245	3.80321
432.453	3.63501
432.661	3.22995
432.869	4.82764
433.076	2.70842
433.284	3.35009
433.492	3.80182
433.7	4.33304
433.908	3.07876
434.116	3.52147
434.323	3.54963
434.531	3.56227
434.739	3.82896
434.947	4.19605
435.154	4.07547
435.362	3.72651
435.57	3.4285
435.778	3.26377
435.985	3.85423
436.193	3.3728
436.401	4.41065
436.608	3.62446
436.816	3.25876
437.023	4.78428
437.231	4.86252
437.439	3.73283
437.646	4.04843
437.854	3.91141
438.061	4.03396
438.269	3.39692
438.476	4.02321
438.684	3.66219
438.891	3.37714
439.099	3.16234
439.306	2.54064
439.514	2.89992
439.721	3.74584
439.929	3.02725
440.136	3.75787
440.343	3.66391
440.551	3.18532
440.758	4.74268
440.965	3.94633
441.173	3.67492
441.38	3.12873
441.587	3.85798
441.795	3.31215
442.002	3.9207
442.209	3.90768
442.416	4.19309
442.624	4.03554
442.831	4.09739
443.038	3.42926
443.245	3.01758
443.452	3.4207
443.66	4.26369
443.867	3.09797
444.074	3.27127
444.281	3.07758
444.488	3.44026
444.695	3.46906
444.902	3.2295
445.109	3.85231
445.316	3.28667
445.523	3.21499
445.73	2.95518
445.937	3.63911
446.144	4.05012
446.351	4.03141
446.558	3.17813
446.765	4.39709
446.972	4.39466
447.179	3.66017
447.386	4.62567
447.593	3.33405
447.8	4.4436
448.007	3.38917
448.214	3.70731
448.42	3.26134
448.627	4.49692
448.834	3.61459
449.041	3.50871
449.248	3.54269
449.454	4.39421
449.661	5.11488
449.868	3.63193
450.075	3.33534
450.281	2.35758
450.488	2.98136
450.695	3.20751
450.901	3.12909
451.108	3.53213
451.315	4.37642
451.521	3.63199
451.728	4.34284
451.935	3.17607
452.141	3.57383
452.348	3.62039
452.554	3.61074
452.761	3.39144
452.967	4.82503
453.174	3.74613
453.38	3.91593
453.587	2.89901
453.793	3.85188
454	4.36808
454.206	5.20714
454.413	4.70886
454.619	4.11069
454.825	3.31906
455.032	4.10824
455.238	4.56436
455.445	2.88594
455.651	3.84532
455.857	2.54111
456.064	3.56324
456.27	3.65473
456.476	3.62192
456.682	2.68236
456.889	4.09285
457.095	4.11372
457.301	5.39551
457.507	3.72919
457.714	3.68357
457.92	3.62869
458.126	3.10879
458.332	3.36401
458.538	3.05213
458.744	3.13659
458.951	3.13172
459.157	4.29949
459.363	3.4627
459.569	3.316
459.775	4.01506
459.981	3.10546
460.187	3.5899
460.393	4.03316
460.599	4.40319
460.805	3.66734
461.011	3.74531
461.217	4.45103
461.423	4.62172
461.629	3.61462
461.835	4.3638
462.041	3.61809
462.247	5.07945
462.453	3.72759
462.658	3.86684
462.864	4.38829
463.07	4.02539
463.276	4.09434
463.482	4.07552
463.688	4.72156
463.893	3.51891
464.099	3.55557
464.305	5.01954
464.511	3.35957
464.716	3.80785
464.922	4.28934
465.128	3.28527
465.333	5.07844
465.539	4.21362
465.745	3.68499
465.95	4.09834
466.156	5.84686
466.362	4.71278
466.567	3.75821
466.773	3.46263
466.978	4.96833
467.184	3.12471
467.389	2.30866
467.595	4.3488
467.8	3.11369
468.006	4.83454
468.211	4.5946
468.417	3.09775
468.622	4.30481
468.828	4.40544
469.033	4.03046
469.239	6.02435
469.444	3.42483
469.649	4.55651
469.855	3.7874
470.06	3.9495
470.266	3.06584
470.471	4.30173
470.676	4.19847
470.881	2.71196
471.087	4.82259
471.292	5.11372
471.497	2.94816
471.703	3.63904
471.908	3.34769
472.113	4.02897
472.318	4.43714
472.523	3.10363
472.729	4.14785
472.934	4.21414
473.139	3.55065
473.344	4.35467
473.549	4.66467
473.754	3.34514
473.959	5.32835
474.164	3.34932
474.369	3.79967
474.575	4.6015
474.78	3.86461
474.985	3.62441
475.19	2.60244
475.395	3.24799
475.6	3.72264
475.804	4.73264
476.009	3.66013
476.214	3.68536
476.419	3.35866
476.624	2.52729
476.829	3.16673
477.034	4.04793
477.239	3.00213
477.444	3.69387
477.648	3.92481
477.853	4.05897
478.058	3.28669
478.263	3.16168
478.468	2.75855
478.672	2.94238
478.877	4.30405
479.082	4.88219
479.287	3.80763
479.491	3.55258
479.696	2.71639
479.901	4.19834
480.105	3.93527
480.31	3.06718
480.515	3.29751
480.719	4.98111
480.924	2.86753
481.128	2.50799
481.333	3.28979
481.538	3.39477
481.742	2.82941
481.947	3.22617
482.151	3.50319
482.356	3.4555
482.56	4.21801
482.765	4.36483
482.969	5.41554
483.174	6.06843
483.378	7.20558
483.582	6.96804
483.787	7.76412
483.991	7.685
484.196	7.86933
484.4	7.71936
484.604	8.02694
484.809	6.89954
485.013	6.75581
485.217	6.00465
485.422	5.37833
485.626	4.90141
485.83	4.50333
486.034	4.42256
486.239	4.52073
486.443	4.44844
486.647	4.28566
486.851	5.04777
487.055	5.54926
487.26	4.86169
487.464	5.42704
487.668	4.83784
487.872	4.85665
488.076	5.45329
488.28	5.0262
488.484	4.63837
488.688	4.5393
488.892	4.72174
489.096	4.4432
489.3	3.85322
489.504	3.72385
489.708	3.94319
489.912	3.87301
490.116	3.70149
490.32	3.00214
490.524	3.64133
490.728	3.75878
490.932	3.69528
491.136	3.67429
491.34	4.58277
491.544	4.75866
491.748	4.31715
491.951	4.32376
492.155	4.12594
492.359	4.28451
492.563	3.40018
492.767	3.29346
492.97	3.16319
493.174	2.74648
493.378	2.93254
493.582	2.52513
493.785	3.13089
493.989	3.27125
494.193	3.29028
494.396	2.85237
494.6	3.71465
494.804	3.14643
495.007	2.73247
495.211	2.6152
495.414	3.03135
495.618	3.08334
495.822	3.71441
496.025	2.88586
496.229	3.56641
496.432	2.31665
496.636	2.85169
496.839	2.71559
497.043	3.90331
497.246	2.97107
497.45	2.56848
497.653	2.69856
497.856	3.00415
498.06	2.09516
498.263	2.72239
498.467	2.41742
498.67	3.55576
498.873	3.22819
499.077	2.6681
499.28	2.69737
499.483	3.22328
499.686	3.42769
499.89	3.29758
500.093	3.49947
500.296	2.46348
500.499	3.98305
500.703	3.06265
500.906	3.00911
501.109	4.37966
501.312	3.06573
501.515	2.93411
501.719	3.33543
501.922	4.11953
502.125	3.3004
502.328	2.87255
502.531	2.14739
502.734	3.10501
502.937	1.61086
503.14	3.0464
503.343	2.10441
503.546	2.56434
503.749	2.37962
503.952	3.3196
504.155	2.18497
504.358	3.31949
504.561	2.83082
504.764	2.08101
504.967	2.7684
505.17	3.01494
505.373	4.05795
505.576	2.94788
505.778	3.27883
505.981	2.62054
506.184	3.70824
506.387	1.84576
506.59	4.13979
506.793	3.70449
506.995	3.21504
507.198	1.58325
507.401	2.77088
507.604	3.09371
507.806	2.01987
508.009	2.17708
508.212	2.97845
508.414	2.26609
508.617	2.17374
508.82	2.5414
509.022	3.25046
509.225	2.81637
509.427	1.44228
509.63	3.45363
509.833	2.60414
510.035	2.47002
510.238	1.5814
510.44	3.38066
510.643	1.17698
510.845	4.25484
511.048	2.83543
511.25	2.31221
511.453	2.48556
511.655	2.85975
511.858	2.26861
512.06	3.1113
512.262	2.52548
512.465	3.07396
512.667	1.99294
512.869	1.89015
513.072	2.84668
513.274	3.2821
513.476	2.97925
513.679	3.14972
513.881	1.88363
514.083	3.85465
514.286	2.09327
514.488	2.30764
514.69	2.0444
514.892	1.88847
515.094	2.97414
515.297	2.33726
515.499	2.80085
515.701	2.10859
515.903	3.70875
516.105	3.52013
516.307	3.12588
516.509	1.23505
516.711	1.57132
516.913	2.60062
517.116	2.27815
517.318	1.96157
517.52	3.02708
517.722	2.60089
517.924	1.26279
518.126	2.32468
518.328	1.54916
518.529	2.37967
518.731	3.06629
518.933	1.69503
519.135	2.04271
519.337	2.77448
519.539	2.37325
519.741	1.21235
519.943	2.14224
520.145	2.1698
520.346	2.59207
520.548	2.13819
520.75	2.66243
520.952	2.21842
521.153	2.4316
521.355	2.77318
521.557	1.66889
521.759	2.78441
521.96	2.57058
522.162	1.96392
522.364	3.22487
522.565	1.91802
522.767	2.9668
522.969	3.43557
523.17	2.76553
523.372	2.94881
523.573	1.70761
523.775	2.22068
523.977	1.70301
524.178	3.34264
524.38	1.76291
524.581	2.56293
524.783	1.80153
524.984	2.41635
525.186	1.91516
525.387	2.3948
525.589	1.90873
525.79	1.69292
525.991	1.35804
526.193	2.03923
526.394	0.96706
526.596	2.01769
526.797	1.82417
526.998	1.59845
527.2	0.98091
527.401	2.20503
527.602	1.91363
527.803	2.98347
528.005	2.36283
528.206	2.74376
528.407	2.85421
528.608	2.49251
528.81	2.55383
529.011	1.95733
529.212	2.98492
529.413	2.47237
529.614	2.33545
529.815	2.7151
530.017	2.46374
530.218	2.25123
530.419	1.75076
530.62	1.97179
530.821	1.99775
531.022	1.3033
531.223	2.26773
531.424	2.2831
531.625	2.0488
531.826	2.03709
532.027	1.89975
532.228	2.59608
532.429	1.91672
532.63	1.7768
532.831	1.97673
533.032	2.04669
533.233	2.37199
533.433	2.18684
533.634	2.41046
533.835	1.85009
534.036	1.6074
534.237	1.95781
534.438	1.67828
534.638	1.41622
534.839	1.5215
535.04	2.3117
535.241	1.72817
535.441	2.80851
535.642	2.11548
535.843	1.30343
536.043	1.2192
536.244	1.50574
536.445	1.43281
536.645	2.34362
536.846	1.78684
537.047	2.53912
537.247	1.43874
537.448	1.84941
537.648	1.94657
537.849	2.10592
538.049	2.05225
538.25	2.8144
538.451	2.48517
538.651	1.79157
538.851	2.59639
539.052	3.05562
539.252	2.67005
539.453	2.19078
539.653	2.03096
539.854	2.10396
540.054	1.71434
540.254	2.3395
540.455	2.27251
540.655	1.54096
540.855	2.04651
541.056	2.35773
541.256	1.81849
541.456	2.80796
541.657	1.83611
541.857	2.86571
542.057	1.41732
542.257	1.62285
542.458	2.34969
542.658	2.58003
542.858	1.33217
543.058	2.50775
543.258	2.22747
543.458	1.35807
543.659	1.14832
543.859	2.51308
544.059	2.34996
544.259	2.00707
544.459	2.62606
544.659	1.72205
544.859	2.56472
545.059	1.84097
545.259	2.51758
545.459	2.35033
545.659	2.68089
545.859	2.24743
546.059	2.30151
546.259	1.53652
546.459	1.02639
546.659	1.48721
546.859	2.47255
547.059	2.49197
547.258	2.60196
547.458	2.47603
547.658	1.44693
547.858	1.68808
548.058	2.64647
548.258	2.49795
548.457	1.81496
548.657	4.80186
548.857	2.48079
549.057	3.45023
549.256	3.20151
549.456	2.74781
549.656	1.3691
549.855	4.5399
550.055	2.86556
550.255	4.56697
550.454	3.33313
550.654	3.95827
550.853	4.24371
551.053	3.99065
551.253	3.39347
551.452	3.29574
551.652	2.11104
551.851	1.43346
552.051	2.57002
552.25	2.48324
552.45	2.26363
552.649	2.57306
552.849	2.03808
553.048	2.87975
553.248	3.26339
553.447	2.25582
553.646	3.72008
553.846	4.37561
554.045	3.95294
554.244	2.23313
554.444	4.69415
554.643	2.71289
554.842	4.529
555.042	5.25959
555.241	2.91021
555.44	2.54715
555.64	3.32421
555.839	4.82153
556.038	3.82525
556.237	3.00176
556.436	3.19806
556.636	3.82603
556.835	2.59848
557.034	4.88304
557.233	3.40465
557.432	2.50216
557.631	4.40836
557.83	3.16766
558.029	3.11161
558.228	3.20738
558.427	2.58628
558.626	3.97387
558.825	2.79069
559.024	3.67292
559.223	5.18621
559.422	3.53007
559.621	4.03965
559.82	1.4465
560.019	3.56939
560.218	3.12929
560.417	0.931
560.616	3.18399
560.815	6.48821
561.014	1.99831
561.212	4.32104
561.411	3.62776
561.61	2.00708
561.809	3.29074
562.008	5.03056
562.206	3.77789
562.405	4.08523
562.604	3.45501
562.803	3.5908
563.001	3.48091
563.2	2.2167
563.399	4.05684
563.597	2.5033
563.796	3.87937
563.995	2.31388
564.193	4.17726
564.392	3.04107
564.59	5.68822
564.789	1.72985
564.988	3.12995
565.186	3.49993
565.385	3.12531
565.583	2.78597
565.782	3.15313
565.98	2.82642
566.179	3.04112
566.377	1.99269
566.575	2.55852
566.774	4.1061
566.972	4.03642
567.171	5.25334
567.369	4.57779
567.567	3.3798
567.766	3.87337
567.964	1.67425
568.162	4.15726
568.361	4.53126
568.559	3.66
568.757	4.12817
568.956	3.81209
569.154	3.58775
569.352	4.60967
569.55	3.53091
569.748	3.62934
569.947	2.85478
570.145	2.89496
570.343	2.56295
570.541	4.76764
570.739	2.288
570.937	3.64197
571.135	3.76213
571.333	5.06721
571.532	4.90261
571.73	3.73114
571.928	4.41304
572.126	3.83234
572.324	3.08982
572.522	4.7032
572.72	5.99608
572.918	3.65304
573.116	3.94256
573.313	3.82974
573.511	3.52344
573.709	3.69893
573.907	4.15992
574.105	3.41991
574.303	2.24719
574.501	2.45473
574.699	3.85518
574.896	4.0318
575.094	4.38946
575.292	2.75627
575.49	4.6838
575.688	3.80957
575.885	5.42919
576.083	5.86059
576.281	4.41627
576.478	3.71081
576.676	4.71029
576.874	3.15755
577.071	4.03866
577.269	6.74742
577.467	4.09793
577.664	4.48653
577.862	5.21541
578.059	3.72216
578.257	5.40284
578.455	4.1622
578.652	4.64996
578.85	2.88578
579.047	4.72822
579.245	4.68946
579.442	4.79316
579.64	4.85543
579.837	2.84777
580.034	7.12521
580.232	4.5969
580.429	3.89136
580.627	5.67298
580.824	6.3404
581.021	5.66587
581.219	4.60405
581.416	4.02272
581.613	6.62329
581.811	6.52149
582.008	4.2265
582.205	6.03699
582.402	5.32224
582.6	7.46581
582.797	5.40727
582.994	5.8844
583.191	6.19457
583.388	5.30714
583.586	6.32006
583.783	6.69386
583.98	4.33168
584.177	5.70921
584.374	2.18571
584.571	5.24767
584.768	5.3599
584.965	5.09089
585.162	6.3505
585.359	7.47189
585.556	5.46076
585.753	5.94342
585.95	4.11957
586.147	4.75605
586.344	6.25987
586.541	5.38234
586.738	4.29949
586.935	5.53275
587.132	4.80652
587.329	7.12065
587.526	5.45114
587.722	11.28619
587.919	4.02418
588.116	6.16748
588.313	7.37115
588.51	8.38664
588.706	5.42204
588.903	6.33645
589.1	7.01944
589.297	9.05335
589.493	5.57421
589.69	6.5742
589.887	4.98609
590.083	4.35912
590.28	4.87831
590.477	7.07163
590.673	6.59675
590.87	7.5697
591.067	5.42138
591.263	6.7044
591.46	6.55533
591.656	6.00033
591.853	7.94626
592.049	4.92577
592.246	5.46246
592.442	7.68006
592.639	7.07064
592.835	4.61038
593.032	6.77312
593.228	4.53799
593.425	4.47864
593.621	4.31017
593.817	6.31639
594.014	5.17043
594.21	6.28707
594.406	7.20279
594.603	6.6097
594.799	5.53536
594.995	3.45242
595.192	7.42027
595.388	5.68976
595.584	5.52009
595.78	4.24601
595.977	8.28763
596.173	7.81128
596.369	5.60262
596.565	4.8516
596.761	4.19699
596.957	7.3821
597.154	4.95503
597.35	5.46951
597.546	5.01519
597.742	6.71642
597.938	6.38552
598.134	5.27727
598.33	6.55058
598.526	8.31209
598.722	7.35236
598.918	9.04944
599.114	7.69713
599.31	5.73333
599.506	6.92825
599.702	5.80185
599.898	7.26716
600.094	8.17077
600.29	7.95639
600.485	7.96963
600.681	6.24063
600.877	9.14552
601.073	7.11988
601.269	9.34085
601.465	8.86286
601.66	5.85951
601.856	4.83439
602.052	8.78334
602.248	6.05572
602.443	4.33121
602.639	5.06902
602.835	5.29995
603.03	5.467
603.226	7.60798
603.422	5.34134
603.617	6.01188
603.813	5.65835
604.009	5.81692
604.204	7.61131
604.4	4.50429
604.595	7.45654
604.791	5.29874
604.986	6.76033
605.182	5.60789
605.377	6.03152
605.573	6.03514
605.768	6.86011
605.964	7.52514
606.159	7.86682
606.355	8.79899
606.55	6.78279
606.746	8.39261
606.941	7.08127
607.136	10.05644
607.332	11.27682
607.527	5.521
607.722	7.69763
607.918	7.39203
608.113	5.96717
608.308	7.87813
608.503	7.59966
608.699	7.39969
608.894	7.59415
609.089	5.99943
609.284	7.20953
609.479	6.41185
609.675	7.73863
609.87	6.41628
610.065	7.97901
610.26	8.38578
610.455	8.36442
610.65	7.27394
610.845	7.81657
611.04	8.84308
611.235	7.45657
611.43	7.1892
611.625	5.99279
611.82	9.83047
612.015	6.74858
612.21	9.96572
612.405	5.76794
612.6	10.72685
612.795	9.6534
612.99	9.03527
613.185	6.53011
613.38	7.02376
613.575	8.32687
613.77	12.19828
613.965	5.8929
614.159	6.92325
614.354	10.11269
614.549	9.68657
614.744	9.12725
614.938	6.69822
615.133	6.0714
615.328	10.18533
615.523	10.09333
615.717	12.81649
615.912	7.4329
616.107	8.66887
616.301	7.83563
616.496	7.29818
616.691	11.29129
616.885	9.53439
617.08	12.48924
617.274	10.35048
617.469	12.12795
617.664	9.74332
617.858	7.55114
618.053	8.86054
618.247	8.2428
618.442	5.38472
618.636	10.94323
618.831	7.67988
619.025	7.79759
619.219	12.70276
619.414	3.52296
619.608	8.82321
619.803	7.80199
619.997	12.25974
620.191	10.89241
620.386	9.58941
620.58	8.94083
620.774	6.11703
620.969	6.39712
621.163	9.05876
621.357	6.94328
621.551	8.26917
621.746	9.10222
621.94	8.82755
622.134	14.73069
622.328	12.45567
622.522	6.53278
622.716	10.91744
622.911	10.73184
623.105	10.62898
623.299	9.81408
623.493	14.69904
623.687	7.73126
623.881	8.68357
624.075	10.08671
624.269	10.90136
624.463	6.33111
624.657	6.39719
624.851	9.79474
625.045	10.78781
625.239	10.71727
625.433	7.97489
625.627	11.35843
625.821	8.0045
626.015	7.63927
626.209	8.86403
626.403	6.87247
626.596	9.60432
626.79	9.99655
626.984	6.93157
627.178	9.53373
627.372	9.70573
627.565	10.31773
627.759	6.54002
627.953	7.14971
628.147	9.76271
628.34	10.25086
628.534	12.72339
628.728	8.96292
628.921	11.05991
629.115	10.53559
629.309	11.29119
629.502	10.87447
629.696	9.86945
629.89	9.17104
630.083	9.83373
630.277	10.33216
630.47	13.04762
630.664	9.09047
630.857	7.39398
631.051	11.03364
631.244	11.91868
631.438	11.47763
631.631	8.41907
631.825	12.37819
632.018	11.45985
632.212	13.34507
632.405	11.84243
632.598	8.33509
632.792	10.14805
632.985	5.70576
633.178	9.13576
633.372	9.62266
633.565	9.81209
633.758	12.2467
633.952	8.24204
634.145	8.19767
634.338	9.00662
634.531	8.88388
634.724	8.58834
634.918	10.28713
635.111	9.72993
635.304	9.1825
635.497	14.3471
635.69	10.89774
635.883	12.32746
636.077	8.03313
636.27	11.12996
636.463	10.48736
636.656	11.20724
636.849	9.71775
637.042	11.18827
637.235	13.39203
637.428	11.83337
637.621	11.54038
637.814	13.24008
638.007	13.30475
638.2	13.96034
638.393	15.02725
638.586	8.17765
638.778	9.63153
638.971	11.1607
639.164	14.05808
639.357	11.6007
639.55	13.59268
639.743	12.92966
639.935	12.38261
640.128	15.14374
640.321	12.23921
640.514	11.46518
640.707	16.54893
640.899	12.61183
641.092	7.9026
641.285	26.95508
641.477	6.60086
641.67	15.74141
641.863	14.27104
642.055	11.93409
642.248	11.3192
642.441	10.76628
642.633	12.26477
642.826	13.50889
643.018	14.84385
643.211	15.89892
643.403	15.21147
643.596	16.7615
643.788	16.14147
643.981	11.13651
644.173	13.58339
644.366	11.34809
644.558	8.16658
644.751	13.83944
644.943	8.62476
645.135	16.05942
645.328	16.11212
645.52	13.77106
645.712	14.26888
645.905	19.80625
646.097	9.60782
646.289	12.5567
646.482	16.55103
646.674	10.89956
646.866	14.71344
647.058	13.32162
647.251	9.90753
647.443	11.26012
647.635	11.88253
647.827	9.68396
648.019	9.91044
648.211	12.47192
648.404	12.42701
648.596	15.93713
648.788	12.92262
648.98	13.10879
649.172	13.07754
649.364	13.08203
649.556	8.05115
649.748	18.86537
649.94	9.92586
650.132	13.67405
650.324	10.08893
650.516	11.05219
650.708	15.48833
650.9	9.01444
651.092	8.58617
651.284	8.57507
651.476	9.55713
651.667	13.82576
651.859	15.56257
652.051	12.3411
652.243	12.76159
652.435	11.0293
652.627	13.58194
652.818	13.77856
653.01	8.74956
653.202	10.26983
653.394	11.6975
653.585	14.45824
653.777	24.19263
653.969	16.19322
654.16	15.81627
654.352	10.49231
654.544	12.57948
654.735	15.50521
654.927	13.28969
655.118	17.13619
655.31	14.84878
655.502	15.5831
655.693	11.39668
655.885	14.74077
656.076	16.76256
656.268	13.60774
656.459	16.15004
656.651	16.54956
656.842	11.75764
657.034	11.1652
657.225	14.91476
657.416	16.66095
657.608	16.3457
657.799	12.17526
657.99	15.27775
658.182	10.60638
658.373	10.59044
658.564	14.07755
658.756	12.44001
658.947	11.82146
659.138	9.78019
659.33	11.15211
659.521	10.43705
659.712	11.8074
659.903	11.85761
660.094	10.97302
660.286	8.79102
660.477	17.75786
660.668	14.32716
660.859	12.94134
661.05	9.51921
661.241	14.94746
661.432	14.62798
661.623	12.43315
661.814	12.57921
662.006	9.02452
662.197	14.70383
662.388	16.45349
662.579	14.4344
662.77	17.63335
662.96	21.50574
663.151	16.5912
663.342	9.4071
663.533	15.16996
663.724	13.72107
663.915	18.76511
664.106	14.11958
664.297	20.08738
664.488	16.06469
664.678	12.64157
664.869	16.25298
665.06	16.87258
665.251	15.04827
665.442	15.84407
665.632	11.52836
665.823	20.1707
666.014	5.82994
666.204	16.33144
666.395	18.60835
666.586	22.53235
666.776	16.99841
666.967	19.72438
667.158	14.71719
667.348	18.98738
667.539	11.40849
667.729	17.30412
667.92	12.41054
668.111	17.85182
668.301	16.33737
668.492	13.79002
668.682	14.44556
668.873	13.65277
669.063	10.90586
669.253	15.05348
669.444	17.22839
669.634	14.57479
669.825	20.60862
670.015	18.35452
670.206	12.57872
670.396	21.10139
670.586	14.37838
670.777	16.25623
670.967	8.67696
671.157	15.01251
671.347	13.6101
671.538	19.98504
671.728	16.86681
671.918	21.17947
672.108	18.906
672.299	15.3288
672.489	16.40368
672.679	13.66926
672.869	16.94104
673.059	21.61206
673.249	16.88379
673.44	12.85711
673.63	15.14202
673.82	18.6928
674.01	13.25584
674.2	16.85049
674.39	25.62157
674.58	17.48848
674.77	15.79383
674.96	14.87023
675.15	29.38223
675.34	19.3011
675.53	15.86149
675.72	14.83159
675.91	11.85978
676.099	22.14666
676.289	23.19663
676.479	19.52933
676.669	14.86126
676.859	17.96793
677.049	12.65691
677.238	16.45412
677.428	22.26463
677.618	17.03152
677.808	19.2269
677.997	18.02271
678.187	12.08362
678.377	15.74388
678.567	14.50579
678.756	13.96162
678.946	14.49063
679.136	10.94588
679.325	12.50518
679.515	12.23299
679.704	10.76259
679.894	16.70721
680.084	15.74292
680.273	18.84298
680.463	12.07108
680.652	12.85969
680.842	14.92866
681.031	18.1884
681.221	12.61758
681.41	17.7231
681.6	14.74968
681.789	18.09919
681.978	20.66886
682.168	16.8164
682.357	16.85102
682.547	18.7439
682.736	17.17699
682.925	20.91384
683.115	20.67251
683.304	19.96426
683.493	17.9415
683.682	19.188
683.872	18.01831
684.061	22.34913
684.25	19.5389
684.439	23.8385
684.629	19.77697
684.818	30.00508
685.007	17.07783
685.196	16.14181
685.385	23.2929
685.574	19.37807
685.763	19.32817
685.952	18.41863
686.142	13.97434
686.331	23.11365
686.52	12.03354
686.709	23.44689
686.898	23.25159
687.087	20.4781
687.276	24.90976
687.465	21.41871
687.654	17.00013
687.842	24.23665
688.031	13.54024
688.22	22.9957
688.409	18.63588
688.598	19.24336
688.787	28.6462
688.976	18.94336
689.165	25.5726
689.353	17.14962
689.542	20.55327
689.731	20.88379
689.92	25.89542
690.108	22.94469
690.297	17.26204
690.486	19.59059
690.675	22.38789
690.863	26.46414
691.052	25.99604
691.241	21.22668
691.429	20.64982
691.618	25.73645
691.806	14.70036
691.995	18.98905
692.184	19.74487
692.372	17.91654
692.561	19.73752
692.749	20.5303
692.938	29.89187
693.126	22.97881
693.315	18.22059
693.503	23.00678
693.692	22.40036
693.88	24.85322
694.068	29.79198
694.257	19.93387
694.445	22.3287
694.634	12.34959
694.822	25.48319
695.01	26.26905
695.199	25.93106
695.387	27.84245
695.575	26.39665
695.763	20.44387
695.952	19.32535
696.14	14.69181
696.328	18.43546
696.516	20.95455
696.705	21.58692
696.893	20.99911
697.081	12.82638
697.269	21.61001
697.457	14.85312
697.645	13.90984
697.833	21.88583
698.021	14.98768
698.21	15.85336
698.398	17.3334
698.586	13.74868
698.774	13.05757
698.962	16.57784
699.15	14.10865
699.338	12.44231
699.526	19.70593
699.714	16.26217
699.901	17.0687
700.089	23.1231
700.277	16.42831
700.465	19.0207
700.653	24.02656
700.841	22.79437
701.029	17.15568
701.217	25.26999
701.404	21.42236
701.592	28.27085
701.78	30.29031
701.968	19.66991
702.155	20.45386
702.343	15.55878
702.531	28.049
702.718	24.09912
702.906	20.70775
703.094	19.16144
703.281	27.93445
703.469	21.00904
703.657	27.61507
703.844	39.30931
704.032	30.11592
704.219	19.75463
704.407	24.12446
704.595	29.16076
704.782	23.25097
704.97	21.38634
705.157	21.36927
705.345	32.03671
705.532	36.90739
705.719	24.88724
705.907	31.29757
706.094	24.07947
706.282	32.46486
706.469	21.62711
706.656	24.08263
706.844	22.44226
707.031	28.37356
707.218	24.95356
707.406	33.14303
707.593	27.25064
707.78	27.19359
707.968	23.07424
708.155	19.73092
708.342	27.54315
708.529	26.452
708.716	24.70289
708.904	33.1972
709.091	27.49966
709.278	18.90954
709.465	34.00787
709.652	33.74412
709.839	31.17864
710.026	25.72531
710.213	16.25058
710.4	26.65193
710.587	29.25405
710.774	30.21049
710.961	30.14241
711.148	24.94451
711.335	30.38321
711.522	23.99537
711.709	25.6009
711.896	36.13613
712.083	30.2823
712.27	20.51681
712.457	26.49699
712.644	17.55224
712.831	36.46133
713.017	26.36494
713.204	29.57213
713.391	22.7413
713.578	32.783
713.765	32.57334
713.951	28.6613
714.138	43.61245
714.325	29.57278
714.512	26.47235
714.698	21.77269
714.885	35.38578
715.072	27.67393
715.258	27.60276
715.445	22.80352
715.631	33.80957
715.818	13.03525
716.005	23.12189
716.191	29.84474
716.378	25.40479
716.564	32.59194
716.751	22.58079
716.937	23.72649
717.124	34.3781
717.31	23.56104
717.497	36.67568
717.683	23.67795
717.869	43.09602
718.056	25.10712
718.242	31.03774
718.429	27.66059
718.615	21.88403
718.801	29.25825
718.988	35.16648
719.174	32.08485
719.36	28.1657
719.547	37.69019
719.733	30.66164
719.919	30.96181
720.105	34.41448
720.291	29.00691
720.478	31.35992
720.664	28.00803
720.85	27.39206
721.036	49.20324
721.222	39.27931
721.408	29.74344
721.595	43.87352
721.781	42.16235
721.967	36.86269
722.153	41.74936
722.339	34.94903
722.525	33.49189
722.711	24.7124
722.897	22.94548
723.083	28.36493
723.269	38.124
723.455	47.60486
723.641	51.58982
723.827	32.3988
724.012	34.98659
724.198	27.57614
724.384	40.30166
724.57	33.8795
724.756	21.16245
724.942	18.77147
725.127	37.27044
725.313	41.92578
725.499	41.5597
725.685	45.34704
725.87	34.66055
726.056	25.9996
726.242	41.71629
726.428	20.31545
726.613	38.45984
726.799	29.44917
726.985	24.58788
727.17	21.40952
727.356	42.75497
727.541	25.49442
727.727	30.24261
727.913	36.9318
728.098	28.33612
728.284	37.34216
728.469	22.5581
728.655	26.22504
728.84	37.20275
729.026	37.2299
729.211	38.41492
729.397	33.38233
729.582	35.81979
729.767	31.54588
729.953	34.61454
730.138	38.30288
730.323	16.4969
730.509	24.50735
730.694	42.76244
730.879	34.92703
731.065	32.70954
731.25	48.03817
731.435	37.13422
731.621	20.90449
731.806	26.81386
731.991	33.07403
732.176	22.23453
732.361	40.68442
732.547	32.43758
732.732	20.694
732.917	48.86878
733.102	23.53409
733.287	26.76879
733.472	32.52653
733.657	33.53843
733.842	22.91516
734.027	30.65431
734.212	32.16378
734.397	27.42899
734.582	33.45482
734.767	40.22617
734.952	44.7519
735.137	15.82241
735.322	45.06478
735.507	37.13011
735.692	36.73279
735.877	51.77633
736.062	48.58908
736.247	37.25066
736.431	34.0913
736.616	44.96244
736.801	36.19215
736.986	34.83786
737.171	28.43842
737.355	25.45623
737.54	43.76904
737.725	33.94453
737.909	58.20155
738.094	29.50193
738.279	41.28714
738.463	32.60936
738.648	40.58295
738.833	36.68414
739.017	49.40995
739.202	31.90604
739.386	34.40411
739.571	27.00064
739.756	40.27083
739.94	35.52624
740.125	42.97362
740.309	28.68925
740.494	42.07112
740.678	35.61369
740.863	39.7904
741.047	37.73803
741.231	46.08646
741.416	28.67604
741.6	50.33369
741.785	29.52481
741.969	43.80839
742.153	46.08552
742.338	20.65044
742.522	36.49409
742.706	43.90565
742.89	26.11033
743.075	38.52112
743.259	50.07673
743.443	42.84531
743.627	47.70673
743.812	58.08022
743.996	22.93651
744.18	35.08498
744.364	31.98871
744.548	62.2616
744.732	37.99483
744.916	44.66921
745.1	42.2171
745.285	34.07921
745.469	43.88577
745.653	53.75595
745.837	25.54267
746.021	61.91862
746.205	49.83201
746.389	38.845
746.573	34.09242
746.757	52.70474
746.94	33.52793
747.124	50.48502
747.308	26.85765
747.492	49.24936
747.676	31.95946
747.86	61.38994
748.044	34.70612
748.227	20.96365
748.411	75.15701
748.595	39.97046
748.779	29.41187
748.963	41.59688
749.146	39.04685
749.33	31.34446
749.514	27.69147
749.697	49.47492
749.881	32.61238
750.065	29.76818
750.248	38.22988
750.432	62.57711
750.616	37.90179
750.799	25.82139
750.983	58.74397
751.166	67.44663
751.35	25.76072
751.533	44.60679
751.717	50.16918
751.9	54.4515
752.084	35.5993
752.267	30.34545
752.451	32.09925
752.634	40.68551
752.818	45.98053
753.001	49.51164
753.184	49.56271
753.368	42.85989
753.551	11.07187
753.734	31.53598
753.918	59.1903
754.101	33.0477
754.284	46.96099
754.467	35.60377
754.651	31.78409
754.834	31.84119
755.017	51.65891
755.2	49.22946
755.384	27.98086
755.567	48.37117
755.75	50.97125
755.933	36.97548
756.116	42.47461
756.299	36.79597
756.482	30.46046
756.665	45.22906
756.848	38.14473
757.032	43.83644
757.215	26.90891
757.398	33.48967
757.581	32.48637
757.764	68.34376
757.947	37.91119
758.129	51.41876
758.312	13.80624
758.495	38.81226
758.678	38.46537
758.861	36.53238
759.044	59.04673
759.227	33.63311
759.41	31.10554
759.592	45.30947
759.775	37.80672
759.958	49.25432
760.141	27.32422
760.324	64.69538
760.506	53.4858
760.689	48.39193
760.872	67.05343
761.054	45.68111
761.237	36.77097
761.42	44.29695
761.602	48.56573
761.785	43.53507
761.968	50.57872
762.15	58.80307
762.333	37.17422
762.515	43.01413
762.698	32.74573
762.88	44.56791
763.063	39.61815
763.245	43.88777
763.428	27.30335
763.61	29.8128
763.793	24.4953
763.975	37.30965
764.158	31.16051
764.34	30.17622
764.522	26.59754
764.705	32.96691
764.887	47.85927
765.069	24.54731
765.252	45.73917
765.434	44.5884
765.616	38.00828
765.799	33.64097
765.981	47.85521
766.163	31.43258
766.345	50.42408
766.528	33.77536
766.71	17.59205
766.892	41.63258
767.074	53.72136
767.256	37.51433
767.438	62.16532
767.62	43.00102
767.802	67.70595
767.985	50.02616
768.167	65.99365
768.349	35.69298
768.531	49.23517
768.713	48.328
768.895	55.3243
769.077	49.01926
769.259	76.3378
769.441	110.79405
769.623	54.91918
769.804	63.30081
769.986	64.74736
770.168	77.02939
770.35	92.2512
770.532	64.80693
770.714	73.53236
770.896	77.19232
771.077	33.92632
771.259	77.34192
771.441	63.50843
771.623	80.72709
771.804	104.09369
771.986	30.80427
772.168	49.15131
772.35	79.45671
772.531	108.59994
772.713	62.54508
772.894	86.74226
773.076	63.68577
773.258	54.51831
773.439	82.49656
773.621	94.60204
773.802	46.33908
773.984	51.6987
774.166	69.18868
774.347	90.7726
774.529	82.30909
774.71	31.26857
774.891	62.32927
775.073	55.47982
775.254	94.88326
775.436	52.017
775.617	100.18015
775.799	52.87427
775.98	91.20022
776.161	97.7425
776.343	98.84683
776.524	62.39232
776.705	57.2112
776.886	31.14141
777.068	66.28948
777.249	121.50079
777.43	109.03645
777.611	41.12848
777.793	56.32236
777.974	95.56129
778.155	52.1557
778.336	48.75886
778.517	109.39586
778.698	50.53692
778.879	30.64688
779.061	18.79584
779.242	72.2533
779.423	74.86581
779.604	55.64455
779.785	62.12572
779.966	66.74333
780.147	83.50818
780.328	88.33192
780.509	123.44815
780.69	76.23897
780.871	50.80798
781.051	37.78184
781.232	68.94983
781.413	66.80683
781.594	61.57825
781.775	54.75449
781.956	51.12779
782.137	28.70866
782.317	53.69008
782.498	71.33355
782.679	63.61975
782.86	65.89264
783.04	54.45843
783.221	70.4007
783.402	107.30874
783.583	65.14643
783.763	77.99457
783.944	56.6258
784.124	39.86974
784.305	97.13923
784.486	76.1119
784.666	60.74923
784.847	33.30129
785.027	120.4291
785.208	49.06419
785.388	50.36634
785.569	51.83595
785.749	58.30077
785.93	54.36601
786.11	37.95439
786.291	74.05602
786.471	69.84151
786.652	82.5645
786.832	63.31192
787.012	69.77734
787.193	41.34536
787.373	65.68591
787.553	58.82107
787.734	67.29612
787.914	53.7678
788.094	73.82903
788.275	70.18424
788.455	56.31227
788.635	39.00193
788.815	66.37394
788.995	43.09493
789.176	33.6635
789.356	48.74656
789.536	58.92931
789.716	74.34242
789.896	48.85411
790.076	53.57881
790.256	67.41597
790.436	23.55113
790.616	48.59097
790.796	67.12631
790.976	56.58231
791.156	48.78561
791.336	79.08595
791.516	73.53069
791.696	57.25348
791.876	38.72253
792.056	64.0329
792.236	80.732
792.416	78.50021
792.596	73.67284
792.776	71.13355
792.956	76.40259
793.135	98.35139
793.315	43.84049
793.495	87.94599
793.675	79.41456
793.854	80.10222
794.034	82.76348
794.214	45.2106
794.394	80.6587
794.573	86.95652
794.753	65.98227
794.933	45.51758
795.112	69.37549
795.292	82.59084
795.472	104.21177
795.651	38.67903
795.831	61.45994
796.01	56.64336
796.19	57.58558
796.369	61.87595
796.549	72.55468
796.728	58.62333
796.908	40.44165
797.087	43.60988
797.267	53.81362
797.446	41.92467
797.626	73.64458
797.805	74.04134
797.984	47.47181
798.164	77.65095
798.343	45.34462
798.522	67.77717
798.702	64.03065
798.881	39.69413
799.06	57.9787
799.239	27.8709
799.419	46.89693
799.598	96.28483
799.777	73.91397
799.956	87.33106
800.136	54.71922
800.315	54.62041
800.494	70.57569
800.673	86.58692
800.852	74.82304
801.031	84.75938
801.21	77.04475
801.389	54.3921
801.568	70.64245
801.747	104.79892
801.926	66.6924
802.105	99.56655
802.284	55.61256
802.463	99.11992
802.642	66.97402
802.821	69.5925
803	94.97644
803.179	82.02129
803.358	91.27162
803.537	53.91937
803.716	66.63575
803.895	50.18777
804.073	62.22352
804.252	51.81136
804.431	75.17885
804.61	60.72903
804.789	87.57145
804.967	55.57315
805.146	51.65911
805.325	108.74212
805.503	77.08416
805.682	35.08225
805.861	123.11794
806.039	90.22222
806.218	53.23292
806.397	71.33639
806.575	64.99129
806.754	70.29421
806.932	47.08304
807.111	98.63389
807.289	80.80117
807.468	69.12145
807.646	90.67683
807.825	77.40516
808.003	69.54087
808.182	87.12997
808.36	67.30159
808.539	49.05925
808.717	101.38346
808.895	50.43277
809.074	74.8011
809.252	66.41166
809.43	80.88738
809.609	94.78061
809.787	109.53889
809.965	64.58303
810.144	70.36771
810.322	63.37853
810.5	77.51043
810.678	63.38926
810.856	125.05305
811.035	94.45427
811.213	86.77254
811.391	96.66563
811.569	73.3888
811.747	143.01831
811.925	97.10135
812.103	51.72988
812.281	66.99742
812.459	112.42819
812.637	115.57646
812.816	93.0542
812.994	118.8907
813.171	98.12929
813.349	83.35406
813.527	100.99337
813.705	106.9487
813.883	128.59632
814.061	100.70903
814.239	125.51362
814.417	124.12695
814.595	76.52179
814.773	77.38602
814.95	77.82182
815.128	83.06312
815.306	74.25582
815.484	68.12555
815.662	53.23256
815.839	49.298
816.017	56.04334
816.195	104.25695
816.372	65.26065
816.55	87.12713
816.728	108.98933
816.905	68.90851
817.083	114.42492
817.261	69.76365
817.438	124.95995
817.616	118.82645
817.793	58.8941
817.971	96.85022
818.148	87.51829
818.326	103.51663
818.503	79.39764
818.681	106.12944
818.858	62.51367
819.036	66.82816
819.213	71.80875
819.391	54.2362
819.568	52.88989
819.745	49.86602
819.923	83.75922
820.1	55.77191
820.277	48.38186
820.455	57.83129
820.632	58.61029
820.809	58.7839
820.986	39.33347
821.164	30.94147
821.341	26.8227
821.518	35.80024
821.695	25.35047
821.872	24.51614
822.05	20.66174
822.227	15.81154
822.404	17.10274
822.581	20.57034
822.758	16.63304
822.935	16.92511
823.112	19.99766
823.289	15.88442
823.466	20.61347
823.643	19.21207
823.82	24.13283
823.997	22.38947
824.174	27.40324
824.351	36.02746
824.528	35.07854
824.705	32.54297
824.882	35.9199
825.059	46.57202
825.236	31.71566
825.412	32.73331
825.589	42.62527
825.766	57.34684
825.943	36.04758
826.12	43.68806
826.296	28.17984
826.473	35.41662
826.65	35.13597
826.827	44.1519
827.003	28.57516
827.18	31.28932
827.357	36.31475
827.533	32.35859
827.71	18.04013
827.887	29.16718
828.063	33.40379
828.24	29.16953
828.416	40.97135
828.593	33.05569
828.769	47.93037
828.946	55.61794
829.122	58.8859
829.299	54.51551
829.475	33.84029
829.652	56.54927
829.828	92.83306
830.005	59.87249
830.181	78.47036
830.357	54.50598
830.534	84.06398
830.71	62.95726
830.886	78.36774
831.063	77.80862
831.239	103.1526
831.415	43.65013
831.592	99.17176
831.768	63.33776
831.944	54.61238
832.12	95.22704
832.296	88.9931
832.473	80.48244
832.649	53.81796
832.825	72.45921
833.001	42.41428
833.177	65.11891
833.353	56.72501
833.529	31.62305
833.705	45.91948
833.881	34.2474
834.058	33.37131
834.234	36.66786
834.41	36.10949
834.586	29.13066
834.761	36.36241
834.937	40.55661
835.113	42.99195
835.289	38.9338
835.465	47.56806
835.641	42.26427
835.817	48.71774
835.993	88.00385
836.169	43.25013
836.344	65.27547
836.52	75.59253
836.696	70.23207
836.872	52.99958
837.048	145.80521
837.223	59.79163
837.399	123.60479
837.575	94.8364
837.75	91.58064
837.926	120.53224
838.102	199.96603
838.277	146.47114
838.453	187.4774
838.628	197.8725
838.804	79.92769
838.98	183.2661
839.155	86.71324
839.331	117.88809
839.506	77.62758
839.682	78.2319
839.857	103.775
840.033	124.5305
840.208	61.29217
840.384	33.1871
840.559	63.36449
840.734	95.45267
840.91	140.98099
841.085	83.99986
841.26	88.23538
841.436	76.86201
841.611	77.51705
841.786	113.62348
841.962	161.3218
842.137	102.34532
842.312	61.60009
842.487	85.0945
842.663	66.5648
842.838	77.95755
843.013	280.21606
843.188	135.43734
843.363	136.40145
843.538	239.23385
843.714	241.00976
843.889	241.47562
844.064	252.5492
844.239	222.1155
844.414	268.59833
844.589	169.59371
844.764	325.66717
844.939	301.27345
845.114	375.82917
845.289	369.55998
845.464	381.24184
845.639	300.14486
845.814	144.95531
845.989	175.86477
846.163	195.93168
846.338	228.54333
846.513	351.71208
846.688	207.34723
846.863	211.61382
847.038	187.41551
847.212	216.20648
847.387	248.43361
847.562	264.42421
847.737	294.72696
847.911	110.05753
848.086	139.94156
848.261	460.03882
848.435	188.21141
848.61	308.72606
848.785	139.52142
848.959	319.85316
849.134	433.97859
849.308	509.08151
849.483	228.62357
849.658	351.91994
849.832	191.92354
850.007	152.87345
850.181	636.6398
850.356	178.27579
850.53	518.27523
850.705	129.99893
850.879	90.85553
851.053	200.8035
851.228	183.10537
851.402	289.7367
851.577	338.42987
851.751	412.82698
851.925	247.52769
852.099	111.2009
852.274	160.02271
852.448	209.45772
852.622	300.04433
852.797	225.48951
852.971	251.19291
853.145	241.06801
853.319	662.15533
853.493	362.97162
853.668	204.79127
853.842	421.23057
854.016	334.41937
854.19	401.68821
854.364	233.66427
854.538	259.32181
854.712	350.37506
854.886	224.51772
855.06	198.12324
855.234	74.89651
855.408	441.74852
855.582	360.09491
855.756	359.89916
855.93	453.80129
856.104	247.72336
856.278	354.66235
856.452	208.21638
856.626	307.00483
856.8	542.51803
856.973	283.82395
857.147	283.3931
857.321	298.12781
857.495	347.07549
857.669	240.96856
857.842	209.29279
858.016	342.19092
858.19	154.22004
858.364	824.0574
858.537	190.38719
858.711	241.43085
858.885	216.10507
859.058	199.44727
859.232	108.59057
859.405	126.21558
859.579	340.83259
859.753	296.03941
859.926	164.87696
860.1	100.12397
860.273	239.13237
860.447	451.41911
860.62	220.80904
860.794	478.60593
860.967	272.43049
861.141	362.68166
861.314	686.72512
861.487	295.25335
861.661	392.29379
861.834	522.89125
862.008	362.44854
862.181	241.17369
862.354	251.14247
862.528	323.35644
862.701	197.75738
862.874	143.98779
863.047	207.96005
863.221	187.05515
863.394	96.07977
863.567	372.55224
863.74	88.03988
863.913	348.81495
864.087	287.44053
864.26	333.46725
864.433	192.5676
864.606	546.52884
864.779	231.24474
864.952	113.92022
865.125	190.39234
865.298	238.69029
865.471	230.25038
865.644	496.1179
865.817	373.13689
865.99	317.33792
866.163	470.05007
866.336	195.67323
866.509	230.64095
866.682	196.5238
866.855	401.02015
867.028	131.74043
867.2	278.72652
867.373	93.7537
867.546	225.67146
867.719	598.37026
867.892	282.11712
868.064	162.79441
868.237	267.35937
868.41	261.02973
868.583	135.95374
868.755	148.04335
868.928	199.83848
869.101	591.53029
869.273	345.54924
869.446	275.84803
869.619	390.41602
869.791	231.24796
869.964	372.01689
870.136	355.71586
870.309	253.8686
870.481	245.21284
870.654	105.51092
870.826	261.62278
870.999	181.54454
871.171	271.2525
871.344	177.67727
871.516	208.02134
871.689	140.74307
871.861	224.09495
872.033	159.83743
872.206	191.19543
872.378	332.3933
872.55	189.16289
872.723	133.41865
872.895	189.60123
873.067	352.78567
873.24	338.17221
873.412	179.87171
873.584	194.95574
873.756	198.96672
873.928	247.03087
874.101	251.5249
874.273	280.1443
874.445	89.55716
874.617	127.81833
874.789	231.37102
874.961	197.99795
875.133	264.69709
875.305	218.96588
875.477	129.77482
875.649	112.77602
875.821	145.42203
875.993	403.79079
876.165	148.12686
876.337	236.43032
876.509	216.95403
876.681	240.89726
876.853	239.36092
877.025	235.85929
877.197	153.92443
877.369	131.08279
877.541	292.31936
877.712	75.51307
877.884	134.38607
878.056	256.86887
878.228	125.58272
878.4	246.22063
878.571	124.36132
878.743	85.86003
878.915	197.5227
879.086	123.17404
879.258	153.16069
879.43	129.04764
879.601	110.92352
879.773	118.76579
879.945	31.0156
880.116	47.91636
880.288	29.81103
880.459	31.42518
880.631	24.22
880.802	29.14442
880.974	27.23194
881.145	18.81886
881.317	25.09829
881.488	18.48916
881.66	21.53383
881.831	19.06141
882.002	26.75337
882.174	19.07934
882.345	26.35682
882.517	13.29202
882.688	33.41821
882.859	26.39021
883.03	43.59391
883.202	44.41989
883.373	37.62397
883.544	37.99735
883.715	63.24487
883.887	54.69418
884.058	47.12262
884.229	67.75518
884.4	66.91136
884.571	80.16177
884.742	63.4876
884.914	70.5072
885.085	101.67791
885.256	140.37965
885.427	110.1097
885.598	138.08892
885.769	135.25707
885.94	138.73451
886.111	90.46267
886.282	161.86082
886.453	116.57229
886.624	91.67273
886.795	176.78029
886.966	135.43222
887.136	182.02271
887.307	136.98169
887.478	249.66421
887.649	186.20927
887.82	221.70236
887.991	176.6785
888.161	246.9131
888.332	228.38942
888.503	108.80744
888.674	317.15988
888.844	388.83753
889.015	287.05446
889.186	111.77682
889.356	339.84963
889.527	109.00957
889.698	576.62488
889.868	174.01712
890.039	250.86683
890.209	209.59806
890.38	281.58132
890.551	242.25631
890.721	318.02211
890.892	297.94838
891.062	195.71242
891.233	256.48388
891.403	177.30896
891.574	138.96503
891.744	193.22859
891.914	209.40212
892.085	215.55688
892.255	71.93973
892.425	371.16109
892.596	226.45422
892.766	231.91051
892.936	298.24576
893.107	261.67895
893.277	142.48778
893.447	100.72749
893.618	77.33478
893.788	157.27467
893.958	84.29815
894.128	76.20754
894.298	91.80176
894.468	122.47393
894.639	55.80097
894.809	37.33861
894.979	62.54306
895.149	71.84616
895.319	56.89843
895.489	84.92971
895.659	107.83386
895.829	71.24133
895.999	78.87615
896.169	63.015
896.339	80.64806
896.509	164.38582
896.679	189.01399
896.849	184.75798
897.019	267.02508
897.189	217.09078
897.358	169.1099
897.528	255.8876
897.698	91.48539
897.868	238.71635
898.038	461.66005
898.208	463.2855
898.377	100.8545
898.547	448.9937
898.717	649.76052
898.886	232.79007
899.056	409.18605
899.226	669.31374
899.395	329.48816
899.565	568.49686
899.735	313.84756
899.904	544.99936
900.074	571.10021
900.244	191.58663
900.413	795.15995
900.583	141.49325
900.752	308.53875
900.922	767.70895
901.091	46.18144
901.261	470.72249
901.43	404.53388
901.599	358.96385
901.769	1365.87108
901.938	560.66416
902.108	441.22393
902.277	776.62423
902.446	137.20422
902.616	151.66045
902.785	202.68869
902.954	399.65373
903.124	243.5345
903.293	179.26022
903.462	97.39598
903.631	137.90806
903.801	103.09054
903.97	52.32238
904.139	86.61695
904.308	68.09597
904.477	57.39355
904.646	33.77328
904.816	56.87392
904.985	85.10261
905.154	131.7633
