Data from WindowProjectSample_Transmission__73__00073.txt Node

Date: Sat May 03 17:56:32 EDT 2025
User: jessi
Spectrometer: SR400872
Trigger mode: 0
Integration Time (sec): 5.000010E-1
Scans to average: 6
Electric dark correction enabled: true
Nonlinearity correction enabled: true
Boxcar width: 0
XAxis mode: Wavelengths
Number of Pixels in Spectrum: 3648
>>>>>Begin Spectral Data<<<<<
184.909	3487.54608
185.132	3946.46941
185.355	-4163.9318
185.578	4147.63573
185.801	-460.57746
186.024	-5013.93427
186.247	1591.69085
186.47	494.21293
186.693	-37.28284
186.916	492.83729
187.139	3089.09687
187.362	-1826.79856
187.585	5275.88769
187.808	25085.94123
188.031	-84.83408
188.254	-3742.43468
188.476	770.06954
188.699	3428.55352
188.922	-182.54404
189.145	-6889.16018
189.368	-416.3967
189.591	-617.75918
189.813	-3011.56863
190.036	879.26808
190.259	-8215.39536
190.482	1354.54682
190.705	3725.85777
190.927	-1764.71675
191.15	-6646.01623
191.373	5540.35245
191.595	-1162.42293
191.818	1956.14136
192.041	-570.22969
192.263	1879.60276
192.486	-1992.82562
192.709	-23392.3274
192.931	1887.40661
193.154	-3700.88695
193.377	-2325.73619
193.599	4154.65712
193.822	1629.23431
194.044	5424.59521
194.267	901.54268
194.489	-711.2391
194.712	2483.86746
194.934	8369.75962
195.157	-27263.10579
195.379	2215.12227
195.602	1716.93728
195.824	1498.23497
196.047	45652.68484
196.269	3065.47363
196.492	-1808.16421
196.714	-1216.67028
196.936	1876.885
197.159	-11967.94398
197.381	-459.26432
197.604	-5411.59703
197.826	-16330.35106
198.048	10137.91991
198.271	-8580.80587
198.493	4271.52895
198.715	3540.88182
198.938	-830.61646
199.16	-17233.75076
199.382	1194.94683
199.604	-1612.32416
199.827	-3227.95159
200.049	2288.06604
200.271	-7103.67901
200.493	-45274.11382
200.715	3589.86873
200.938	-2959.17447
201.16	-2550.405
201.382	-1630.24069
201.604	-3160.26099
201.826	3231.029
202.048	3372.87446
202.27	-1065.05234
202.492	-3494.20045
202.715	-1269.10911
202.937	-17051.49652
203.159	2564.49078
203.381	2100.49442
203.603	-2918.51747
203.825	-857.06059
204.047	56022.31961
204.269	-1251.67402
204.491	-1123.0089
204.713	62833.49538
204.935	-3118.16151
205.156	-870.91349
205.378	-4289.62857
205.6	-1225.20523
205.822	2324.24876
206.044	-264.17916
206.266	6166.38954
206.488	780.58124
206.71	3227.28085
206.932	1689.48164
207.153	-1576.54772
207.375	-2758.81762
207.597	3829.78497
207.819	27225.11134
208.041	4080.05728
208.262	-1498.02867
208.484	-1115.59091
208.706	-1400.06547
208.927	2763.93593
209.149	4644.56646
209.371	-5320.93144
209.593	383.61304
209.814	-28376.84232
210.036	2143.00598
210.258	-838.73843
210.479	3955.18018
210.701	-3559.04577
210.922	-10685.44785
211.144	-863.08928
211.366	5081.19809
211.587	-2202.46937
211.809	-4774.1704
212.03	-839.95851
212.252	-540.16942
212.473	3346.96607
212.695	-632.47703
212.916	-788.43395
213.138	514.84412
213.359	-1434.28205
213.581	11554.30912
213.802	-1697.59379
214.024	-2311.53687
214.245	-5620.47008
214.466	-336.11047
214.688	-2654.80629
214.909	-17504.36389
215.131	-4737.3891
215.352	-2039.6036
215.573	11420.34944
215.795	1599.22344
216.016	6570.25138
216.237	-516.78687
216.459	6522.32007
216.68	-3344.75391
216.901	-2707.14596
217.122	-2223.01887
217.344	-6928.85774
217.565	-2762.44137
217.786	2238.16677
218.007	1413.9303
218.228	-626.31464
218.45	-4311.11509
218.671	1496.8821
218.892	3771.58812
219.113	1528.00879
219.334	256.41813
219.555	-7554.68642
219.776	12113.35276
219.997	3918.68896
220.219	1585.22406
220.44	1100.01483
220.661	924.26515
220.882	-2654.53004
221.103	-1128.48708
221.324	2539.48495
221.545	2907.59984
221.766	-3294.58323
221.987	-529.43606
222.208	-9385.02663
222.429	167841.78039
222.65	-239.47317
222.87	-8929.43157
223.091	2612.05366
223.312	-988.75667
223.533	2282.42587
223.754	2016.61533
223.975	2777.51112
224.196	-5382.62985
224.417	-2547.52701
224.637	8110.44011
224.858	1796.52977
225.079	1181.22024
225.3	1117.11451
225.521	4861.74244
225.741	819.28444
225.962	1203.58136
226.183	-542.29037
226.404	1402.15179
226.624	1088.52255
226.845	1607.47562
227.066	849.95091
227.286	554.13402
227.507	196.67007
227.728	163.81305
227.948	276.43493
228.169	86.75904
228.389	90.62317
228.61	44.57192
228.831	66.71849
229.051	4.89701
229.272	37.3899
229.492	48.84652
229.713	11.47385
229.933	36.33398
230.154	33.37865
230.374	52.64061
230.595	38.94937
230.815	27.36188
231.036	36.17518
231.256	-3.44923
231.477	75.31293
231.697	44.90631
231.917	45.99631
232.138	64.63111
232.358	134.06839
232.579	125.11601
232.799	12.87535
233.019	101.30043
233.24	142.93515
233.46	41.80223
233.68	73.70606
233.901	51.14153
234.121	30.42157
234.341	11.76082
234.561	-3.84619
234.782	23.16689
235.002	80.92722
235.222	-3.01251
235.442	65.13701
235.662	33.21788
235.883	74.22559
236.103	66.02837
236.323	42.77335
236.543	29.74275
236.763	44.48553
236.983	49.7763
237.203	54.09485
237.423	68.75728
237.643	102.07633
237.864	89.13479
238.084	22.66183
238.304	38.4186
238.524	57.0595
238.744	44.60152
238.964	74.55011
239.184	68.08055
239.404	71.76165
239.624	38.41271
239.843	63.68319
240.063	36.53353
240.283	24.9034
240.503	26.00804
240.723	27.12491
240.943	14.16418
241.163	20.32257
241.383	14.85789
241.603	7.6354
241.822	9.02749
242.042	6.34613
242.262	8.08121
242.482	8.87498
242.702	11.13089
242.921	3.45197
243.141	8.70373
243.361	6.78166
243.581	10.11987
243.8	8.8486
244.02	6.23783
244.24	9.75674
244.459	9.62647
244.679	21.53793
244.899	12.72192
245.118	14.98522
245.338	12.86989
245.558	16.19777
245.777	9.16042
245.997	10.90402
246.216	10.97839
246.436	6.15453
246.655	4.55285
246.875	3.46044
247.094	6.54752
247.314	2.44641
247.533	3.88206
247.753	4.53394
247.972	3.70597
248.192	1.6546
248.411	2.06234
248.631	4.43461
248.85	5.11413
249.07	3.8023
249.289	6.78645
249.508	5.26935
249.728	7.96454
249.947	8.37733
250.166	9.38252
250.386	5.31519
250.605	7.98682
250.824	11.44527
251.044	8.77803
251.263	27.2565
251.482	14.95156
251.701	12.74536
251.921	0.66502
252.14	4.09283
252.359	4.5655
252.578	10.59268
252.798	3.98597
253.017	10.3381
253.236	6.05811
253.455	6.87797
253.674	12.97321
253.893	6.34452
254.112	8.22599
254.331	13.06993
254.551	10.32422
254.77	4.59057
254.989	14.89589
255.208	13.4657
255.427	17.11231
255.646	13.43966
255.865	24.10227
256.084	9.20561
256.303	12.17193
256.522	14.97077
256.741	2.79434
256.96	5.14116
257.179	8.51776
257.397	11.85945
257.616	6.53077
257.835	6.26137
258.054	16.36146
258.273	9.94181
258.492	11.75708
258.711	7.11609
258.93	3.04677
259.148	4.08374
259.367	4.38867
259.586	5.8489
259.805	2.76971
260.023	5.18893
260.242	4.16673
260.461	3.04057
260.68	1.61084
260.898	4.69383
261.117	1.45953
261.336	1.07013
261.554	4.25471
261.773	3.84661
261.992	0.80152
262.21	4.13243
262.429	4.69949
262.648	8.36001
262.866	8.97606
263.085	5.86943
263.303	5.33427
263.522	9.54871
263.74	9.73313
263.959	16.0181
264.178	8.25283
264.396	6.83989
264.615	5.13217
264.833	12.65476
265.051	11.69191
265.27	10.94102
265.488	11.97223
265.707	7.45048
265.925	11.77951
266.144	5.84549
266.362	6.3683
266.58	6.83873
266.799	5.30475
267.017	6.71071
267.235	5.94659
267.454	3.80646
267.672	2.48042
267.89	4.67787
268.109	5.09097
268.327	4.99929
268.545	1.46929
268.763	4.66097
268.982	2.12217
269.2	5.43352
269.418	3.48086
269.636	2.28205
269.854	4.96839
270.073	3.7651
270.291	2.23596
270.509	2.07063
270.727	4.88767
270.945	7.93505
271.163	7.75548
271.381	1.66853
271.599	3.0934
271.817	5.91228
272.036	2.30505
272.254	3.60572
272.472	3.0517
272.69	2.72813
272.908	2.87666
273.126	4.57307
273.344	5.73342
273.562	1.96831
273.779	2.78065
273.997	4.17363
274.215	4.99838
274.433	3.44185
274.651	5.19476
274.869	5.28722
275.087	2.86376
275.305	4.88968
275.523	2.38787
275.74	3.75444
275.958	5.87559
276.176	8.39749
276.394	2.71301
276.612	3.38738
276.829	3.68563
277.047	2.97512
277.265	3.33066
277.483	4.09219
277.7	4.31897
277.918	4.04474
278.136	6.80971
278.353	3.31467
278.571	1.7502
278.789	5.8981
279.006	1.31111
279.224	3.10373
279.442	5.58556
279.659	3.97104
279.877	2.59555
280.094	5.66659
280.312	1.40511
280.529	3.92441
280.747	1.24011
280.964	2.85221
281.182	6.65381
281.399	3.45698
281.617	4.16098
281.834	3.02873
282.052	2.29175
282.269	3.50922
282.487	2.74438
282.704	2.14679
282.921	2.6166
283.139	3.55728
283.356	4.81892
283.574	3.71007
283.791	2.01955
284.008	5.75871
284.226	3.24702
284.443	3.57655
284.66	4.74959
284.877	3.59059
285.095	2.5577
285.312	1.66545
285.529	1.12359
285.746	0.87713
285.964	2.26457
286.181	1.32604
286.398	2.38452
286.615	2.96458
286.832	3.0915
287.05	0.8305
287.267	2.01144
287.484	2.1552
287.701	3.05582
287.918	3.10654
288.135	3.07043
288.352	1.43291
288.569	1.68383
288.786	2.73768
289.003	2.12715
289.22	3.06074
289.437	1.86855
289.654	3.20537
289.871	3.43314
290.088	3.28831
290.305	2.39583
290.522	1.84712
290.739	2.6261
290.956	3.47983
291.173	4.19115
291.39	3.92485
291.607	2.69882
291.824	1.93736
292.04	1.33333
292.257	3.15697
292.474	3.70673
292.691	2.48522
292.908	1.29807
293.125	1.93127
293.341	1.10873
293.558	5.59913
293.775	2.14304
293.992	2.35948
294.208	1.08845
294.425	1.31716
294.642	2.03418
294.858	2.54222
295.075	0.81936
295.292	2.28105
295.508	2.6175
295.725	4.1763
295.942	2.17249
296.158	1.52542
296.375	2.33243
296.591	1.90422
296.808	2.02464
297.024	2.31034
297.241	2.63337
297.458	2.78595
297.674	0.47393
297.891	2.26615
298.107	2.11723
298.323	1.36659
298.54	3.31621
298.756	1.75992
298.973	1.03812
299.189	3.47339
299.406	2.00197
299.622	3.46202
299.838	3.76364
300.055	3.33576
300.271	1.3899
300.487	1.49695
300.704	2.09631
300.92	1.79778
301.136	5.12966
301.353	3.76325
301.569	2.86289
301.785	3.15864
302.001	3.79796
302.218	3.38954
302.434	3.72612
302.65	1.99885
302.866	2.62932
303.083	5.59373
303.299	5.55653
303.515	3.30119
303.731	3.88844
303.947	2.23586
304.163	2.93548
304.379	3.60532
304.595	3.80767
304.812	2.65836
305.028	2.83311
305.244	3.14562
305.46	4.12782
305.676	4.61859
305.892	5.24367
306.108	4.20754
306.324	3.2719
306.54	5.93204
306.756	4.18974
306.972	3.94162
307.187	3.81086
307.403	4.96576
307.619	3.09809
307.835	4.76482
308.051	5.09893
308.267	2.5697
308.483	5.39609
308.699	4.43569
308.914	4.04554
309.13	3.80574
309.346	2.98331
309.562	3.15215
309.778	2.80804
309.993	4.48118
310.209	4.49
310.425	2.90566
310.641	4.18973
310.856	3.45735
311.072	3.24536
311.288	4.05942
311.503	4.90781
311.719	2.66715
311.935	2.7926
312.15	5.0139
312.366	4.87323
312.581	5.00627
312.797	4.54865
313.013	5.22006
313.228	3.76266
313.444	3.99338
313.659	3.49342
313.875	4.70718
314.09	4.16247
314.306	5.59233
314.521	5.0708
314.737	4.89217
314.952	4.53297
315.168	4.52676
315.383	4.93142
315.599	3.62883
315.814	3.98659
316.029	4.90971
316.245	3.48975
316.46	2.42536
316.675	5.39997
316.891	6.08969
317.106	7.15554
317.321	4.42337
317.537	4.85333
317.752	5.22953
317.967	5.02696
318.183	3.58879
318.398	3.95078
318.613	5.34495
318.828	5.60841
319.043	4.90146
319.259	4.0053
319.474	4.35016
319.689	5.80633
319.904	2.57292
320.119	5.52261
320.334	4.51733
320.549	4.27602
320.765	5.45577
320.98	4.79315
321.195	4.53006
321.41	4.31488
321.625	5.05326
321.84	5.87969
322.055	5.97007
322.27	3.40195
322.485	3.18488
322.7	4.79488
322.915	5.24828
323.13	4.15204
323.345	6.08642
323.56	5.29181
323.775	5.38257
323.989	5.27095
324.204	4.79917
324.419	5.66688
324.634	3.59534
324.849	4.46396
325.064	7.12926
325.279	6.0892
325.493	5.21353
325.708	5.45647
325.923	3.83585
326.138	4.63579
326.352	6.24657
326.567	5.5448
326.782	4.15203
326.997	4.39388
327.211	5.2697
327.426	4.86511
327.641	4.69599
327.855	3.2342
328.07	5.59991
328.285	6.73521
328.499	4.34955
328.714	5.35077
328.928	5.17605
329.143	4.99698
329.358	5.86321
329.572	5.93446
329.787	6.45614
330.001	7.2655
330.216	3.28042
330.43	7.11917
330.645	5.91948
330.859	5.88633
331.074	3.87473
331.288	4.96129
331.503	6.71454
331.717	3.65977
331.931	4.91167
332.146	5.14482
332.36	6.95551
332.575	5.50783
332.789	4.92686
333.003	5.44813
333.218	5.73208
333.432	4.95344
333.646	5.94961
333.86	6.92539
334.075	6.97582
334.289	4.67704
334.503	3.63066
334.717	6.03814
334.932	5.1125
335.146	5.98911
335.36	4.03117
335.574	5.46184
335.788	5.20684
336.003	5.99321
336.217	6.01468
336.431	5.15158
336.645	4.50459
336.859	4.04732
337.073	5.00822
337.287	5.46355
337.501	4.13351
337.715	6.23268
337.929	5.83581
338.143	4.72032
338.357	5.19739
338.571	5.11367
338.785	6.42785
338.999	4.81732
339.213	4.89668
339.427	4.17986
339.641	6.57198
339.855	4.60119
340.069	4.38814
340.283	5.94478
340.497	6.59238
340.711	5.92174
340.924	5.37834
341.138	4.43766
341.352	4.07261
341.566	5.39338
341.78	3.99934
341.993	4.97483
342.207	4.72445
342.421	6.09979
342.635	5.26181
342.848	5.02868
343.062	2.83757
343.276	4.89994
343.49	7.39113
343.703	4.8252
343.917	6.422
344.131	6.71131
344.344	4.76623
344.558	5.07514
344.771	4.53571
344.985	6.66122
345.199	7.34225
345.412	5.89931
345.626	6.22438
345.839	4.13179
346.053	4.44176
346.266	4.7911
346.48	6.13449
346.693	6.09971
346.907	6.26285
347.12	4.63774
347.334	5.67009
347.547	5.96021
347.76	5.58955
347.974	6.42913
348.187	5.77167
348.401	5.45682
348.614	4.46204
348.827	5.41284
349.041	5.8747
349.254	4.04617
349.467	5.18059
349.681	4.69319
349.894	4.75309
350.107	6.82691
350.32	7.60111
350.534	4.36968
350.747	5.27624
350.96	4.77102
351.173	5.04171
351.386	5.44834
351.6	4.95664
351.813	5.49921
352.026	5.26846
352.239	4.64289
352.452	4.90256
352.665	6.73967
352.878	5.10851
353.092	7.7174
353.305	6.27252
353.518	5.72324
353.731	4.66932
353.944	6.75012
354.157	5.12866
354.37	5.49104
354.583	4.47488
354.796	4.7676
355.009	6.59628
355.222	5.96616
355.435	5.78083
355.647	7.06209
355.86	5.33572
356.073	6.07722
356.286	5.32615
356.499	7.08892
356.712	6.70698
356.925	6.56375
357.138	6.9279
357.35	5.40968
357.563	5.73076
357.776	6.50093
357.989	6.28515
358.201	6.89532
358.414	6.43218
358.627	7.50379
358.84	6.05223
359.052	5.23822
359.265	5.56756
359.478	6.97365
359.69	3.99447
359.903	7.14914
360.116	7.39286
360.328	5.09798
360.541	7.11669
360.753	6.04793
360.966	6.28451
361.179	6.66379
361.391	6.26322
361.604	6.05347
361.816	6.3276
362.029	6.28028
362.241	6.05458
362.454	6.71072
362.666	5.94951
362.879	7.18037
363.091	6.57583
363.304	6.2257
363.516	6.15179
363.728	5.78782
363.941	6.77247
364.153	6.82062
364.366	5.07215
364.578	5.59247
364.79	6.99991
365.003	6.741
365.215	6.04199
365.427	7.17933
365.639	7.23233
365.852	6.75747
366.064	7.7642
366.276	6.40439
366.488	6.70133
366.701	6.34767
366.913	6.1568
367.125	6.43715
367.337	5.86247
367.549	6.38286
367.762	6.32986
367.974	6.28615
368.186	6.20889
368.398	7.43746
368.61	6.70903
368.822	6.97744
369.034	6.13854
369.246	7.47767
369.458	8.77905
369.67	5.78548
369.882	7.92403
370.094	4.80668
370.306	7.47612
370.518	6.34074
370.73	6.19546
370.942	6.55094
371.154	6.73553
371.366	6.65005
371.578	7.41767
371.79	6.82426
372.002	7.71856
372.214	8.53452
372.425	6.7553
372.637	8.45349
372.849	7.25646
373.061	5.09709
373.273	7.12194
373.484	7.24463
373.696	7.51742
373.908	5.07939
374.12	7.42434
374.331	7.48595
374.543	6.16994
374.755	6.11032
374.967	6.72461
375.178	7.93078
375.39	6.87473
375.602	7.06591
375.813	5.62171
376.025	6.21794
376.236	7.27463
376.448	7.27169
376.66	7.03278
376.871	7.25124
377.083	7.74021
377.294	8.80805
377.506	6.87357
377.717	8.29043
377.929	7.53944
378.14	7.051
378.352	7.69687
378.563	7.98646
378.775	8.37874
378.986	6.41154
379.197	7.43713
379.409	6.62804
379.62	7.71169
379.832	7.50803
380.043	7.07549
380.254	7.52953
380.466	6.42065
380.677	9.60565
380.888	8.81336
381.1	9.62306
381.311	9.61719
381.522	7.99092
381.733	9.67878
381.945	7.43974
382.156	7.23357
382.367	7.46003
382.578	9.75157
382.789	10.04492
383.001	6.9752
383.212	9.22035
383.423	9.1568
383.634	8.36978
383.845	8.27149
384.056	7.42482
384.267	7.83541
384.478	7.96485
384.69	6.92828
384.901	8.44651
385.112	7.86624
385.323	9.36645
385.534	8.01665
385.745	8.40233
385.956	8.07659
386.167	7.21064
386.378	8.20222
386.588	7.41007
386.799	7.28303
387.01	6.81806
387.221	8.6507
387.432	8.18728
387.643	9.19147
387.854	7.77827
388.065	7.68479
388.275	7.78136
388.486	7.4132
388.697	8.02469
388.908	7.59063
389.119	8.82666
389.329	9.07627
389.54	8.17458
389.751	8.40844
389.962	8.99168
390.172	8.01833
390.383	8.23118
390.594	7.6635
390.804	7.67804
391.015	8.02347
391.226	8.41458
391.436	8.82411
391.647	8.48
391.858	8.59062
392.068	7.08131
392.279	7.75458
392.489	8.56118
392.7	8.89671
392.91	8.06777
393.121	7.80198
393.331	8.62829
393.542	9.18278
393.752	9.14224
393.963	8.85315
394.173	8.90021
394.384	8.96996
394.594	8.53958
394.804	7.68869
395.015	8.38688
395.225	8.91389
395.436	7.86413
395.646	8.84502
395.856	8.2261
396.067	7.22666
396.277	9.01323
396.487	8.81543
396.697	8.72596
396.908	9.13538
397.118	8.91388
397.328	8.54665
397.538	9.16969
397.749	8.13449
397.959	9.20636
398.169	8.65995
398.379	7.50778
398.589	8.72365
398.8	8.97668
399.01	8.60616
399.22	8.50433
399.43	10.1409
399.64	8.58631
399.85	9.01936
400.06	8.71295
400.27	8.17335
400.48	8.11118
400.69	9.24885
400.9	8.27693
401.11	7.71251
401.32	9.16612
401.53	7.95942
401.74	9.65581
401.95	8.74018
402.16	8.29846
402.37	8.80435
402.58	8.25414
402.79	8.9989
403	9.37071
403.209	8.06383
403.419	9.40533
403.629	8.28675
403.839	9.68099
404.049	9.40759
404.258	8.55468
404.468	8.56156
404.678	9.50384
404.888	9.79026
405.097	8.95816
405.307	8.92709
405.517	9.41189
405.727	9.16924
405.936	8.59583
406.146	9.12121
406.356	9.85187
406.565	8.83799
406.775	8.61947
406.984	8.32242
407.194	10.29449
407.404	8.87885
407.613	9.11693
407.823	9.63978
408.032	9.88162
408.242	9.46335
408.451	8.51144
408.661	8.81037
408.87	10.1929
409.08	8.48796
409.289	9.18865
409.499	9.1864
409.708	8.97026
409.918	7.70515
410.127	9.40735
410.336	10.29819
410.546	9.53762
410.755	8.74986
410.964	8.82601
411.174	8.02953
411.383	9.3678
411.592	9.13871
411.802	8.47139
412.011	9.50258
412.22	8.93902
412.429	9.83461
412.639	9.93848
412.848	9.91104
413.057	10.36664
413.266	9.71172
413.475	9.15006
413.685	9.57471
413.894	9.73562
414.103	9.69829
414.312	9.80444
414.521	9.01948
414.73	9.43153
414.939	10.72399
415.148	9.42589
415.357	9.35959
415.566	9.38641
415.776	9.24275
415.985	9.07598
416.194	10.12428
416.403	10.72827
416.611	8.69535
416.82	9.31648
417.029	9.88387
417.238	9.31865
417.447	9.3223
417.656	9.72756
417.865	9.65157
418.074	10.11713
418.283	10.87349
418.492	12.24501
418.7	11.78089
418.909	13.62799
419.118	12.15467
419.327	12.89271
419.536	12.62893
419.744	12.89199
419.953	14.57655
420.162	14.74039
420.371	13.96716
420.579	14.78371
420.788	15.64736
420.997	16.00965
421.205	16.14907
421.414	15.80862
421.623	16.10369
421.831	15.42557
422.04	16.00664
422.249	14.97572
422.457	15.10826
422.666	14.16192
422.874	15.56941
423.083	15.32717
423.291	15.49104
423.5	15.59462
423.708	15.95513
423.917	16.75082
424.125	15.9952
424.334	15.75002
424.542	17.7239
424.751	17.01946
424.959	16.40677
425.167	16.73251
425.376	16.5426
425.584	14.86051
425.793	14.70178
426.001	13.38303
426.209	13.45941
426.418	12.09874
426.626	11.29905
426.834	10.73533
427.042	10.77035
427.251	10.19167
427.459	10.93945
427.667	10.46248
427.875	9.47794
428.084	9.9382
428.292	11.11836
428.5	10.79912
428.708	9.62735
428.916	9.90399
429.124	10.41113
429.333	10.08187
429.541	10.50911
429.749	10.45841
429.957	10.33907
430.165	11.79177
430.373	9.55282
430.581	10.44953
430.789	11.20492
430.997	10.23094
431.205	9.84368
431.413	10.68942
431.621	10.14099
431.829	10.96594
432.037	10.30526
432.245	10.86252
432.453	10.871
432.661	10.82234
432.869	12.22471
433.076	10.88345
433.284	11.64933
433.492	12.4632
433.7	12.72823
433.908	11.67918
434.116	12.00131
434.323	11.61448
434.531	11.55873
434.739	11.51443
434.947	11.21201
435.154	11.31322
435.362	10.6458
435.57	10.68783
435.778	10.32273
435.985	10.90887
436.193	10.38407
436.401	11.6164
436.608	10.77989
436.816	10.57468
437.023	11.67883
437.231	12.04098
437.439	11.03658
437.646	11.36145
437.854	11.1671
438.061	11.51633
438.269	11.18
438.476	11.38766
438.684	11.6022
438.891	12.03185
439.099	12.05032
439.306	11.84667
439.514	11.95652
439.721	13.70518
439.929	13.27798
440.136	14.50952
440.343	14.58366
440.551	14.41235
440.758	16.31307
440.965	14.83714
441.173	14.41622
441.38	14.0148
441.587	13.8395
441.795	13.41275
442.002	12.82093
442.209	12.6508
442.416	12.17269
442.624	12.09046
442.831	11.6652
443.038	10.88688
443.245	10.76265
443.452	10.92837
443.66	11.60337
443.867	11.12091
444.074	10.98937
444.281	11.60796
444.488	11.9277
444.695	12.4553
444.902	12.88858
445.109	14.36465
445.316	14.2
445.523	15.13811
445.73	15.04408
445.937	16.05044
446.144	16.79261
446.351	17.41933
446.558	15.97104
446.765	18.2507
446.972	17.35197
447.179	16.84273
447.386	17.18034
447.593	15.3674
447.8	16.28406
448.007	14.54254
448.214	13.59321
448.42	13.11931
448.627	13.40468
448.834	12.29316
449.041	11.979
449.248	11.44931
449.454	11.75329
449.661	12.21151
449.868	11.05736
450.075	10.72091
450.281	10.09808
450.488	10.74555
450.695	10.49836
450.901	10.63399
451.108	10.74326
451.315	11.8946
451.521	11.11702
451.728	11.78259
451.935	10.74366
452.141	10.98695
452.348	10.97598
452.554	11.27402
452.761	10.90261
452.967	12.29186
453.174	11.48118
453.38	11.25251
453.587	10.52937
453.793	11.38445
454	11.52227
454.206	12.61447
454.413	11.56687
454.619	11.66874
454.825	10.85428
455.032	11.5689
455.238	11.65178
455.445	10.57417
455.651	11.4109
455.857	10.17934
456.064	11.15285
456.27	11.01177
456.476	11.05385
456.682	10.49936
456.889	11.50277
457.095	11.55184
457.301	12.3873
457.507	11.45383
457.714	11.32219
457.92	11.28657
458.126	10.89386
458.332	11.42816
458.538	11.71265
458.744	12.59169
458.951	13.28068
459.157	15.96509
459.363	15.56225
459.569	15.8204
459.775	16.59394
459.981	16.34052
460.187	16.77219
460.393	16.81061
460.599	16.70172
460.805	15.60892
461.011	14.19333
461.217	13.85144
461.423	12.67741
461.629	11.69709
461.835	11.82942
462.041	11.35226
462.247	12.46447
462.453	11.2346
462.658	11.24488
462.864	11.94662
463.07	11.4963
463.276	11.35525
463.482	11.44259
463.688	12.54715
463.893	11.0242
464.099	11.47227
464.305	12.53012
464.511	11.11956
464.716	11.39195
464.922	12.00187
465.128	10.9912
465.333	12.47973
465.539	11.8673
465.745	11.67489
465.95	11.57046
466.156	13.46229
466.362	12.09421
466.567	11.7123
466.773	11.51527
466.978	12.62905
467.184	10.99881
467.389	10.53507
467.595	11.98197
467.8	11.15427
468.006	12.51189
468.211	12.42239
468.417	10.79481
468.622	11.78185
468.828	12.14194
469.033	11.74653
469.239	13.43782
469.444	11.37665
469.649	12.18667
469.855	11.74474
470.06	11.88361
470.266	10.8516
470.471	12.09944
470.676	11.91416
470.881	10.57713
471.087	12.9266
471.292	12.90903
471.497	10.92012
471.703	11.70151
471.908	11.49722
472.113	11.97306
472.318	12.41078
472.523	11.0299
472.729	12.02267
472.934	11.96977
473.139	11.54823
473.344	12.07915
473.549	12.54846
473.754	11.36726
473.959	13.15378
474.164	11.33212
474.369	11.54781
474.575	12.30059
474.78	11.82801
474.985	11.46404
475.19	10.63949
475.395	11.45567
475.6	11.71194
475.804	12.79396
476.009	12.00193
476.214	11.78725
476.419	11.78219
476.624	11.0227
476.829	11.71513
477.034	12.19708
477.239	11.62798
477.444	11.99451
477.648	12.44058
477.853	12.45096
478.058	11.71329
478.263	11.59604
478.468	11.34439
478.672	11.55786
478.877	12.92408
479.082	13.14938
479.287	12.23683
479.491	11.97767
479.696	11.56035
479.901	12.65587
480.105	12.65059
480.31	11.66991
480.515	12.18216
480.719	13.67763
480.924	12.41443
481.128	12.53367
481.333	13.81753
481.538	14.19522
481.742	14.81519
481.947	16.62615
482.151	18.12936
482.356	19.51775
482.56	23.06073
482.765	26.14742
482.969	30.9537
483.174	35.02357
483.378	40.13795
483.582	41.20189
483.787	43.74196
483.991	44.4711
484.196	44.26717
484.4	43.41444
484.604	42.7008
484.809	38.70654
485.013	36.19167
485.217	31.97212
485.422	28.33371
485.626	25.9244
485.83	24.84127
486.034	24.08499
486.239	25.2254
486.443	25.75634
486.647	26.86423
486.851	29.03413
487.055	31.32986
487.26	31.44693
487.464	32.91618
487.668	32.1098
487.872	32.57681
488.076	32.8849
488.28	31.18284
488.484	28.89594
488.688	27.72512
488.892	26.12477
489.096	24.13138
489.3	22.09191
489.504	20.98827
489.708	19.83824
489.912	19.38817
490.116	19.23343
490.32	19.34222
490.524	21.26319
490.728	22.82978
490.932	24.19112
491.136	26.19261
491.34	27.29824
491.544	27.969
491.748	27.74639
491.951	27.51856
492.155	26.47574
492.359	25.51413
492.563	22.93201
492.767	21.53616
492.97	18.86609
493.174	16.76651
493.378	15.44192
493.582	13.85608
493.785	13.22612
493.989	12.95311
494.193	12.27588
494.396	11.62918
494.6	11.99815
494.804	11.28406
495.007	11.38782
495.211	11.59388
495.414	11.83691
495.618	12.49221
495.822	13.40067
496.025	13.10315
496.229	13.68085
496.432	13.54373
496.636	13.84468
496.839	14.02611
497.043	15.14204
497.246	14.34227
497.45	14.10179
497.653	14.27968
497.856	13.78984
498.06	13.22143
498.263	13.00742
498.467	12.80162
498.67	13.199
498.873	12.69609
499.077	12.12949
499.28	12.40914
499.483	12.60843
499.686	12.94151
499.89	12.38653
500.093	12.95685
500.296	11.89831
500.499	13.24914
500.703	12.37682
500.906	12.43259
501.109	13.2508
501.312	12.56523
501.515	12.2913
501.719	12.69455
501.922	13.11216
502.125	12.48226
502.328	12.33453
502.531	11.94374
502.734	12.5016
502.937	11.53472
503.14	12.39352
503.343	12.06567
503.546	12.61728
503.749	12.10134
503.952	12.90588
504.155	11.99002
504.358	12.82182
504.561	12.72223
504.764	11.56733
504.967	12.5638
505.17	12.36733
505.373	13.44162
505.576	12.2909
505.778	12.85092
505.981	11.96846
506.184	13.26372
506.387	11.50627
506.59	13.67437
506.793	13.30352
506.995	12.87813
507.198	11.46668
507.401	12.73861
507.604	12.74852
507.806	12.09178
508.009	12.15988
508.212	12.96911
508.414	12.16202
508.617	12.31608
508.82	12.52549
509.022	13.5082
509.225	12.67208
509.427	11.6562
509.63	13.27701
509.833	12.45449
510.035	12.25802
510.238	11.7403
510.44	13.29262
510.643	11.50982
510.845	13.68803
511.048	12.83801
511.25	12.14935
511.453	12.42088
511.655	12.83797
511.858	12.4266
512.06	13.10863
512.262	12.77976
512.465	13.23545
512.667	12.59047
512.869	11.93071
513.072	12.84289
513.274	13.0157
513.476	12.80149
513.679	13.03023
513.881	11.8789
514.083	13.38002
514.286	12.23982
514.488	11.90868
514.69	12.03112
514.892	11.63896
515.094	13.1217
515.297	12.13812
515.499	12.7254
515.701	12.05327
515.903	13.67283
516.105	13.62743
516.307	13.0676
516.509	11.76847
516.711	12.11108
516.913	12.52086
517.116	12.69682
517.318	12.47274
517.52	13.66803
517.722	14.10977
517.924	13.6826
518.126	15.1589
518.328	14.76734
518.529	15.77084
518.731	16.44489
518.933	14.65408
519.135	15.00049
519.337	15.54906
519.539	14.50581
519.741	12.64019
519.943	12.80145
520.145	12.1742
520.346	13.08814
520.548	12.41524
520.75	12.87281
520.952	12.38837
521.153	12.82725
521.355	12.99131
521.557	12.05037
521.759	12.71537
521.96	12.44197
522.162	12.08656
522.364	13.48445
522.565	12.13121
522.767	13.04701
522.969	13.21338
523.17	12.94364
523.372	12.72882
523.573	12.56025
523.775	12.69356
523.977	12.09778
524.178	13.64713
524.38	12.53652
524.581	13.53837
524.783	13.44021
524.984	14.89154
525.186	15.22226
525.387	16.27536
525.589	16.46655
525.79	16.21299
525.991	16.37385
526.193	17.17403
526.394	16.39078
526.596	17.54982
526.797	18.24841
526.998	17.82196
527.2	18.96582
527.401	22.27189
527.602	24.38532
527.803	28.43896
528.005	30.42741
528.206	32.5418
528.407	34.33653
528.608	34.32683
528.81	34.60182
529.011	33.28363
529.212	34.1809
529.413	31.88542
529.614	29.02202
529.815	26.89617
530.017	24.32625
530.218	21.41719
530.419	19.373
530.62	18.32922
530.821	17.67407
531.022	15.94757
531.223	17.0217
531.424	16.62102
531.625	17.16589
531.826	16.88453
532.027	18.06861
532.228	20.18773
532.429	20.73119
532.63	21.65264
532.831	23.10172
533.032	23.07231
533.233	24.21142
533.433	23.52142
533.634	23.57774
533.835	22.42849
534.036	21.42907
534.237	20.03712
534.438	18.47076
534.638	16.28938
534.839	15.75674
535.04	15.11212
535.241	14.51793
535.441	16.12108
535.642	15.62015
535.843	15.16603
536.043	15.94517
536.244	16.08912
536.445	16.48821
536.645	17.50572
536.846	17.21774
537.047	17.27732
537.247	15.61686
537.448	15.1439
537.648	14.82423
537.849	13.49099
538.049	12.88261
538.25	13.02009
538.451	13.31185
538.651	12.41031
538.851	13.0912
539.052	13.84543
539.252	13.54818
539.453	12.64471
539.653	13.53503
539.854	14.40977
540.054	16.17041
540.254	18.58151
540.455	20.79592
540.655	21.24523
540.855	23.71224
541.056	25.2175
541.256	25.02933
541.456	26.48573
541.657	25.54644
541.857	26.05048
542.057	24.22681
542.257	22.80502
542.458	22.67789
542.658	21.19109
542.858	18.73284
543.058	18.85926
543.258	17.59788
543.458	15.65057
543.659	15.02755
543.859	15.56735
544.059	15.22049
544.259	14.00444
544.459	14.1543
544.659	12.94297
544.859	13.3103
545.059	12.63943
545.259	13.47477
545.459	12.97617
545.659	13.76946
545.859	13.28985
546.059	13.59872
546.259	13.27275
546.459	13.21066
546.659	13.19571
546.859	13.93617
547.059	13.50986
547.258	13.31376
547.458	13.36531
547.658	12.40988
547.858	11.99278
548.058	12.93334
548.258	12.55749
548.457	12.11526
548.657	14.1025
548.857	12.49255
549.057	13.37522
549.256	13.15364
549.456	12.43064
549.656	11.44286
549.855	13.92444
550.055	12.51239
550.255	13.96271
550.454	13.09748
550.654	13.26751
550.853	13.72656
551.053	13.25481
551.253	13.03112
551.452	13.0816
551.652	11.99125
551.851	11.9266
552.051	12.69744
552.25	12.51946
552.45	12.27749
552.649	12.73743
552.849	12.51035
553.048	12.75821
553.248	13.08072
553.447	12.13859
553.646	13.57872
553.846	13.86524
554.045	13.46907
554.244	11.86488
554.444	13.89384
554.643	12.24291
554.842	13.73855
555.042	14.09667
555.241	12.1587
555.44	12.01504
555.64	13.38228
555.839	14.15318
556.038	13.19598
556.237	12.24755
556.436	12.83739
556.636	13.08313
556.835	12.13819
557.034	13.90986
557.233	12.91171
557.432	11.69866
557.631	13.5331
557.83	12.60681
558.029	12.40624
558.228	12.09157
558.427	12.04619
558.626	13.03635
558.825	11.87752
559.024	12.9627
559.223	14.14952
559.422	12.42004
559.621	13.12632
559.82	10.87199
560.019	12.77229
560.218	12.7063
560.417	10.6186
560.616	12.19759
560.815	15.24676
561.014	11.56
561.212	14.25483
561.411	12.93128
561.61	11.49525
561.809	12.41643
562.008	13.667
562.206	12.26792
562.405	13.11318
562.604	12.45909
562.803	13.07252
563.001	12.4449
563.2	11.84259
563.399	13.11604
563.597	11.74483
563.796	12.35418
563.995	11.6521
564.193	13.13761
564.392	12.58125
564.59	14.5089
564.789	11.18042
564.988	12.23054
565.186	12.93974
565.385	12.58156
565.583	12.45784
565.782	12.75892
565.98	12.61945
566.179	12.79824
566.377	12.09148
566.575	12.1021
566.774	13.66028
566.972	13.31937
567.171	14.23801
567.369	13.67392
567.567	12.66645
567.766	13.08334
567.964	11.25674
568.162	12.98278
568.361	13.55647
568.559	12.57172
568.757	13.22552
568.956	12.69057
569.154	12.69726
569.352	13.10421
569.55	12.60895
569.748	12.46385
569.947	11.99386
570.145	11.98191
570.343	11.85861
570.541	13.52884
570.739	11.70595
570.937	12.61746
571.135	12.98447
571.333	14.05552
571.532	13.8003
571.73	12.84217
571.928	13.27181
572.126	13.10007
572.324	12.30419
572.522	13.94994
572.72	14.85474
572.918	12.87794
573.116	13.04528
573.313	12.58369
573.511	12.65817
573.709	12.16133
573.907	13.18407
574.105	12.52491
574.303	11.45625
574.501	11.39811
574.699	13.06794
574.896	13.03003
575.094	12.91123
575.292	11.60318
575.49	13.54415
575.688	12.41879
575.885	13.65335
576.083	14.40181
576.281	12.89125
576.478	11.73209
576.676	12.93636
576.874	11.17132
577.071	12.25718
577.269	14.44613
577.467	12.62296
577.664	12.3643
577.862	13.47916
578.059	11.62838
578.257	13.19331
578.455	12.17798
578.652	12.51128
578.85	10.9423
579.047	12.53148
579.245	12.31618
579.442	12.30036
579.64	12.49391
579.837	10.73387
580.034	14.99523
580.232	12.01755
580.429	11.50102
580.627	12.86757
580.824	13.71863
581.021	12.71331
581.219	12.16085
581.416	11.86059
581.613	13.32536
581.811	13.93851
582.008	11.56271
582.205	13.45135
582.402	12.83355
582.6	14.65947
582.797	12.65114
582.994	12.56597
583.191	13.09102
583.388	12.34401
583.586	13.10408
583.783	13.51764
583.98	11.99625
584.177	12.90146
584.374	9.50277
584.571	12.38029
584.768	12.25179
584.965	11.61673
585.162	12.92307
585.359	14.17641
585.556	12.61826
585.753	12.91559
585.95	11.1064
586.147	11.52306
586.344	12.81324
586.541	11.83559
586.738	11.14306
586.935	12.27307
587.132	11.52056
587.329	13.23557
587.526	12.40885
587.722	17.04758
587.919	11.12602
588.116	13.27483
588.313	13.97632
588.51	15.08781
588.706	11.96098
588.903	13.11656
589.1	13.17263
589.297	15.09622
589.493	12.50585
589.69	12.9119
589.887	11.73497
590.083	11.64443
590.28	11.93842
590.477	13.07506
590.673	13.5792
590.87	13.85426
591.067	12.33343
591.263	12.94746
591.46	12.71485
591.656	12.04249
591.853	13.77893
592.049	11.77388
592.246	11.70812
592.442	13.90166
592.639	14.0547
592.835	11.55561
593.032	12.91147
593.228	11.18421
593.425	10.89942
593.621	10.89292
593.817	12.6633
594.014	11.84991
594.21	12.46223
594.406	13.40964
594.603	12.95738
594.799	11.87373
594.995	10.38355
595.192	13.77937
595.388	12.0756
595.584	12.37782
595.78	11.42297
595.977	14.70656
596.173	14.52364
596.369	12.57126
596.565	11.70578
596.761	11.37209
596.957	13.97523
597.154	11.87998
597.35	12.26261
597.546	11.91766
597.742	13.5124
597.938	12.63129
598.134	11.72435
598.33	12.36305
598.526	13.88362
598.722	12.64949
598.918	14.37434
599.114	12.95618
599.31	11.22703
599.506	12.37585
599.702	11.58943
599.898	11.79261
600.094	13.49549
600.29	13.03682
600.485	13.38472
600.681	11.46366
600.877	14.64322
601.073	12.61324
601.269	14.39515
601.465	13.92906
601.66	11.33297
601.856	10.48758
602.052	14.2157
602.248	11.95816
602.443	10.79482
602.639	11.45833
602.835	11.68424
603.03	11.92315
603.226	13.58377
603.422	11.8036
603.617	12.30071
603.813	12.34601
604.009	12.40083
604.204	13.92357
604.4	11.17884
604.595	13.49185
604.791	11.75853
604.986	12.86404
605.182	11.87983
605.377	12.16232
605.573	11.89895
605.768	12.54005
605.964	13.44438
606.159	13.16077
606.355	13.62141
606.55	12.04897
606.746	13.88891
606.941	12.26176
607.136	14.72481
607.332	16.01309
607.527	11.18578
607.722	12.58828
607.918	12.47029
608.113	12.1574
608.308	13.86396
608.503	13.11334
608.699	13.29528
608.894	13.51462
609.089	11.92114
609.284	12.83023
609.479	12.20608
609.675	13.42088
609.87	12.36226
610.065	13.60243
610.26	13.78854
610.455	13.13896
610.65	12.32528
610.845	12.47453
611.04	13.44612
611.235	12.40918
611.43	12.11898
611.625	11.01624
611.82	14.1931
612.015	11.72794
612.21	14.25529
612.405	10.55091
612.6	14.50247
612.795	13.79799
612.99	13.2568
613.185	10.9916
613.38	11.68802
613.575	12.28501
613.77	15.63387
613.965	10.31292
614.159	11.70048
614.354	14.23894
614.549	13.77722
614.744	13.51715
614.938	11.16845
615.133	10.51423
615.328	14.66591
615.523	13.90417
615.717	16.00027
615.912	11.29268
616.107	12.62856
616.301	11.86886
616.496	11.9907
616.691	14.24947
616.885	13.54954
617.08	16.61385
617.274	13.66381
617.469	15.11992
617.664	13.54564
617.858	12.09418
618.053	13.46189
618.247	12.38493
618.442	9.4753
618.636	14.44325
618.831	11.57797
619.025	11.79239
619.219	16.05863
619.414	8.67262
619.608	12.65972
619.803	11.74806
619.997	15.37409
620.191	13.83763
620.386	12.84868
620.58	12.46461
620.774	10.58249
620.969	10.6338
621.163	12.64819
621.357	11.43537
621.551	11.70047
621.746	12.71136
621.94	11.76247
622.134	17.12475
622.328	15.81949
622.522	10.36382
622.716	13.45595
622.911	14.36258
623.105	13.79346
623.299	13.27189
623.493	16.82484
623.687	11.44566
623.881	11.92769
624.075	12.78891
624.269	14.87513
624.463	9.61527
624.657	10.56583
624.851	13.6032
625.045	13.86918
625.239	14.48951
625.433	12.60697
625.627	15.02811
625.821	11.80945
626.015	11.89175
626.209	13.14027
626.403	11.27952
626.596	13.60898
626.79	14.10726
626.984	11.44283
627.178	13.65383
627.372	13.898
627.565	14.06319
627.759	10.81639
627.953	11.41099
628.147	13.5971
628.34	13.39541
628.534	15.63351
628.728	12.42151
628.921	14.17548
629.115	13.15208
629.309	14.26474
629.502	14.3198
629.696	12.96355
629.89	12.66741
630.083	13.10336
630.277	13.6284
630.47	15.35636
630.664	12.5185
630.857	10.39786
631.051	13.84739
631.244	14.38622
631.438	13.93816
631.631	11.66499
631.825	15.5152
632.018	13.88984
632.212	15.40929
632.405	14.31006
632.598	11.73248
632.792	12.79991
632.985	9.4358
633.178	13.0618
633.372	12.76428
633.565	12.63134
633.758	15.28598
633.952	11.8409
634.145	10.91888
634.338	12.68952
634.531	11.72693
634.724	12.1405
634.918	12.6011
635.111	12.15458
635.304	12.00265
635.497	16.52331
635.69	12.89941
635.883	14.6342
636.077	11.05477
636.27	13.61646
636.463	13.10622
636.656	13.11285
636.849	12.66329
637.042	13.70745
637.235	15.26015
637.428	14.47816
637.621	14.79817
637.814	15.2132
638.007	15.55667
638.2	15.08217
638.393	15.84423
638.586	10.559
638.778	12.27538
638.971	12.73632
639.164	16.25785
639.357	13.488
639.55	15.8058
639.743	14.98568
639.935	14.06757
640.128	16.2684
640.321	14.76001
640.514	13.44748
640.707	17.55635
640.899	14.1498
641.092	10.24235
641.285	26.70114
641.477	9.30919
641.67	18.11558
641.863	15.37783
642.055	13.70273
642.248	13.1952
642.441	12.277
642.633	14.56652
642.826	16.18668
643.018	15.68527
643.211	17.67667
643.403	16.97386
643.596	17.95406
643.788	17.06913
643.981	13.62802
644.173	15.50876
644.366	13.80462
644.558	9.74502
644.751	15.89789
644.943	11.54821
645.135	16.90803
645.328	16.84925
645.52	14.08011
645.712	15.32956
645.905	19.47741
646.097	11.71633
646.289	14.32085
646.482	18.34793
646.674	12.78606
646.866	16.03813
647.058	15.25478
647.251	11.85807
647.443	12.42047
647.635	13.48031
647.827	11.2117
648.019	12.55289
648.211	13.95765
648.404	13.74868
648.596	17.40763
648.788	14.25996
648.98	13.81139
649.172	14.53035
649.364	14.77794
649.556	10.23157
649.748	19.58756
649.94	12.6569
650.132	14.89367
650.324	11.94544
650.516	13.09259
650.708	16.49706
650.9	11.15819
651.092	10.83194
651.284	11.41424
651.476	11.90693
651.667	15.053
651.859	16.21469
652.051	13.92942
652.243	13.81908
652.435	12.87031
652.627	15.10994
652.818	15.0597
653.01	11.05732
653.202	11.65484
653.394	12.93348
653.585	14.82717
653.777	23.191
653.969	16.63398
654.16	16.9612
654.352	11.44546
654.544	12.96045
654.735	15.44064
654.927	14.5529
655.118	17.15365
655.31	14.94718
655.502	16.97478
655.693	13.14609
655.885	15.48642
656.076	16.41751
656.268	14.68728
656.459	17.53098
656.651	17.2018
656.842	13.13204
657.034	12.87522
657.225	16.42616
657.416	17.2535
657.608	17.29831
657.799	14.58722
657.99	17.23646
658.182	14.2311
658.373	13.44579
658.564	16.24625
658.756	14.88335
658.947	14.74953
659.138	12.21115
659.33	13.55085
659.521	12.99134
659.712	14.30931
659.903	14.10939
660.094	13.20715
660.286	11.77759
660.477	17.87231
660.668	15.52771
660.859	13.61868
661.05	11.22756
661.241	15.61068
661.432	15.37411
661.623	13.40721
661.814	13.97766
662.006	11.20348
662.197	14.899
662.388	17.36305
662.579	15.1948
662.77	17.2763
662.96	20.90044
663.151	16.33771
663.342	11.10312
663.533	15.61428
663.724	15.23089
663.915	19.50833
664.106	13.90481
664.297	18.53482
664.488	16.34511
664.678	13.39961
664.869	16.5164
665.06	17.4738
665.251	15.27424
665.442	16.01075
665.632	11.23451
665.823	18.98266
666.014	8.13219
666.204	16.629
666.395	17.6834
666.586	21.28536
666.776	17.16751
666.967	19.25257
667.158	14.97803
667.348	17.72819
667.539	12.58361
667.729	17.0599
667.92	13.25401
668.111	17.32536
668.301	16.30651
668.492	14.86491
668.682	15.75148
668.873	14.88844
669.063	12.6468
669.253	15.60499
669.444	16.78441
669.634	14.89743
669.825	20.01895
670.015	18.44612
670.206	12.52355
670.396	19.4871
670.586	15.30307
670.777	16.16627
670.967	10.39954
671.157	14.02624
671.347	13.61859
671.538	18.39108
671.728	16.27702
671.918	20.73468
672.108	17.75948
672.299	14.22206
672.489	16.65453
672.679	13.66823
672.869	16.17403
673.059	20.75953
673.249	16.5907
673.44	12.12067
673.63	15.52603
673.82	18.32216
674.01	12.9413
674.2	17.18373
674.39	22.96818
674.58	17.82853
674.77	15.71964
674.96	15.32786
675.15	26.60195
675.34	19.0746
675.53	16.22898
675.72	15.03734
675.91	11.91732
676.099	21.15353
676.289	22.08108
676.479	18.3384
676.669	14.79792
676.859	16.79393
677.049	12.76945
677.238	16.58834
677.428	22.14876
677.618	17.47404
677.808	19.62997
677.997	19.4319
678.187	13.5554
678.377	16.19374
678.567	14.6587
678.756	14.36405
678.946	15.50629
679.136	12.68342
679.325	14.54443
679.515	13.97262
679.704	13.21225
679.894	17.87834
680.084	16.65991
680.273	18.71026
680.463	14.06571
680.652	13.74358
680.842	15.59724
681.031	18.59778
681.221	14.24418
681.41	17.84835
681.6	15.22364
681.789	17.94911
681.978	19.47819
682.168	17.25924
682.357	16.44343
682.547	17.97523
682.736	16.53012
682.925	19.6076
683.115	19.16152
683.304	18.57669
683.493	16.84153
683.682	17.66896
683.872	18.34289
684.061	19.70335
684.25	17.9416
684.439	22.09429
684.629	18.4128
684.818	26.93884
685.007	16.73411
685.196	15.16153
685.385	21.69514
685.574	17.84151
685.763	18.05051
685.952	17.91794
686.142	13.4635
686.331	21.46169
686.52	11.79555
686.709	21.90737
686.898	21.80311
687.087	18.71216
687.276	21.87226
687.465	20.46052
687.654	17.48238
687.842	22.79011
688.031	14.05984
688.22	21.92062
688.409	18.23927
688.598	18.22044
688.787	25.92581
688.976	18.67849
689.165	23.83255
689.353	16.01342
689.542	19.25273
689.731	21.03917
689.92	23.59076
690.108	20.87761
690.297	16.76366
690.486	18.6291
690.675	20.84688
690.863	23.34599
691.052	22.99338
691.241	18.32284
691.429	18.99467
691.618	24.02273
691.806	14.22886
691.995	16.76123
692.184	18.24522
692.372	17.60887
692.561	19.53168
692.749	18.56486
692.938	27.55602
693.126	21.30315
693.315	19.62467
693.503	21.56838
693.692	21.36316
693.88	22.67124
694.068	26.34246
694.257	18.67836
694.445	20.35174
694.634	11.53368
694.822	23.40015
695.01	23.68651
695.199	24.02778
695.387	24.14314
695.575	23.23464
695.763	18.44467
695.952	16.83943
696.14	14.5856
696.328	17.81813
696.516	19.41045
696.705	20.32302
696.893	19.83592
697.081	12.86626
697.269	21.87559
697.457	15.68452
697.645	15.07169
697.833	22.07632
698.021	16.72784
698.21	17.17359
698.398	18.55953
698.586	15.74508
698.774	15.67171
698.962	17.75959
699.15	15.86008
699.338	13.68626
699.526	19.71285
699.714	16.91507
699.901	16.25694
700.089	21.69128
700.277	16.97021
700.465	18.02733
700.653	21.43626
700.841	19.98704
701.029	16.4553
701.217	24.79845
701.404	20.15452
701.592	24.51372
701.78	25.3971
701.968	18.14882
702.155	18.68208
702.343	13.47302
702.531	23.51756
702.718	20.41941
702.906	19.47761
703.094	17.15473
703.281	25.00043
703.469	20.65353
703.657	24.44181
703.844	31.4432
704.032	26.62507
704.219	17.26746
704.407	21.67758
704.595	24.54306
704.782	20.7137
704.97	19.29316
705.157	19.52072
705.345	26.08994
705.532	31.38913
705.719	22.63212
705.907	25.58466
706.094	21.09182
706.282	26.92521
706.469	19.74737
706.656	21.1967
706.844	19.30818
707.031	25.09148
707.218	21.49283
707.406	27.86595
707.593	24.04918
707.78	24.2204
707.968	20.31746
708.155	18.19546
708.342	23.63794
708.529	22.73232
708.716	21.39772
708.904	28.47081
709.091	23.9043
709.278	15.75315
709.465	29.97443
709.652	29.46955
709.839	27.57617
710.026	22.35835
710.213	15.63231
710.4	23.61102
710.587	24.98965
710.774	27.09905
710.961	26.55629
711.148	22.77995
711.335	26.75617
711.522	21.14173
711.709	24.08726
711.896	31.82867
712.083	26.11664
712.27	18.86375
712.457	23.21842
712.644	16.46611
712.831	31.21385
713.017	22.18658
713.204	25.75235
713.391	20.60954
713.578	27.10198
713.765	28.60049
713.951	25.33955
714.138	37.06292
714.325	25.35904
714.512	23.5915
714.698	19.01613
714.885	30.34685
715.072	25.17459
715.258	23.6841
715.445	20.94959
715.631	29.49956
715.818	12.17288
716.005	20.8297
716.191	25.91833
716.378	21.99011
716.564	27.84523
716.751	19.64567
716.937	21.92356
717.124	28.85069
717.31	19.6596
717.497	31.00812
717.683	20.7074
717.869	33.48871
718.056	21.84207
718.242	25.69412
718.429	21.87387
718.615	19.03931
718.801	24.34098
718.988	28.82399
719.174	26.10057
719.36	25.40964
719.547	29.70033
719.733	26.75633
719.919	26.93675
720.105	28.88698
720.291	24.27247
720.478	25.19967
720.664	24.27826
720.85	22.84927
721.036	38.67007
721.222	33.87924
721.408	24.52579
721.595	36.48057
721.781	33.82607
721.967	30.38308
722.153	35.09392
722.339	28.29446
722.525	26.77346
722.711	19.14507
722.897	18.92459
723.083	22.5405
723.269	30.93564
723.455	39.50274
723.641	41.06554
723.827	25.62114
724.012	29.74926
724.198	23.24551
724.384	33.46238
724.57	28.99767
724.756	17.22178
724.942	15.0266
725.127	29.71931
725.313	32.62549
725.499	33.11895
725.685	36.71416
725.87	27.29502
726.056	22.33674
726.242	34.72904
726.428	18.37776
726.613	31.86584
726.799	24.58112
726.985	20.77981
727.17	16.93741
727.356	36.02997
727.541	20.04889
727.727	25.88441
727.913	31.76293
728.098	23.68641
728.284	30.13883
728.469	19.47471
728.655	22.64199
728.84	31.06893
729.026	31.15895
729.211	30.46895
729.397	29.33933
729.582	30.12184
729.767	26.54624
729.953	28.37948
730.138	32.13434
730.323	15.14349
730.509	20.94528
730.694	35.98711
730.879	30.09651
731.065	26.36641
731.25	39.40791
731.435	31.33838
731.621	18.47872
731.806	23.86151
731.991	28.29621
732.176	19.58694
732.361	34.06892
732.547	30.18631
732.732	17.79322
732.917	40.42267
733.102	20.55419
733.287	21.79472
733.472	26.09973
733.657	28.14467
733.842	19.34009
734.027	23.82918
734.212	26.19624
734.397	22.31172
734.582	27.82262
734.767	32.02517
734.952	34.14232
735.137	12.13817
735.322	34.93473
735.507	29.01508
735.692	28.1981
735.877	41.7272
736.062	39.21357
736.247	28.58334
736.431	25.81572
736.616	34.08257
736.801	28.60878
736.986	27.55218
737.171	22.02802
737.355	19.07953
737.54	36.62851
737.725	28.26082
737.909	45.58823
738.094	25.73814
738.279	34.62161
738.463	26.21653
738.648	32.47786
738.833	30.8909
739.017	40.09909
739.202	24.63862
739.386	27.05088
739.571	20.86697
739.756	32.66438
739.94	28.34453
740.125	32.79952
740.309	23.25096
740.494	33.00047
740.678	26.06723
740.863	31.63129
741.047	30.13902
741.231	37.32398
741.416	23.85657
741.6	37.31337
741.785	22.90061
741.969	33.49792
742.153	37.00433
742.338	14.41508
742.522	29.31084
742.706	34.00578
742.89	18.19093
743.075	28.93636
743.259	36.91411
743.443	34.13183
743.627	38.99583
743.812	45.25723
743.996	12.10372
744.18	26.26851
744.364	25.65758
744.548	47.06128
744.732	25.87999
744.916	35.14839
745.1	32.71734
745.285	28.4875
745.469	32.21518
745.653	40.9567
745.837	18.24355
746.021	48.60782
746.205	40.16318
746.389	31.50095
746.573	27.89043
746.757	42.90512
746.94	28.0443
747.124	39.17123
747.308	20.70287
747.492	38.01343
747.676	24.80074
747.86	47.86504
748.044	27.20584
748.227	15.4125
748.411	57.84186
748.595	31.80162
748.779	22.23235
748.963	33.34469
749.146	32.61026
749.33	24.91556
749.514	21.66325
749.697	37.25823
749.881	27.53626
750.065	21.49879
750.248	29.81427
750.432	49.92973
750.616	32.8668
750.799	18.32442
750.983	46.5082
751.166	51.41672
751.35	17.12671
751.533	34.67549
751.717	40.82961
751.9	42.5188
752.084	25.7251
752.267	21.09862
752.451	24.3857
752.634	31.51965
752.818	35.03066
753.001	37.72602
753.184	37.89064
753.368	35.81775
753.551	6.43503
753.734	24.63655
753.918	47.2864
754.101	24.21498
754.284	35.12607
754.467	27.55818
754.651	27.30341
754.834	23.84059
755.017	40.11581
755.2	38.32183
755.384	20.97938
755.567	38.39305
755.75	39.30227
755.933	27.37883
756.116	32.83075
756.299	24.92119
756.482	22.65394
756.665	35.67843
756.848	32.65043
757.032	32.38311
757.215	16.94146
757.398	22.10057
757.581	23.94529
757.764	53.25393
757.947	30.60294
758.129	41.14132
758.312	8.28388
758.495	28.45497
758.678	28.2624
758.861	28.36785
759.044	48.24596
759.227	22.77893
759.41	24.74291
759.592	34.61536
759.775	30.60922
759.958	40.6204
760.141	20.68751
760.324	50.31816
760.506	44.16717
760.689	38.11966
760.872	50.87355
761.054	34.56688
761.237	28.02307
761.42	33.04964
761.602	38.73791
761.785	34.11111
761.968	39.53738
762.15	44.87249
762.333	30.10671
762.515	33.03525
762.698	26.69828
762.88	38.10521
763.063	33.12496
763.245	37.11895
763.428	24.39216
763.61	24.5043
763.793	21.2927
763.975	32.80574
764.158	27.45827
764.34	26.74147
764.522	23.98601
764.705	29.17419
764.887	41.49051
765.069	19.11968
765.252	34.61653
765.434	36.24069
765.616	31.55235
765.799	26.33747
765.981	35.51588
766.163	26.31582
766.345	39.44229
766.528	24.62355
766.71	12.85513
766.892	30.91264
767.074	40.9082
767.256	29.38414
767.438	46.90767
767.62	34.79648
767.802	52.35472
767.985	37.00201
768.167	46.49851
768.349	27.86333
768.531	38.47224
768.713	33.11718
768.895	38.724
769.077	36.56859
769.259	58.6895
769.441	82.76261
769.623	39.08343
769.804	49.34921
769.986	49.33698
770.168	57.48148
770.35	68.45727
770.532	51.70944
770.714	52.20036
770.896	54.62807
771.077	18.66892
771.259	61.98105
771.441	47.66427
771.623	67.03695
771.804	80.59998
771.986	21.5745
772.168	37.66326
772.35	60.83709
772.531	77.42349
772.713	49.9206
772.894	65.9758
773.076	45.76848
773.258	36.85326
773.439	67.78045
773.621	70.69839
773.802	29.76569
773.984	44.94064
774.166	54.79759
774.347	74.70994
774.529	62.84549
774.71	17.81208
774.891	43.456
775.073	45.96477
775.254	69.91127
775.436	36.60016
775.617	75.87639
775.799	38.60735
775.98	72.50197
776.161	75.44758
776.343	72.07533
776.524	46.21303
776.705	43.20399
776.886	24.54797
777.068	54.30048
777.249	92.61053
777.43	82.80704
777.611	32.37474
777.793	46.80778
777.974	75.44654
778.155	40.90642
778.336	33.05758
778.517	81.5374
778.698	37.58458
778.879	23.26091
779.061	7.90994
779.242	54.35446
779.423	53.46418
779.604	37.8052
779.785	42.74266
779.966	52.89775
780.147	65.01441
780.328	66.24607
780.509	94.73916
780.69	62.51378
780.871	38.42076
781.051	27.62256
781.232	53.23979
781.413	50.66488
781.594	42.67483
781.775	40.44382
781.956	37.50587
782.137	20.91999
782.317	37.62638
782.498	51.22955
782.679	51.40241
782.86	49.69231
783.04	39.01628
783.221	50.72493
783.402	83.46421
783.583	47.8758
783.763	61.96064
783.944	43.70769
784.124	25.79911
784.305	76.34312
784.486	55.17926
784.666	45.11664
784.847	23.91017
785.027	93.40819
785.208	35.06107
785.388	38.37889
785.569	37.8699
785.749	41.61138
785.93	42.2961
786.11	26.89676
786.291	55.31617
786.471	51.98807
786.652	60.43771
786.832	48.15778
787.012	55.56535
787.193	27.18957
787.373	48.49593
787.553	44.94927
787.734	53.60729
787.914	44.18565
788.094	57.01097
788.275	55.04147
788.455	41.21798
788.635	31.79296
788.815	51.34537
788.995	33.51532
789.176	25.30522
789.356	33.47718
789.536	41.88968
789.716	52.20342
789.896	36.98051
790.076	39.46254
790.256	50.54255
790.436	15.57294
790.616	31.91574
790.796	53.94378
790.976	41.5789
791.156	37.42196
791.336	60.72111
791.516	52.70318
791.696	45.89935
791.876	28.88822
792.056	48.34992
792.236	63.60992
792.416	58.68834
792.596	56.72175
792.776	54.90905
792.956	57.13487
793.135	73.88285
793.315	30.75383
793.495	69.42982
793.675	56.60047
793.854	59.78408
794.034	61.32335
794.214	31.94485
794.394	58.90867
794.573	66.38676
794.753	48.32938
794.933	32.83308
795.112	51.25463
795.292	62.60122
795.472	76.91274
795.651	28.71778
795.831	46.01943
796.01	44.66457
796.19	43.54681
796.369	45.20653
796.549	55.58185
796.728	42.89644
796.908	29.63867
797.087	32.79072
797.267	45.78178
797.446	30.37272
797.626	56.24312
797.805	57.73152
797.984	36.39186
798.164	55.95
798.343	34.15363
798.522	49.09674
798.702	49.22588
798.881	28.40726
799.06	42.08638
799.239	19.52175
799.419	31.00095
799.598	76.01284
799.777	57.04384
799.956	65.08425
800.136	43.12507
800.315	37.57432
800.494	51.7848
800.673	64.70881
800.852	57.62605
801.031	68.74972
801.21	57.17437
801.389	39.71814
801.568	51.12696
801.747	78.66905
801.926	45.24928
802.105	69.74032
802.284	39.95766
802.463	73.60261
802.642	48.85569
802.821	53.98848
803	70.64735
803.179	62.57437
803.358	69.73832
803.537	42.19907
803.716	54.76513
803.895	38.01272
804.073	48.6309
804.252	34.71289
804.431	54.59361
804.61	45.71647
804.789	66.34405
804.967	38.59442
805.146	40.39515
805.325	86.22305
805.503	54.81418
805.682	26.78089
805.861	91.58892
806.039	71.07488
806.218	37.18423
806.397	51.69773
806.575	50.00364
806.754	55.84859
806.932	35.742
807.111	75.16545
807.289	66.40695
807.468	49.42405
807.646	66.12596
807.825	59.92627
808.003	51.89031
808.182	61.4609
808.36	52.01976
808.539	33.4934
808.717	76.99004
808.895	35.86857
809.074	57.59387
809.252	46.15699
809.43	64.02384
809.609	77.724
809.787	80.29753
809.965	44.1234
810.144	51.7963
810.322	46.94339
810.5	57.62859
810.678	45.98136
810.856	95.80235
811.035	72.18214
811.213	69.10912
811.391	69.77389
811.569	55.96986
811.747	108.82526
811.925	70.40344
812.103	36.78117
812.281	47.99408
812.459	92.55984
812.637	92.30589
812.816	69.57479
812.994	97.14667
813.171	73.1978
813.349	65.1517
813.527	78.58523
813.705	71.26592
813.883	95.32193
814.061	68.02789
814.239	91.20282
814.417	103.4679
814.595	66.21399
814.773	63.12298
814.95	57.50113
815.128	62.36725
815.306	61.52558
815.484	56.21412
815.662	39.6854
815.839	36.0224
816.017	45.89168
816.195	71.03773
816.372	49.66146
816.55	72.05318
816.728	86.81899
816.905	60.08112
817.083	84.612
817.261	56.80681
817.438	104.43423
817.616	94.63621
817.793	42.06963
817.971	73.8585
818.148	68.18308
818.326	76.65384
818.503	66.18639
818.681	82.59593
818.858	48.14433
819.036	59.16905
819.213	56.12253
819.391	43.68641
819.568	43.65306
819.745	37.39827
819.923	68.06717
820.1	46.66238
820.277	40.44559
820.455	48.19128
820.632	48.64088
820.809	50.67551
820.986	33.01309
821.164	29.16099
821.341	25.65249
821.518	34.65251
821.695	28.83342
821.872	27.23122
822.05	25.33604
822.227	20.86723
822.404	22.42351
822.581	24.05633
822.758	22.29504
822.935	22.02975
823.112	24.82344
823.289	21.86097
823.466	24.53473
823.643	23.31964
823.82	26.99409
823.997	24.57871
824.174	28.99536
824.351	35.06716
824.528	34.81326
824.705	32.44217
824.882	34.77787
825.059	44.00766
825.236	32.10556
825.412	32.88085
825.589	38.88594
825.766	52.97617
825.943	34.18314
826.12	40.08576
826.296	30.15193
826.473	35.68253
826.65	36.65505
826.827	42.90713
827.003	29.82045
827.18	32.79007
827.357	36.32189
827.533	31.56896
827.71	20.14096
827.887	28.10255
828.063	32.38057
828.24	28.65784
828.416	36.91777
828.593	30.06384
828.769	42.48072
828.946	46.93516
829.122	49.18978
829.299	45.8724
829.475	24.84645
829.652	45.17219
829.828	71.51139
830.005	46.83235
830.181	58.37218
830.357	44.92789
830.534	67.32079
830.71	52.29299
830.886	64.57501
831.063	62.25845
831.239	73.77781
831.415	34.80636
831.592	83.08797
831.768	52.74347
831.944	39.19713
832.12	79.74769
832.296	70.08137
832.473	62.01217
832.649	41.84162
832.825	60.33348
833.001	34.24712
833.177	53.63493
833.353	48.32582
833.529	27.65204
833.705	42.59357
833.881	29.69888
834.058	29.61397
834.234	32.57223
834.41	34.03239
834.586	27.44295
834.761	31.62435
834.937	33.98725
835.113	35.9373
835.289	30.5586
835.465	38.957
835.641	32.4261
835.817	37.6905
835.993	68.0241
836.169	34.17106
836.344	46.30273
836.52	57.07847
836.696	57.80697
836.872	37.08919
837.048	115.37488
837.223	41.84011
837.399	99.13561
837.575	74.65823
837.75	69.7871
837.926	100.93295
838.102	156.25185
838.277	108.43454
838.453	164.22482
838.628	160.88795
838.804	48.23187
838.98	157.40914
839.155	70.7162
839.331	103.99015
839.506	68.26254
839.682	71.77854
839.857	82.8237
840.033	101.03517
840.208	50.99322
840.384	24.0535
840.559	47.34183
840.734	75.85323
840.91	109.36907
841.085	67.44397
841.26	64.49538
841.436	59.35253
841.611	57.9335
841.786	91.18371
841.962	130.24695
842.137	81.2584
842.312	46.02138
842.487	70.39936
842.663	65.96269
842.838	74.67898
843.013	263.0647
843.188	123.71115
843.363	110.85883
843.538	220.63379
843.714	227.4889
843.889	227.17502
844.064	196.63526
844.239	165.47115
844.414	249.88039
844.589	169.91197
844.764	260.01151
844.939	280.46564
845.114	259.41401
845.289	301.32803
845.464	356.13838
845.639	259.49079
845.814	157.65458
845.989	185.81918
846.163	203.78268
846.338	256.24762
846.513	320.82321
846.688	217.56713
846.863	221.1623
847.038	157.08092
847.212	188.82976
847.387	229.28902
847.562	224.58832
847.737	306.69374
847.911	113.94027
848.086	144.9215
848.261	319.82578
848.435	186.75756
848.61	279.16299
848.785	159.34217
848.959	299.45223
849.134	297.42683
849.308	632.03037
849.483	221.44499
849.658	336.97267
849.832	195.23888
850.007	128.86653
850.181	497.02461
850.356	231.74117
850.53	401.32201
850.705	134.21778
850.879	91.20225
851.053	179.65576
851.228	224.47181
851.402	304.86871
851.577	293.61253
851.751	391.02161
851.925	197.87496
852.099	89.03622
852.274	155.27451
852.448	208.9252
852.622	300.14178
852.797	212.09509
852.971	229.88912
853.145	245.89944
853.319	466.27494
853.493	445.30461
853.668	231.23359
853.842	510.24423
854.016	361.43052
854.19	461.92907
854.364	235.79017
854.538	307.56152
854.712	319.08499
854.886	202.83468
855.06	231.1416
855.234	90.53693
855.408	361.7376
855.582	324.06812
855.756	492.15518
855.93	371.1492
856.104	310.19862
856.278	336.90728
856.452	215.20733
856.626	251.21696
856.8	478.98568
856.973	387.09059
857.147	347.65439
857.321	307.01149
857.495	344.35742
857.669	272.33373
857.842	259.64073
858.016	396.49413
858.19	163.04574
858.364	513.2298
858.537	236.37983
858.711	330.89353
858.885	241.01613
859.058	177.70585
859.232	126.26986
859.405	106.9536
859.579	330.57134
859.753	383.83231
859.926	180.45967
860.1	137.01249
860.273	285.48634
860.447	377.79979
860.62	225.24711
860.794	520.03773
860.967	231.04014
861.141	299.78595
861.314	485.68437
861.487	290.69252
861.661	367.13881
861.834	518.0354
862.008	331.43392
862.181	318.33036
862.354	252.46609
862.528	427.24821
862.701	234.06553
862.874	125.76965
863.047	201.59948
863.221	169.61982
863.394	89.20139
863.567	297.79173
863.74	91.82611
863.913	320.2255
864.087	298.93039
864.26	358.25565
864.433	221.75727
864.606	495.7011
864.779	307.80838
864.952	116.49647
865.125	249.53835
865.298	272.47573
865.471	290.35268
865.644	427.62535
865.817	344.58186
865.99	379.85284
866.163	413.897
866.336	178.01596
866.509	291.81273
866.682	269.00939
866.855	464.69587
867.028	134.07246
867.2	252.5076
867.373	68.44378
867.546	247.88928
867.719	491.37051
867.892	363.13076
868.064	187.3166
868.237	244.95542
868.41	245.258
868.583	151.94915
868.755	166.13925
868.928	226.10501
869.101	542.02549
869.273	391.49588
869.446	280.59371
869.619	418.58865
869.791	331.02675
869.964	405.33541
870.136	443.48475
870.309	209.54242
870.481	293.34277
870.654	122.93661
870.826	247.72387
870.999	193.57345
871.171	370.89875
871.344	162.24881
871.516	217.22946
871.689	157.19864
871.861	260.89796
872.033	172.96605
872.206	228.40717
872.378	279.46761
872.55	241.14813
872.723	151.09443
872.895	218.5254
873.067	326.64123
873.24	281.76111
873.412	198.20168
873.584	209.19809
873.756	212.8657
873.928	244.43246
874.101	240.82204
874.273	285.62411
874.445	98.05051
874.617	131.53168
874.789	215.27501
874.961	200.2946
875.133	257.5125
875.305	248.12567
875.477	144.18342
875.649	111.17165
875.821	148.08934
875.993	335.55891
876.165	214.32222
876.337	251.04474
876.509	221.75058
876.681	232.50627
876.853	221.26292
877.025	254.28742
877.197	171.73082
877.369	138.7973
877.541	268.0351
877.712	69.6611
877.884	137.57219
878.056	244.94625
878.228	130.01675
878.4	273.91119
878.571	136.83713
878.743	80.80295
878.915	191.33713
879.086	112.64325
879.258	132.51403
879.43	118.38244
879.601	107.81163
879.773	105.18911
879.945	26.6103
880.116	43.6989
880.288	27.834
880.459	31.35941
880.631	26.78137
880.802	29.60126
880.974	29.4548
881.145	21.75427
881.317	28.66675
881.488	23.92308
881.66	25.43844
881.831	23.49405
882.002	29.19354
882.174	23.23877
882.345	28.7301
882.517	18.1277
882.688	34.00566
882.859	27.13774
883.03	42.11707
883.202	40.89395
883.373	37.48718
883.544	35.62895
883.715	58.57687
883.887	49.55338
884.058	40.86185
884.229	61.14602
884.4	62.06684
884.571	73.55177
884.742	62.54055
884.914	64.44399
885.085	96.30502
885.256	130.95573
885.427	99.92715
885.598	128.11986
885.769	126.32167
885.94	130.26751
886.111	77.41294
886.282	142.6743
886.453	117.7921
886.624	99.49988
886.795	156.27644
886.966	128.99461
887.136	168.81599
887.307	112.97409
887.478	210.36549
887.649	184.14972
887.82	202.77524
887.991	162.3286
888.161	251.39312
888.332	219.81268
888.503	127.59521
888.674	298.47471
888.844	346.33679
889.015	359.68341
889.186	150.52904
889.356	319.0056
889.527	152.34903
889.698	525.97336
889.868	207.59597
890.039	324.29584
890.209	205.39235
890.38	281.12127
890.551	271.85366
890.721	356.61884
890.892	331.98534
891.062	308.08167
891.233	339.2225
891.403	285.98608
891.574	170.72231
891.744	185.31408
891.914	230.58825
892.085	377.98491
892.255	74.996
892.425	315.88687
892.596	195.51769
892.766	272.21092
892.936	395.4451
893.107	243.87943
893.277	121.1017
893.447	99.76388
893.618	62.09989
893.788	148.77669
893.958	83.26259
894.128	69.74015
894.298	84.34345
894.468	112.40224
894.639	52.36842
894.809	34.00806
894.979	57.69839
895.149	67.84579
895.319	54.25527
895.489	68.24195
895.659	97.26136
895.829	63.84566
895.999	67.53829
896.169	54.86108
896.339	68.41591
896.509	130.80825
896.679	157.79289
896.849	173.55379
897.019	245.18801
897.189	229.38275
897.358	174.35266
897.528	272.62488
897.698	123.57039
897.868	262.96462
898.038	555.68936
898.208	471.23984
898.377	141.30004
898.547	763.65485
898.717	804.28645
898.886	335.87495
899.056	581.67423
899.226	891.3228
899.395	650.17026
899.565	724.51733
899.735	468.85549
899.904	649.08411
900.074	881.04251
900.244	263.89349
900.413	1671.16157
900.583	284.24273
900.752	3259.76047
900.922	588.46178
901.091	120.16104
901.261	658.6206
901.43	509.93174
901.599	663.02689
901.769	1450.5574
901.938	667.94706
902.108	659.2478
902.277	725.34812
902.446	218.88743
902.616	294.08287
902.785	434.56533
902.954	536.19828
903.124	296.1113
903.293	211.39531
903.462	96.9817
903.631	151.4674
903.801	97.55307
903.97	51.16355
904.139	87.80418
904.308	69.03567
904.477	55.46285
904.646	33.67461
904.816	49.59652
904.985	71.806
905.154	109.06555
