Data from WindowProjectSample_Transmission__60__00060.txt Node

Date: Sat May 03 16:59:52 EDT 2025
User: jessi
Spectrometer: SR400872
Trigger mode: 0
Integration Time (sec): 5.000010E-1
Scans to average: 6
Electric dark correction enabled: true
Nonlinearity correction enabled: true
Boxcar width: 0
XAxis mode: Wavelengths
Number of Pixels in Spectrum: 3648
>>>>>Begin Spectral Data<<<<<
184.909	172492.98211
185.132	1630.36414
185.355	-2070.1974
185.578	3329.94788
185.801	-633.79258
186.024	6287.63558
186.247	892.40018
186.47	769.16283
186.693	-202.31215
186.916	335.11829
187.139	10641.36891
187.362	3281.49672
187.585	2584.09588
187.808	-1666.94418
188.031	89.27594
188.254	8346.26272
188.476	481.24264
188.699	-4337.59467
188.922	-479.12011
189.145	-4130.61148
189.368	-508.52644
189.591	-953.71904
189.813	-2196.08963
190.036	5000.40421
190.259	3581.59972
190.482	2269.6739
190.705	8519.71685
190.927	-1663.27788
191.15	-1658.96851
191.373	4815.1489
191.595	-1865.78029
191.818	9335.26718
192.041	-249.81602
192.263	-2268.46624
192.486	-884.88665
192.709	9067.69699
192.931	-2624.45313
193.154	-2003.67772
193.377	4518.29996
193.599	5802.88983
193.822	-1909.76145
194.044	-1799.44835
194.267	650.88615
194.489	-48.48113
194.712	2138.07659
194.934	3581.25815
195.157	-7997.20806
195.379	1971.14663
195.602	5252.05445
195.824	5511.5875
196.047	-9452.49441
196.269	-11029.23972
196.492	-1203.42585
196.714	-5278.5946
196.936	4463.87896
197.159	-2263.28636
197.381	-518.7791
197.604	1078.53637
197.826	-3505.74061
198.048	-1387.09496
198.271	-12380.59275
198.493	9948.75349
198.715	-2560.9138
198.938	-951.04478
199.16	-4039.72445
199.382	1785.28873
199.604	-1544.21008
199.827	-1283.41722
200.049	-4621.64863
200.271	2348.01413
200.493	-26983.16612
200.715	4914.39635
200.938	12699.1223
201.16	-218037.97575
201.382	-6096.81492
201.604	-1152.45727
201.826	-6707.97546
202.048	-6644.41563
202.27	-4688.30043
202.492	-3743.66277
202.715	-1352.43421
202.937	-3708.32385
203.159	1145.59246
203.381	-97849.64156
203.603	-985.86515
203.825	-1288.38227
204.047	2279.61439
204.269	-947.2394
204.491	6876.58744
204.713	-8602.42737
204.935	38939.85135
205.156	1942.35909
205.378	-6998.58632
205.6	-1713.57142
205.822	6242.44562
206.044	-272.98161
206.266	-2122.20404
206.488	788.95019
206.71	-504073.59323
206.932	-16398.61398
207.153	11762.43206
207.375	-2196.56047
207.597	15648.15222
207.819	1703.30661
208.041	6407.54185
208.262	624.4332
208.484	-960.33658
208.706	-982.61435
208.927	11352.51605
209.149	-8814.33996
209.371	-2621.80644
209.593	-2153.11124
209.814	-3575.73186
210.036	2258.20709
210.258	-652.2422
210.479	1967.91779
210.701	829.55494
210.922	4149.6444
211.144	-1433.45806
211.366	5778.89637
211.587	-661.45656
211.809	-3749.26588
212.03	-2328.58212
212.252	-478.98559
212.473	2802.90579
212.695	-807.59305
212.916	-915.66599
213.138	638.12135
213.359	-1243.6999
213.581	-3392.05356
213.802	-1251.58477
214.024	10741.47161
214.245	-1004.06073
214.466	-125.98275
214.688	-3691.42114
214.909	-813.91522
215.131	9038.70038
215.352	-1225.97029
215.573	-247358.44955
215.795	4378.09103
216.016	-3873.29999
216.237	-553.8922
216.459	-11350.2509
216.68	-1703.46674
216.901	-1677.3693
217.122	1760.42977
217.344	-8731.38205
217.565	-1678.26292
217.786	23556.35092
218.007	972.18789
218.228	-4344.26955
218.45	-5904.14315
218.671	-1653.96205
218.892	872.27216
219.113	1799.66718
219.334	279.02687
219.555	-6137.13314
219.776	33682.24791
219.997	-6932.23369
220.219	-9393.73043
220.44	-5356.94587
220.661	-1300.50821
220.882	13140.77796
221.103	-766.87843
221.324	2361.61509
221.545	-6341.18443
221.766	-1482.77404
221.987	-451.90615
222.208	1792.5063
222.429	6623.6345
222.65	-181.44037
222.87	-722.79915
223.091	40275.65322
223.312	824.30575
223.533	-1966.10166
223.754	3686.2766
223.975	1680.88506
224.196	-802.41431
224.417	-30790.6954
224.637	-2633.50433
224.858	428.11319
225.079	3652.93379
225.3	1644.75746
225.521	3633.77162
225.741	-2345.23505
225.962	1584.9236
226.183	838.86403
226.404	1914.21438
226.624	1790.96281
226.845	1401.59381
227.066	2536.55929
227.286	643.95815
227.507	405.25291
227.728	381.53487
227.948	530.68853
228.169	128.50853
228.389	127.98514
228.61	54.43014
228.831	88.76129
229.051	9.4112
229.272	48.2051
229.492	63.58335
229.713	21.9842
229.933	47.67541
230.154	40.69995
230.374	68.08147
230.595	57.93211
230.815	37.65176
231.036	53.915
231.256	-12.68354
231.477	118.41772
231.697	62.19126
231.917	69.57268
232.138	83.14645
232.358	181.73927
232.579	182.57713
232.799	32.76534
233.019	159.87318
233.24	242.79668
233.46	69.56907
233.68	112.28585
233.901	97.19175
234.121	49.28322
234.341	15.3269
234.561	-8.09556
234.782	34.35671
235.002	123.1195
235.222	1.76284
235.442	90.67493
235.662	42.77949
235.883	107.86041
236.103	86.56876
236.323	69.96573
236.543	51.16173
236.763	71.56855
236.983	74.51797
237.203	72.98584
237.423	104.87891
237.643	149.35054
237.864	145.82917
238.084	36.15038
238.304	56.52868
238.524	81.5087
238.744	71.41436
238.964	114.40234
239.184	101.43586
239.404	103.88645
239.624	51.3735
239.843	96.2031
240.063	56.0039
240.283	36.59158
240.503	36.59749
240.723	35.1323
240.943	20.08463
241.163	26.47167
241.383	17.90718
241.603	9.1821
241.822	12.56486
242.042	8.82473
242.262	9.71929
242.482	11.20705
242.702	13.91745
242.921	4.34342
243.141	10.46839
243.361	8.51285
243.581	12.55597
243.8	11.17542
244.02	7.20828
244.24	14.04551
244.459	13.80475
244.679	26.17963
244.899	17.31432
245.118	19.81157
245.338	16.80065
245.558	22.38009
245.777	11.96285
245.997	13.06526
246.216	13.89251
246.436	7.606
246.655	5.37208
246.875	4.60771
247.094	7.82604
247.314	2.85336
247.533	4.61694
247.753	5.87803
247.972	4.63325
248.192	1.77795
248.411	2.75833
248.631	4.82936
248.85	7.08493
249.07	5.03027
249.289	8.74036
249.508	6.57858
249.728	10.15973
249.947	11.31868
250.166	12.72352
250.386	6.30046
250.605	9.28846
250.824	15.71751
251.044	10.53944
251.263	36.28819
251.482	19.20076
251.701	16.47634
251.921	0.04814
252.14	6.44742
252.359	6.87752
252.578	14.3244
252.798	5.4881
253.017	12.97644
253.236	7.04166
253.455	8.24674
253.674	16.99716
253.893	8.13624
254.112	12.06109
254.331	17.21185
254.551	13.95048
254.77	8.77252
254.989	21.93454
255.208	18.2796
255.427	21.46588
255.646	20.21018
255.865	33.11138
256.084	12.3066
256.303	15.20899
256.522	20.38165
256.741	4.82952
256.96	5.41113
257.179	14.56139
257.397	16.14308
257.616	8.49818
257.835	8.83297
258.054	21.85777
258.273	12.48692
258.492	15.80132
258.711	8.89531
258.93	4.35673
259.148	5.88118
259.367	5.81894
259.586	7.33242
259.805	3.47587
260.023	6.41443
260.242	5.0171
260.461	3.7456
260.68	2.19569
260.898	5.71385
261.117	2.28483
261.336	1.79365
261.554	5.00711
261.773	5.4184
261.992	1.17527
262.21	4.97384
262.429	6.49358
262.648	10.40064
262.866	11.56456
263.085	7.49972
263.303	7.41586
263.522	12.33552
263.74	12.90794
263.959	21.10979
264.178	10.79562
264.396	10.70801
264.615	7.46269
264.833	16.84412
265.051	14.47302
265.27	14.52476
265.488	15.04869
265.707	9.69226
265.925	15.42742
266.144	6.64651
266.362	9.05976
266.58	8.65372
266.799	6.24272
267.017	8.30518
267.235	7.61478
267.454	4.89235
267.672	3.32375
267.89	6.40291
268.109	6.44619
268.327	6.012
268.545	2.05335
268.763	6.47022
268.982	2.67422
269.2	7.00394
269.418	4.79644
269.636	3.37002
269.854	6.41099
270.073	5.32309
270.291	2.54217
270.509	3.32272
270.727	5.87497
270.945	10.16447
271.163	10.03563
271.381	2.83927
271.599	4.12498
271.817	6.94905
272.036	2.54482
272.254	4.46827
272.472	3.6579
272.69	3.62376
272.908	3.45602
273.126	6.02156
273.344	7.23417
273.562	2.96488
273.779	3.71344
273.997	5.3407
274.215	6.0648
274.433	4.4276
274.651	6.33644
274.869	6.57582
275.087	4.23132
275.305	5.8349
275.523	3.36811
275.74	4.51199
275.958	7.91593
276.176	11.53389
276.394	3.44594
276.612	4.78914
276.829	4.77549
277.047	3.52763
277.265	4.45778
277.483	4.9523
277.7	6.26948
277.918	4.67745
278.136	8.96908
278.353	4.39776
278.571	2.78024
278.789	7.79854
279.006	1.61215
279.224	4.3801
279.442	6.9343
279.659	5.04409
279.877	3.17168
280.094	7.58264
280.312	2.00147
280.529	5.12517
280.747	1.37101
280.964	3.42963
281.182	8.47034
281.399	3.77558
281.617	5.43026
281.834	4.04276
282.052	3.12491
282.269	4.53396
282.487	3.44953
282.704	3.03041
282.921	3.55883
283.139	4.39104
283.356	6.01527
283.574	4.76029
283.791	2.5368
284.008	7.3603
284.226	3.80605
284.443	4.3585
284.66	5.85361
284.877	4.79111
285.095	3.03523
285.312	2.2586
285.529	1.59331
285.746	1.04236
285.964	2.90186
286.181	1.84351
286.398	2.77779
286.615	3.84835
286.832	3.57281
287.05	1.09044
287.267	2.48004
287.484	2.7908
287.701	3.75149
287.918	3.64689
288.135	3.70094
288.352	1.94943
288.569	2.21122
288.786	3.68375
289.003	2.52569
289.22	4.0077
289.437	2.39919
289.654	4.12424
289.871	4.35235
290.088	4.13884
290.305	3.31289
290.522	2.33807
290.739	2.87717
290.956	4.27128
291.173	5.13751
291.39	4.83354
291.607	3.40904
291.824	2.65034
292.04	1.69723
292.257	4.26459
292.474	4.35278
292.691	2.90951
292.908	1.51706
293.125	2.445
293.341	1.65493
293.558	7.39631
293.775	2.75204
293.992	3.05664
294.208	1.45843
294.425	1.80572
294.642	2.72702
294.858	3.92958
295.075	1.07275
295.292	2.71514
295.508	3.47592
295.725	5.39929
295.942	2.94056
296.158	2.64425
296.375	3.86437
296.591	3.11578
296.808	3.75304
297.024	4.3298
297.241	4.64519
297.458	5.1367
297.674	2.55725
297.891	4.6654
298.107	4.90857
298.323	3.75661
298.54	6.71693
298.756	4.59032
298.973	3.84709
299.189	7.21857
299.406	5.25903
299.622	7.16477
299.838	7.60221
300.055	7.03276
300.271	5.38421
300.487	5.13836
300.704	6.33808
300.92	5.67388
301.136	10.31191
301.353	8.13664
301.569	7.48714
301.785	8.12542
302.001	8.68888
302.218	8.40758
302.434	8.74323
302.65	6.65711
302.866	7.52347
303.083	11.22838
303.299	11.68265
303.515	8.8326
303.731	9.92767
303.947	7.56409
304.163	8.66104
304.379	9.66252
304.595	9.91772
304.812	8.45738
305.028	8.41305
305.244	8.87192
305.46	10.19835
305.676	10.70495
305.892	11.42062
306.108	10.42377
306.324	9.28801
306.54	12.37657
306.756	10.33401
306.972	10.3137
307.187	10.47375
307.403	11.33811
307.619	9.31894
307.835	11.66978
308.051	12.21361
308.267	9.25314
308.483	12.98039
308.699	11.485
308.914	11.31761
309.13	10.83661
309.346	9.87926
309.562	10.36589
309.778	10.08481
309.993	11.81329
310.209	12.33066
310.425	10.36779
310.641	12.14544
310.856	11.24857
311.072	10.94151
311.288	11.97398
311.503	12.86218
311.719	10.09997
311.935	10.68905
312.15	13.3546
312.366	12.92301
312.581	12.81229
312.797	12.75041
313.013	13.29205
313.228	11.66004
313.444	11.45344
313.659	11.2021
313.875	12.72261
314.09	12.1521
314.306	12.92273
314.521	13.30053
314.737	12.85429
314.952	12.45465
315.168	12.11613
315.383	12.63361
315.599	11.12769
315.814	11.80838
316.029	12.72169
316.245	11.25498
316.46	9.3465
316.675	13.49472
316.891	14.30712
317.106	15.91881
317.321	12.28915
317.537	13.05177
317.752	13.35808
317.967	13.39222
318.183	11.09228
318.398	11.95897
318.613	13.23148
318.828	14.2166
319.043	12.7809
319.259	11.85692
319.474	12.52205
319.689	13.66268
319.904	10.26699
320.119	14.33352
320.334	12.59797
320.549	12.18231
320.765	13.59875
320.98	13.14745
321.195	12.54071
321.41	12.70167
321.625	12.9631
321.84	14.55053
322.055	14.0185
322.27	11.83539
322.485	10.78104
322.7	13.24652
322.915	13.41396
323.13	12.15106
323.345	15.29344
323.56	14.62681
323.775	14.19383
323.989	14.06234
324.204	13.34713
324.419	14.40919
324.634	11.81
324.849	13.44501
325.064	16.79381
325.279	15.04519
325.493	13.89333
325.708	14.13438
325.923	12.28414
326.138	13.74918
326.352	15.45643
326.567	14.23322
326.782	12.58005
326.997	12.85104
327.211	14.06776
327.426	13.51676
327.641	13.46295
327.855	11.42614
328.07	14.24645
328.285	15.65463
328.499	12.66857
328.714	13.5964
328.928	12.94746
329.143	13.31506
329.358	14.44926
329.572	14.46392
329.787	15.29402
330.001	16.20983
330.216	11.30477
330.43	16.43612
330.645	14.1771
330.859	13.99193
331.074	11.70557
331.288	13.42181
331.503	15.74397
331.717	11.94297
331.931	13.26085
332.146	14.03376
332.36	16.12369
332.575	14.33182
332.789	13.32599
333.003	14.02634
333.218	14.84225
333.432	13.47222
333.646	14.69932
333.86	16.27774
334.075	15.38722
334.289	13.42844
334.503	11.60734
334.717	14.98558
334.932	13.9191
335.146	14.60384
335.36	12.2152
335.574	14.28068
335.788	13.20609
336.003	14.33382
336.217	14.25739
336.431	13.56291
336.645	13.08157
336.859	12.69524
337.073	13.90616
337.287	15.05577
337.501	12.43379
337.715	14.68007
337.929	14.50573
338.143	12.88879
338.357	13.75272
338.571	13.78087
338.785	15.32646
338.999	13.40757
339.213	13.5043
339.427	12.7204
339.641	15.44822
339.855	13.55724
340.069	12.46111
340.283	14.97084
340.497	15.52082
340.711	14.8275
340.924	14.32927
341.138	12.9858
341.352	12.20286
341.566	14.0838
341.78	12.68155
341.993	13.60663
342.207	13.3752
342.421	14.55433
342.635	14.0428
342.848	13.92195
343.062	10.83626
343.276	13.39504
343.49	16.40693
343.703	13.28878
343.917	15.38663
344.131	15.68271
344.344	13.07036
344.558	13.78144
344.771	12.79632
344.985	15.71648
345.199	16.45116
345.412	14.67792
345.626	15.24582
345.839	12.51275
346.053	12.86839
346.266	13.09782
346.48	14.86101
346.693	14.88757
346.907	14.76125
347.12	13.02665
347.334	13.85443
347.547	14.64836
347.76	14.12829
347.974	15.16858
348.187	14.39851
348.401	14.16836
348.614	12.61253
348.827	13.9221
349.041	14.38577
349.254	12.56789
349.467	13.43986
349.681	12.88842
349.894	12.88995
350.107	15.79333
350.32	16.52899
350.534	12.67286
350.747	13.94971
350.96	13.16505
351.173	13.52303
351.386	13.80299
351.6	13.16421
351.813	13.66685
352.026	13.79699
352.239	13.15869
352.452	13.10638
352.665	15.76336
352.878	13.45938
353.092	16.9545
353.305	14.71005
353.518	14.12984
353.731	13.00064
353.944	15.71676
354.157	13.58377
354.37	13.895
354.583	12.55242
354.796	13.1128
355.009	15.26974
355.222	14.67145
355.435	14.45698
355.647	15.97268
355.86	13.58461
356.073	14.78016
356.286	13.95962
356.499	15.78269
356.712	15.64431
356.925	14.95681
357.138	15.73313
357.35	13.7045
357.563	14.11892
357.776	14.99534
357.989	15.02583
358.201	15.75286
358.414	15.30766
358.627	16.3053
358.84	14.72293
359.052	13.57366
359.265	13.64563
359.478	15.85391
359.69	12.30723
359.903	16.0505
360.116	16.33924
360.328	13.67786
360.541	15.91194
360.753	15.0649
360.966	15.02641
361.179	15.40801
361.391	15.07261
361.604	14.94288
361.816	15.11874
362.029	15.1323
362.241	14.78343
362.454	15.3156
362.666	14.58206
362.879	16.1726
363.091	14.78484
363.304	14.93464
363.516	14.73494
363.728	14.15125
363.941	15.65961
364.153	15.15841
364.366	13.23614
364.578	14.17428
364.79	15.50698
365.003	15.38017
365.215	14.27864
365.427	15.63536
365.639	15.86791
365.852	15.16927
366.064	16.78612
366.276	14.57823
366.488	15.10806
366.701	14.70875
366.913	14.60557
367.125	14.54893
367.337	14.3845
367.549	14.39464
367.762	14.67267
367.974	14.69421
368.186	14.714
368.398	15.67134
368.61	15.03388
368.822	15.34461
369.034	14.28675
369.246	15.75404
369.458	17.5886
369.67	14.14036
369.882	16.36467
370.094	12.51012
370.306	16.1629
370.518	14.43089
370.73	14.37546
370.942	14.37887
371.154	14.85748
371.366	15.02133
371.578	15.51133
371.79	14.78964
372.002	16.11422
372.214	17.46027
372.425	14.88978
372.637	16.69712
372.849	15.11738
373.061	12.6471
373.273	15.10782
373.484	15.38778
373.696	15.55489
373.908	12.77788
374.12	15.58482
374.331	15.83846
374.543	13.90245
374.755	14.13079
374.967	15.02464
375.178	16.2417
375.39	14.78916
375.602	15.2816
375.813	13.58222
376.025	14.22867
376.236	15.08701
376.448	15.70698
376.66	15.34246
376.871	15.56861
377.083	16.17621
377.294	17.58249
377.506	14.96555
377.717	16.63449
377.929	15.69442
378.14	15.34473
378.352	15.81484
378.563	16.30387
378.775	16.98512
378.986	14.62815
379.197	15.33787
379.409	14.70577
379.62	16.11158
379.832	15.85276
380.043	15.23715
380.254	15.80696
380.466	13.96592
380.677	18.45093
380.888	17.51438
381.1	18.03118
381.311	17.60967
381.522	15.59663
381.733	18.27396
381.945	15.22217
382.156	15.10654
382.367	15.20294
382.578	18.23896
382.789	18.70038
383.001	15.06101
383.212	17.25223
383.423	17.87691
383.634	16.59011
383.845	16.52399
384.056	15.42939
384.267	15.87437
384.478	15.79569
384.69	14.96522
384.901	16.62468
385.112	16.24898
385.323	17.79992
385.534	16.21517
385.745	16.33432
385.956	16.11567
386.167	15.05613
386.378	16.5933
386.588	15.49618
386.799	15.12098
387.01	15.02435
387.221	16.84987
387.432	16.27254
387.643	17.7469
387.854	15.93379
388.065	15.7508
388.275	15.92659
388.486	15.30327
388.697	16.25336
388.908	15.34597
389.119	16.86445
389.329	17.52891
389.54	16.12171
389.751	16.45638
389.962	17.26972
390.172	16.15742
390.383	16.13611
390.594	15.52876
390.804	15.70969
391.015	15.91984
391.226	16.5285
391.436	17.08107
391.647	16.64985
391.858	17.21933
392.068	15.12196
392.279	15.675
392.489	16.86516
392.7	17.11021
392.91	16.21545
393.121	15.86041
393.331	17.07879
393.542	17.84916
393.752	17.42331
393.963	17.38026
394.173	17.13068
394.384	17.26871
394.594	16.836
394.804	15.67309
395.015	16.69222
395.225	17.10173
395.436	15.84338
395.646	17.18668
395.856	16.48536
396.067	15.24793
396.277	17.3915
396.487	17.37663
396.697	17.03406
396.908	17.70987
397.118	17.24722
397.328	16.78358
397.538	17.91068
397.749	16.51335
397.959	17.55806
398.169	16.99575
398.379	15.51164
398.589	17.32812
398.8	17.48046
399.01	17.16174
399.22	16.64106
399.43	18.79088
399.64	17.03486
399.85	17.51518
400.06	17.25352
400.27	16.25972
400.48	16.94737
400.69	18.06465
400.9	16.74793
401.11	16.02239
401.32	17.69984
401.53	16.68441
401.74	18.5423
401.95	17.53445
402.16	17.09283
402.37	17.72529
402.58	16.76482
402.79	17.74021
403	18.0727
403.209	16.97903
403.419	18.62708
403.629	16.93163
403.839	18.84493
404.049	18.6652
404.258	17.34036
404.468	17.23696
404.678	18.47696
404.888	19.14053
405.097	18.20048
405.307	17.85009
405.517	18.56553
405.727	18.63857
405.936	17.38012
406.146	18.0867
406.356	19.16989
406.565	18.19432
406.775	17.80188
406.984	17.62322
407.194	20.14966
407.404	18.18297
407.613	18.72474
407.823	18.98862
408.032	19.46503
408.242	19.20097
408.451	17.83648
408.661	18.10392
408.87	19.8095
409.08	17.67151
409.289	18.82698
409.499	18.81356
409.708	18.60265
409.918	16.9492
410.127	18.96241
410.336	19.94302
410.546	19.412
410.755	18.41254
410.964	18.43305
411.174	17.80892
411.383	19.2075
411.592	19.02107
411.802	18.35411
412.011	19.22177
412.22	19.02598
412.429	19.80112
412.639	20.34256
412.848	20.22646
413.057	20.70325
413.266	19.79535
413.475	19.20807
413.685	19.84221
413.894	20.02046
414.103	20.12881
414.312	20.15195
414.521	19.16928
414.73	19.94727
414.939	21.1004
415.148	19.84668
415.357	19.89935
415.566	19.83281
415.776	19.75728
415.985	19.94774
416.194	20.74477
416.403	21.84409
416.611	19.37958
416.82	19.83401
417.029	20.82162
417.238	19.95251
417.447	19.99176
417.656	20.64591
417.865	20.10054
418.074	20.74642
418.283	21.00383
418.492	21.7357
418.7	21.6341
418.909	22.5629
419.118	21.18584
419.327	21.8601
419.536	21.46966
419.744	21.5342
419.953	23.30294
420.162	23.46003
420.371	23.02804
420.579	24.55704
420.788	25.36719
420.997	25.59352
421.205	26.05548
421.414	25.87914
421.623	26.28134
421.831	25.50618
422.04	25.86211
422.249	24.51775
422.457	24.62705
422.666	23.57221
422.874	24.60054
423.083	24.95375
423.291	25.0383
423.5	25.35191
423.708	26.16982
423.917	26.82819
424.125	25.89813
424.334	26.1042
424.542	27.71978
424.751	27.24538
424.959	26.4265
425.167	26.37521
425.376	26.11297
425.584	23.94593
425.793	23.73547
426.001	22.16749
426.209	22.97895
426.418	22.17051
426.626	22.02137
426.834	22.21918
427.042	22.26859
427.251	21.93465
427.459	23.37632
427.667	22.31293
427.875	21.59497
428.084	22.16779
428.292	23.61094
428.5	23.17504
428.708	21.49272
428.916	22.05499
429.124	22.45579
429.333	22.50043
429.541	22.61462
429.749	22.75385
429.957	22.88755
430.165	24.85072
430.373	21.69499
430.581	22.60975
430.789	23.89144
430.997	22.56855
431.205	22.13041
431.413	23.26206
431.621	22.82295
431.829	23.699
432.037	23.09926
432.245	23.4202
432.453	23.65881
432.661	23.02796
432.869	24.7199
433.076	22.8973
433.284	23.34959
433.492	23.97931
433.7	24.52948
433.908	23.28756
434.116	23.75083
434.323	24.00529
434.531	23.68411
434.739	24.44361
434.947	24.38174
435.154	24.55092
435.362	23.83646
435.57	23.71487
435.778	23.224
435.985	24.18601
436.193	23.47166
436.401	25.06271
436.608	24.11884
436.816	23.81551
437.023	25.23951
437.231	25.62853
437.439	24.46565
437.646	24.87681
437.854	24.63287
438.061	24.74071
438.269	24.31417
438.476	25.16143
438.684	24.63797
438.891	24.05449
439.099	24.25513
439.306	23.80681
439.514	23.97445
439.721	25.09183
439.929	24.3647
440.136	25.21119
440.343	25.22046
440.551	24.98502
440.758	27.04658
440.965	25.2971
441.173	25.2984
441.38	24.78851
441.587	25.28153
441.795	24.80348
442.002	25.22947
442.209	25.39678
442.416	25.58712
442.624	25.52351
442.831	25.59059
443.038	25.04723
443.245	24.63476
443.452	24.88696
443.66	25.84622
443.867	24.98602
444.074	24.677
444.281	24.82516
444.488	24.83307
444.695	25.42227
444.902	24.95746
445.109	26.09401
445.316	25.42514
445.523	26.43852
445.73	26.91127
445.937	28.09707
446.144	29.27837
446.351	29.89168
446.558	28.13159
446.765	31.12362
446.972	29.70686
447.179	29.38587
447.386	29.63672
447.593	26.96102
447.8	27.9633
448.007	26.14618
448.214	25.75526
448.42	25.49291
448.627	26.93752
448.834	25.99946
449.041	26.02405
449.248	25.92904
449.454	26.82001
449.661	27.10034
449.868	25.68727
450.075	25.7424
450.281	24.9308
450.488	25.46706
450.695	25.34596
450.901	25.48901
451.108	25.71388
451.315	27.16834
451.521	26.05453
451.728	26.99464
451.935	25.90366
452.141	25.8708
452.348	26.58226
452.554	26.23351
452.761	25.93704
452.967	27.62098
453.174	26.97244
453.38	26.5367
453.587	25.62328
453.793	26.64852
454	26.41472
454.206	28.24034
454.413	27.05472
454.619	27.11653
454.825	26.2683
455.032	27.27516
455.238	27.16755
455.445	25.94749
455.651	26.79762
455.857	25.43747
456.064	26.93724
456.27	26.5796
456.476	26.49543
456.682	26.02502
456.889	27.18099
457.095	27.38246
457.301	28.51759
457.507	27.22346
457.714	26.98178
457.92	27.28849
458.126	26.76567
458.332	27.22612
458.538	27.18378
458.744	27.40528
458.951	27.42216
459.157	28.64576
459.363	28.49693
459.569	29.22241
459.775	29.71784
459.981	30.21377
460.187	30.73021
460.393	30.25397
460.599	29.89752
460.805	28.19277
461.011	28.04282
461.217	28.68062
461.423	29.069
461.629	27.94533
461.835	28.72021
462.041	28.08068
462.247	29.10455
462.453	27.94607
462.658	27.79128
462.864	28.53373
463.07	28.48404
463.276	28.3657
463.482	28.13189
463.688	29.69019
463.893	27.5058
464.099	28.16825
464.305	29.78778
464.511	27.89063
464.716	28.11977
464.922	29.01831
465.128	27.37137
465.333	29.88769
465.539	28.92678
465.745	28.60192
465.95	28.52561
466.156	30.66963
466.362	29.61065
466.567	28.61291
466.773	28.60221
466.978	29.69786
467.184	28.17692
467.389	27.15376
467.595	29.19063
467.8	28.12682
468.006	30.01533
468.211	29.66639
468.417	28.16243
468.622	29.46518
468.828	29.65931
469.033	29.08065
469.239	31.01909
469.444	28.77808
469.649	29.6057
469.855	29.01419
470.06	29.2635
470.266	28.2859
470.471	29.82891
470.676	29.60274
470.881	27.59923
471.087	30.66914
471.292	31.1081
471.497	28.21171
471.703	29.06664
471.908	29.31036
472.113	29.76531
472.318	30.01734
472.523	28.621
472.729	29.92641
472.934	29.88618
473.139	29.06801
473.344	29.91461
473.549	30.61268
473.754	29.1147
473.959	31.60104
474.164	29.53217
474.369	29.37709
474.575	30.31366
474.78	29.83082
474.985	29.61611
475.19	28.61266
475.395	29.52019
475.6	29.70747
475.804	31.364
476.009	30.34577
476.214	29.69801
476.419	29.73491
476.624	29.07775
476.829	29.3925
477.034	30.71846
477.239	29.75311
477.444	30.8069
477.648	31.11734
477.853	30.88592
478.058	30.14408
478.263	29.93915
478.468	30.03664
478.672	30.18035
478.877	31.97728
479.082	32.1056
479.287	31.22475
479.491	30.56941
479.696	30.12585
479.901	31.32273
480.105	31.49819
480.31	30.16681
480.515	30.88128
480.719	32.56692
480.924	30.47757
481.128	30.01186
481.333	31.36109
481.538	31.32077
481.742	30.92357
481.947	32.49703
482.151	35.36591
482.356	38.60643
482.56	44.92486
482.765	50.93675
482.969	60.09039
483.174	67.05298
483.378	76.21209
483.582	79.49076
483.787	83.61744
483.991	85.21876
484.196	85.32152
484.4	83.0413
484.604	81.27978
484.809	74.04858
485.013	68.75854
485.217	61.58373
485.422	55.2776
485.626	50.60126
485.83	48.33026
486.034	47.28314
486.239	48.97462
486.443	51.0784
486.647	53.13774
486.851	56.46983
487.055	60.12401
487.26	61.37223
487.464	64.16382
487.668	63.31041
487.872	64.80541
488.076	63.66656
488.28	61.04811
488.484	56.9129
488.688	54.46683
488.892	51.05432
489.096	47.05309
489.3	43.53462
489.504	40.70049
489.708	38.76779
489.912	37.74862
490.116	37.59935
490.32	38.4566
490.524	41.6807
490.728	44.23928
490.932	47.73262
491.136	50.96545
491.34	53.38919
491.544	54.39872
491.748	54.43567
491.951	54.0908
492.155	52.29652
492.359	49.89343
492.563	45.74153
492.767	42.23138
492.97	37.44831
493.174	33.66793
493.378	32.35522
493.582	31.9751
493.785	32.31603
493.989	32.28758
494.193	32.55692
494.396	32.09124
494.6	32.73095
494.804	31.95979
495.007	31.80297
495.211	32.11529
495.414	32.2056
495.618	32.82945
495.822	33.27041
496.025	32.48656
496.229	33.06674
496.432	32.11211
496.636	32.44284
496.839	32.56909
497.043	33.4876
497.246	32.8382
497.45	32.32052
497.653	32.55842
497.856	32.79112
498.06	31.9924
498.263	32.51358
498.467	32.69583
498.67	33.23116
498.873	33.15688
499.077	32.75428
499.28	32.68652
499.483	33.01662
499.686	33.44114
499.89	33.19645
500.093	33.65046
500.296	32.11197
500.499	34.28435
500.703	32.78334
500.906	33.09529
501.109	34.06169
501.312	33.14166
501.515	32.69021
501.719	33.27161
501.922	33.5504
502.125	32.91206
502.328	33.22739
502.531	32.34474
502.734	32.85611
502.937	31.77036
503.14	33.12541
503.343	32.37358
503.546	32.68169
503.749	32.81581
503.952	33.49379
504.155	32.56999
504.358	33.56993
504.561	33.53838
504.764	32.29704
504.967	33.29209
505.17	33.27048
505.373	34.3299
505.576	33.18423
505.778	33.73692
505.981	32.53144
506.184	34.34473
506.387	32.07796
506.59	34.82806
506.793	34.16446
506.995	33.75576
507.198	31.83763
507.401	33.57285
507.604	33.69192
507.806	32.84725
508.009	33.24909
508.212	34.26287
508.414	33.11049
508.617	33.33196
508.82	33.93474
509.022	34.76219
509.225	34.11627
509.427	32.78322
509.63	34.97403
509.833	33.95409
510.035	33.33154
510.238	32.99422
510.44	34.91858
510.643	32.85121
510.845	35.24504
511.048	34.60746
511.25	33.82821
511.453	33.97582
511.655	34.29498
511.858	33.8264
512.06	34.85555
512.262	34.36221
512.465	34.81744
512.667	33.89246
512.869	33.35
513.072	34.93118
513.274	34.78024
513.476	34.9789
513.679	35.10802
513.881	33.68463
514.083	36.21819
514.286	33.88595
514.488	33.85755
514.69	33.6658
514.892	33.46696
515.094	35.32211
515.297	33.74462
515.499	34.7442
515.701	34.0675
515.903	36.06309
516.105	35.81134
516.307	35.19292
516.509	33.56099
516.711	33.92233
516.913	34.82696
517.116	35.18428
517.318	34.66841
517.52	35.68563
517.722	35.38938
517.924	34.2199
518.126	35.50755
518.328	34.62252
518.529	35.35717
518.731	36.22788
518.933	34.82629
519.135	35.24745
519.337	36.28501
519.539	35.51389
519.741	33.94195
519.943	35.03
520.145	35.28398
520.346	36.10934
520.548	35.13679
520.75	35.3872
520.952	35.29966
521.153	35.79415
521.355	35.97513
521.557	34.81566
521.759	35.64448
521.96	35.57773
522.162	34.79506
522.364	36.60058
522.565	35.05453
522.767	36.27438
522.969	36.23653
523.17	35.91121
523.372	35.74828
523.573	35.42595
523.775	35.88041
523.977	34.89992
524.178	37.15329
524.38	35.57164
524.581	36.5888
524.783	35.91737
524.984	36.3188
525.186	35.9703
525.387	36.36011
525.589	36.16729
525.79	36.13075
525.991	35.95221
526.193	37.21938
526.394	36.41334
526.596	37.61409
526.797	38.72756
526.998	39.0703
527.2	42.05188
527.401	47.55234
527.602	52.08748
527.803	59.59521
528.005	64.37177
528.206	68.64435
528.407	72.60891
528.608	72.94004
528.81	73.7642
529.011	71.82617
529.212	71.80305
529.413	67.048
529.614	61.86737
529.815	56.83151
530.017	51.63949
530.218	45.94096
530.419	41.90171
530.62	39.68932
530.821	37.94507
531.022	35.73982
531.223	36.9766
531.424	37.13967
531.625	37.29365
531.826	37.11688
532.027	38.90002
532.228	42.36597
532.429	44.37026
532.63	46.51605
532.831	49.44244
533.032	49.94835
533.233	51.52431
533.433	50.63424
533.634	50.91705
533.835	48.52976
534.036	46.16612
534.237	42.98698
534.438	40.34763
534.638	36.83837
534.839	36.77593
535.04	37.57308
535.241	37.08111
535.441	38.4503
535.642	37.72843
535.843	36.48282
536.043	36.61763
536.244	36.91418
536.445	37.15692
536.645	38.04529
536.846	37.79645
537.047	38.24248
537.247	36.69096
537.448	36.82256
537.648	37.47921
537.849	36.94588
538.049	37.36744
538.25	37.99494
538.451	38.18923
538.651	36.99631
538.851	37.96652
539.052	38.48664
539.252	38.13586
539.453	37.62334
539.653	38.12146
539.854	37.36795
540.054	37.67225
540.254	40.31789
540.455	44.50101
540.655	47.38928
540.855	51.91786
541.056	54.69419
541.256	55.02838
541.456	56.86534
541.657	56.41969
541.857	56.2358
542.057	53.46989
542.257	50.50924
542.458	49.21383
542.658	46.02075
542.858	42.12347
543.058	40.40859
543.258	38.7811
543.458	37.14657
543.659	37.18353
543.859	38.5581
544.059	38.37245
544.259	37.46429
544.459	38.6455
544.659	37.11898
544.859	38.11832
545.059	37.49249
545.259	38.97642
545.459	38.36198
545.659	38.7168
545.859	38.27092
546.059	38.00684
546.259	37.33572
546.459	36.96922
546.659	37.01592
546.859	38.426
547.059	38.46872
547.258	38.42476
547.458	38.47937
547.658	37.45008
547.858	37.4588
548.058	38.38501
548.258	38.03501
548.457	37.47252
548.657	40.4611
548.857	37.87362
549.057	38.93031
549.256	38.94736
549.456	38.12667
549.656	36.57601
549.855	39.82994
550.055	38.12813
550.255	39.69114
550.454	38.14061
550.654	38.80508
550.853	39.63918
551.053	38.83726
551.253	38.77692
551.452	38.93203
551.652	37.36684
551.851	37.29257
552.051	38.01961
552.25	37.6069
552.45	37.67061
552.649	38.24513
552.849	37.71078
553.048	37.97495
553.248	38.7563
553.447	37.21261
553.646	38.53803
553.846	40.09286
554.045	39.19259
554.244	37.14428
554.444	40.28198
554.643	37.55409
554.842	39.88773
555.042	40.54727
555.241	37.77175
555.44	37.62772
555.64	39.37568
555.839	40.49934
556.038	39.29101
556.237	37.47466
556.436	39.18004
556.636	39.18089
556.835	37.82423
557.034	40.33619
557.233	38.94078
557.432	37.02122
557.631	40.10327
557.83	38.10648
558.029	38.22329
558.228	37.64336
558.427	37.73482
558.626	39.17035
558.825	37.81646
559.024	38.46983
559.223	40.01404
559.422	38.38316
559.621	39.34961
559.82	36.15901
560.019	38.58617
560.218	38.13194
560.417	36.51514
560.616	37.89203
560.815	42.4283
561.014	37.15596
561.212	40.66923
561.411	39.17729
561.61	37.51846
561.809	38.45077
562.008	40.21293
562.206	38.38166
562.405	39.34563
562.604	38.57081
562.803	39.48272
563.001	38.86074
563.2	37.36306
563.399	39.82522
563.597	37.62338
563.796	39.06094
563.995	37.92874
564.193	39.35329
564.392	38.85021
564.59	41.53299
564.789	37.34155
564.988	38.55912
565.186	39.19896
565.385	38.56098
565.583	38.63667
565.782	38.81954
565.98	38.72725
566.179	39.0254
566.377	38.05431
566.575	38.39939
566.774	40.30965
566.972	40.37153
567.171	41.62787
567.369	40.51446
567.567	39.63442
567.766	39.8319
567.964	37.26041
568.162	40.07632
568.361	40.61322
568.559	38.98282
568.757	39.70613
568.956	39.50815
569.154	38.92448
569.352	39.92515
569.55	39.31139
569.748	39.17494
569.947	38.58569
570.145	38.54962
570.343	38.38219
570.541	39.91021
570.739	38.32166
570.937	39.54812
571.135	39.99108
571.333	41.10314
571.532	40.93768
571.73	39.53546
571.928	40.46267
572.126	39.93401
572.324	39.12161
572.522	40.73711
572.72	42.20746
572.918	39.3581
573.116	40.13009
573.313	40.0736
573.511	39.63611
573.709	38.89662
573.907	40.79768
574.105	39.47112
574.303	38.23347
574.501	38.40951
574.699	40.24398
574.896	40.41675
575.094	40.45251
575.292	38.48273
575.49	40.54581
575.688	39.62524
575.885	41.15345
576.083	42.13519
576.281	40.60046
576.478	38.75538
576.676	40.29265
576.874	37.89054
577.071	39.84683
577.269	42.64094
577.467	39.99296
577.664	39.72901
577.862	41.53698
578.059	38.84592
578.257	40.40838
578.455	39.01171
578.652	40.32985
578.85	37.85251
579.047	39.99002
579.245	40.01293
579.442	39.82057
579.64	39.95713
579.837	38.07785
580.034	43.05652
580.232	39.34516
580.429	37.92733
580.627	40.34145
580.824	41.5181
581.021	40.24488
581.219	38.76688
581.416	38.37501
581.613	41.0327
581.811	41.31332
582.008	38.56503
582.205	40.76887
582.402	39.69814
582.6	41.30126
582.797	39.72931
582.994	40.08915
583.191	40.25619
583.388	39.76982
583.586	41.00284
583.783	41.10915
583.98	39.0975
584.177	39.75897
584.374	36.39155
584.571	39.68904
584.768	39.64124
584.965	39.10234
585.162	40.20062
585.359	41.72327
585.556	39.81421
585.753	40.83059
585.95	38.00833
586.147	38.42627
586.344	40.07877
586.541	39.45805
586.738	38.42974
586.935	40.35898
587.132	38.88662
587.329	41.35062
587.526	39.92593
587.722	46.569
587.919	38.43532
588.116	40.73169
588.313	42.25585
588.51	43.17664
588.706	39.95863
588.903	40.86196
589.1	40.88645
589.297	42.91518
589.493	40.75869
589.69	40.77569
589.887	39.83314
590.083	39.08783
590.28	39.08296
590.477	40.50931
590.673	41.34645
590.87	42.20705
591.067	39.69578
591.263	40.2919
591.46	40.35286
591.656	40.21282
591.853	42.20825
592.049	38.98933
592.246	39.52708
592.442	41.9339
592.639	41.8277
592.835	39.01433
593.032	41.13799
593.228	38.06843
593.425	38.06824
593.621	37.89283
593.817	40.72765
594.014	39.25701
594.21	40.53706
594.406	41.4113
594.603	40.85777
594.799	39.62639
594.995	37.74161
595.192	42.05085
595.388	39.49926
595.584	40.20449
595.78	38.73363
595.977	43.34189
596.173	42.38329
596.369	40.07046
596.565	39.23737
596.761	38.53517
596.957	41.76065
597.154	39.53346
597.35	39.61729
597.546	40.55668
597.742	41.83256
597.938	40.91487
598.134	39.05443
598.33	41.06284
598.526	42.40256
598.722	41.04363
598.918	42.76985
599.114	41.6847
599.31	39.29013
599.506	40.62982
599.702	39.84299
599.898	40.72178
600.094	42.20547
600.29	41.82192
600.485	42.06507
600.681	40.39651
600.877	43.24038
601.073	40.59458
601.269	43.29597
601.465	42.78812
601.66	39.59542
601.856	38.32192
602.052	43.26489
602.248	40.40165
602.443	38.28284
602.639	39.0025
602.835	39.56724
603.03	39.64934
603.226	42.28808
603.422	39.89006
603.617	40.36333
603.813	40.46973
604.009	40.481
604.204	42.43735
604.4	38.96329
604.595	42.45264
604.791	39.94608
604.986	41.6567
605.182	39.7066
605.377	41.20607
605.573	40.09335
605.768	41.1577
605.964	42.00386
606.159	42.14677
606.355	42.90619
606.55	40.25433
606.746	43.0497
606.941	40.91381
607.136	44.24801
607.332	45.57605
607.527	39.5911
607.722	41.34491
607.918	40.9162
608.113	40.20952
608.308	42.38244
608.503	41.91323
608.699	41.646
608.894	41.95325
609.089	39.82587
609.284	41.08246
609.479	41.11566
609.675	42.10759
609.87	40.80156
610.065	42.4748
610.26	42.21991
610.455	42.68267
610.65	41.63321
610.845	41.72709
611.04	43.23087
611.235	41.62672
611.43	40.88906
611.625	39.65754
611.82	43.25797
612.015	39.89769
612.21	43.54648
612.405	39.32135
612.6	43.82167
612.795	42.86752
612.99	41.90095
613.185	39.70907
613.38	39.99501
613.575	40.94618
613.77	46.0759
613.965	39.07113
614.159	39.80811
614.354	43.63338
614.549	42.87989
614.744	42.77316
614.938	39.67783
615.133	39.18954
615.328	44.03584
615.523	42.76741
615.717	46.44524
615.912	40.86733
616.107	42.10237
616.301	40.94277
616.496	41.01096
616.691	43.96739
616.885	42.95598
617.08	46.81636
617.274	42.69969
617.469	44.91914
617.664	42.88793
617.858	40.66535
618.053	42.42994
618.247	41.48665
618.442	37.15935
618.636	44.78231
618.831	40.95437
619.025	40.71502
619.219	46.12678
619.414	36.33716
619.608	41.91036
619.803	40.91433
619.997	45.00313
620.191	43.82502
620.386	42.09308
620.58	41.29502
620.774	38.68242
620.969	39.0423
621.163	42.0786
621.357	40.03523
621.551	40.73446
621.746	42.08583
621.94	41.31238
622.134	47.31434
622.328	45.46047
622.522	38.88988
622.716	43.29992
622.911	43.82808
623.105	43.84665
623.299	42.57888
623.493	47.38205
623.687	40.47812
623.881	41.53554
624.075	43.05315
624.269	44.10509
624.463	37.88747
624.657	39.06054
624.851	42.98957
625.045	43.5562
625.239	43.5152
625.433	41.72835
625.627	44.41108
625.821	41.11936
626.015	40.62611
626.209	42.08963
626.403	40.06157
626.596	42.41405
626.79	42.78251
626.984	39.91624
627.178	42.73855
627.372	42.78755
627.565	42.90314
627.759	39.55639
627.953	40.02586
628.147	42.76574
628.34	43.65036
628.534	45.9383
628.728	41.52935
628.921	43.65689
629.115	42.62948
629.309	44.0051
629.502	44.20155
629.696	41.90137
629.89	41.91729
630.083	43.07553
630.277	43.6235
630.47	45.8629
630.664	40.97806
630.857	38.7643
631.051	43.45579
631.244	44.60312
631.438	43.12914
631.631	40.39192
631.825	45.11311
632.018	44.57819
632.212	45.54699
632.405	44.40726
632.598	41.33939
632.792	42.87314
632.985	38.33072
633.178	42.1456
633.372	42.04354
633.565	41.46156
633.758	45.08807
633.952	40.64215
634.145	40.68616
634.338	42.24114
634.531	40.47952
634.724	41.60178
634.918	42.50158
635.111	41.44577
635.304	42.36733
635.497	47.04903
635.69	43.51943
635.883	46.0187
636.077	40.57874
636.27	43.56377
636.463	43.35768
636.656	43.15799
636.849	42.04305
637.042	44.10269
637.235	46.32221
637.428	44.83808
637.621	45.74058
637.814	45.44264
638.007	46.35819
638.2	46.01827
638.393	47.12704
638.586	40.13495
638.778	41.81401
638.971	43.51312
639.164	46.27754
639.357	42.81666
639.55	46.14599
639.743	44.86611
639.935	44.88206
640.128	47.75627
640.321	45.70217
640.514	42.26385
640.707	49.2374
640.899	44.40035
641.092	39.39642
641.285	62.30738
641.477	38.64552
641.67	48.84864
641.863	46.99894
642.055	44.30198
642.248	42.69602
642.441	42.06967
642.633	44.36971
642.826	45.67495
643.018	46.25662
643.211	47.99156
643.403	48.3072
643.596	49.34174
643.788	48.64579
643.981	42.0167
644.173	46.23645
644.366	44.03359
644.558	38.73779
644.751	47.16957
644.943	39.74739
645.135	47.78699
645.328	47.33343
645.52	44.02401
645.712	46.55111
645.905	50.57514
646.097	41.73348
646.289	43.48416
646.482	49.61104
646.674	41.66469
646.866	47.42367
647.058	45.60262
647.251	39.8577
647.443	42.17455
647.635	43.62155
647.827	39.74806
648.019	42.27236
648.211	43.26984
648.404	43.88407
648.596	48.35379
648.788	43.17679
648.98	43.88884
649.172	45.00385
649.364	45.59448
649.556	38.79212
649.748	51.68379
649.94	42.11867
650.132	45.73095
650.324	41.21825
650.516	42.62408
650.708	46.9435
650.9	40.52129
651.092	42.52557
651.284	41.19909
651.476	41.43928
651.667	46.11733
651.859	47.85373
652.051	42.87687
652.243	43.61655
652.435	42.23958
652.627	46.07783
652.818	45.2287
653.01	40.00972
653.202	41.2234
653.394	44.19982
653.585	45.53946
653.777	56.33307
653.969	47.03746
654.16	47.37877
654.352	40.55614
654.544	43.12621
654.735	47.69806
654.927	44.43558
655.118	48.20237
655.31	45.50364
655.502	48.56013
655.693	42.32566
655.885	45.07261
656.076	47.8768
656.268	44.73476
656.459	48.69327
656.651	48.41158
656.842	43.23567
657.034	42.11739
657.225	47.2784
657.416	48.50646
657.608	48.54869
657.799	44.87075
657.99	48.2719
658.182	44.41661
658.373	43.66916
658.564	47.48858
658.756	44.40772
658.947	43.84585
659.138	43.0105
659.33	43.36945
659.521	42.7279
659.712	44.24118
659.903	44.62958
660.094	43.67228
660.286	41.46442
660.477	50.3471
660.668	47.16409
660.859	45.7011
661.05	41.37009
661.241	47.18629
661.432	46.80127
661.623	43.86447
661.814	43.64522
662.006	41.10989
662.197	46.04251
662.388	48.89853
662.579	45.71818
662.77	49.37549
662.96	53.17468
663.151	47.5962
663.342	40.26764
663.533	47.50028
663.724	45.37852
663.915	50.64896
664.106	45.47775
664.297	49.79703
664.488	46.78564
664.678	43.70052
664.869	48.05852
665.06	47.59032
665.251	45.20169
665.442	46.72352
665.632	41.126
665.823	51.17192
666.014	35.83047
666.204	47.57849
666.395	49.67145
666.586	53.50458
666.776	49.32949
666.967	50.54452
667.158	46.27172
667.348	49.58312
667.539	42.07772
667.729	48.38284
667.92	43.05816
668.111	49.70908
668.301	47.58195
668.492	45.38507
668.682	47.01492
668.873	47.01
669.063	41.78456
669.253	47.29103
669.444	48.42728
669.634	45.57422
669.825	52.83163
670.015	50.7279
670.206	42.98578
670.396	52.64429
670.586	45.90717
670.777	47.58784
670.967	39.34805
671.157	45.38003
671.347	43.57472
671.538	51.9117
671.728	47.86312
671.918	54.32888
672.108	49.96774
672.299	45.088
672.489	48.64
672.679	44.62463
672.869	47.37134
673.059	54.3461
673.249	46.76346
673.44	41.93415
673.63	46.04715
673.82	49.99597
674.01	43.41811
674.2	48.26899
674.39	56.74074
674.58	50.02566
674.77	46.63517
674.96	45.97728
675.15	61.74324
675.34	50.62915
675.53	46.7256
675.72	46.47333
675.91	42.16528
676.099	53.74955
676.289	54.63762
676.479	51.66246
676.669	44.80647
676.859	48.42333
677.049	44.23454
677.238	46.75056
677.428	54.51029
677.618	49.6091
677.808	52.11694
677.997	50.00749
678.187	43.59514
678.377	48.20005
678.567	45.41783
678.756	45.44444
678.946	47.5832
679.136	43.49572
679.325	45.47035
679.515	44.68088
679.704	44.61093
679.894	50.23069
680.084	48.38835
680.273	50.4912
680.463	46.45847
680.652	45.17472
680.842	48.12804
681.031	51.32875
681.221	45.56362
681.41	50.8065
681.6	47.05778
681.789	52.14024
681.978	52.5271
682.168	48.72694
682.357	48.27778
682.547	50.0548
682.736	49.3542
682.925	51.60572
683.115	51.83199
683.304	51.82587
683.493	50.51021
683.682	49.74893
683.872	51.13146
684.061	54.86781
684.25	50.24493
684.439	56.3442
684.629	50.61803
684.818	63.28696
685.007	47.56911
685.196	47.12325
685.385	56.34942
685.574	50.20128
685.763	51.27926
685.952	49.44598
686.142	43.81205
686.331	53.51356
686.52	42.11748
686.709	57.73366
686.898	55.15392
687.087	52.57134
687.276	56.36581
687.465	54.13364
687.654	47.71308
687.842	56.14832
688.031	44.08455
688.22	55.09373
688.409	50.46568
688.598	50.47063
688.787	59.58683
688.976	50.19482
689.165	58.89509
689.353	47.25842
689.542	52.39078
689.731	54.10217
689.92	58.66198
690.108	54.07725
690.297	48.74882
690.486	49.93449
690.675	55.93112
690.863	58.2723
691.052	58.66304
691.241	51.71744
691.429	50.60641
691.618	58.32488
691.806	44.53811
691.995	48.60761
692.184	52.11572
692.372	50.5571
692.561	53.55846
692.749	52.01848
692.938	63.52245
693.126	53.82591
693.315	51.45154
693.503	53.66097
693.692	54.38057
693.88	56.13979
694.068	62.33658
694.257	52.81745
694.445	54.47764
694.634	41.64865
694.822	56.97485
695.01	58.65556
695.199	59.94039
695.387	61.46027
695.575	58.16151
695.763	52.29547
695.952	49.12411
696.14	47.23832
696.328	50.65824
696.516	53.20211
696.705	54.83086
696.893	52.71067
697.081	45.00176
697.269	56.16289
697.457	48.61524
697.645	47.34475
697.833	55.64465
698.021	47.45367
698.21	48.71948
698.398	50.6993
698.586	47.32956
698.774	46.58342
698.962	49.67877
699.15	47.42901
699.338	45.8669
699.526	52.83262
699.714	49.5595
699.901	50.0582
700.089	56.70767
700.277	49.95698
700.465	52.56802
700.653	55.07697
700.841	54.79232
701.029	49.97173
701.217	59.10991
701.404	54.88714
701.592	63.53057
701.78	63.63159
701.968	53.43375
702.155	52.64799
702.343	47.40752
702.531	59.77088
702.718	55.32228
702.906	54.33421
703.094	51.75668
703.281	61.68935
703.469	56.3665
703.657	60.61035
703.844	72.87573
704.032	64.3522
704.219	52.29955
704.407	58.27794
704.595	61.69053
704.782	55.24828
704.97	51.08332
705.157	54.87589
705.345	62.39515
705.532	71.17227
705.719	58.63216
705.907	63.06681
706.094	55.16832
706.282	65.23713
706.469	54.416
706.656	55.75444
706.844	53.48974
707.031	61.04979
707.218	57.19282
707.406	66.373
707.593	60.71552
707.78	58.96903
707.968	55.82182
708.155	53.02067
708.342	58.39984
708.529	61.12882
708.716	59.07849
708.904	64.84178
709.091	61.07321
709.278	49.47429
709.465	71.04974
709.652	65.40428
709.839	62.68109
710.026	58.3727
710.213	49.16354
710.4	59.08601
710.587	60.86667
710.774	62.42449
710.961	63.46252
711.148	56.8904
711.335	62.12211
711.522	55.54117
711.709	58.16699
711.896	70.09202
712.083	63.73464
712.27	53.90258
712.457	58.13777
712.644	48.32027
712.831	71.0306
713.017	57.72703
713.204	62.56395
713.391	56.17791
713.578	64.69647
713.765	67.88069
713.951	62.60477
714.138	79.45775
714.325	62.10481
714.512	60.6378
714.698	54.1928
714.885	69.37395
715.072	60.88047
715.258	59.55221
715.445	54.38948
715.631	68.22189
715.818	44.83529
716.005	55.40538
716.191	64.00189
716.378	55.92257
716.564	66.71468
716.751	55.67715
716.937	56.28882
717.124	67.42682
717.31	55.64738
717.497	72.5704
717.683	57.3711
717.869	76.76378
718.056	58.72557
718.242	62.8022
718.429	58.41058
718.615	53.89029
718.801	61.42809
718.988	67.63391
719.174	65.07661
719.36	59.73982
719.547	67.77634
719.733	63.21746
719.919	63.64805
720.105	69.11475
720.291	60.20821
720.478	61.62548
720.664	62.04262
720.85	57.57382
721.036	81.71019
721.222	72.48898
721.408	64.02105
721.595	77.56278
721.781	75.2
721.967	68.83901
722.153	74.5526
722.339	66.32351
722.525	66.41222
722.711	55.88845
722.897	54.35631
723.083	57.08732
723.269	70.29926
723.455	81.08011
723.641	89.59219
723.827	65.02478
724.012	65.93225
724.198	61.47817
724.384	71.98107
724.57	67.61989
724.756	51.54592
724.942	51.49533
725.127	72.36942
725.313	73.91267
725.499	73.89073
725.685	77.90735
725.87	65.3032
726.056	58.14114
726.242	73.75761
726.428	54.09291
726.613	69.80682
726.799	60.08068
726.985	54.77
727.17	50.55723
727.356	76.56704
727.541	54.83678
727.727	60.00168
727.913	69.23641
728.098	58.83539
728.284	68.00893
728.469	56.63318
728.655	56.90775
728.84	68.88461
729.026	70.61373
729.211	69.2903
729.397	67.18691
729.582	69.93563
729.767	67.69389
729.953	67.30611
730.138	73.72066
730.323	48.5714
730.509	58.41145
730.694	79.40847
730.879	68.79748
731.065	65.07092
731.25	83.9654
731.435	70.51853
731.621	54.1575
731.806	59.57975
731.991	65.17466
732.176	54.62793
732.361	78.29052
732.547	68.96863
732.732	51.16682
732.917	84.56682
733.102	57.19551
733.287	57.64203
733.472	64.95489
733.657	66.8465
733.842	52.90729
734.027	61.53837
734.212	65.93098
734.397	57.64956
734.582	68.65574
734.767	75.6342
734.952	80.01529
735.137	44.54123
735.322	80.21028
735.507	71.97416
735.692	69.88885
735.877	88.94755
736.062	82.8575
736.247	69.98522
736.431	65.26877
736.616	77.63335
736.801	71.02841
736.986	65.01376
737.171	62.27272
737.355	56.13642
737.54	67.52803
737.725	66.73949
737.909	90.95293
738.094	61.27704
738.279	73.43656
738.463	62.80627
738.648	72.7979
738.833	73.07054
739.017	84.22132
739.202	64.23344
739.386	65.27718
739.571	58.34669
739.756	72.68986
739.94	66.886
740.125	73.46497
740.309	60.86082
740.494	73.85597
740.678	70.00475
740.863	71.97739
741.047	71.0246
741.231	81.49401
741.416	63.21793
741.6	85.55043
741.785	59.6537
741.969	77.48586
742.153	81.46121
742.338	50.02226
742.522	70.14012
742.706	76.23433
742.89	54.17697
743.075	71.8492
743.259	81.55974
743.443	79.06062
743.627	85.78819
743.812	92.10514
743.996	45.01996
744.18	65.87444
744.364	65.40596
744.548	94.74647
744.732	70.7454
744.916	77.1436
745.1	79.17156
745.285	66.33181
745.469	76.7639
745.653	91.33791
745.837	55.28368
746.021	96.31793
746.205	81.62818
746.389	70.78474
746.573	67.04725
746.757	89.91581
746.94	67.04665
747.124	81.66837
747.308	59.75953
747.492	83.10908
747.676	66.03587
747.86	99.32176
748.044	68.40703
748.227	53.19822
748.411	114.18841
748.595	73.11574
748.779	58.45728
748.963	78.07276
749.146	71.50447
749.33	64.32918
749.514	61.94206
749.697	82.6034
749.881	62.3473
750.065	58.52661
750.248	72.56004
750.432	96.88272
750.616	72.87605
750.799	56.42668
750.983	92.87673
751.166	99.63376
751.35	55.68737
751.533	81.28033
751.717	87.7631
751.9	90.00309
752.084	68.65974
752.267	58.73504
752.451	65.07828
752.634	74.15152
752.818	80.48031
753.001	83.33398
753.184	88.14542
753.368	78.59013
753.551	35.8319
753.734	64.20185
753.918	95.37208
754.101	64.44012
754.284	79.48319
754.467	69.7207
754.651	65.12361
754.834	57.56604
755.017	83.96392
755.2	89.78015
755.384	62.00361
755.567	84.12079
755.75	87.01515
755.933	73.32783
756.116	77.48968
756.299	68.15813
756.482	61.79938
756.665	82.17932
756.848	71.89988
757.032	80.29912
757.215	59.28011
757.398	63.08358
757.581	62.42519
757.764	108.86208
757.947	71.50623
758.129	88.58703
758.312	42.69835
758.495	68.80205
758.678	71.5908
758.861	67.89812
759.044	96.79201
759.227	60.56359
759.41	64.07936
759.592	85.44141
759.775	72.50019
759.958	86.52255
760.141	58.69269
760.324	98.66536
760.506	95.04086
760.689	82.338
760.872	102.98883
761.054	80.74491
761.237	69.32593
761.42	79.10403
761.602	83.65382
761.785	77.43949
761.968	89.94011
762.15	93.97265
762.333	67.37537
762.515	75.75434
762.698	65.57655
762.88	78.08113
763.063	69.60706
763.245	77.173
763.428	58.14954
763.61	58.84965
763.793	58.0368
763.975	69.44231
764.158	66.49364
764.34	62.86263
764.522	60.88399
764.705	68.93713
764.887	85.72402
765.069	57.29904
765.252	81.06093
765.434	78.8527
765.616	73.99606
765.799	67.23219
765.981	80.42298
766.163	64.79772
766.345	89.29154
766.528	66.95147
766.71	47.95434
766.892	77.29593
767.074	93.1628
767.256	73.43761
767.438	100.40275
767.62	80.34792
767.802	105.06344
767.985	84.45405
768.167	100.64838
768.349	73.35013
768.531	90.77589
768.713	79.70597
768.895	92.67133
769.077	82.41656
769.259	115.73997
769.441	151.79241
769.623	89.18325
769.804	107.40787
769.986	104.57437
770.168	118.36004
770.35	140.89607
770.532	109.09325
770.714	112.37627
770.896	118.00139
771.077	67.94674
771.259	121.70708
771.441	104.59621
771.623	128.23205
771.804	146.80864
771.986	62.71192
772.168	89.9398
772.35	125.40611
772.531	156.46491
772.713	98.98736
772.894	124.51636
773.076	93.85802
773.258	92.86483
773.439	134.9117
773.621	143.63204
773.802	72.70911
773.984	99.35807
774.166	106.11753
774.347	148.45355
774.529	128.86051
774.71	58.05692
774.891	109.10468
775.073	93.08018
775.254	143.82388
775.436	90.83656
775.617	162.40748
775.799	92.50488
775.98	146.41619
776.161	152.80163
776.343	143.45165
776.524	94.54282
776.705	94.84848
776.886	58.35463
777.068	108.79902
777.249	170.24275
777.43	148.65758
777.611	75.41244
777.793	102.08327
777.974	140.08719
778.155	91.283
778.336	85.1884
778.517	159.56532
778.698	84.48474
778.879	56.35791
779.061	42.3781
779.242	118.60757
779.423	117.41599
779.604	98.11129
779.785	99.99667
779.966	114.40165
780.147	128.96863
780.328	130.90923
780.509	169.69845
780.69	133.5277
780.871	95.86065
781.051	69.56135
781.232	109.69625
781.413	113.29009
781.594	93.91149
781.775	92.15343
781.956	87.77272
782.137	59.20073
782.317	90.70402
782.498	109.91579
782.679	110.0678
782.86	109.30763
783.04	101.19114
783.221	111.98729
783.402	149.79498
783.583	113.43817
783.763	129.79323
783.944	95.34805
784.124	77.39026
784.305	140.72916
784.486	125.46108
784.666	105.2578
784.847	73.5012
785.027	195.69521
785.208	89.80356
785.388	93.32205
785.569	85.29275
785.749	99.17066
785.93	90.35802
786.11	72.2942
786.291	123.52244
786.471	115.47502
786.652	133.56562
786.832	98.64893
787.012	114.28443
787.193	77.23279
787.373	108.14562
787.553	96.67798
787.734	115.84225
787.914	89.7574
788.094	114.39763
788.275	112.75486
788.455	94.14363
788.635	70.91083
788.815	106.17706
788.995	78.47048
789.176	65.37553
789.356	84.07362
789.536	93.01975
789.716	110.88951
789.896	84.72343
790.076	92.32678
790.256	109.82018
790.436	49.96371
790.616	81.6672
790.796	111.43202
790.976	90.68526
791.156	83.92369
791.336	121.31485
791.516	112.21864
791.696	95.27858
791.876	67.30332
792.056	103.41276
792.236	126.02332
792.416	120.67698
792.596	114.90823
792.776	121.07124
792.956	115.86145
793.135	149.85092
793.315	80.96874
793.495	140.22417
793.675	124.36151
793.854	121.77096
794.034	126.66899
794.214	81.91738
794.394	123.60805
794.573	139.21649
794.753	111.98002
794.933	82.92267
795.112	105.83343
795.292	124.32461
795.472	150.94426
795.651	70.74737
795.831	100.64038
796.01	89.74302
796.19	91.65965
796.369	98.73292
796.549	115.4665
796.728	103.85547
796.908	75.40623
797.087	79.33877
797.267	97.92716
797.446	73.95578
797.626	113.03945
797.805	105.92462
797.984	79.91053
798.164	117.61588
798.343	80.46271
798.522	109.41644
798.702	103.03082
798.881	77.68762
799.06	99.63483
799.239	62.67694
799.419	78.49683
799.598	143.22337
799.777	116.68864
799.956	136.18099
800.136	89.52342
800.315	92.10927
800.494	117.32547
800.673	134.61549
800.852	127.76181
801.031	139.25167
801.21	122.0578
801.389	93.87744
801.568	110.22051
801.747	160.66638
801.926	98.0279
802.105	143.33923
802.284	98.53822
802.463	147.50317
802.642	115.39135
802.821	109.59639
803	141.08046
803.179	126.96968
803.358	143.88723
803.537	93.17019
803.716	112.90595
803.895	86.00151
804.073	105.35844
804.252	93.20202
804.431	121.98807
804.61	106.75404
804.789	126.37395
804.967	95.01665
805.146	101.98676
805.325	172.9448
805.503	126.22639
805.682	72.8774
805.861	185.03484
806.039	144.59197
806.218	96.48311
806.397	112.59961
806.575	113.78222
806.754	110.17679
806.932	84.74352
807.111	156.80166
807.289	136.15611
807.468	115.00216
807.646	132.86184
807.825	121.43093
808.003	119.69295
808.182	140.02142
808.36	112.85133
808.539	93.53502
808.717	147.51475
808.895	86.02891
809.074	121.9328
809.252	102.57398
809.43	135.54491
809.609	149.29957
809.787	167.29674
809.965	107.13626
810.144	114.17459
810.322	116.02623
810.5	131.34797
810.678	113.16496
810.856	180.6325
811.035	138.97137
811.213	148.47791
811.391	156.75022
811.569	116.69343
811.747	217.38623
811.925	153.4993
812.103	97.73518
812.281	103.71077
812.459	189.27917
812.637	166.06283
812.816	152.51356
812.994	182.58298
813.171	149.97682
813.349	137.21783
813.527	161.34023
813.705	173.88872
813.883	186.7753
814.061	164.91209
814.239	173.93692
814.417	196.59942
814.595	142.93752
814.773	127.9174
814.95	129.27241
815.128	137.50117
815.306	124.11702
815.484	118.52465
815.662	101.43434
815.839	81.84318
816.017	98.71908
816.195	147.36922
816.372	115.42423
816.55	150.00403
816.728	167.74798
816.905	113.20459
817.083	163.0414
817.261	121.79472
817.438	214.60764
817.616	181.22572
817.793	110.04161
817.971	142.01299
818.148	153.25314
818.326	155.41218
818.503	129.51921
818.681	179.67417
818.858	102.18706
819.036	121.74254
819.213	130.32387
819.391	100.14414
819.568	95.35273
819.745	86.07685
819.923	126.8057
820.1	90.4745
820.277	83.53321
820.455	100.58022
820.632	100.04533
820.809	102.13603
820.986	74.46988
821.164	65.7777
821.341	63.44387
821.518	78.56838
821.695	62.63359
821.872	62.29308
822.05	57.46633
822.227	52.04379
822.404	53.12749
822.581	56.24114
822.758	54.50111
822.935	54.78848
823.112	57.50952
823.289	55.21932
823.466	59.3022
823.643	59.00006
823.82	63.46216
823.997	63.86546
824.174	69.39439
824.351	82.53608
824.528	81.60912
824.705	78.53383
824.882	85.41988
825.059	97.99159
825.236	80.26387
825.412	83.67662
825.589	88.52571
825.766	109.07395
825.943	83.75079
826.12	90.19584
826.296	75.67928
826.473	80.75139
826.65	80.10391
826.827	84.94791
827.003	68.46541
827.18	71.85714
827.357	74.24246
827.533	69.22434
827.71	55.71993
827.887	68.31226
828.063	74.46988
828.24	67.21209
828.416	81.09729
828.593	73.49396
828.769	91.85896
828.946	97.60569
829.122	103.808
829.299	108.04338
829.475	78.16494
829.652	106.50219
829.828	145.6708
830.005	106.51045
830.181	142.44598
830.357	109.18147
830.534	126.61931
830.71	117.78371
830.886	135.64027
831.063	129.09621
831.239	168.16896
831.415	93.09563
831.592	146.79089
831.768	109.78529
831.944	98.31713
832.12	156.02046
832.296	153.06708
832.473	131.58361
832.649	97.21998
832.825	116.43984
833.001	81.04773
833.177	106.58722
833.353	94.28353
833.529	67.99257
833.705	83.96698
833.881	70.04984
834.058	68.85661
834.234	72.86201
834.41	71.55226
834.586	64.1494
834.761	70.46734
834.937	75.88665
835.113	78.89469
835.289	74.92164
835.465	88.10125
835.641	84.34938
835.817	87.87761
835.993	144.51572
836.169	82.44139
836.344	116.76234
836.52	124.41211
836.696	142.53229
836.872	105.3459
837.048	226.99112
837.223	113.89974
837.399	192.62703
837.575	179.29572
837.75	158.80262
837.926	200.29107
838.102	305.48433
838.277	234.43572
838.453	322.85355
838.628	327.4651
838.804	143.2634
838.98	283.67662
839.155	160.79732
839.331	211.79806
839.506	136.4555
839.682	132.6386
839.857	185.36226
840.033	189.33887
840.208	111.48949
840.384	73.98115
840.559	117.57174
840.734	161.5839
840.91	203.52804
841.085	142.84578
841.26	144.99697
841.436	160.07408
841.611	132.61874
841.786	189.69254
841.962	268.57086
842.137	189.55405
842.312	129.03896
842.487	174.45392
842.663	137.79834
842.838	155.13283
843.013	604.42407
843.188	341.8746
843.363	236.50018
843.538	549.70086
843.714	558.16265
843.889	481.52213
844.064	548.68666
844.239	304.67003
844.414	578.18208
844.589	336.56579
844.764	758.84902
844.939	519.42714
845.114	493.29742
845.289	693.46548
845.464	813.07775
845.639	773.46355
845.814	305.22463
845.989	498.6488
846.163	474.12391
846.338	731.22449
846.513	673.59019
846.688	380.34939
846.863	743.11152
847.038	445.39973
847.212	391.0372
847.387	805.90528
847.562	448.77989
847.737	624.82827
847.911	248.95613
848.086	263.2843
848.261	557.63355
848.435	388.08277
848.61	565.70195
848.785	318.6172
848.959	552.43391
849.134	703.30591
849.308	1126.87121
849.483	741.2612
849.658	721.67514
849.832	401.97032
850.007	323.91382
850.181	1119.891
850.356	629.77125
850.53	1010.61845
850.705	358.83938
850.879	244.62521
851.053	589.35344
851.228	468.84518
851.402	884.78606
851.577	674.66981
851.751	876.10984
851.925	463.79209
852.099	312.55625
852.274	308.80429
852.448	389.07299
852.622	1090.47952
852.797	386.67495
852.971	512.37933
853.145	914.86569
853.319	1051.14238
853.493	1257.93744
853.668	523.03163
853.842	1553.09713
854.016	1144.07327
854.19	1620.20924
854.364	697.80382
854.538	651.71875
854.712	792.66972
854.886	450.91307
855.06	420.70086
855.234	217.33827
855.408	877.79592
855.582	610.09725
855.756	1012.33257
855.93	620.05105
856.104	750.76543
856.278	800.87726
856.452	431.61828
856.626	656.32968
856.8	1172.24182
856.973	1208.64106
857.147	1164.18047
857.321	1609.58527
857.495	576.50522
857.669	857.35444
857.842	730.58549
858.016	526.80302
858.19	430.69566
858.364	1374.10212
858.537	615.22142
858.711	1188.17959
858.885	898.51323
859.058	348.07929
859.232	334.21127
859.405	504.05478
859.579	826.96214
859.753	678.71217
859.926	927.94646
860.1	675.49039
860.273	1003.4771
860.447	910.38844
860.62	666.57534
860.794	885.13048
860.967	686.0643
861.141	597.55482
861.314	750.12895
861.487	720.72349
861.661	556.20872
861.834	846.70516
862.008	1215.29122
862.181	902.26279
862.354	1498.3784
862.528	686.76517
862.701	453.79865
862.874	351.31936
863.047	548.59607
863.221	580.0888
863.394	412.90676
863.567	496.67365
863.74	231.37021
863.913	1063.97425
864.087	663.99111
864.26	681.49486
864.433	728.83737
864.606	1027.27316
864.779	1614.53944
864.952	316.01361
865.125	1061.50646
865.298	590.99862
865.471	668.25671
865.644	1020.37383
865.817	675.59634
865.99	1029.52808
866.163	858.74504
866.336	498.99163
866.509	468.9491
866.682	667.37207
866.855	1371.94173
867.028	219.02575
867.2	629.82622
867.373	164.94546
867.546	537.60439
867.719	1269.97877
867.892	734.06663
868.064	422.09776
868.237	504.53215
868.41	517.91319
868.583	379.45619
868.755	307.58229
868.928	692.57357
869.101	949.39718
869.273	1791.37779
869.446	522.63202
869.619	977.52146
869.791	505.6759
869.964	776.66828
870.136	1069.73314
870.309	472.07397
870.481	418.77691
870.654	368.6436
870.826	486.62832
870.999	355.1283
871.171	540.93717
871.344	340.14254
871.516	486.11872
871.689	485.61096
871.861	609.62644
872.033	398.88919
872.206	392.11972
872.378	544.31329
872.55	484.16187
872.723	487.01775
872.895	656.6627
873.067	567.35435
873.24	548.16955
873.412	488.06431
873.584	399.59257
873.756	694.65883
873.928	787.60334
874.101	416.79722
874.273	525.63575
874.445	187.69081
874.617	313.80706
874.789	398.51582
874.961	392.18597
875.133	480.06624
875.305	566.60499
875.477	474.13577
875.649	262.51088
875.821	372.99303
875.993	800.71749
876.165	413.27493
876.337	586.86493
876.509	531.48201
876.681	455.22286
876.853	510.82526
877.025	749.2826
877.197	269.45569
877.369	325.90544
877.541	435.55154
877.712	143.96063
877.884	267.52595
878.056	560.02072
878.228	274.03953
878.4	523.21794
878.571	279.23947
878.743	201.54815
878.915	345.40288
879.086	228.54255
879.258	236.73519
879.43	203.93296
879.601	199.06904
879.773	184.10681
879.945	76.25045
880.116	90.81974
880.288	67.51005
880.459	67.82368
880.631	62.66562
880.802	67.49104
880.974	64.84328
881.145	54.89192
881.317	64.40476
881.488	58.0143
881.66	61.41271
881.831	57.07464
882.002	67.85177
882.174	58.89515
882.345	65.67195
882.517	52.91424
882.688	76.75837
882.859	67.50228
883.03	93.251
883.202	89.52022
883.373	92.47691
883.544	90.79334
883.715	122.92586
883.887	123.42177
884.058	117.34949
884.229	141.58257
884.4	141.09569
884.571	168.94063
884.742	145.08186
884.914	146.47945
885.085	198.78942
885.256	246.7475
885.427	218.42795
885.598	227.05882
885.769	243.34872
885.94	255.18212
886.111	179.14278
886.282	252.29787
886.453	273.44458
886.624	225.16592
886.795	291.02532
886.966	276.52115
887.136	317.26618
887.307	259.36847
887.478	467.51772
887.649	389.30687
887.82	423.52976
887.991	300.08151
888.161	493.00306
888.332	476.84827
888.503	270.19254
888.674	506.38577
888.844	774.15139
889.015	747.48537
889.186	390.51111
889.356	666.74132
889.527	416.15613
889.698	1084.64906
889.868	361.65889
890.039	580.53554
890.209	415.28714
890.38	630.2399
890.551	477.25963
890.721	876.60849
890.892	526.78954
891.062	1268.24846
891.233	607.77719
891.403	747.72302
891.574	594.8977
891.744	404.65476
891.914	400.99306
892.085	567.28754
892.255	165.90635
892.425	563.06487
892.596	490.02646
892.766	583.41606
892.936	830.88276
893.107	501.51044
893.277	293.54505
893.447	239.22209
893.618	189.39295
893.788	272.16705
893.958	148.7899
894.128	129.32151
894.298	163.01351
894.468	188.85502
894.639	99.58087
894.809	89.47082
894.979	108.45207
895.149	137.6215
895.319	110.50512
895.489	136.7498
895.659	180.09534
895.829	118.84683
895.999	140.7558
896.169	122.58519
896.339	154.29637
896.509	311.50514
896.679	287.3401
896.849	341.44524
897.019	372.2766
897.189	396.54816
897.358	357.69189
897.528	564.42239
897.698	261.44936
897.868	392.306
898.038	952.83103
898.208	1117.97364
898.377	282.08354
898.547	2007.29789
898.717	3498.64094
898.886	948.17909
899.056	803.57903
899.226	2126.00195
899.395	2187.82304
899.565	2646.49322
899.735	4668.44893
899.904	1705.59319
900.074	5971.38675
900.244	639.90499
900.413	3282.1487
900.583	951.05655
900.752	-1956.6938
900.922	1164.4287
901.091	414.2807
901.261	2278.92126
901.43	1322.4787
901.599	3160.78931
901.769	2828.7156
901.938	2740.11462
902.108	1043.57279
902.277	1559.79487
902.446	571.61619
902.616	713.78725
902.785	631.59935
902.954	873.39963
903.124	510.30358
903.293	399.57611
903.462	184.48693
903.631	245.53741
903.801	176.68656
903.97	95.92598
904.139	148.79254
904.308	118.39921
904.477	112.93283
904.646	75.19705
904.816	101.9622
904.985	155.51635
905.154	206.41573
