Data from WindowProjectSample_Transmission__20__00020__05212521763406255.txt Node

Date: Mon May 05 17:14:09 EDT 2025
User: jessi
Spectrometer: SR400872
Trigger mode: 0
Integration Time (sec): 5.000010E-1
Scans to average: 20
Electric dark correction enabled: true
Nonlinearity correction enabled: true
Boxcar width: 0
XAxis mode: Wavelengths
Number of Pixels in Spectrum: 3648
>>>>>Begin Spectral Data<<<<<
184.909	21010.64755
185.132	-5357.81283
185.355	-3024.28514
185.578	-18176.02315
185.801	1340.40094
186.024	10227.59493
186.247	-1670.26813
186.47	1067.29805
186.693	465.83466
186.916	345.46863
187.139	-3702.83766
187.362	3487.85784
187.585	4923.05403
187.808	3568.40143
188.031	-7.70142
188.254	-52616.26891
188.476	-1784.37806
188.699	6327.21852
188.922	631.53335
189.145	-14766.17342
189.368	-607.08939
189.591	-1356.47795
189.813	3011.10808
190.036	-51501.16697
190.259	-854.82657
190.482	-4462.64999
190.705	6995.30387
190.927	-2478.3543
191.15	13034.88556
191.373	3348.75935
191.595	-9006.68418
191.818	-4011.85662
192.041	-5582.43521
192.263	-3366.64504
192.486	-816.61599
192.709	-3795.66741
192.931	7564.69826
193.154	-28872.07922
193.377	-2731.26933
193.599	-2544.65477
193.822	-9169.94042
194.044	-1853.42661
194.267	1135.42022
194.489	305.82685
194.712	-41254.02807
194.934	-30948.79537
195.157	1205.77934
195.379	1471.52155
195.602	-7448.06309
195.824	-1318.29938
196.047	-8118.36066
196.269	2622.77626
196.492	-6512.45158
196.714	28290.23747
196.936	-8294.09959
197.159	-1109.29342
197.381	1229.58272
197.604	489.45362
197.826	12377.39643
198.048	-10204.17594
198.271	-2760.53057
198.493	7578.00512
198.715	2206.89714
198.938	-484.89755
199.16	6820.14123
199.382	-102487.50444
199.604	2717.85263
199.827	-1016.97164
200.049	-2892.39067
200.271	14095.87414
200.493	1192.6591
200.715	-37319.55631
200.938	-6054.11686
201.16	-4141.83112
201.382	20311.63142
201.604	2262.58269
201.826	2254.73906
202.048	-1741.61297
202.27	-1940.39429
202.492	-34884.54064
202.715	2958.69327
202.937	-4448.72346
203.159	-6193.92069
203.381	1433.23147
203.603	6845.30088
203.825	5916.3293
204.047	2240.61581
204.269	-2764.10126
204.491	2188.87371
204.713	5850.01502
204.935	-486568.36281
205.156	1101.1667
205.378	-2796.11455
205.6	1603.34723
205.822	153063.95298
206.044	-1054.42456
206.266	1609.51461
206.488	4665.80954
206.71	-5284.45481
206.932	1097.02814
207.153	11950.35325
207.375	-7118.65856
207.597	-36979.71756
207.819	-2768.31021
208.041	2440.22451
208.262	447.62466
208.484	743.13244
208.706	-825.91048
208.927	-853.51584
209.149	539.32464
209.371	-2904.17027
209.593	-283.20945
209.814	-774.12649
210.036	580.04267
210.258	-618.06035
210.479	1768.4816
210.701	1577.01313
210.922	3319.51029
211.144	-4015.4307
211.366	2075.58824
211.587	8164.29689
211.809	-8018.3718
212.03	2371.95708
212.252	456.79735
212.473	2116.71236
212.695	-6071.27198
212.916	2817.77635
213.138	-687.29231
213.359	3737.46694
213.581	5159.9165
213.802	-604.83573
214.024	1090.65257
214.245	2177.8328
214.466	3634.20407
214.688	-3112.39035
214.909	-1180.02842
215.131	-1766.39351
215.352	-3210.02888
215.573	14382.41043
215.795	5135.95828
216.016	5371.43414
216.237	811.43438
216.459	3565.6744
216.68	1851.98354
216.901	5106.64088
217.122	-2756.16713
217.344	-11426.14215
217.565	3500.5556
217.786	8922.95703
218.007	16069.77664
218.228	-715.34894
218.45	5544.92756
218.671	665.60207
218.892	37024.58315
219.113	1464.40528
219.334	-272.56478
219.555	9880.32242
219.776	3017.25074
219.997	22258.49373
220.219	2751.52299
220.44	-11068.06077
220.661	474.92041
220.882	1528.53455
221.103	-1000.92696
221.324	2194.7427
221.545	2283.39863
221.766	-8964.50964
221.987	842.87895
222.208	1711.80154
222.429	4313.57071
222.65	160.32315
222.87	17629.30794
223.091	716.80045
223.312	589.90346
223.533	1403.25092
223.754	1539.2102
223.975	1340.88901
224.196	2027.586
224.417	1318.59076
224.637	568.07288
224.858	103.3061
225.079	1059.71695
225.3	659.37369
225.521	3737.04637
225.741	482.15036
225.962	507.06599
226.183	135.48903
226.404	670.68625
226.624	400.25335
226.845	636.29313
227.066	424.46466
227.286	245.04711
227.507	126.47746
227.728	118.98405
227.948	235.35405
228.169	71.08595
228.389	85.0306
228.61	45.45116
228.831	62.91765
229.051	1.08386
229.272	37.04762
229.492	57.83772
229.713	11.80767
229.933	37.07375
230.154	30.0228
230.374	53.49502
230.595	36.50394
230.815	23.69173
231.036	37.13057
231.256	-9.11664
231.477	65.6132
231.697	35.9225
231.917	41.35959
232.138	56.10822
232.358	112.34231
232.579	104.47606
232.799	19.03301
233.019	99.63373
233.24	109.78316
233.46	37.81561
233.68	59.34187
233.901	43.78289
234.121	24.70285
234.341	12.92487
234.561	-2.11098
234.782	18.6881
235.002	66.35917
235.222	-3.90406
235.442	64.58038
235.662	30.8933
235.883	61.55717
236.103	47.79177
236.323	36.64122
236.543	28.21572
236.763	37.26424
236.983	41.16841
237.203	39.1811
237.423	59.33778
237.643	88.26971
237.864	73.83359
238.084	17.45905
238.304	25.23375
238.524	42.79304
238.744	38.97426
238.964	74.47744
239.184	61.53115
239.404	62.0474
239.624	32.75574
239.843	57.09027
240.063	33.89082
240.283	21.39077
240.503	25.42729
240.723	25.63875
240.943	14.03786
241.163	19.49266
241.383	14.68393
241.603	6.9978
241.822	9.75988
242.042	6.44137
242.262	8.17041
242.482	9.65302
242.702	10.63772
242.921	2.16785
243.141	6.54404
243.361	6.20687
243.581	9.01989
243.8	6.89296
244.02	5.01486
244.24	8.97045
244.459	8.72224
244.679	16.82778
244.899	11.05784
245.118	12.98889
245.338	11.81601
245.558	13.23005
245.777	7.72004
245.997	9.96005
246.216	10.34929
246.436	6.13159
246.655	4.69748
246.875	3.20509
247.094	6.39194
247.314	2.11628
247.533	3.65456
247.753	4.06787
247.972	3.19159
248.192	0.91618
248.411	1.80798
248.631	3.3488
248.85	4.66743
249.07	3.72968
249.289	5.89342
249.508	4.54165
249.728	7.32785
249.947	6.9244
250.166	8.92664
250.386	3.93096
250.605	6.95105
250.824	11.19862
251.044	7.346
251.263	28.39901
251.482	14.47527
251.701	11.77214
251.921	-0.47467
252.14	3.54633
252.359	4.11215
252.578	10.16565
252.798	3.3005
253.017	8.69714
253.236	4.01143
253.455	5.70752
253.674	10.52679
253.893	4.51964
254.112	7.15076
254.331	11.43665
254.551	8.2614
254.77	3.26013
254.989	12.91264
255.208	8.62436
255.427	15.10348
255.646	11.14682
255.865	21.7478
256.084	9.28031
256.303	10.65866
256.522	13.29731
256.741	2.56362
256.96	2.1426
257.179	7.72154
257.397	10.94798
257.616	6.02603
257.835	6.36226
258.054	14.77665
258.273	10.08254
258.492	11.23796
258.711	6.75811
258.93	3.25836
259.148	5.05836
259.367	4.6198
259.586	5.61722
259.805	2.40028
260.023	5.26166
260.242	3.87442
260.461	2.72084
260.68	1.21754
260.898	4.43003
261.117	1.3487
261.336	0.88357
261.554	3.54264
261.773	3.39544
261.992	0.76324
262.21	3.01282
262.429	3.42359
262.648	7.01739
262.866	7.85056
263.085	5.53594
263.303	4.66077
263.522	8.69564
263.74	8.77421
263.959	15.4751
264.178	6.72063
264.396	5.65245
264.615	4.39393
264.833	10.48606
265.051	8.79554
265.27	10.502
265.488	11.08553
265.707	6.2488
265.925	10.63995
266.144	4.59692
266.362	5.52585
266.58	5.33572
266.799	5.10874
267.017	5.87603
267.235	5.28624
267.454	3.07351
267.672	1.82423
267.89	3.97765
268.109	4.42131
268.327	4.32129
268.545	0.87885
268.763	4.06203
268.982	1.49745
269.2	3.99434
269.418	2.90612
269.636	1.8802
269.854	4.78134
270.073	2.90472
270.291	1.95286
270.509	1.67852
270.727	4.40381
270.945	7.32358
271.163	7.3469
271.381	1.38503
271.599	3.28302
271.817	5.34696
272.036	1.5913
272.254	3.16414
272.472	2.21067
272.69	2.58641
272.908	2.45462
273.126	4.709
273.344	5.10347
273.562	1.78314
273.779	2.55862
273.997	3.86053
274.215	4.04774
274.433	2.83888
274.651	4.50207
274.869	4.44646
275.087	2.93028
275.305	3.96271
275.523	2.45523
275.74	2.87471
275.958	5.58345
276.176	7.91086
276.394	2.56005
276.612	3.22755
276.829	3.25518
277.047	2.69209
277.265	2.76587
277.483	3.53014
277.7	4.24015
277.918	3.4136
278.136	6.21672
278.353	2.85913
278.571	1.76491
278.789	4.06063
279.006	0.85096
279.224	2.96803
279.442	4.94687
279.659	3.37313
279.877	2.39053
280.094	5.725
280.312	1.14956
280.529	3.36935
280.747	0.82633
280.964	2.44357
281.182	5.92492
281.399	2.82714
281.617	3.88681
281.834	2.66021
282.052	1.82687
282.269	3.08558
282.487	2.34832
282.704	2.15956
282.921	2.29029
283.139	3.25757
283.356	3.95161
283.574	3.80521
283.791	1.82054
284.008	5.47509
284.226	3.02058
284.443	3.38698
284.66	4.40174
284.877	3.50282
285.095	1.99161
285.312	1.55803
285.529	0.87423
285.746	0.74008
285.964	2.02338
286.181	1.42707
286.398	1.9146
286.615	2.59124
286.832	2.62135
287.05	0.51258
287.267	1.82154
287.484	1.74703
287.701	2.52823
287.918	2.55173
288.135	2.60503
288.352	1.27463
288.569	1.36511
288.786	2.40999
289.003	2.02639
289.22	2.97678
289.437	1.62449
289.654	2.86124
289.871	3.04107
290.088	2.93441
290.305	2.37735
290.522	1.77327
290.739	2.08777
290.956	3.11646
291.173	3.537
291.39	3.37335
291.607	2.23047
291.824	1.67925
292.04	1.25447
292.257	2.87638
292.474	3.20387
292.691	2.09567
292.908	0.80746
293.125	1.59109
293.341	1.10342
293.558	5.10713
293.775	1.82631
293.992	2.00713
294.208	0.90619
294.425	1.34242
294.642	1.94879
294.858	2.80783
295.075	0.78448
295.292	1.98367
295.508	2.39045
295.725	4.14525
295.942	1.86797
296.158	1.50472
296.375	2.26967
296.591	1.79475
296.808	1.98896
297.024	2.35347
297.241	2.65214
297.458	2.87302
297.674	0.65981
297.891	2.28719
298.107	2.13214
298.323	1.59088
298.54	3.69805
298.756	1.88437
298.973	1.22255
299.189	3.69389
299.406	2.04449
299.622	3.52053
299.838	3.46303
300.055	3.37129
300.271	1.50466
300.487	1.96164
300.704	2.22336
300.92	1.63693
301.136	5.22732
301.353	3.53263
301.569	2.78951
301.785	3.12458
302.001	3.69002
302.218	3.24313
302.434	3.42306
302.65	1.83028
302.866	2.48881
303.083	5.16023
303.299	4.99673
303.515	3.23567
303.731	3.35957
303.947	1.88735
304.163	2.50735
304.379	3.38381
304.595	3.58836
304.812	2.64511
305.028	2.64021
305.244	3.04645
305.46	3.69075
305.676	4.03095
305.892	4.50326
306.108	3.80822
306.324	2.94956
306.54	5.01139
306.756	3.7984
306.972	3.61531
307.187	3.27085
307.403	4.59708
307.619	2.81833
307.835	4.54451
308.051	4.73832
308.267	2.43554
308.483	4.55403
308.699	3.84182
308.914	3.46043
309.13	3.35094
309.346	2.30849
309.562	2.66397
309.778	2.37853
309.993	3.83726
310.209	3.68305
310.425	2.55519
310.641	3.44423
310.856	2.70589
311.072	2.64261
311.288	3.46394
311.503	3.88609
311.719	2.11699
311.935	2.12728
312.15	4.09509
312.366	3.70263
312.581	3.9856
312.797	3.66672
313.013	4.44082
313.228	3.10222
313.444	3.41676
313.659	2.95251
313.875	3.85797
314.09	3.5193
314.306	4.83623
314.521	4.22784
314.737	4.29128
314.952	3.56507
315.168	3.69049
315.383	3.97024
315.599	3.38999
315.814	3.41584
316.029	4.3208
316.245	2.67385
316.46	2.14356
316.675	4.59337
316.891	5.09412
317.106	6.34215
317.321	3.6812
317.537	4.34831
317.752	4.45252
317.967	4.76016
318.183	2.85006
318.398	3.32659
318.613	4.36901
318.828	4.98192
319.043	4.27963
319.259	3.48147
319.474	3.95588
319.689	4.82037
319.904	2.20166
320.119	4.48995
320.334	3.9626
320.549	3.51359
320.765	4.85246
320.98	4.05174
321.195	4.226
321.41	3.66423
321.625	4.47965
321.84	5.42663
322.055	5.13743
322.27	3.14224
322.485	2.83379
322.7	4.1352
322.915	4.60204
323.13	3.30059
323.345	5.35185
323.56	4.77637
323.775	4.3814
323.989	4.24671
324.204	3.99731
324.419	4.91979
324.634	2.93248
324.849	3.78435
325.064	7.00202
325.279	4.8695
325.493	4.27624
325.708	4.62386
325.923	3.27196
326.138	3.47419
326.352	5.29974
326.567	4.75537
326.782	3.46895
326.997	3.48869
327.211	4.30998
327.426	4.09149
327.641	3.66343
327.855	2.67092
328.07	4.34347
328.285	5.66778
328.499	3.39576
328.714	4.07416
328.928	4.36466
329.143	3.7779
329.358	5.00082
329.572	4.81955
329.787	5.35095
330.001	6.30823
330.216	2.819
330.43	5.82562
330.645	5.31336
330.859	4.86799
331.074	3.19364
331.288	4.03246
331.503	5.34062
331.717	2.97756
331.931	4.28191
332.146	4.18166
332.36	5.76615
332.575	4.36458
332.789	4.08459
333.003	4.28803
333.218	4.6403
333.432	3.44886
333.646	4.8998
333.86	5.6552
334.075	5.51026
334.289	3.58222
334.503	2.98379
334.717	4.59812
334.932	4.32314
335.146	4.9178
335.36	3.55618
335.574	4.58363
335.788	4.40276
336.003	5.00808
336.217	4.75662
336.431	4.5358
336.645	3.5867
336.859	3.16163
337.073	4.06699
337.287	4.36007
337.501	3.12394
337.715	4.56493
337.929	4.8858
338.143	3.33898
338.357	4.06933
338.571	3.64098
338.785	4.80426
338.999	3.94336
339.213	3.87228
339.427	3.16491
339.641	5.43217
339.855	3.7703
340.069	3.64433
340.283	5.0156
340.497	5.7879
340.711	4.53752
340.924	4.13664
341.138	3.39436
341.352	3.15088
341.566	4.48403
341.78	3.02077
341.993	4.00498
342.207	3.60115
342.421	4.47186
342.635	4.12909
342.848	3.92637
343.062	2.34071
343.276	3.79434
343.49	5.84553
343.703	3.61755
343.917	5.1431
344.131	5.09745
344.344	3.6955
344.558	3.94658
344.771	3.15714
344.985	5.65987
345.199	5.85494
345.412	4.56861
345.626	4.68789
345.839	3.01051
346.053	3.37205
346.266	3.61427
346.48	4.88372
346.693	4.67525
346.907	4.62981
347.12	3.52754
347.334	4.49549
347.547	4.58131
347.76	4.20451
347.974	5.21783
348.187	4.50835
348.401	4.09043
348.614	3.65333
348.827	4.05634
349.041	4.69327
349.254	2.97247
349.467	3.96442
349.681	3.40753
349.894	3.64868
350.107	5.40036
350.32	6.01373
350.534	3.27126
350.747	4.01359
350.96	3.78085
351.173	3.86892
351.386	4.0064
351.6	3.8333
351.813	3.88418
352.026	4.06624
352.239	3.44562
352.452	4.09708
352.665	5.21564
352.878	4.26141
353.092	5.97955
353.305	5.09594
353.518	4.62538
353.731	3.62949
353.944	5.30889
354.157	4.12971
354.37	3.95233
354.583	3.59068
354.796	3.36097
355.009	5.25585
355.222	4.82209
355.435	4.51774
355.647	5.28987
355.86	3.99242
356.073	4.68419
356.286	4.17024
356.499	5.28893
356.712	5.00579
356.925	5.20189
357.138	5.27025
357.35	4.09928
357.563	4.42354
357.776	4.76282
357.989	4.6036
358.201	5.08003
358.414	5.08326
358.627	5.85942
358.84	4.57823
359.052	3.87446
359.265	4.28559
359.478	5.59457
359.69	3.03645
359.903	5.48216
360.116	5.63488
360.328	3.75252
360.541	5.48523
360.753	4.37374
360.966	4.70356
361.179	4.85831
361.391	4.79169
361.604	4.57722
361.816	4.83425
362.029	4.85179
362.241	4.58232
362.454	4.98048
362.666	4.5027
362.879	5.56453
363.091	4.85546
363.304	4.76784
363.516	4.94102
363.728	4.42097
363.941	5.52856
364.153	5.13181
364.366	3.76478
364.578	4.34996
364.79	5.29267
365.003	5.23236
365.215	4.66665
365.427	5.63879
365.639	5.87858
365.852	5.26703
366.064	6.77625
366.276	5.04033
366.488	5.39666
366.701	4.95017
366.913	5.06917
367.125	5.18275
367.337	4.59069
367.549	4.8945
367.762	5.38757
367.974	5.22718
368.186	4.95285
368.398	6.04525
368.61	5.77443
368.822	5.91099
369.034	5.20528
369.246	6.02945
369.458	7.62613
369.67	4.87371
369.882	6.78378
370.094	4.26735
370.306	6.72091
370.518	5.43799
370.73	5.11856
370.942	5.27297
371.154	5.68891
371.366	5.42114
371.578	6.0975
371.79	5.58897
372.002	6.55453
372.214	7.52766
372.425	5.83185
372.637	6.97218
372.849	6.18019
373.061	4.57687
373.273	6.19266
373.484	6.24945
373.696	6.56645
373.908	4.49556
374.12	6.87775
374.331	6.45947
374.543	5.54184
374.755	5.50132
374.967	6.08372
375.178	6.86765
375.39	5.88135
375.602	6.44047
375.813	5.15823
376.025	5.83392
376.236	6.54955
376.448	6.74661
376.66	6.31981
376.871	6.3714
377.083	7.39293
377.294	7.94723
377.506	6.43637
377.717	7.79583
377.929	7.0057
378.14	6.57526
378.352	7.21111
378.563	7.30068
378.775	7.95182
378.986	6.26944
379.197	7.00665
379.409	6.36546
379.62	7.28015
379.832	7.35884
380.043	6.92129
380.254	7.25274
380.466	6.45712
380.677	9.17992
380.888	8.60594
381.1	9.04811
381.311	9.06108
381.522	7.54874
381.733	9.31783
381.945	7.44722
382.156	7.36602
382.367	7.15396
382.578	9.32982
382.789	9.57409
383.001	7.10866
383.212	8.8667
383.423	8.83436
383.634	8.62615
383.845	8.52585
384.056	7.68049
384.267	8.09854
384.478	8.04169
384.69	7.33585
384.901	8.43695
385.112	8.39764
385.323	9.48563
385.534	8.52464
385.745	8.56611
385.956	8.44977
386.167	7.84071
386.378	8.71208
386.588	8.06381
386.799	7.92765
387.01	7.58118
387.221	9.10511
387.432	8.7414
387.643	9.73978
387.854	8.55033
388.065	8.55363
388.275	8.64041
388.486	8.49098
388.697	8.72985
388.908	8.5435
389.119	9.82478
389.329	9.77125
389.54	9.09521
389.751	9.23928
389.962	9.94914
390.172	9.18907
390.383	9.02252
390.594	8.75391
390.804	8.88833
391.015	9.0248
391.226	9.53588
391.436	9.79943
391.647	9.80982
391.858	10.0429
392.068	8.6838
392.279	9.15976
392.489	10.02438
392.7	10.38899
392.91	9.37851
393.121	9.45288
393.331	10.32112
393.542	10.67644
393.752	10.62977
393.963	10.36204
394.173	10.37517
394.384	10.37838
394.594	10.32941
394.804	9.48623
395.015	10.47638
395.225	10.65844
395.436	9.79595
395.646	10.60123
395.856	10.12883
396.067	9.44434
396.277	11.09194
396.487	10.68311
396.697	10.81344
396.908	10.79678
397.118	10.948
397.328	10.62722
397.538	11.13435
397.749	10.18214
397.959	11.18387
398.169	11.00289
398.379	9.92085
398.589	11.2305
398.8	11.06677
399.01	11.0115
399.22	10.85062
399.43	12.31302
399.64	10.95315
399.85	11.42346
400.06	11.21668
400.27	10.62879
400.48	11.07759
400.69	11.98286
400.9	10.76791
401.11	10.49272
401.32	11.52989
401.53	10.92803
401.74	12.30573
401.95	11.67322
402.16	11.01594
402.37	11.52517
402.58	11.09065
402.79	11.73358
403	12.22833
403.209	11.14585
403.419	12.37402
403.629	11.17865
403.839	12.35083
404.049	12.25262
404.258	11.70091
404.468	11.31204
404.678	12.26694
404.888	12.69733
405.097	11.84977
405.307	11.99408
405.517	12.51236
405.727	12.50953
405.936	11.91444
406.146	12.34958
406.356	13.06284
406.565	12.21054
406.775	11.84862
406.984	11.98758
407.194	13.29577
407.404	12.18275
407.613	12.60953
407.823	12.75544
408.032	13.03732
408.242	12.9162
408.451	12.07961
408.661	12.25358
408.87	13.44486
409.08	11.89947
409.289	12.56679
409.499	12.70426
409.708	12.56969
409.918	11.4255
410.127	12.67067
410.336	13.50221
410.546	13.1374
410.755	12.43797
410.964	12.71353
411.174	12.41544
411.383	12.9739
411.592	13.05014
411.802	12.3563
412.011	13.25205
412.22	12.64889
412.429	13.95839
412.639	13.97565
412.848	13.39754
413.057	13.71636
413.266	13.66611
413.475	13.10624
413.685	13.37938
413.894	13.66147
414.103	13.70167
414.312	13.769
414.521	12.86319
414.73	13.28399
414.939	14.55477
415.148	13.74771
415.357	13.64914
415.566	13.23807
415.776	13.21875
415.985	13.34504
416.194	14.00782
416.403	14.73447
416.611	12.93366
416.82	13.45902
417.029	13.82682
417.238	13.51123
417.447	13.36425
417.656	13.7161
417.865	13.45466
418.074	13.9429
418.283	14.11276
418.492	14.7143
418.7	14.45939
418.909	15.66728
419.118	14.81456
419.327	15.28187
419.536	15.25701
419.744	15.4635
419.953	16.87106
420.162	17.28877
420.371	16.96557
420.579	17.90195
420.788	18.72094
420.997	18.80475
421.205	19.64041
421.414	19.24748
421.623	19.49975
421.831	19.14954
422.04	19.69
422.249	18.56478
422.457	18.81429
422.666	17.75268
422.874	18.57193
423.083	18.59139
423.291	18.69711
423.5	18.66425
423.708	19.35651
423.917	19.80563
424.125	19.44608
424.334	19.39194
424.542	20.97486
424.751	20.67632
424.959	20.28034
425.167	20.17716
425.376	20.00449
425.584	18.39635
425.793	18.14508
426.001	17.07997
426.209	16.78496
426.418	15.52893
426.626	15.02752
426.834	14.88388
427.042	15.22215
427.251	14.93333
427.459	15.68943
427.667	15.26153
427.875	14.54808
428.084	14.90163
428.292	15.77458
428.5	15.54106
428.708	14.67724
428.916	14.66967
429.124	15.13618
429.333	14.90887
429.541	15.06138
429.749	15.29516
429.957	15.22834
430.165	16.81834
430.373	14.45943
430.581	15.41683
430.789	16.21579
430.997	15.21519
431.205	14.8068
431.413	15.50905
431.621	15.17409
431.829	15.73411
432.037	15.30533
432.245	15.59192
432.453	15.75229
432.661	15.42206
432.869	16.53199
433.076	15.22286
433.284	15.58411
433.492	16.07661
433.7	16.30756
433.908	15.67585
434.116	15.97875
434.323	15.95555
434.531	15.73973
434.739	16.15129
434.947	16.32777
435.154	16.32045
435.362	15.91
435.57	15.74108
435.778	15.50005
435.985	16.19464
436.193	15.59599
436.401	16.56451
436.608	15.80267
436.816	15.61455
437.023	16.52448
437.231	16.76982
437.439	16.05707
437.646	16.23127
437.854	16.14037
438.061	16.2726
438.269	15.92475
438.476	16.42539
438.684	16.11133
438.891	15.9401
439.099	15.83185
439.306	15.59965
439.514	15.6828
439.721	16.79154
439.929	16.72723
440.136	17.75948
440.343	17.99101
440.551	18.07266
440.758	19.6989
440.965	18.19923
441.173	18.10641
441.38	17.98715
441.587	17.35685
441.795	17.28939
442.002	16.7603
442.209	16.52212
442.416	16.70746
442.624	16.66871
442.831	16.51277
443.038	16.02256
443.245	15.77529
443.452	16.14441
443.66	16.66055
443.867	15.99005
444.074	15.92956
444.281	16.01004
444.488	16.20221
444.695	16.40282
444.902	16.31531
445.109	17.60941
445.316	17.69061
445.523	18.48504
445.73	18.8662
445.937	20.05632
446.144	20.62132
446.351	21.46714
446.558	20.38192
446.765	22.57217
446.972	21.52286
447.179	21.34759
447.386	21.69081
447.593	19.75904
447.8	20.64097
448.007	18.80734
448.214	17.94292
448.42	17.15297
448.627	17.23454
448.834	16.75202
449.041	16.6495
449.248	16.64266
449.454	17.05684
449.661	17.63161
449.868	16.40673
450.075	16.50894
450.281	15.71416
450.488	16.06009
450.695	16.18657
450.901	16.28101
451.108	16.34017
451.315	17.18228
451.521	16.54731
451.728	17.31771
451.935	16.18803
452.141	16.58603
452.348	16.72508
452.554	16.76579
452.761	16.41681
452.967	17.65465
453.174	16.98792
453.38	17.04356
453.587	16.20026
453.793	16.9939
454	17.48759
454.206	17.99358
454.413	17.30933
454.619	17.20182
454.825	16.65158
455.032	17.21326
455.238	17.26687
455.445	16.37404
455.651	16.95016
455.857	16.01873
456.064	16.74053
456.27	16.77869
456.476	16.69049
456.682	16.31027
456.889	17.1772
457.095	17.07719
457.301	18.12197
457.507	16.9914
457.714	16.97867
457.92	17.03245
458.126	16.65941
458.332	16.97857
458.538	16.75422
458.744	16.93419
458.951	16.94244
459.157	19.37489
459.363	19.25187
459.569	19.84481
459.775	20.68994
459.981	20.82469
460.187	21.6011
460.393	21.5292
460.599	21.59099
460.805	20.2718
461.011	19.20698
461.217	18.51646
461.423	18.05016
461.629	17.43566
461.835	17.84499
462.041	17.37693
462.247	18.30687
462.453	17.31341
462.658	17.40076
462.864	17.77685
463.07	17.43248
463.276	17.52852
463.482	17.34269
463.688	18.07833
463.893	17.00763
464.099	17.34152
464.305	18.16929
464.511	17.20849
464.716	17.44825
464.922	17.95599
465.128	17.15479
465.333	18.44827
465.539	17.8779
465.745	17.64493
465.95	17.49034
466.156	19.07686
466.362	18.19579
466.567	17.56994
466.773	17.3265
466.978	18.38776
467.184	17.11452
467.389	16.6735
467.595	17.93426
467.8	17.44474
468.006	18.6763
468.211	18.47389
468.417	17.1568
468.622	18.01236
468.828	18.20231
469.033	18.12193
469.239	19.28361
469.444	17.50288
469.649	18.31514
469.855	17.74053
470.06	17.87578
470.266	17.44275
470.471	18.20829
470.676	18.11409
470.881	16.99009
471.087	18.7598
471.292	19.31113
471.497	17.30762
471.703	17.89611
471.908	17.67555
472.113	17.91896
472.318	18.41589
472.523	17.44717
472.729	18.17404
472.934	18.42203
473.139	17.88076
473.344	18.25136
473.549	18.75229
473.754	17.78434
473.959	19.50618
474.164	17.73784
474.369	18.01671
474.575	18.52266
474.78	18.17423
474.985	17.75314
475.19	17.13962
475.395	17.76461
475.6	18.03093
475.804	18.79126
476.009	18.02574
476.214	18.02556
476.419	17.94785
476.624	17.38396
476.829	17.71005
477.034	18.48978
477.239	17.80296
477.444	18.50107
477.648	18.55025
477.853	18.3789
478.058	18.09606
478.263	17.9233
478.468	17.69916
478.672	17.78568
478.877	19.02334
479.082	19.11879
479.287	18.53315
479.491	18.28965
479.696	17.818
479.901	18.75056
480.105	18.73195
480.31	17.96463
480.515	18.37096
480.719	19.46211
480.924	18.10316
481.128	17.75479
481.333	18.46832
481.538	18.51361
481.742	19.23389
481.947	20.70328
482.151	22.44056
482.356	24.0796
482.56	27.65429
482.765	30.8623
482.969	36.32468
483.174	41.18954
483.378	47.35626
483.582	50.22752
483.787	53.74088
483.991	55.91334
484.196	56.88643
484.4	56.83653
484.604	56.95878
484.809	53.34664
485.013	50.17106
485.217	45.68887
485.422	41.0345
485.626	36.9352
485.83	34.44528
486.034	32.86242
486.239	32.96888
486.443	33.62385
486.647	34.4752
486.851	36.14348
487.055	38.81547
487.26	39.57724
487.464	41.38539
487.668	41.50362
487.872	42.88521
488.076	42.86163
488.28	41.55069
488.484	39.68312
488.688	38.35873
488.892	36.37223
489.096	33.69404
489.3	31.31715
489.504	29.08297
489.708	27.29279
489.912	26.30306
490.116	25.5292
490.32	25.08984
490.524	26.87942
490.728	28.31542
490.932	30.07017
491.136	32.14067
491.34	34.02444
491.544	34.9696
491.748	35.73917
491.951	35.87535
492.155	35.45012
492.359	34.41017
492.563	32.30712
492.767	30.49409
492.97	27.56614
493.174	24.64031
493.378	22.38141
493.582	20.09925
493.785	18.98841
493.989	19.01267
494.193	19.04711
494.396	18.75295
494.6	19.35986
494.804	18.86417
495.007	18.51644
495.211	18.66644
495.414	18.7275
495.618	18.89555
495.822	19.42668
496.025	18.80877
496.229	19.25943
496.432	18.67754
496.636	19.01002
496.839	18.99069
497.043	19.75911
497.246	19.31555
497.45	19.12988
497.653	19.34935
497.856	19.31047
498.06	18.83615
498.263	19.08093
498.467	18.97906
498.67	19.52027
498.873	19.28667
499.077	19.07016
499.28	19.11829
499.483	19.31265
499.686	19.4822
499.89	19.3896
500.093	19.62957
500.296	18.80491
500.499	19.93451
500.703	19.1297
500.906	19.36988
501.109	19.94303
501.312	19.27358
501.515	19.15663
501.719	19.36116
501.922	19.78425
502.125	19.27233
502.328	19.00493
502.531	18.65121
502.734	19.10962
502.937	18.46358
503.14	19.39948
503.343	18.87616
503.546	19.04871
503.749	18.82784
503.952	19.56462
504.155	19.00078
504.358	19.63472
504.561	19.27262
504.764	18.64304
504.967	19.40252
505.17	19.31872
505.373	20.03808
505.576	19.3723
505.778	19.6352
505.981	18.92688
506.184	19.97895
506.387	18.49014
506.59	20.3669
506.793	19.8458
506.995	19.48605
507.198	18.48446
507.401	19.48976
507.604	19.51719
507.806	18.95588
508.009	18.9484
508.212	19.85019
508.414	19.0656
508.617	19.26126
508.82	19.47731
509.022	20.22321
509.225	19.66933
509.427	18.86493
509.63	20.08146
509.833	19.56319
510.035	19.23431
510.238	18.89634
510.44	20.1201
510.643	18.60633
510.845	20.36883
511.048	19.68892
511.25	19.26555
511.453	19.43016
511.655	19.63364
511.858	19.37362
512.06	20.02704
512.262	19.76141
512.465	19.95443
512.667	19.2809
512.869	19.02227
513.072	19.85424
513.274	20.07077
513.476	19.90853
513.679	20.03439
513.881	19.12931
514.083	20.37162
514.286	19.19702
514.488	19.33404
514.69	19.09716
514.892	18.89293
515.094	19.97142
515.297	19.25135
515.499	19.60185
515.701	19.23863
515.903	20.41113
516.105	20.42055
516.307	19.87638
516.509	18.60922
516.711	19.02887
516.913	19.62298
517.116	19.52423
517.318	19.29331
517.52	20.13079
517.722	19.87425
517.924	19.15619
518.126	19.87011
518.328	19.66671
518.529	20.71298
518.731	21.56659
518.933	20.161
519.135	20.28573
519.337	20.94565
519.539	20.15818
519.741	19.19652
519.943	19.7042
520.145	19.72993
520.346	20.09347
520.548	19.60081
520.75	19.87557
520.952	19.65058
521.153	20.02946
521.355	19.93265
521.557	19.29815
521.759	19.70967
521.96	19.60139
522.162	19.28553
522.364	20.33802
522.565	19.3927
522.767	19.98703
522.969	20.22257
523.17	20.01481
523.372	19.87361
523.573	19.46319
523.775	19.73216
523.977	19.30656
524.178	20.61315
524.38	19.3922
524.581	19.99355
524.783	19.53901
524.984	20.06365
525.186	19.89999
525.387	20.85945
525.589	21.19364
525.79	21.63264
525.991	21.93697
526.193	22.79837
526.394	22.37342
526.596	23.36042
526.797	23.90302
526.998	23.58403
527.2	25.06977
527.401	27.79974
527.602	30.19774
527.803	34.29986
528.005	37.25704
528.206	40.39031
528.407	42.79664
528.608	44.09479
528.81	45.01978
529.011	44.84782
529.212	45.85522
529.413	43.72004
529.614	41.30446
529.815	38.63628
530.017	35.39613
530.218	31.53683
530.419	28.39896
530.62	26.84512
530.821	25.14472
531.022	23.14325
531.223	23.45854
531.424	22.86172
531.625	22.95608
531.826	22.48
532.027	23.46669
532.228	25.35639
532.429	26.32422
532.63	27.54331
532.831	29.3124
533.032	30.1277
533.233	31.23556
533.433	30.97738
533.634	31.38976
533.835	30.62344
534.036	29.67939
534.237	28.53754
534.438	26.83155
534.638	24.39474
534.839	23.03187
535.04	21.89301
535.241	20.75229
535.441	21.31663
535.642	21.02649
535.843	20.69054
536.043	21.25861
536.244	21.71269
536.445	22.24216
536.645	23.13895
536.846	22.83985
537.047	23.34259
537.247	22.05456
537.448	21.44102
537.648	20.87102
537.849	20.30742
538.049	20.25033
538.25	20.4343
538.451	20.43106
538.651	19.76721
538.851	20.53729
539.052	20.7981
539.252	20.61184
539.453	20.14916
539.653	20.18739
539.854	20.05844
540.054	20.27639
540.254	22.99473
540.455	25.34376
540.655	26.82246
540.855	29.8333
541.056	31.85222
541.256	32.82723
541.456	34.2418
541.657	34.54535
541.857	35.19369
542.057	33.80146
542.257	32.68214
542.458	32.14681
542.658	30.4983
542.858	27.88
543.058	26.65194
543.258	25.31975
543.458	23.23673
543.659	22.29848
543.859	22.2919
544.059	21.52963
544.259	20.76119
544.459	21.22248
544.659	20.46834
544.859	20.84833
545.059	20.52516
545.259	20.84459
545.459	20.64151
545.659	21.0797
545.859	20.6959
546.059	20.77591
546.259	20.18462
546.459	20.00827
546.659	20.21207
546.859	20.957
547.059	20.86969
547.258	20.82833
547.458	20.95244
547.658	20.14933
547.858	20.00792
548.058	20.68839
548.258	20.38712
548.457	20.04827
548.657	21.81822
548.857	20.40674
549.057	21.04582
549.256	20.6177
549.456	20.08544
549.656	19.37445
549.855	21.57414
550.055	20.12252
550.255	21.49874
550.454	20.67596
550.654	20.88599
550.853	21.25495
551.053	20.92664
551.253	20.47805
551.452	20.78045
551.652	19.78174
551.851	19.52854
552.051	20.26001
552.25	20.03159
552.45	20.07617
552.649	20.17501
552.849	19.99257
553.048	20.48787
553.248	21.08777
553.447	19.93339
553.646	20.98622
553.846	22.03332
554.045	21.23589
554.244	19.70775
554.444	21.15884
554.643	19.78515
554.842	21.36397
555.042	21.61724
555.241	20.07925
555.44	19.78728
555.64	20.7953
555.839	21.40736
556.038	20.69058
556.237	19.8969
556.436	20.37451
556.636	20.53686
556.835	19.98001
557.034	21.38094
557.233	20.35877
557.432	19.45788
557.631	20.97476
557.83	20.25205
558.029	20.06366
558.228	19.94486
558.427	19.90347
558.626	20.7065
558.825	19.69532
559.024	20.1992
559.223	21.45478
559.422	20.16736
559.621	20.70813
559.82	18.85636
560.019	20.29835
560.218	20.1129
560.417	18.88929
560.616	19.9927
560.815	22.57488
561.014	19.38045
561.212	21.40319
561.411	20.37946
561.61	19.50475
561.809	20.22643
562.008	21.67312
562.206	20.37808
562.405	20.85185
562.604	20.26401
562.803	20.73122
563.001	20.50275
563.2	19.49815
563.399	20.65011
563.597	19.78827
563.796	20.30624
563.995	19.67333
564.193	20.89445
564.392	20.20211
564.59	21.75381
564.789	19.2263
564.988	20.22715
565.186	20.50782
565.385	20.30362
565.583	20.23189
565.782	20.41652
565.98	20.27757
566.179	20.31965
566.377	19.99373
566.575	20.19951
566.774	21.56821
566.972	21.07388
567.171	21.87305
567.369	21.49486
567.567	20.84407
567.766	20.70262
567.964	19.13366
568.162	20.9237
568.361	21.35551
568.559	20.37261
568.757	20.66835
568.956	20.55808
569.154	20.44766
569.352	20.87602
569.55	20.465
569.748	20.73495
569.947	20.04807
570.145	19.86266
570.343	19.84939
570.541	21.43427
570.739	19.69583
570.937	20.50783
571.135	20.91819
571.333	22.10586
571.532	21.84472
571.73	20.89208
571.928	21.24179
572.126	21.13684
572.324	20.49789
572.522	21.51542
572.72	22.50181
572.918	20.84953
573.116	21.09882
573.313	20.60557
573.511	20.72473
573.709	20.27185
573.907	21.43979
574.105	20.42266
574.303	19.70193
574.501	19.66644
574.699	21.2769
574.896	20.92012
575.094	21.16268
575.292	19.88135
575.49	21.51275
575.688	20.57176
575.885	21.76852
576.083	22.48004
576.281	21.1917
576.478	20.23224
576.676	21.03739
576.874	19.73736
577.071	20.63582
577.269	22.29941
577.467	20.53355
577.664	20.44879
577.862	21.36701
578.059	20.15027
578.257	21.30326
578.455	20.49949
578.652	20.66618
578.85	19.50332
579.047	20.8548
579.245	20.35627
579.442	20.70926
579.64	20.33251
579.837	19.49256
580.034	22.78163
580.232	20.44661
580.429	19.74436
580.627	20.9952
580.824	21.66863
581.021	21.15215
581.219	20.14033
581.416	20.11385
581.613	21.85205
581.811	21.68094
582.008	20.13988
582.205	21.35487
582.402	21.01163
582.6	22.45208
582.797	20.79996
582.994	20.83944
583.191	21.6043
583.388	20.58052
583.586	21.38924
583.783	21.77726
583.98	19.84708
584.177	20.7101
584.374	18.85686
584.571	20.51529
584.768	20.58664
584.965	20.39559
585.162	21.49997
585.359	22.07111
585.556	20.80035
585.753	20.99487
585.95	19.67294
586.147	19.98515
586.344	21.44094
586.541	20.40253
586.738	19.72772
586.935	20.84967
587.132	20.43416
587.329	21.84095
587.526	20.90329
587.722	24.91274
587.919	19.64336
588.116	21.23814
588.313	21.92035
588.51	22.69088
588.706	20.58387
588.903	21.38943
589.1	21.72752
589.297	23.3724
589.493	20.99756
589.69	21.35788
589.887	20.42553
590.083	20.02105
590.28	20.43883
590.477	21.75572
590.673	21.57509
590.87	22.00026
591.067	20.44009
591.263	21.16891
591.46	21.32881
591.656	20.50813
591.853	22.36551
592.049	20.24486
592.246	20.33491
592.442	21.84336
592.639	21.91127
592.835	20.02241
593.032	21.13302
593.228	19.6602
593.425	19.72793
593.621	19.93025
593.817	21.17798
594.014	20.22359
594.21	21.1701
594.406	21.87506
594.603	21.3381
594.799	20.36782
594.995	19.1923
595.192	21.83224
595.388	20.81792
595.584	20.56039
595.78	19.86107
595.977	23.35594
596.173	22.34126
596.369	20.80654
596.565	20.44643
596.761	20.17553
596.957	22.05861
597.154	20.64448
597.35	20.80582
597.546	20.60945
597.742	21.76568
597.938	21.42809
598.134	20.75701
598.33	21.43339
598.526	22.30732
598.722	21.34253
598.918	22.45489
599.114	21.42758
599.31	19.69855
599.506	20.72109
599.702	20.07084
599.898	21.09208
600.094	21.62161
600.29	21.57624
600.485	21.71855
600.681	20.19019
600.877	22.44246
601.073	21.00579
601.269	22.87772
601.465	22.34558
601.66	20.28253
601.856	19.41829
602.052	22.98762
602.248	20.69962
602.443	19.3869
602.639	20.20014
602.835	20.46203
603.03	20.34595
603.226	21.99015
603.422	20.5866
603.617	21.04434
603.813	21.08321
604.009	20.85528
604.204	22.44512
604.4	20.15747
604.595	22.28182
604.791	20.69914
604.986	21.6212
605.182	20.84456
605.377	21.09981
605.573	21.05356
605.768	21.23191
605.964	21.66237
606.159	21.75707
606.355	22.16557
606.55	21.03894
606.746	22.22029
606.941	21.10712
607.136	23.03836
607.332	23.96341
607.527	19.90153
607.722	21.3767
607.918	20.83498
608.113	20.42895
608.308	22.17023
608.503	21.85987
608.699	21.85543
608.894	21.89162
609.089	20.8109
609.284	21.83685
609.479	21.21375
609.675	22.29067
609.87	21.49817
610.065	22.55475
610.26	22.6749
610.455	22.65281
610.65	22.02693
610.845	22.19011
611.04	22.84177
611.235	21.76375
611.43	21.76599
611.625	21.03749
611.82	23.47668
612.015	21.24828
612.21	23.64091
612.405	20.61884
612.6	23.59121
612.795	23.24582
612.99	22.5617
613.185	20.98054
613.38	21.23761
613.575	21.88394
613.77	24.75778
613.965	20.29107
614.159	21.00104
614.354	23.08028
614.549	22.46901
614.744	22.32603
614.938	20.58364
615.133	20.08319
615.328	22.88225
615.523	22.6473
615.717	24.62232
615.912	20.8688
616.107	21.93007
616.301	21.15377
616.496	20.82526
616.691	23.23984
616.885	22.06033
617.08	25.03854
617.274	22.25527
617.469	23.66381
617.664	22.35722
617.858	21.09201
618.053	21.83252
618.247	21.27279
618.442	19.39682
618.636	23.36289
618.831	20.82788
619.025	20.79149
619.219	24.9087
619.414	18.73547
619.608	21.3038
619.803	21.05381
619.997	24.11303
620.191	22.85776
620.386	22.29811
620.58	21.60485
620.774	19.62978
620.969	19.94204
621.163	21.66339
621.357	20.91253
621.551	21.68787
621.746	21.83279
621.94	21.20821
622.134	25.3622
622.328	24.0008
622.522	19.78885
622.716	22.97186
622.911	23.01062
623.105	22.69502
623.299	22.22436
623.493	25.02057
623.687	20.98299
623.881	21.22679
624.075	22.47007
624.269	23.10304
624.463	19.38886
624.657	19.89719
624.851	22.51162
625.045	22.65553
625.239	22.92701
625.433	21.44941
625.627	24.04556
625.821	21.15058
626.015	21.37134
626.209	22.27697
626.403	20.36048
626.596	22.63958
626.79	22.92907
626.984	20.87792
627.178	22.77881
627.372	22.679
627.565	23.15457
627.759	20.68309
627.953	21.03477
628.147	22.64852
628.34	23.0472
628.534	24.61507
628.728	21.82657
628.921	23.11495
629.115	22.78141
629.309	23.22688
629.502	23.32779
629.696	22.15026
629.89	21.90645
630.083	22.57842
630.277	22.62845
630.47	24.20186
630.664	21.75563
630.857	20.1427
631.051	22.93115
631.244	23.32208
631.438	22.95983
631.631	21.02655
631.825	23.98884
632.018	22.7225
632.212	24.29629
632.405	23.61181
632.598	21.08626
632.792	22.06745
632.985	19.08893
633.178	21.93378
633.372	22.01662
633.565	21.49825
633.758	23.61972
633.952	20.95071
634.145	20.89158
634.338	21.58959
634.531	21.37768
634.724	21.16126
634.918	22.32666
635.111	21.7633
635.304	21.71839
635.497	25.27229
635.69	22.38612
635.883	23.6141
636.077	20.85196
636.27	22.54613
636.463	22.56463
636.656	22.0598
636.849	21.99778
637.042	22.7097
637.235	24.45797
637.428	23.06565
637.621	22.73637
637.814	23.99383
638.007	24.1993
638.2	24.0283
638.393	24.53048
638.586	19.96099
638.778	21.38521
638.971	21.91056
639.164	24.1917
639.357	22.35064
639.55	24.62069
639.743	23.29463
639.935	22.72936
640.128	25.59844
640.321	23.50147
640.514	22.51911
640.707	25.72124
640.899	23.09438
641.092	19.79767
641.285	37.67866
641.477	19.282
641.67	26.10869
641.863	24.21027
642.055	22.7981
642.248	22.59119
642.441	21.54884
642.633	23.38527
642.826	24.32714
643.018	24.15869
643.211	25.28493
643.403	25.47719
643.596	25.91886
643.788	24.90484
643.981	21.93072
644.173	23.75553
644.366	22.20764
644.558	19.89317
644.751	24.18324
644.943	20.5933
645.135	24.82764
645.328	24.80248
645.52	23.33312
645.712	24.17039
645.905	27.09176
646.097	20.63617
646.289	22.98782
646.482	26.24051
646.674	21.24077
646.866	24.47699
647.058	23.42613
647.251	20.91332
647.443	21.74932
647.635	22.25055
647.827	20.88011
648.019	21.08714
648.211	22.27271
648.404	23.02645
648.596	25.47086
648.788	23.03137
648.98	22.85056
649.172	23.79398
649.364	23.31512
649.556	20.32924
649.748	27.48598
649.94	21.11739
650.132	23.97342
650.324	21.74311
650.516	22.00599
650.708	24.96991
650.9	20.97168
651.092	20.20468
651.284	20.79439
651.476	21.09916
651.667	24.25373
651.859	25.44082
652.051	22.60931
652.243	23.45253
652.435	22.65385
652.627	24.261
652.818	24.30842
653.01	20.84217
653.202	21.57761
653.394	22.25027
653.585	24.13677
653.777	30.42227
653.969	25.58351
654.16	25.222
654.352	21.48483
654.544	23.06251
654.735	24.92617
654.927	23.59121
655.118	25.85083
655.31	24.39305
655.502	25.48258
655.693	22.89092
655.885	24.01643
656.076	26.08547
656.268	23.74248
656.459	25.87312
656.651	25.79487
656.842	22.66771
657.034	22.49164
657.225	25.26899
657.416	26.24019
657.608	26.07219
657.799	24.08811
657.99	26.30574
658.182	23.02308
658.373	22.78769
658.564	25.54483
658.756	24.5248
658.947	23.81362
659.138	22.53936
659.33	23.13107
659.521	23.374
659.712	24.00178
659.903	23.93047
660.094	23.3187
660.286	21.54225
660.477	27.13443
660.668	25.06216
660.859	23.51158
661.05	21.33859
661.241	24.82139
661.432	24.78118
661.623	23.30446
661.814	23.15756
662.006	21.31776
662.197	24.41448
662.388	25.78783
662.579	24.11863
662.77	25.67854
662.96	28.56329
663.151	25.41166
663.342	20.57504
663.533	25.25028
663.724	24.06507
663.915	27.49641
664.106	23.83543
664.297	27.16915
664.488	25.07598
664.678	22.49051
664.869	25.2043
665.06	24.90571
665.251	24.31736
665.442	24.59469
665.632	22.11939
665.823	27.62505
666.014	18.57578
666.204	25.08578
666.395	26.64223
666.586	28.47282
666.776	25.69419
666.967	28.08354
667.158	24.23765
667.348	27.302
667.539	22.14206
667.729	25.75661
667.92	23.18579
668.111	26.49412
668.301	25.80444
668.492	23.87325
668.682	24.75317
668.873	24.51001
669.063	21.83026
669.253	25.24716
669.444	27.4199
669.634	24.44244
669.825	28.09813
670.015	27.16413
670.206	22.95723
670.396	28.72269
670.586	23.92157
670.777	25.57507
670.967	20.48167
671.157	23.73889
671.347	23.38051
671.538	27.50289
671.728	25.83483
671.918	28.55027
672.108	26.99427
672.299	23.70946
672.489	25.44484
672.679	22.84386
672.869	25.55234
673.059	29.7636
673.249	25.16403
673.44	22.58031
673.63	24.44362
673.82	26.58037
674.01	22.82091
674.2	25.76442
674.39	30.58266
674.58	26.42102
674.77	25.62036
674.96	24.5349
675.15	33.62638
675.34	27.19123
675.53	24.92564
675.72	24.2439
675.91	21.25829
676.099	29.42344
676.289	30.16982
676.479	27.81081
676.669	24.31
676.859	26.01116
677.049	23.75903
677.238	25.17585
677.428	29.42163
677.618	26.19192
677.808	29.71304
677.997	26.61883
678.187	24.04159
678.377	25.5608
678.567	24.33739
678.756	24.72294
678.946	25.5604
679.136	23.21248
679.325	24.74884
679.515	23.86413
679.704	23.43829
679.894	28.04717
680.084	26.79511
680.273	28.50827
680.463	24.47981
680.652	24.6799
680.842	26.19993
681.031	28.21054
681.221	24.39153
681.41	27.28257
681.6	25.95913
681.789	27.25642
681.978	28.71998
682.168	27.03022
682.357	26.36732
682.547	27.25754
682.736	26.53634
682.925	28.77925
683.115	28.87863
683.304	27.73538
683.493	26.47348
683.682	27.11345
683.872	26.91092
684.061	28.8423
684.25	26.99892
684.439	31.58792
684.629	28.47763
684.818	34.2977
685.007	26.69652
685.196	25.66006
685.385	31.30393
685.574	26.95961
685.763	27.39496
685.952	27.02912
686.142	24.31331
686.331	30.33413
686.52	23.42032
686.709	31.65329
686.898	30.74343
687.087	28.68247
687.276	31.01349
687.465	29.87486
687.654	26.71036
687.842	30.87178
688.031	24.63634
688.22	30.81652
688.409	27.66837
688.598	27.39563
688.787	34.03012
688.976	27.62074
689.165	32.25752
689.353	26.15229
689.542	28.35494
689.731	30.30323
689.92	33.23038
690.108	29.41026
690.297	26.37546
690.486	27.81286
690.675	29.44714
690.863	32.4621
691.052	32.41473
691.241	28.33078
691.429	28.57305
691.618	31.75886
691.806	24.7209
691.995	26.93584
692.184	28.43094
692.372	27.06598
692.561	28.67551
692.749	28.42289
692.938	37.1256
693.126	29.38491
693.315	27.42238
693.503	29.83442
693.692	30.84574
693.88	30.72912
694.068	34.14775
694.257	29.34638
694.445	30.31459
694.634	23.478
694.822	30.35683
695.01	31.95021
695.199	34.26931
695.387	32.94106
695.575	31.75316
695.763	27.96582
695.952	27.75657
696.14	24.41727
696.328	27.30105
696.516	28.84577
696.705	29.81971
696.893	29.34744
697.081	24.58799
697.269	31.14511
697.457	25.80248
697.645	25.63349
697.833	30.92782
698.021	26.69214
698.21	27.83563
698.398	28.59182
698.586	26.41774
698.774	25.97048
698.962	28.9244
699.15	26.48241
699.338	25.22179
699.526	30.21987
699.714	27.20626
699.901	27.411
700.089	30.89899
700.277	26.87675
700.465	28.34623
700.653	30.26747
700.841	29.06943
701.029	26.61164
701.217	32.93206
701.404	28.58403
701.592	33.42857
701.78	35.50523
701.968	28.15026
702.155	28.47572
702.343	25.7654
702.531	32.69486
702.718	29.92263
702.906	26.9351
703.094	27.70356
703.281	32.87331
703.469	28.75187
703.657	32.36489
703.844	39.11813
704.032	35.80746
704.219	28.3083
704.407	31.04433
704.595	34.15138
704.782	31.29079
704.97	29.80165
705.157	29.7577
705.345	37.03633
705.532	42.95045
705.719	34.1395
705.907	36.88614
706.094	34.15988
706.282	40.29818
706.469	34.08088
706.656	34.50893
706.844	34.25201
707.031	38.95033
707.218	37.27877
707.406	41.49243
707.593	38.82605
707.78	38.8685
707.968	37.00488
708.155	34.45766
708.342	38.89614
708.529	39.23132
708.716	38.48778
708.904	41.96864
709.091	39.11227
709.278	33.37886
709.465	44.46881
709.652	41.70764
709.839	40.43582
710.026	36.24716
710.213	30.72001
710.4	36.58562
710.587	37.8507
710.774	38.81812
710.961	39.88791
711.148	36.10691
711.335	38.81284
711.522	35.71005
711.709	38.9692
711.896	43.42124
712.083	40.06306
712.27	33.87025
712.457	37.35109
712.644	31.64461
712.831	43.4824
713.017	37.02786
713.204	38.59536
713.391	34.19957
713.578	39.61109
713.765	40.57026
713.951	36.55089
714.138	46.34628
714.325	36.48872
714.512	34.68104
714.698	31.06812
714.885	39.52782
715.072	34.25839
715.258	33.8714
715.445	31.39377
715.631	37.7038
715.818	24.45628
716.005	31.32481
716.191	35.50819
716.378	31.54586
716.564	35.83313
716.751	29.44461
716.937	31.69698
717.124	36.01479
717.31	29.62024
717.497	40.93056
717.683	30.64283
717.869	40.34554
718.056	30.37254
718.242	34.3135
718.429	31.9009
718.615	28.96373
718.801	32.39112
718.988	36.16081
719.174	34.93678
719.36	31.4301
719.547	38.18301
719.733	33.84521
719.919	33.9433
720.105	35.02145
720.291	33.26584
720.478	33.31331
720.664	32.51975
720.85	31.03166
721.036	44.91583
721.222	40.18451
721.408	32.49274
721.595	41.01774
721.781	39.66963
721.967	37.75863
722.153	41.24112
722.339	36.85669
722.525	34.43692
722.711	29.61768
722.897	28.43475
723.083	31.36404
723.269	37.98796
723.455	46.41606
723.641	52.03274
723.827	34.01881
724.012	36.06642
724.198	33.35226
724.384	39.45272
724.57	35.38173
724.756	27.48301
724.942	26.6403
725.127	38.81228
725.313	39.94404
725.499	39.44593
725.685	42.25261
725.87	35.6423
726.056	30.3276
726.242	39.86591
726.428	27.86669
726.613	37.971
726.799	32.25678
726.985	29.51545
727.17	27.12764
727.356	43.03466
727.541	30.46663
727.727	33.82298
727.913	38.03514
728.098	32.47563
728.284	37.78373
728.469	29.45614
728.655	31.77257
728.84	38.96033
729.026	38.10909
729.211	38.06763
729.397	36.4883
729.582	37.98147
729.767	33.81816
729.953	36.96735
730.138	40.52388
730.323	25.44572
730.509	29.5886
730.694	42.28007
730.879	37.9685
731.065	35.7189
731.25	46.21197
731.435	38.48476
731.621	29.03736
731.806	32.36421
731.991	36.17183
732.176	29.06375
732.361	42.25103
732.547	36.04152
732.732	28.73835
732.917	45.62033
733.102	29.80229
733.287	32.55663
733.472	34.46364
733.657	34.88807
733.842	29.07084
734.027	32.02864
734.212	33.97311
734.397	31.78127
734.582	35.83332
734.767	39.61699
734.952	43.09927
735.137	23.80347
735.322	41.93207
735.507	37.56827
735.692	35.23142
735.877	46.18867
736.062	43.72817
736.247	37.2114
736.431	34.863
736.616	40.59706
736.801	36.85126
736.986	35.34132
737.171	30.97068
737.355	29.83222
737.54	42.54899
737.725	36.11852
737.909	50.1673
738.094	33.78161
738.279	40.22599
738.463	34.27695
738.648	38.55365
738.833	37.44211
739.017	46.56108
739.202	34.6408
739.386	34.47148
739.571	31.72097
739.756	40.26007
739.94	35.52786
740.125	37.84855
740.309	32.06518
740.494	40.36694
740.678	36.93623
740.863	38.63602
741.047	36.96964
741.231	43.40695
741.416	33.02761
741.6	45.04481
741.785	31.93278
741.969	41.43099
742.153	43.87705
742.338	26.94129
742.522	36.11468
742.706	40.2243
742.89	29.9913
743.075	37.08128
743.259	44.47761
743.443	42.49168
743.627	43.29583
743.812	49.43179
743.996	27.82398
744.18	35.5988
744.364	34.2284
744.548	50.48948
744.732	34.91313
744.916	42.64562
745.1	40.409
745.285	35.39943
745.469	40.4813
745.653	45.64127
745.837	30.21284
746.021	51.58144
746.205	44.13469
746.389	37.53122
746.573	36.04512
746.757	45.21916
746.94	34.90532
747.124	43.97034
747.308	30.14764
747.492	43.76869
747.676	32.99822
747.86	53.00996
748.044	34.4087
748.227	28.16177
748.411	60.69323
748.595	37.18931
748.779	32.8338
748.963	40.5324
749.146	37.46762
749.33	33.11095
749.514	32.55977
749.697	43.13359
749.881	34.17223
750.065	32.83419
750.248	38.25809
750.432	52.32973
750.616	37.42881
750.799	30.76475
750.983	53.57056
751.166	52.2745
751.35	29.40258
751.533	41.73969
751.717	48.13271
751.9	46.73689
752.084	35.96533
752.267	32.13736
752.451	33.92793
752.634	39.20533
752.818	42.06986
753.001	42.37567
753.184	44.89527
753.368	40.37263
753.551	20.47147
753.734	33.94069
753.918	52.78125
754.101	34.44359
754.284	41.92712
754.467	35.78671
754.651	34.40675
754.834	33.4415
755.017	44.72693
755.2	45.85638
755.384	32.05282
755.567	42.8477
755.75	42.65036
755.933	36.23474
756.116	42.52126
756.299	35.0444
756.482	33.1191
756.665	42.18584
756.848	36.86151
757.032	40.30349
757.215	29.63693
757.398	32.01028
757.581	33.09925
757.764	57.37204
757.947	37.21496
758.129	44.08084
758.312	22.22824
758.495	36.23927
758.678	37.47274
758.861	35.86011
759.044	50.62067
759.227	32.46966
759.41	33.569
759.592	42.7249
759.775	36.49269
759.958	45.12838
760.141	31.38861
760.324	55.0061
760.506	47.28837
760.689	43.23906
760.872	54.34437
761.054	41.24707
761.237	38.23572
761.42	39.26925
761.602	43.63514
761.785	40.9065
761.968	47.2478
762.15	50.9662
762.333	38.0793
762.515	41.98603
762.698	36.48886
762.88	45.12557
763.063	41.22975
763.245	46.23923
763.428	33.95893
763.61	36.92971
763.793	31.91081
763.975	41.03087
764.158	37.86075
764.34	35.763
764.522	34.38425
764.705	38.63674
764.887	48.81099
765.069	29.8974
765.252	43.54408
765.434	42.70595
765.616	40.1463
765.799	34.57532
765.981	43.12043
766.163	36.09362
766.345	48.69697
766.528	34.54362
766.71	26.43351
766.892	38.77284
767.074	47.74561
767.256	37.50602
767.438	50.87996
767.62	39.32556
767.802	56.67476
767.985	44.61024
768.167	53.18303
768.349	35.69488
768.531	43.16596
768.713	41.43777
768.895	44.34323
769.077	41.83818
769.259	60.02908
769.441	76.01568
769.623	44.94164
769.804	51.075
769.986	49.49868
770.168	56.4215
770.35	67.83113
770.532	54.26593
770.714	57.51052
770.896	57.45202
771.077	32.78977
771.259	61.20909
771.441	52.64518
771.623	62.05197
771.804	73.09749
771.986	33.82957
772.168	45.47597
772.35	59.04251
772.531	73.01295
772.713	53.07714
772.894	63.90859
773.076	49.77628
773.258	46.80206
773.439	65.6959
773.621	72.67919
773.802	40.55953
773.984	44.8828
774.166	54.84334
774.347	67.82589
774.529	62.10907
774.71	32.22026
774.891	50.91878
775.073	45.76247
775.254	66.12724
775.436	44.49096
775.617	77.99588
775.799	45.17506
775.98	66.29628
776.161	72.7432
776.343	71.29196
776.524	52.1611
776.705	49.58158
776.886	33.19543
777.068	53.75375
777.249	103.29675
777.43	75.39627
777.611	40.06024
777.793	47.84624
777.974	73.09279
778.155	45.94238
778.336	41.93148
778.517	81.79535
778.698	43.24317
778.879	32.87296
779.061	23.14254
779.242	58.27611
779.423	56.96203
779.604	46.11967
779.785	47.15895
779.966	53.4922
780.147	63.57206
780.328	63.23944
780.509	85.21671
780.69	63.68631
780.871	44.19466
781.051	36.47383
781.232	54.46199
781.413	52.8743
781.594	49.49193
781.775	46.17516
781.956	43.48781
782.137	31.99574
782.317	45.27079
782.498	52.67606
782.679	50.66431
782.86	54.75861
783.04	44.16617
783.221	55.31397
783.402	74.02298
783.583	51.33561
783.763	64.05277
783.944	46.886
784.124	37.5781
784.305	75.83663
784.486	61.65343
784.666	52.44821
784.847	34.91665
785.027	96.97388
785.208	45.24281
785.388	46.33646
785.569	45.27786
785.749	51.98186
785.93	47.36683
786.11	36.02003
786.291	58.80603
786.471	55.8825
786.652	64.18987
786.832	51.05477
787.012	54.61612
787.193	40.72012
787.373	52.95286
787.553	46.2264
787.734	55.66333
787.914	49.73173
788.094	65.55718
788.275	56.29189
788.455	48.43171
788.635	38.75055
788.815	55.38691
788.995	41.36261
789.176	36.83384
789.356	44.42445
789.536	50.33119
789.716	57.55074
789.896	44.43944
790.076	46.31879
790.256	56.18274
790.436	27.53733
790.616	41.54517
790.796	55.78136
790.976	47.98465
791.156	42.73346
791.336	58.64627
791.516	56.2329
791.696	48.46134
791.876	35.43526
792.056	53.37911
792.236	64.02938
792.416	62.23272
792.596	56.50322
792.776	57.696
792.956	60.51313
793.135	74.96868
793.315	40.97027
793.495	66.4764
793.675	60.34849
793.854	60.61906
794.034	63.85965
794.214	40.05885
794.394	60.97329
794.573	67.50124
794.753	53.73594
794.933	42.07712
795.112	56.52415
795.292	63.35549
795.472	72.99295
795.651	37.54526
795.831	51.16509
796.01	49.93684
796.19	48.00824
796.369	53.98046
796.549	57.40864
796.728	50.2312
796.908	36.91274
797.087	39.02889
797.267	47.10531
797.446	39.97853
797.626	57.66995
797.805	57.68654
797.984	43.20206
798.164	61.65711
798.343	44.14237
798.522	54.44033
798.702	54.37319
798.881	38.39294
799.06	49.73201
799.239	33.0699
799.419	42.39043
799.598	74.59116
799.777	56.07047
799.956	67.31976
800.136	49.14007
800.315	42.30991
800.494	56.40505
800.673	66.37549
800.852	59.79955
801.031	67.94811
801.21	59.60175
801.389	48.6386
801.568	53.80767
801.747	77.43238
801.926	52.27416
802.105	71.14755
802.284	46.06394
802.463	71.58332
802.642	54.82122
802.821	54.86374
803	71.74135
803.179	64.80076
803.358	67.51846
803.537	45.4239
803.716	53.32719
803.895	45.49181
804.073	49.75066
804.252	44.10212
804.431	57.98252
804.61	50.32362
804.789	63.05372
804.967	47.35963
805.146	48.17
805.325	81.66602
805.503	57.98218
805.682	38.82679
805.861	96.06783
806.039	71.4063
806.218	49.48259
806.397	54.36869
806.575	52.89847
806.754	55.44374
806.932	42.13422
807.111	67.39778
807.289	64.99219
807.468	54.40486
807.646	66.92759
807.825	62.20695
808.003	56.47378
808.182	66.96739
808.36	54.51858
808.539	43.49958
808.717	74.45385
808.895	45.6822
809.074	57.02356
809.252	53.80052
809.43	60.63048
809.609	69.85986
809.787	76.44303
809.965	50.33719
810.144	53.8978
810.322	54.16488
810.5	58.85577
810.678	49.30572
810.856	83.83156
811.035	69.16052
811.213	61.78829
811.391	72.34996
811.569	57.26726
811.747	107.86584
811.925	73.21246
812.103	46.35825
812.281	55.74496
812.459	79.73505
812.637	79.92279
812.816	65.38466
812.994	85.87002
813.171	75.71112
813.349	61.04005
813.527	71.04129
813.705	75.78276
813.883	92.50244
814.061	67.68994
814.239	79.93599
814.417	88.71872
814.595	63.15982
814.773	62.65377
814.95	58.35258
815.128	64.64244
815.306	57.78564
815.484	54.02764
815.662	44.97718
815.839	41.34622
816.017	50.05801
816.195	71.37777
816.372	52.06184
816.55	67.07331
816.728	78.89918
816.905	55.10432
817.083	78.9138
817.261	55.39273
817.438	101.83512
817.616	81.83581
817.793	50.55531
817.971	69.70693
818.148	67.23416
818.326	75.45423
818.503	59.39182
818.681	80.65866
818.858	53.9721
819.036	57.81082
819.213	59.29165
819.391	49.31458
819.568	48.90051
819.745	44.8527
819.923	67.46042
820.1	53.80872
820.277	46.985
820.455	52.31307
820.632	55.66823
820.809	59.23732
820.986	43.54511
821.164	38.9789
821.341	37.85201
821.518	48.14494
821.695	39.55527
821.872	38.0329
822.05	35.8641
822.227	32.87672
822.404	33.93578
822.581	36.69285
822.758	33.80723
822.935	34.14462
823.112	36.49314
823.289	33.62452
823.466	36.57239
823.643	35.70407
823.82	38.68133
823.997	37.21928
824.174	39.65926
824.351	45.99287
824.528	45.08556
824.705	42.53689
824.882	44.05602
825.059	51.69835
825.236	42.33821
825.412	43.75393
825.589	48.36106
825.766	60.55684
825.943	45.10628
826.12	49.18567
826.296	40.75314
826.473	46.59795
826.65	45.77192
826.827	50.18732
827.003	40.23716
827.18	43.44155
827.357	46.13471
827.533	42.14045
827.71	32.56804
827.887	39.52991
828.063	42.83596
828.24	38.52856
828.416	45.60287
828.593	40.50715
828.769	50.35893
828.946	49.82014
829.122	51.98951
829.299	49.93983
829.475	38.73699
829.652	49.05077
829.828	70.59252
830.005	50.76271
830.181	63.67157
830.357	51.17073
830.534	66.19413
830.71	54.55557
830.886	64.55458
831.063	64.32076
831.239	73.9006
831.415	44.70787
831.592	75.93144
831.768	54.57727
831.944	49.81602
832.12	81.10157
832.296	78.27386
832.473	68.17209
832.649	49.16278
832.825	66.24513
833.001	46.51829
833.177	60.64309
833.353	56.03579
833.529	39.94552
833.705	53.62222
833.881	41.03068
834.058	40.87126
834.234	43.53137
834.41	42.94238
834.586	37.39808
834.761	40.79095
834.937	44.12153
835.113	44.57415
835.289	40.90981
835.465	45.3912
835.641	41.60071
835.817	44.66903
835.993	65.05395
836.169	43.53837
836.344	55.71736
836.52	60.76257
836.696	57.70748
836.872	48.93051
837.048	106.46219
837.223	53.6182
837.399	83.0127
837.575	70.60414
837.75	68.77728
837.926	85.59818
838.102	121.32039
838.277	102.55714
838.453	134.93088
838.628	132.72755
838.804	62.73544
838.98	115.10142
839.155	71.31647
839.331	88.77036
839.506	66.03977
839.682	69.65661
839.857	86.34768
840.033	99.34172
840.208	57.72305
840.384	36.51659
840.559	55.82006
840.734	76.44379
840.91	94.91719
841.085	63.68289
841.26	64.49553
841.436	62.6483
841.611	60.29166
841.786	82.57352
841.962	102.92487
842.137	71.85927
842.312	51.00945
842.487	65.56244
842.663	56.1484
842.838	66.77018
843.013	171.05047
843.188	90.12983
843.363	81.25925
843.538	150.42078
843.714	146.7444
843.889	147.16603
844.064	151.14056
844.239	129.8319
844.414	151.87018
844.589	103.60559
844.764	177.29865
844.939	173.81534
845.114	192.16555
845.289	180.97621
845.464	248.34091
845.639	171.92362
845.814	90.80015
845.989	104.74892
846.163	133.90213
846.338	138.87247
846.513	178.79057
846.688	127.74997
846.863	124.4731
847.038	113.81964
847.212	126.84589
847.387	130.36644
847.562	138.18165
847.737	165.44349
847.911	75.80626
848.086	87.65469
848.261	255.17358
848.435	117.70126
848.61	174.11895
848.785	97.20101
848.959	177.89257
849.134	233.10101
849.308	237.98829
849.483	133.65484
849.658	213.45719
849.832	118.47758
850.007	105.92743
850.181	267.60866
850.356	110.78246
850.53	244.81225
850.705	87.97759
850.879	65.62519
851.053	132.95827
851.228	118.74902
851.402	147.27519
851.577	188.53801
851.751	208.0776
851.925	144.2935
852.099	75.00545
852.274	109.76996
852.448	130.88323
852.622	148.7069
852.797	130.87418
852.971	123.89047
853.145	137.16923
853.319	363.58424
853.493	198.78648
853.668	114.90459
853.842	235.77635
854.016	200.38548
854.19	229.50537
854.364	146.01376
854.538	148.79406
854.712	198.08929
854.886	125.48744
855.06	121.79658
855.234	64.49885
855.408	212.67782
855.582	180.12853
855.756	177.20281
855.93	239.36315
856.104	163.46127
856.278	186.07118
856.452	137.75328
856.626	177.50492
856.8	278.98527
856.973	173.46706
857.147	160.27321
857.321	158.43797
857.495	195.92264
857.669	143.44461
857.842	118.24957
858.016	193.01233
858.19	106.57267
858.364	300.37989
858.537	122.63942
858.711	146.80462
858.885	131.17778
859.058	114.69199
859.232	74.33083
859.405	83.13452
859.579	184.79089
859.753	154.87272
859.926	113.75618
860.1	84.26894
860.273	140.84807
860.447	219.72866
860.62	124.37073
860.794	264.13488
860.967	159.59618
861.141	200.02957
861.314	281.07139
861.487	177.55504
861.661	216.63454
861.834	218.51135
862.008	197.10914
862.181	140.65343
862.354	148.63248
862.528	166.80048
862.701	120.93683
862.874	88.445
863.047	133.55675
863.221	130.67548
863.394	69.33341
863.567	228.26624
863.74	63.988
863.913	183.18282
864.087	158.89873
864.26	194.56627
864.433	136.9631
864.606	243.59598
864.779	142.58968
864.952	81.85074
865.125	116.97055
865.298	139.47048
865.471	147.1921
865.644	269.44995
865.817	228.54135
865.99	187.15204
866.163	210.47053
866.336	128.44493
866.509	152.66915
866.682	124.60943
866.855	212.14287
867.028	106.26872
867.2	175.77885
867.373	68.21769
867.546	154.73069
867.719	280.99848
867.892	182.41605
868.064	111.45545
868.237	171.74014
868.41	153.6551
868.583	95.31735
868.755	92.11195
868.928	149.14504
869.101	285.80574
869.273	213.88079
869.446	176.14882
869.619	205.4371
869.791	141.34101
869.964	202.97677
870.136	190.33167
870.309	152.60106
870.481	157.26079
870.654	88.2172
870.826	155.78039
870.999	134.25552
871.171	198.1537
871.344	127.16357
871.516	150.36218
871.689	117.31924
871.861	151.01513
872.033	111.0102
872.206	130.92896
872.378	208.95472
872.55	132.18873
872.723	97.15472
872.895	136.95636
873.067	204.68261
873.24	220.84919
873.412	122.75091
873.584	136.65343
873.756	129.68099
873.928	169.81012
874.101	167.84999
874.273	181.78092
874.445	76.22025
874.617	96.04129
874.789	161.22509
874.961	130.67147
875.133	181.6613
875.305	152.48619
875.477	106.89285
875.649	89.38152
875.821	106.47168
875.993	241.72413
876.165	101.14374
876.337	171.68594
876.509	133.58448
876.681	167.52305
876.853	157.70193
877.025	160.35165
877.197	115.28903
877.369	105.45451
877.541	194.91633
877.712	75.04859
877.884	100.70317
878.056	182.47372
878.228	104.38459
878.4	173.45138
878.571	106.08064
878.743	79.71605
878.915	164.42169
879.086	102.66756
879.258	124.96049
879.43	109.2402
879.601	101.5255
879.773	103.86858
879.945	39.73487
880.116	53.90675
880.288	41.15424
880.459	43.14925
880.631	38.2524
880.802	43.28876
880.974	41.55815
881.145	35.18702
881.317	40.75788
881.488	35.67612
881.66	38.4658
881.831	36.47843
882.002	43.71016
882.174	37.13487
882.345	42.07707
882.517	32.62153
882.688	45.8591
882.859	42.19123
883.03	55.55505
883.202	53.33416
883.373	50.60986
883.544	50.06857
883.715	71.40488
883.887	61.48963
884.058	58.53489
884.229	73.35482
884.4	75.17269
884.571	81.24756
884.742	72.45662
884.914	79.28728
885.085	105.13138
885.256	120.9718
885.427	103.78841
885.598	121.76564
885.769	126.72628
885.94	121.46386
886.111	86.57687
886.282	139.9863
886.453	117.42024
886.624	89.50853
886.795	135.27297
886.966	117.49116
887.136	147.25309
887.307	104.0006
887.478	178.83212
887.649	158.15978
887.82	160.6771
887.991	138.23401
888.161	177.84112
888.332	177.30537
888.503	96.26404
888.674	222.4251
888.844	230.28375
889.015	192.03003
889.186	94.61603
889.356	222.88119
889.527	95.62867
889.698	371.97241
889.868	128.60939
890.039	164.93792
890.209	151.35935
890.38	196.74775
890.551	163.67251
890.721	234.42748
890.892	189.89915
891.062	140.13846
891.233	166.14615
891.403	135.75563
891.574	111.7814
891.744	140.29859
891.914	180.54411
892.085	156.17767
892.255	62.92927
892.425	222.2631
892.596	178.40312
892.766	166.45329
892.936	221.31922
893.107	190.52532
893.277	123.36669
893.447	93.69604
893.618	72.93089
893.788	128.66934
893.958	77.73138
894.128	81.76766
894.298	88.34191
894.468	114.64179
894.639	61.36882
894.809	48.51416
894.979	67.57279
895.149	75.46954
895.319	67.37348
895.489	86.69313
895.659	100.07313
895.829	71.36292
895.999	78.40409
896.169	61.90188
896.339	71.234
896.509	131.05233
896.679	150.64756
896.849	139.36006
897.019	195.73133
897.189	148.36791
897.358	142.0511
897.528	199.14514
897.698	83.30109
897.868	180.49267
898.038	288.56691
898.208	272.06698
898.377	102.9333
898.547	269.97404
898.717	437.81147
898.886	175.541
899.056	278.16435
899.226	402.71049
899.395	248.35853
899.565	309.39134
899.735	212.76049
899.904	342.60649
900.074	287.97716
900.244	157.05784
900.413	510.58147
900.583	122.20879
900.752	208.17531
900.922	318.79954
901.091	53.00105
901.261	280.85068
901.43	269.15016
901.599	266.58537
901.769	562.74693
901.938	302.49844
902.108	297.73315
902.277	383.40573
902.446	120.65293
902.616	125.11985
902.785	189.32049
902.954	298.61898
903.124	207.61091
903.293	175.93733
903.462	99.06072
903.631	133.4921
903.801	99.10869
903.97	63.65503
904.139	93.69908
904.308	74.22601
904.477	62.97701
904.646	46.11207
904.816	61.25984
904.985	82.27271
905.154	114.66591
