Data from WindowProjectSample_Transmission__73__00073__02831456285785894.txt Node

Date: Mon May 05 18:42:47 EDT 2025
User: jessi
Spectrometer: SR400872
Trigger mode: 0
Integration Time (sec): 5.000010E-1
Scans to average: 20
Electric dark correction enabled: true
Nonlinearity correction enabled: true
Boxcar width: 0
XAxis mode: Wavelengths
Number of Pixels in Spectrum: 3648
>>>>>Begin Spectral Data<<<<<
184.909	21101.40562
185.132	-5206.71863
185.355	-3116.09848
185.578	-18009.58031
185.801	1630.73029
186.024	10573.81106
186.247	-1985.94769
186.47	1200.78046
186.693	549.3865
186.916	383.58288
187.139	-3729.86395
187.362	3792.26979
187.585	4138.08762
187.808	3533.1864
188.031	-83.22978
188.254	-53870.83213
188.476	-688.62155
188.699	6575.45191
188.922	734.29054
189.145	-16164.29
189.368	-663.39558
189.591	-1401.84267
189.813	3241.16318
190.036	-57667.95104
190.259	-885.86232
190.482	-4746.7087
190.705	7365.21197
190.927	-2654.46324
191.15	13555.62754
191.373	3551.14907
191.595	-8957.93925
191.818	-4098.33446
192.041	-6189.42142
192.263	-3647.46077
192.486	-842.18388
192.709	-4175.56379
192.931	8149.20716
193.154	-28988.13062
193.377	-2855.41039
193.599	-2824.21302
193.822	-8896.86267
194.044	-2182.37039
194.267	1262.91995
194.489	322.20007
194.712	-45721.55616
194.934	-32579.10872
195.157	1181.48566
195.379	1606.73107
195.602	-6997.17821
195.824	-1395.74803
196.047	-9741.28692
196.269	2776.79947
196.492	-6808.09621
196.714	29440.34138
196.936	-8866.70033
197.159	-1197.29247
197.381	1251.84028
197.604	537.89731
197.826	12641.13663
198.048	-11349.12532
198.271	-2899.88778
198.493	7886.87777
198.715	2446.91532
198.938	-433.1748
199.16	7545.73233
199.382	-104584.23001
199.604	2841.68777
199.827	-1069.31987
200.049	-3053.50996
200.271	14937.50291
200.493	1263.69321
200.715	-40107.91243
200.938	-6142.03637
201.16	-4452.99034
201.382	20748.62888
201.604	2286.79036
201.826	2369.08361
202.048	-1971.83717
202.27	-2033.21688
202.492	-39132.64614
202.715	3211.29331
202.937	-4591.99242
203.159	-6608.63642
203.381	1523.23146
203.603	6822.75269
203.825	6446.07896
204.047	2364.90151
204.269	-2823.72037
204.491	2152.52862
204.713	5991.28755
204.935	-505504.42369
205.156	1201.88049
205.378	-3057.61348
205.6	1647.13992
205.822	158226.06883
206.044	-1039.51891
206.266	1602.2278
206.488	4649.10585
206.71	-5366.94761
206.932	1138.85819
207.153	12117.33772
207.375	-7181.48508
207.597	-39423.69162
207.819	-2864.18244
208.041	2453.3489
208.262	477.82626
208.484	669.98632
208.706	-816.62325
208.927	-861.80783
209.149	558.56885
209.371	-2953.1905
209.593	-296.1747
209.814	-903.50727
210.036	602.56614
210.258	-756.32479
210.479	1822.43274
210.701	1693.39049
210.922	3465.04523
211.144	-4179.15736
211.366	2209.24179
211.587	8287.45941
211.809	-8468.50417
212.03	2392.69041
212.252	496.17925
212.473	2123.75285
212.695	-6497.36611
212.916	2930.37983
213.138	-696.34955
213.359	3811.77644
213.581	5061.76626
213.802	-924.89533
214.024	1105.36236
214.245	2111.2923
214.466	3046.23577
214.688	-3195.98837
214.909	-1337.92758
215.131	-1788.00973
215.352	-3149.23004
215.573	15012.44111
215.795	5210.51228
216.016	5594.37284
216.237	940.88424
216.459	3588.8647
216.68	1912.52739
216.901	5463.14674
217.122	-2904.13859
217.344	-12027.73587
217.565	3626.58672
217.786	9186.85625
218.007	18666.36692
218.228	-835.12206
218.45	5963.6926
218.671	828.4958
218.892	39876.17353
219.113	1561.72806
219.334	-483.75993
219.555	10130.51358
219.776	3295.1051
219.997	23241.38407
220.219	2844.86348
220.44	-11939.37552
220.661	450.50874
220.882	1549.90971
221.103	-1142.3413
221.324	2379.67849
221.545	2375.51241
221.766	-9474.78662
221.987	912.95395
222.208	1769.28649
222.429	4351.22599
222.65	325.32109
222.87	18545.71539
223.091	743.60586
223.312	624.46303
223.533	1365.48883
223.754	1521.78527
223.975	1398.39648
224.196	1980.55758
224.417	1329.14965
224.637	637.65949
224.858	74.90091
225.079	1173.48897
225.3	728.16303
225.521	3790.81392
225.741	469.3892
225.962	505.98638
226.183	143.54979
226.404	681.96173
226.624	441.61848
226.845	677.42217
227.066	423.1005
227.286	271.89221
227.507	134.19113
227.728	125.40953
227.948	240.21397
228.169	76.42634
228.389	86.95867
228.61	48.14573
228.831	64.79858
229.051	2.96268
229.272	39.54132
229.492	57.44951
229.713	14.11811
229.933	38.34548
230.154	35.04057
230.374	55.09348
230.595	38.67627
230.815	25.02847
231.036	41.57466
231.256	-8.82876
231.477	72.58962
231.697	35.85284
231.917	41.66499
232.138	55.00176
232.358	110.25985
232.579	105.72321
232.799	20.88662
233.019	103.49623
233.24	119.53827
233.46	42.10136
233.68	64.32109
233.901	43.23653
234.121	25.13402
234.341	13.66076
234.561	-0.9954
234.782	24.31345
235.002	69.76151
235.222	-2.92551
235.442	68.94459
235.662	32.79192
235.883	64.05652
236.103	52.77104
236.323	37.95415
236.543	29.65525
236.763	43.11525
236.983	43.3387
237.203	40.20276
237.423	63.86599
237.643	87.36013
237.864	77.95754
238.084	22.10398
238.304	27.60748
238.524	45.06644
238.744	40.76001
238.964	74.10852
239.184	64.9231
239.404	66.48453
239.624	36.0534
239.843	61.767
240.063	37.23533
240.283	23.57497
240.503	26.64839
240.723	25.55695
240.943	14.97394
241.163	21.66044
241.383	15.76173
241.603	8.03849
241.822	10.01791
242.042	6.55192
242.262	8.58561
242.482	9.85239
242.702	11.19622
242.921	2.64495
243.141	7.12955
243.361	6.10134
243.581	9.76994
243.8	7.6104
244.02	5.59845
244.24	9.6177
244.459	9.01298
244.679	18.02001
244.899	11.33227
245.118	13.22161
245.338	12.54759
245.558	13.682
245.777	7.92631
245.997	11.39442
246.216	11.49086
246.436	6.38997
246.655	5.02832
246.875	3.11434
247.094	6.60083
247.314	2.16905
247.533	3.56317
247.753	4.36126
247.972	3.58154
248.192	1.09988
248.411	1.99678
248.631	3.54958
248.85	4.57396
249.07	3.96605
249.289	5.99913
249.508	5.53841
249.728	6.80336
249.947	7.21732
250.166	9.44999
250.386	4.69981
250.605	6.80922
250.824	11.52951
251.044	7.59914
251.263	29.02988
251.482	14.53194
251.701	11.82926
251.921	0.13727
252.14	3.35644
252.359	3.82922
252.578	10.3815
252.798	3.41292
253.017	9.267
253.236	4.39664
253.455	5.89784
253.674	10.53186
253.893	4.63093
254.112	8.06456
254.331	12.04998
254.551	9.31965
254.77	3.47957
254.989	13.23379
255.208	10.35761
255.427	14.76433
255.646	12.22518
255.865	21.94168
256.084	9.51802
256.303	10.86978
256.522	14.03787
256.741	3.08204
256.96	2.8001
257.179	8.81058
257.397	11.35893
257.616	6.12833
257.835	5.98534
258.054	15.50427
258.273	11.04358
258.492	11.44544
258.711	6.72185
258.93	3.19693
259.148	5.04125
259.367	4.73421
259.586	5.73717
259.805	2.55059
260.023	5.49296
260.242	4.05282
260.461	2.77963
260.68	1.31994
260.898	4.48683
261.117	1.31075
261.336	1.01931
261.554	3.52176
261.773	3.59082
261.992	0.86758
262.21	3.42985
262.429	3.52999
262.648	7.2341
262.866	8.38419
263.085	5.8518
263.303	5.27786
263.522	9.0205
263.74	9.35616
263.959	15.76223
264.178	7.65349
264.396	6.67729
264.615	5.26285
264.833	11.00071
265.051	9.11428
265.27	11.12242
265.488	11.24175
265.707	6.50632
265.925	11.31097
266.144	4.82378
266.362	6.07828
266.58	5.37428
266.799	4.98513
267.017	6.36298
267.235	5.56765
267.454	3.50304
267.672	2.02266
267.89	4.26585
268.109	4.63696
268.327	4.26398
268.545	1.06737
268.763	4.03049
268.982	1.62965
269.2	4.02705
269.418	3.13899
269.636	2.2951
269.854	4.74602
270.073	3.4831
270.291	1.9615
270.509	1.77106
270.727	4.4802
270.945	7.61485
271.163	7.27332
271.381	1.48369
271.599	3.23981
271.817	5.37529
272.036	1.63521
272.254	3.26953
272.472	2.41788
272.69	2.45565
272.908	2.53244
273.126	4.58529
273.344	5.40522
273.562	1.76262
273.779	2.72298
273.997	4.03539
274.215	4.24941
274.433	3.06755
274.651	4.62255
274.869	4.62493
275.087	2.95197
275.305	4.41422
275.523	2.6729
275.74	2.94176
275.958	5.73206
276.176	8.61391
276.394	2.73633
276.612	3.08631
276.829	3.47941
277.047	2.79524
277.265	3.01442
277.483	3.64639
277.7	4.35785
277.918	3.41354
278.136	6.42175
278.353	3.2812
278.571	1.75821
278.789	4.37294
279.006	1.10769
279.224	3.06406
279.442	5.35636
279.659	3.76247
279.877	2.58916
280.094	5.89853
280.312	1.22108
280.529	3.44903
280.747	1.0659
280.964	2.64381
281.182	6.10696
281.399	2.90825
281.617	3.92171
281.834	2.6304
282.052	1.99271
282.269	3.17673
282.487	2.54465
282.704	2.17795
282.921	2.37836
283.139	3.47538
283.356	4.17109
283.574	3.92547
283.791	1.88649
284.008	5.79508
284.226	3.00013
284.443	3.42568
284.66	4.52292
284.877	3.41477
285.095	2.18074
285.312	1.585
285.529	1.01723
285.746	0.84178
285.964	2.09327
286.181	1.38281
286.398	2.04873
286.615	2.87495
286.832	2.62791
287.05	0.60613
287.267	1.86413
287.484	1.87197
287.701	2.68686
287.918	2.81078
288.135	2.8653
288.352	1.32175
288.569	1.52046
288.786	2.41722
289.003	2.0819
289.22	3.02544
289.437	1.71647
289.654	3.04501
289.871	3.07406
290.088	3.08588
290.305	2.36433
290.522	1.79971
290.739	2.02944
290.956	3.24588
291.173	3.6525
291.39	3.5704
291.607	2.41994
291.824	1.68085
292.04	1.29651
292.257	2.91465
292.474	3.37724
292.691	1.96948
292.908	0.97393
293.125	1.7006
293.341	1.18916
293.558	5.16138
293.775	2.07159
293.992	2.07201
294.208	0.83748
294.425	1.25953
294.642	1.95284
294.858	3.27796
295.075	0.59568
295.292	2.01871
295.508	2.41232
295.725	4.26624
295.942	1.71663
296.158	1.28484
296.375	2.09316
296.591	1.53577
296.808	1.79602
297.024	1.92153
297.241	2.26742
297.458	2.44822
297.674	0.16908
297.891	1.77534
298.107	1.42786
298.323	1.16047
298.54	3.03454
298.756	1.29381
298.973	0.6361
299.189	3.12925
299.406	1.2677
299.622	2.85983
299.838	2.73508
300.055	2.72399
300.271	0.55643
300.487	0.94868
300.704	1.3145
300.92	0.71202
301.136	4.24065
301.353	2.64173
301.569	1.90233
301.785	2.21561
302.001	2.69253
302.218	2.2304
302.434	2.29137
302.65	0.7214
302.866	1.61599
303.083	4.06217
303.299	3.78551
303.515	2.07356
303.731	2.10618
303.947	0.55604
304.163	1.26562
304.379	2.12705
304.595	2.52155
304.812	1.30668
305.028	1.22081
305.244	1.68623
305.46	2.70771
305.676	2.6713
305.892	3.16036
306.108	2.21862
306.324	1.49855
306.54	3.75313
306.756	2.60827
306.972	2.46098
307.187	1.7371
307.403	3.44398
307.619	1.63359
307.835	3.07279
308.051	3.5228
308.267	1.05291
308.483	2.9684
308.699	2.45122
308.914	2.02343
309.13	1.81854
309.346	0.62017
309.562	1.04179
309.778	0.66986
309.993	2.64824
310.209	1.85427
310.425	0.86259
310.641	1.71832
310.856	0.92012
311.072	0.94894
311.288	1.64475
311.503	1.89086
311.719	0.26793
311.935	0.20612
312.15	2.2488
312.366	1.84476
312.581	2.20917
312.797	1.70874
313.013	2.60147
313.228	1.23451
313.444	1.84694
313.659	1.3538
313.875	2.28151
314.09	1.68999
314.306	3.1585
314.521	2.73195
314.737	2.52951
314.952	1.87773
315.168	1.80088
315.383	2.31842
315.599	1.7633
315.814	1.53319
316.029	2.4239
316.245	0.73722
316.46	0.57161
316.675	3.17469
316.891	3.61311
317.106	4.62342
317.321	2.3424
317.537	2.42814
317.752	2.68639
317.967	2.82003
318.183	1.20339
318.398	1.57497
318.613	2.64039
318.828	3.28779
319.043	2.81267
319.259	1.74705
319.474	2.24166
319.689	3.04945
319.904	0.42502
320.119	2.55548
320.334	2.257
320.549	1.71026
320.765	2.84623
320.98	2.29518
321.195	2.65423
321.41	1.93548
321.625	2.68852
321.84	3.74979
322.055	3.92158
322.27	1.27171
322.485	1.13624
322.7	2.22925
322.915	2.92302
323.13	1.07562
323.345	3.4287
323.56	2.96655
323.775	2.60238
323.989	2.36519
324.204	2.26103
324.419	2.98918
324.634	0.92395
324.849	1.80004
325.064	5.00584
325.279	2.92053
325.493	2.45758
325.708	2.81647
325.923	1.2817
326.138	1.28082
326.352	3.44859
326.567	2.8982
326.782	1.65314
326.997	1.28079
327.211	2.51264
327.426	2.39087
327.641	1.6649
327.855	0.58136
328.07	2.24495
328.285	3.47416
328.499	1.59522
328.714	2.18819
328.928	2.6555
329.143	1.83277
329.358	2.89705
329.572	2.86593
329.787	3.0332
330.001	4.28853
330.216	0.91329
330.43	3.5664
330.645	3.68799
330.859	2.81861
331.074	1.4829
331.288	2.14836
331.503	3.15533
331.717	1.02713
331.931	2.18643
332.146	2.09482
332.36	3.58263
332.575	2.49116
332.789	2.24147
333.003	2.08231
333.218	2.54188
333.432	1.37077
333.646	2.81491
333.86	3.49769
334.075	3.44708
334.289	1.5649
334.503	1.28698
334.717	2.37234
334.932	2.39741
335.146	3.22091
335.36	1.8302
335.574	2.60198
335.788	2.40229
336.003	2.93202
336.217	2.46199
336.431	2.57996
336.645	1.45735
336.859	0.93916
337.073	1.64425
337.287	2.30288
337.501	1.18007
337.715	2.23132
337.929	2.79066
338.143	1.00498
338.357	1.89981
338.571	1.19271
338.785	2.44472
338.999	1.71793
339.213	1.46429
339.427	0.71592
339.641	3.2
339.855	1.89149
340.069	1.53475
340.283	2.92641
340.497	3.7181
340.711	2.31322
340.924	1.74176
341.138	1.01172
341.352	0.95824
341.566	2.16806
341.78	0.44504
341.993	1.5364
342.207	1.12096
342.421	2.14119
342.635	1.75976
342.848	1.5215
343.062	0.24788
343.276	1.22771
343.49	3.78072
343.703	1.33512
343.917	2.80203
344.131	2.76667
344.344	1.36257
344.558	1.58933
344.771	1.069
344.985	3.4257
345.199	3.28983
345.412	2.20508
345.626	2.08588
345.839	0.60406
346.053	0.91129
346.266	1.03202
346.48	2.40154
346.693	2.15289
346.907	2.11797
347.12	1.14461
347.334	2.19692
347.547	2.21459
347.76	1.45163
347.974	2.84122
348.187	2.10756
348.401	1.48396
348.614	1.41311
348.827	1.53799
349.041	2.40244
349.254	0.55706
349.467	1.61563
349.681	0.74135
349.894	1.39602
350.107	2.90586
350.32	3.24362
350.534	0.61112
350.747	1.56089
350.96	1.08748
351.173	1.29465
351.386	1.61504
351.6	1.36332
351.813	1.31917
352.026	1.6706
352.239	0.68423
352.452	1.57972
352.665	2.54738
352.878	1.83604
353.092	3.45388
353.305	2.41781
353.518	2.03759
353.731	1.13369
353.944	2.8019
354.157	1.23637
354.37	1.00666
354.583	0.90542
354.796	0.37476
355.009	2.53084
355.222	1.94266
355.435	1.77579
355.647	2.48922
355.86	1.04289
356.073	1.66505
356.286	1.32972
356.499	2.22298
356.712	1.99538
356.925	2.20825
357.138	2.31136
357.35	0.92736
357.563	1.44773
357.776	1.78043
357.989	1.28158
358.201	2.0412
358.414	1.69446
358.627	2.62717
358.84	1.40611
359.052	0.69184
359.265	0.894
359.478	2.51687
359.69	-0.33139
359.903	1.98519
360.116	2.16786
360.328	0.36359
360.541	2.19305
360.753	0.66857
360.966	1.03534
361.179	1.17537
361.391	1.04205
361.604	0.7591
361.816	1.12644
362.029	0.93934
362.241	0.80078
362.454	0.9452
362.666	0.7925
362.879	1.46079
363.091	1.19665
363.304	0.82946
363.516	1.40395
363.728	0.61482
363.941	1.74717
364.153	1.08217
364.366	-0.11117
364.578	0.70544
364.79	1.62811
365.003	1.2975
365.215	0.96066
365.427	1.73734
365.639	2.2415
365.852	1.54951
366.064	3.2004
366.276	1.10539
366.488	1.79368
366.701	1.05258
366.913	1.35816
367.125	1.25966
367.337	0.85246
367.549	0.99042
367.762	1.55409
367.974	1.5477
368.186	0.85758
368.398	2.04806
368.61	1.94461
368.822	2.00677
369.034	1.48823
369.246	1.81488
369.458	3.57751
369.67	0.63128
369.882	2.87118
370.094	0.18082
370.306	2.82081
370.518	1.21873
370.73	0.86252
370.942	0.81456
371.154	1.3483
371.366	0.89535
371.578	1.62891
371.79	0.80284
372.002	2.30355
372.214	2.69507
372.425	1.48192
372.637	2.2639
372.849	1.56877
373.061	-0.00606
373.273	1.67995
373.484	1.69059
373.696	2.07542
373.908	-0.02535
374.12	2.32539
374.331	1.68829
374.543	0.93233
374.755	0.70485
374.967	1.64258
375.178	1.92418
375.39	1.1449
375.602	1.4144
375.813	0.47191
376.025	0.499
376.236	1.47692
376.448	1.61069
376.66	0.99757
376.871	1.03779
377.083	2.36081
377.294	2.33521
377.506	1.04359
377.717	2.34208
377.929	1.59436
378.14	0.90956
378.352	1.69167
378.563	1.63075
378.775	2.30795
378.986	0.80513
379.197	1.39249
379.409	0.99639
379.62	1.9998
379.832	1.66679
380.043	1.21825
380.254	1.45661
380.466	0.68121
380.677	3.52307
380.888	2.96217
381.1	3.19952
381.311	3.1716
381.522	1.4427
381.733	3.56418
381.945	1.38061
382.156	1.6244
382.367	1.05136
382.578	3.50779
382.789	3.39239
383.001	1.23782
383.212	2.31296
383.423	2.5726
383.634	2.40516
383.845	1.90429
384.056	1.29308
384.267	1.56009
384.478	1.50931
384.69	0.83399
384.901	1.75967
385.112	1.86553
385.323	2.72584
385.534	1.89398
385.745	1.71884
385.956	1.93738
386.167	0.98583
386.378	1.95626
386.588	0.874
386.799	1.12043
387.01	0.55567
387.221	2.19272
387.432	1.51647
387.643	2.85613
387.854	1.42781
388.065	1.43558
388.275	1.5575
388.486	1.44284
388.697	1.4721
388.908	1.41666
389.119	2.44588
389.329	2.78302
389.54	1.73682
389.751	1.87934
389.962	2.6337
390.172	1.93999
390.383	1.4339
390.594	1.35599
390.804	1.31941
391.015	1.35672
391.226	1.84661
391.436	2.08701
391.647	1.9584
391.858	2.18059
392.068	0.71446
392.279	1.00387
392.489	1.85565
392.7	2.52925
392.91	1.08321
393.121	1.31442
393.331	2.11041
393.542	2.66189
393.752	2.2088
393.963	2.16296
394.173	1.98215
394.384	2.17014
394.594	1.91915
394.804	1.2195
395.015	2.03607
395.225	2.26718
395.436	1.30702
395.646	2.34511
395.856	1.51963
396.067	1.11018
396.277	2.63449
396.487	2.2889
396.697	2.11943
396.908	2.38265
397.118	2.44833
397.328	2.28829
397.538	2.76494
397.749	1.65018
397.959	2.63686
398.169	2.60303
398.379	1.26907
398.589	2.6902
398.8	2.25198
399.01	2.17323
399.22	1.9859
399.43	3.71338
399.64	2.09012
399.85	2.77171
400.06	2.26206
400.27	1.79882
400.48	2.36663
400.69	3.432
400.9	2.01495
401.11	1.8459
401.32	2.86026
401.53	2.2241
401.74	3.51891
401.95	2.90457
402.16	1.82309
402.37	2.70945
402.58	2.13026
402.79	2.98055
403	3.30237
403.209	2.19834
403.419	3.21624
403.629	2.07299
403.839	3.11451
404.049	3.16288
404.258	2.23589
404.468	2.15366
404.678	2.9215
404.888	3.36603
405.097	2.14488
405.307	2.67591
405.517	3.04143
405.727	2.91041
405.936	2.46862
406.146	2.87958
406.356	3.55107
406.565	2.73962
406.775	2.50759
406.984	2.497
407.194	3.85499
407.404	2.77087
407.613	3.16789
407.823	3.32363
408.032	3.53382
408.242	3.61459
408.451	2.61909
408.661	2.94131
408.87	4.12342
409.08	2.61619
409.289	3.2431
409.499	3.13717
409.708	3.19046
409.918	1.93414
410.127	3.15455
410.336	4.20098
410.546	3.58471
410.755	2.90898
410.964	3.00155
411.174	2.60556
411.383	3.45155
411.592	3.38604
411.802	2.64151
412.011	3.75835
412.22	3.09971
412.429	4.35619
412.639	4.18645
412.848	3.94876
413.057	4.15136
413.266	4.12984
413.475	3.35502
413.685	3.78703
413.894	4.01176
414.103	4.18858
414.312	4.08259
414.521	3.36676
414.73	3.49811
414.939	4.92714
415.148	3.94326
415.357	3.792
415.566	3.40407
415.776	3.42012
415.985	3.41377
416.194	4.15242
416.403	4.85025
416.611	2.99112
416.82	3.46311
417.029	3.8005
417.238	3.54397
417.447	3.36997
417.656	3.66422
417.865	3.48215
418.074	3.75369
418.283	3.8776
418.492	4.46185
418.7	4.26868
418.909	5.06993
419.118	4.26655
419.327	4.52796
419.536	4.33109
419.744	4.27464
419.953	5.31585
420.162	5.38768
420.371	4.64291
420.579	4.87586
420.788	5.71855
420.997	5.73362
421.205	5.82923
421.414	5.66421
421.623	5.66878
421.831	5.28116
422.04	5.75077
422.249	5.08876
422.457	5.59699
422.666	4.92069
422.874	5.78284
423.083	5.93654
423.291	5.87084
423.5	5.68064
423.708	5.97978
423.917	6.34735
424.125	5.84653
424.334	5.72549
424.542	7.21985
424.751	6.6727
424.959	6.30392
425.167	6.53041
425.376	6.37066
425.584	5.49378
425.793	5.57552
426.001	4.80465
426.209	5.25124
426.418	4.4338
426.626	4.31392
426.834	4.12374
427.042	4.49675
427.251	4.18797
427.459	4.98059
427.667	4.55368
427.875	3.90239
428.084	4.21403
428.292	5.2396
428.5	4.84551
428.708	4.01306
428.916	4.03122
429.124	4.58724
429.333	4.42236
429.541	4.39909
429.749	4.63739
429.957	4.56486
430.165	6.12389
430.373	3.88712
430.581	4.75898
430.789	5.43441
430.997	4.53546
431.205	4.25669
431.413	4.91534
431.621	4.51818
431.829	5.21571
432.037	4.61518
432.245	5.09017
432.453	5.04615
432.661	4.73272
432.869	5.9607
433.076	4.41574
433.284	4.75766
433.492	5.29664
433.7	5.55554
433.908	4.75677
434.116	5.03866
434.323	4.96711
434.531	4.87171
434.739	5.14668
434.947	5.39955
435.154	5.30616
435.362	4.91159
435.57	4.71962
435.778	4.49889
435.985	5.08781
436.193	4.70958
436.401	5.65036
436.608	4.88726
436.816	4.74451
437.023	5.73567
437.231	5.86832
437.439	5.21292
437.646	5.37175
437.854	5.28916
438.061	5.50843
438.269	4.98705
438.476	5.4766
438.684	5.13493
438.891	4.98738
439.099	4.85671
439.306	4.59201
439.514	4.6901
439.721	5.57537
439.929	5.15905
440.136	5.98104
440.343	5.8994
440.551	5.78807
440.758	7.16012
440.965	6.10751
441.173	5.78412
441.38	5.56007
441.587	5.67702
441.795	5.25894
442.002	5.30652
442.209	5.26775
442.416	5.42703
442.624	5.45445
442.831	5.36713
443.038	4.89705
443.245	4.61715
443.452	5.04413
443.66	5.59741
443.867	4.99212
444.074	4.98916
444.281	4.98694
444.488	5.18825
444.695	5.37688
444.902	5.19718
445.109	5.97613
445.316	5.68808
445.523	5.91779
445.73	5.95077
445.937	6.60203
446.144	6.92116
446.351	7.10631
446.558	6.38543
446.765	7.62469
446.972	7.3335
447.179	6.78491
447.386	7.40343
447.593	6.14008
447.8	6.85309
448.007	5.86325
448.214	5.57591
448.42	5.1901
448.627	5.78576
448.834	5.23662
449.041	5.0765
449.248	5.07041
449.454	5.6029
449.661	6.2245
449.868	4.98312
450.075	4.97959
450.281	4.1124
450.488	4.6486
450.695	4.78614
450.901	4.91036
451.108	4.90171
451.315	5.83555
451.521	5.1057
451.728	5.8702
451.935	4.87533
452.141	5.22112
452.348	5.28951
452.554	5.21113
452.761	4.99267
452.967	6.16445
453.174	5.32436
453.38	5.48737
453.587	4.70901
453.793	5.355
454	5.83353
454.206	6.40866
454.413	5.80948
454.619	5.48411
454.825	4.93891
455.032	5.6379
455.238	5.65207
455.445	4.67641
455.651	5.36897
455.857	4.4415
456.064	5.07776
456.27	5.06403
456.476	5.07532
456.682	4.59931
456.889	5.55054
457.095	5.62528
457.301	6.7846
457.507	5.4292
457.714	5.38915
457.92	5.53341
458.126	5.08691
458.332	5.40462
458.538	5.28596
458.744	5.52151
458.951	5.47476
459.157	7.19654
459.363	6.33641
459.569	6.44154
459.775	7.04308
459.981	6.49476
460.187	6.77666
460.393	7.06381
460.599	7.38104
460.805	6.5033
461.011	5.92373
461.217	6.12467
461.423	5.94076
461.629	5.28341
461.835	5.74506
462.041	5.30036
462.247	6.20858
462.453	5.30997
462.658	5.29637
462.864	5.70088
463.07	5.49249
463.276	5.55914
463.482	5.54495
463.688	6.10632
463.893	5.22424
464.099	5.42323
464.305	6.33103
464.511	5.23909
464.716	5.36738
464.922	5.98812
465.128	5.13571
465.333	6.42481
465.539	5.89504
465.745	5.5091
465.95	5.46646
466.156	7.04262
466.362	6.1624
466.567	5.53728
466.773	5.33783
466.978	6.37795
467.184	5.08118
467.389	4.57809
467.595	5.67983
467.8	5.15352
468.006	6.40728
468.211	6.10174
468.417	4.94812
468.622	5.76065
468.828	6.00172
469.033	5.73658
469.239	7.10869
469.444	5.38478
469.649	6.10075
469.855	5.47085
470.06	5.55568
470.266	5.10692
470.471	5.85906
470.676	5.87336
470.881	4.71554
471.087	6.20409
471.292	7.08652
471.497	4.98273
471.703	5.49406
471.908	5.30706
472.113	5.68609
472.318	6.13639
472.523	5.19139
472.729	5.87493
472.934	5.95853
473.139	5.32143
473.344	5.85715
473.549	6.26345
473.754	5.25158
473.959	7.12459
474.164	5.27586
474.369	5.53044
474.575	6.11847
474.78	5.71226
474.985	5.26826
475.19	4.65911
475.395	5.2882
475.6	5.61339
475.804	6.48355
476.009	5.62699
476.214	5.68851
476.419	5.54694
476.624	4.87675
476.829	5.27761
477.034	6.11687
477.239	5.3171
477.444	6.074
477.648	6.05672
477.853	6.05459
478.058	5.57936
478.263	5.27877
478.468	5.10884
478.672	5.15351
478.877	6.3975
479.082	6.47248
479.287	5.89
479.491	5.64
479.696	5.21532
479.901	6.06486
480.105	6.16473
480.31	5.38516
480.515	5.75226
480.719	6.90979
480.924	5.62691
481.128	5.31252
481.333	5.95715
481.538	5.93874
481.742	6.0362
481.947	6.91436
482.151	7.56929
482.356	8.01275
482.56	9.53516
482.765	10.60702
482.969	12.73927
483.174	14.3163
483.378	16.60762
483.582	17.02749
483.787	18.33879
483.991	18.52043
484.196	18.72366
484.4	18.26398
484.604	18.62122
484.809	16.4607
485.013	15.63382
485.217	14.02586
485.422	12.49159
485.626	11.29926
485.83	10.70838
486.034	10.29036
486.239	10.62314
486.443	10.99784
486.647	11.13776
486.851	12.0078
487.055	13.14444
487.26	12.78494
487.464	13.52666
487.668	13.12553
487.872	13.35519
488.076	13.52346
488.28	12.88166
488.484	12.05892
488.688	11.80457
488.892	11.15784
489.096	10.48245
489.3	9.3946
489.504	8.87026
489.708	8.54695
489.912	8.3548
490.116	8.25905
490.32	7.83568
490.524	8.76679
490.728	9.38865
490.932	9.80591
491.136	10.33198
491.34	11.2719
491.544	11.4731
491.748	11.28555
491.951	11.30779
492.155	10.75147
492.359	10.59146
492.563	9.46796
492.767	8.84516
492.97	7.95337
493.174	7.10473
493.378	6.50638
493.582	5.64435
493.785	5.51278
493.989	5.68318
494.193	5.77725
494.396	5.49979
494.6	6.07797
494.804	5.7313
495.007	5.38428
495.211	5.54143
495.414	5.61196
495.618	5.97105
495.822	6.45096
496.025	5.90055
496.229	6.22667
496.432	5.58257
496.636	5.91206
496.839	5.74437
497.043	6.63859
497.246	6.04437
497.45	5.60395
497.653	5.88735
497.856	5.82112
498.06	5.33885
498.263	5.70253
498.467	5.50844
498.67	6.11958
498.873	5.94864
499.077	5.57785
499.28	5.6059
499.483	5.7973
499.686	6.02481
499.89	5.86649
500.093	6.09346
500.296	5.34271
500.499	6.44114
500.703	5.64486
500.906	5.8805
501.109	6.54516
501.312	5.67828
501.515	5.58407
501.719	5.87801
501.922	6.29683
502.125	5.78755
502.328	5.63349
502.531	5.19949
502.734	5.67665
502.937	4.89982
503.14	5.80258
503.343	5.37455
503.546	5.59947
503.749	5.40821
503.952	6.03319
504.155	5.31257
504.358	5.93696
504.561	5.67047
504.764	5.03338
504.967	5.61156
505.17	5.59143
505.373	6.42269
505.576	5.63017
505.778	5.98965
505.981	5.32521
506.184	6.25189
506.387	4.97355
506.59	6.75577
506.793	6.22022
506.995	5.97214
507.198	4.79996
507.401	5.96914
507.604	5.95467
507.806	5.29333
508.009	5.40091
508.212	6.25473
508.414	5.32677
508.617	5.55752
508.82	5.58467
509.022	6.42861
509.225	5.7809
509.427	4.99993
509.63	6.35851
509.833	5.79376
510.035	5.47999
510.238	4.87894
510.44	6.26828
510.643	4.74296
510.845	6.6219
511.048	5.80281
511.25	5.41493
511.453	5.64773
511.655	5.80915
511.858	5.44082
512.06	6.02695
512.262	5.73311
512.465	6.01946
512.667	5.34271
512.869	5.06613
513.072	5.78093
513.274	5.89862
513.476	5.81193
513.679	6.03214
513.881	5.03155
514.083	6.35038
514.286	5.21725
514.488	5.27845
514.69	5.07607
514.892	4.91768
515.094	5.79598
515.297	5.21057
515.499	5.66569
515.701	5.13944
515.903	6.45528
516.105	6.52591
516.307	5.9495
516.509	4.72594
516.711	5.20364
516.913	5.82425
517.116	5.73427
517.318	5.45258
517.52	6.32079
517.722	6.04014
517.924	5.22082
518.126	5.99318
518.328	5.54646
518.529	6.15145
518.731	6.99457
518.933	5.52439
519.135	5.71964
519.337	6.3818
519.539	5.85477
519.741	4.69823
519.943	5.36764
520.145	5.33647
520.346	5.72917
520.548	5.30077
520.75	5.55606
520.952	5.2561
521.153	5.64185
521.355	5.64246
521.557	5.02301
521.759	5.6604
521.96	5.45035
522.162	4.90716
522.364	6.02696
522.565	5.1814
522.767	5.80819
522.969	6.08169
523.17	5.82158
523.372	5.77997
523.573	5.2676
523.775	5.50074
523.977	5.27716
524.178	6.65021
524.38	5.35535
524.581	6.08556
524.783	5.66774
524.984	6.08398
525.186	5.87935
525.387	6.32777
525.589	6.18256
525.79	6.12813
525.991	6.11496
526.193	6.56609
526.394	5.8342
526.596	6.79563
526.797	6.87118
526.998	6.72054
527.2	6.8615
527.401	8.43667
527.602	9.04354
527.803	10.82788
528.005	11.38997
528.206	12.36772
528.407	13.07316
528.608	12.87551
528.81	13.17775
529.011	12.55171
529.212	13.271
529.413	12.15934
529.614	11.42146
529.815	10.59077
530.017	9.76142
530.218	8.53782
530.419	7.51377
530.62	7.38225
530.821	7.00366
531.022	5.98767
531.223	6.71423
531.424	6.66935
531.625	6.63275
531.826	6.41092
532.027	6.84514
532.228	7.82196
532.429	7.7535
532.63	7.97268
532.831	8.55952
533.032	8.74852
533.233	9.25531
533.433	8.92054
533.634	9.17076
533.835	8.43176
534.036	8.0027
534.237	7.64621
534.438	7.07423
534.638	6.236
534.839	5.98004
535.04	6.02712
535.241	5.50979
535.441	6.40212
535.642	6.00178
535.843	5.50691
536.043	5.73794
536.244	5.84642
536.445	6.12055
536.645	6.75686
536.846	6.3786
537.047	6.94124
537.247	5.78223
537.448	5.71802
537.648	5.61686
537.849	5.43967
538.049	5.34157
538.25	5.69864
538.451	5.56994
538.651	5.01985
538.851	5.78766
539.052	6.19363
539.252	5.91943
539.453	5.66311
539.653	5.80181
539.854	5.81074
540.054	5.82508
540.254	7.15887
540.455	7.95854
540.655	7.75129
540.855	8.80782
541.056	9.58445
541.256	9.36453
541.456	10.09919
541.657	9.64118
541.857	10.27405
542.057	8.98897
542.257	8.59944
542.458	8.90684
542.658	8.79464
542.858	7.11355
543.058	7.54069
543.258	7.0308
543.458	5.91353
543.659	5.624
543.859	6.18308
544.059	6.01796
544.259	5.50101
544.459	6.13129
544.659	5.25978
544.859	5.74921
545.059	5.38031
545.259	5.94977
545.459	5.70194
545.659	6.12904
545.859	5.72187
546.059	5.94243
546.259	5.33622
546.459	5.06251
546.659	5.1816
546.859	6.03937
547.059	5.723
547.258	5.7695
547.458	5.75092
547.658	4.96224
547.858	4.9387
548.058	5.49233
548.258	5.18273
548.457	4.91671
548.657	6.72382
548.857	5.30153
549.057	5.87417
549.256	5.66674
549.456	5.1891
549.656	4.48452
549.855	6.73946
550.055	5.25283
550.255	6.45246
550.454	5.74887
550.654	6.15153
550.853	6.55971
551.053	6.14591
551.253	5.72523
551.452	6.16009
551.652	4.86843
551.851	4.76132
552.051	5.43103
552.25	5.41074
552.45	5.23891
552.649	5.42157
552.849	5.09646
553.048	5.70005
553.248	5.97339
553.447	4.98987
553.646	5.95329
553.846	7.02856
554.045	6.30593
554.244	4.77642
554.444	6.43309
554.643	4.84871
554.842	6.51235
555.042	6.78684
555.241	5.1994
555.44	4.95281
555.64	5.88394
555.839	6.54109
556.038	5.8581
556.237	5.2229
556.436	5.65243
556.636	5.87912
556.835	5.0486
557.034	6.71917
557.233	5.59731
557.432	4.79954
557.631	6.23422
557.83	5.44975
558.029	5.26221
558.228	5.18232
558.427	5.01738
558.626	5.72539
558.825	5.01446
559.024	5.51821
559.223	6.98176
559.422	5.57911
559.621	5.91186
559.82	4.22807
560.019	5.64683
560.218	5.38808
560.417	4.00394
560.616	5.3274
560.815	7.80084
561.014	4.59295
561.212	6.62326
561.411	5.6923
561.61	4.71353
561.809	5.40386
562.008	6.88537
562.206	5.46825
562.405	5.91004
562.604	5.57343
562.803	5.78313
563.001	5.59899
563.2	4.71821
563.399	6.03153
563.597	4.91221
563.796	5.74289
563.995	4.85503
564.193	6.19288
564.392	5.33091
564.59	7.14468
564.789	4.53116
564.988	5.53359
565.186	5.87502
565.385	5.6412
565.583	5.58024
565.782	5.70766
565.98	5.53047
566.179	5.66349
566.377	5.07286
566.575	5.22369
566.774	6.49796
566.972	6.14123
567.171	6.83126
567.369	6.51107
567.567	5.68798
567.766	5.77032
567.964	4.29683
568.162	6.04638
568.361	6.4978
568.559	5.54359
568.757	5.86726
568.956	5.73989
569.154	5.68642
569.352	6.2381
569.55	5.61107
569.748	5.76359
569.947	5.12519
570.145	5.17005
570.343	5.08304
570.541	6.83941
570.739	4.92834
570.937	5.78662
571.135	5.98764
571.333	7.29876
571.532	7.23762
571.73	5.98463
571.928	6.52673
572.126	6.23875
572.324	5.57588
572.522	6.53144
572.72	7.51995
572.918	5.70598
573.116	5.96034
573.313	5.43338
573.511	5.61482
573.709	5.38217
573.907	6.35217
574.105	5.4978
574.303	4.72452
574.501	4.76805
574.699	6.15647
574.896	5.99586
575.094	6.22537
575.292	4.94079
575.49	6.39382
575.688	5.51306
575.885	6.70182
576.083	7.31785
576.281	6.21694
576.478	5.35485
576.676	6.1501
576.874	4.81377
577.071	5.69532
577.269	7.36513
577.467	5.61353
577.664	5.83346
577.862	6.29258
578.059	5.24981
578.257	6.50442
578.455	5.70107
578.652	5.79005
578.85	4.43403
579.047	5.97168
579.245	5.68336
579.442	5.79785
579.64	5.74679
579.837	4.59124
580.034	7.92176
580.232	5.71763
580.429	5.00686
580.627	6.38939
580.824	7.02503
581.021	6.3382
581.219	5.68374
581.416	5.36123
581.613	7.19421
581.811	6.89103
582.008	5.27095
582.205	6.73071
582.402	6.36099
582.6	7.20789
582.797	6.1134
582.994	6.41603
583.191	6.71416
583.388	5.98873
583.586	6.68931
583.783	6.98622
583.98	5.2641
584.177	6.10434
584.374	3.93065
584.571	5.81927
584.768	5.95311
584.965	5.86366
585.162	6.80538
585.359	7.43602
585.556	6.28377
585.753	6.51915
585.95	5.21245
586.147	5.42667
586.344	6.37417
586.541	6.00398
586.738	5.31557
586.935	6.0956
587.132	5.53573
587.329	7.04331
587.526	6.08144
587.722	10.42805
587.919	4.96313
588.116	6.65904
588.313	7.31519
588.51	7.9378
588.706	6.15496
588.903	6.70964
589.1	7.0746
589.297	8.84469
589.493	6.12591
589.69	6.80445
589.887	5.73498
590.083	5.1846
590.28	5.51411
590.477	7.08487
590.673	6.61245
590.87	7.34729
591.067	5.72258
591.263	6.46186
591.46	6.41997
591.656	5.94481
591.853	7.71789
592.049	5.61627
592.246	5.80633
592.442	7.15099
592.639	6.89589
592.835	5.4099
593.032	6.596
593.228	5.00073
593.425	5.15567
593.621	5.07269
593.817	6.4452
594.014	5.68771
594.21	6.54167
594.406	7.26993
594.603	6.44035
594.799	5.85831
594.995	4.54741
595.192	7.26346
595.388	5.88906
595.584	5.89746
595.78	5.21293
595.977	8.79369
596.173	7.78008
596.369	6.1598
596.565	5.62765
596.761	5.28386
596.957	7.25629
597.154	5.62611
597.35	5.90015
597.546	5.64722
597.742	6.36778
597.938	6.28546
598.134	5.388
598.33	6.18505
598.526	7.15156
598.722	6.47384
598.918	7.69298
599.114	6.76449
599.31	5.20389
599.506	6.34603
599.702	5.55736
599.898	6.65053
600.094	7.24409
600.29	7.17072
600.485	7.15462
600.681	5.91266
600.877	8.0071
601.073	6.59092
601.269	8.5379
601.465	7.87829
601.66	5.81323
601.856	4.83936
602.052	8.64821
602.248	6.31594
602.443	4.8193
602.639	5.45827
602.835	5.82716
603.03	5.84485
603.226	7.2604
603.422	5.76303
603.617	6.28737
603.813	6.224
604.009	5.96066
604.204	7.44214
604.4	5.25736
604.595	7.24151
604.791	5.61341
604.986	6.54361
605.182	5.5306
605.377	5.78834
605.573	5.81661
605.768	6.18081
605.964	6.55071
606.159	6.69146
606.355	7.00213
606.55	5.90488
606.746	7.13405
606.941	6.24619
607.136	8.07321
607.332	9.10725
607.527	5.48231
607.722	6.81855
607.918	6.29445
608.113	5.78237
608.308	7.47777
608.503	7.12132
608.699	7.05725
608.894	7.17797
609.089	5.89045
609.284	6.94478
609.479	6.10913
609.675	7.09317
609.87	6.25352
610.065	6.99692
610.26	7.24534
610.455	7.06901
610.65	6.27006
610.845	6.6856
611.04	7.08867
611.235	6.28972
611.43	6.19249
611.625	5.54727
611.82	7.97904
612.015	6.01352
612.21	8.36329
612.405	5.21885
612.6	8.70459
612.795	8.33972
612.99	7.60199
613.185	5.76768
613.38	5.92463
613.575	7.32238
613.77	9.86615
613.965	5.38231
614.159	6.18199
614.354	8.02055
614.549	8.14567
614.744	7.30378
614.938	5.81277
615.133	5.46474
615.328	8.35364
615.523	8.36934
615.717	9.83669
615.912	6.40066
616.107	6.95799
616.301	6.66874
616.496	6.17223
616.691	8.76462
616.885	7.69675
617.08	9.94118
617.274	8.28495
617.469	9.33256
617.664	7.73784
617.858	6.49994
618.053	7.1555
618.247	6.47109
618.442	4.58173
618.636	8.63601
618.831	6.23477
619.025	6.35671
619.219	10.44327
619.414	3.66987
619.608	6.74366
619.803	5.93895
619.997	9.51534
620.191	8.27985
620.386	7.44943
620.58	7.04305
620.774	5.22151
620.969	5.21678
621.163	7.07717
621.357	5.62322
621.551	6.66206
621.746	7.17949
621.94	6.69738
622.134	11.15675
622.328	9.72116
622.522	5.59427
622.716	8.31282
622.911	8.16757
623.105	8.16386
623.299	7.21757
623.493	10.81463
623.687	6.30336
623.881	6.58723
624.075	7.94776
624.269	8.47331
624.463	4.9597
624.657	5.23984
624.851	7.8476
625.045	8.04137
625.239	8.16275
625.433	6.45319
625.627	9.22947
625.821	6.47778
626.015	6.20496
626.209	7.11199
626.403	5.33652
626.596	7.4733
626.79	8.00238
626.984	5.7452
627.178	7.47931
627.372	7.33595
627.565	7.72948
627.759	5.53338
627.953	5.59974
628.147	7.31201
628.34	7.74512
628.534	9.56341
628.728	6.67532
628.921	8.26196
629.115	8.01846
629.309	8.28444
629.502	8.31531
629.696	7.30689
629.89	7.20641
630.083	7.49815
630.277	7.57088
630.47	9.39996
630.664	6.93597
630.857	5.62302
631.051	8.29077
631.244	8.65618
631.438	8.55487
631.631	6.58955
631.825	8.98424
632.018	8.19275
632.212	9.81887
632.405	9.00696
632.598	6.26436
632.792	7.599
632.985	4.56801
633.178	6.86699
633.372	7.41041
633.565	7.37315
633.758	9.01814
633.952	6.45429
634.145	6.24318
634.338	7.19836
634.531	6.86984
634.724	6.14364
634.918	7.53198
635.111	6.78453
635.304	7.01185
635.497	10.43795
635.69	7.78672
635.883	8.97237
636.077	5.91626
636.27	8.16758
636.463	7.87328
636.656	7.82382
636.849	7.03177
637.042	8.35821
637.235	10.54151
637.428	8.60174
637.621	8.08869
637.814	9.75522
638.007	9.79116
638.2	9.92015
638.393	10.39469
638.586	6.12195
638.778	7.042
638.971	7.64894
639.164	9.8537
639.357	8.37183
639.55	9.95508
639.743	8.86675
639.935	8.67109
640.128	11.54448
640.321	9.10563
640.514	8.41043
640.707	11.52848
640.899	9.02407
641.092	6.00806
641.285	23.72722
641.477	4.8262
641.67	12.0179
641.863	9.99834
642.055	8.55106
642.248	8.29768
642.441	7.81366
642.633	9.1236
642.826	9.46582
643.018	10.4014
643.211	10.98696
643.403	11.69155
643.596	12.00476
643.788	10.85591
643.981	7.64028
644.173	9.61118
644.366	7.60924
644.558	5.6214
644.751	9.97226
644.943	6.41626
645.135	11.33214
645.328	11.51901
645.52	9.60221
645.712	10.24671
645.905	14.05149
646.097	6.728
646.289	9.23522
646.482	12.16936
646.674	7.15513
646.866	10.57103
647.058	9.41324
647.251	6.94637
647.443	7.65558
647.635	8.11268
647.827	7.35609
648.019	6.74594
648.211	8.36169
648.404	9.14157
648.596	11.74247
648.788	9.30912
648.98	9.2035
649.172	9.50746
649.364	9.16629
649.556	6.14766
649.748	12.69419
649.94	7.29156
650.132	10.10732
650.324	7.57578
650.516	7.55789
650.708	10.59011
650.9	6.59808
651.092	6.3217
651.284	6.34201
651.476	6.95536
651.667	9.80663
651.859	11.25149
652.051	8.4729
652.243	9.16366
652.435	8.01428
652.627	9.69876
652.818	9.68781
653.01	6.317
653.202	7.35374
653.394	8.26001
653.585	9.55433
653.777	16.68745
653.969	11.74614
654.16	11.04875
654.352	7.35528
654.544	8.77774
654.735	11.11581
654.927	9.21144
655.118	11.69078
655.31	10.63018
655.502	11.14472
655.693	8.46556
655.885	9.99873
656.076	11.83907
656.268	9.64641
656.459	11.52853
656.651	11.74756
656.842	8.43649
657.034	8.06745
657.225	10.56255
657.416	11.8713
657.608	11.60165
657.799	9.40512
657.99	11.16543
658.182	7.94951
658.373	7.95712
658.564	11.34664
658.756	9.79397
658.947	8.82075
659.138	7.31064
659.33	8.09654
659.521	7.65619
659.712	8.66164
659.903	8.38778
660.094	7.82505
660.286	6.07021
660.477	11.89968
660.668	9.78291
660.859	8.851
661.05	6.80803
661.241	10.01157
661.432	9.7491
661.623	8.59478
661.814	8.17697
662.006	6.51782
662.197	9.21727
662.388	11.42633
662.579	9.9272
662.77	12.03605
662.96	14.76729
663.151	11.46432
663.342	6.25234
663.533	10.66242
663.724	9.30941
663.915	12.93338
664.106	9.68774
664.297	13.65994
664.488	10.91046
664.678	8.62463
664.869	11.32179
665.06	11.37444
665.251	10.01927
665.442	11.26925
665.632	7.96755
665.823	13.95251
666.014	4.71028
666.204	10.95232
666.395	12.58691
666.586	14.6552
666.776	11.31124
666.967	13.74259
667.158	9.96436
667.348	13.39002
667.539	8.12347
667.729	12.05879
667.92	8.8148
668.111	12.02731
668.301	11.83921
668.492	9.23047
668.682	10.25215
668.873	9.83068
669.063	8.01832
669.253	10.48364
669.444	13.40262
669.634	9.78209
669.825	13.85905
670.015	12.74805
670.206	8.92636
670.396	14.86288
670.586	9.62592
670.777	11.57629
670.967	6.01891
671.157	9.84225
671.347	9.07684
671.538	13.73217
671.728	11.59364
671.918	14.40442
672.108	12.3533
672.299	10.22671
672.489	10.88969
672.679	9.17356
672.869	12.00444
673.059	15.66338
673.249	11.39775
673.44	8.72663
673.63	9.98856
673.82	12.87099
674.01	8.60898
674.2	12.04612
674.39	16.78767
674.58	11.98724
674.77	10.72756
674.96	9.97837
675.15	20.02087
675.34	13.06862
675.53	11.04845
675.72	9.54622
675.91	7.50586
676.099	15.28048
676.289	16.31914
676.479	13.57299
676.669	9.94049
676.859	12.25484
677.049	9.33272
677.238	10.91832
677.428	15.06676
677.618	11.89119
677.808	15.60201
677.997	12.31709
678.187	9.05405
678.377	11.03756
678.567	9.63521
678.756	10.2253
678.946	10.88933
679.136	8.15325
679.325	9.46339
679.515	9.2471
679.704	7.98301
679.894	12.96317
680.084	11.44139
680.273	13.60174
680.463	8.68145
680.652	8.91428
680.842	10.68533
681.031	12.79902
681.221	8.98988
681.41	12.17396
681.6	10.59123
681.789	12.24835
681.978	13.56181
682.168	11.95312
682.357	11.64074
682.547	12.13833
682.736	11.28293
682.925	14.17059
683.115	13.80794
683.304	13.05306
683.493	11.80427
683.682	12.57192
683.872	12.57787
684.061	14.44186
684.25	13.11679
684.439	17.59454
684.629	13.74607
684.818	20.11118
685.007	12.03247
685.196	10.71067
685.385	16.87958
685.574	13.17491
685.763	12.69277
685.952	12.86131
686.142	9.21645
686.331	15.11056
686.52	8.70498
686.709	17.26896
686.898	16.86166
687.087	13.98308
687.276	16.69795
687.465	15.48093
687.654	11.55666
687.842	16.25537
688.031	9.39382
688.22	16.30101
688.409	13.09356
688.598	12.85855
688.787	18.80424
688.976	12.76579
689.165	17.96436
689.353	11.72992
689.542	14.47633
689.731	16.11457
689.92	18.23557
690.108	15.28427
690.297	12.14319
690.486	13.38086
690.675	14.68329
690.863	17.52943
691.052	17.124
691.241	13.99777
691.429	13.746
691.618	17.01413
691.806	10.40639
691.995	12.58884
692.184	12.77876
692.372	12.2566
692.561	13.28742
692.749	14.25946
692.938	22.74908
693.126	15.57485
693.315	12.93826
693.503	15.49138
693.692	16.66142
693.88	15.86555
694.068	20.18846
694.257	14.21967
694.445	15.91472
694.634	8.46378
694.822	16.14662
695.01	17.64988
695.199	20.03363
695.387	18.43806
695.575	17.6985
695.763	13.70382
695.952	13.70026
696.14	9.83152
696.328	12.33724
696.516	14.59149
696.705	14.95562
696.893	14.66637
697.081	9.63988
697.269	16.23401
697.457	11.2083
697.645	10.06839
697.833	15.93367
698.021	11.35568
698.21	11.96852
698.398	12.22233
698.586	9.95296
698.774	9.52951
698.962	12.61981
699.15	9.83968
699.338	8.62418
699.526	13.93419
699.714	10.60805
699.901	10.6992
700.089	14.23496
700.277	11.03157
700.465	11.99335
700.653	14.57142
700.841	14.23689
701.029	11.31808
701.217	17.38832
701.404	13.51419
701.592	17.23514
701.78	20.88915
701.968	13.16121
702.155	13.08317
702.343	10.6856
702.531	18.60932
702.718	15.55164
702.906	13.24888
703.094	12.64668
703.281	18.38527
703.469	13.43336
703.657	18.29624
703.844	25.53346
704.032	21.49916
704.219	13.80485
704.407	16.99797
704.595	20.03131
704.782	16.32284
704.97	15.18057
705.157	14.55442
705.345	22.36807
705.532	27.55419
705.719	18.70607
705.907	22.04435
706.094	18.62354
706.282	24.89558
706.469	18.724
706.656	19.93297
706.844	18.64859
707.031	23.38749
707.218	21.01878
707.406	25.71331
707.593	22.50106
707.78	22.50206
707.968	20.91126
708.155	18.02466
708.342	23.61172
708.529	23.0747
708.716	22.37583
708.904	26.54021
709.091	22.77088
709.278	17.45952
709.465	27.21295
709.652	26.53188
709.839	25.09615
710.026	21.02478
710.213	14.79093
710.4	21.18646
710.587	22.2637
710.774	24.15901
710.961	24.14261
711.148	20.03622
711.335	23.70269
711.522	19.9726
711.709	22.25997
711.896	27.52928
712.083	24.29184
712.27	17.50558
712.457	21.57897
712.644	15.97619
712.831	28.28809
713.017	21.37755
713.204	23.3062
713.391	17.8248
713.578	23.06559
713.765	25.3675
713.951	21.12174
714.138	30.88003
714.325	21.04388
714.512	19.11626
714.698	16.38787
714.885	23.82898
715.072	19.28917
715.258	18.88724
715.445	16.31297
715.631	22.67203
715.818	9.39348
716.005	15.37701
716.191	20.27054
716.378	16.40068
716.564	20.90523
716.751	14.1965
716.937	16.35136
717.124	21.49508
717.31	14.80746
717.497	25.42574
717.683	15.6506
717.869	25.538
718.056	15.5167
718.242	19.73949
718.429	17.55728
718.615	13.12858
718.801	17.76268
718.988	22.8288
719.174	20.44754
719.36	16.60193
719.547	23.097
719.733	19.73033
719.919	19.55271
720.105	20.14769
720.291	18.25209
720.478	19.63845
720.664	17.29679
720.85	17.28428
721.036	31.37263
721.222	25.73911
721.408	18.4991
721.595	26.50902
721.781	25.73188
721.967	24.06748
722.153	25.68116
722.339	21.67958
722.525	21.42543
722.711	14.88898
722.897	13.52036
723.083	17.14717
723.269	24.27232
723.455	32.1936
723.641	37.669
723.827	20.71439
724.012	21.34052
724.198	19.20102
724.384	25.73805
724.57	20.45061
724.756	13.78086
724.942	12.03832
725.127	25.37879
725.313	26.1264
725.499	25.76054
725.685	29.53007
725.87	21.93708
726.056	15.92909
726.242	25.19001
726.428	13.20039
726.613	24.14765
726.799	18.30938
726.985	15.77956
727.17	13.19496
727.356	29.89393
727.541	16.46349
727.727	19.97747
727.913	23.89514
728.098	17.96098
728.284	23.32679
728.469	14.92665
728.655	16.35433
728.84	25.17428
729.026	23.30566
729.211	23.6452
729.397	21.86841
729.582	24.00162
729.767	19.42054
729.953	21.58574
730.138	25.82947
730.323	10.22935
730.509	15.35867
730.694	28.26522
730.879	22.62502
731.065	21.80423
731.25	31.46726
731.435	23.35708
731.621	14.06221
731.806	17.96728
731.991	21.6813
732.176	13.93667
732.361	27.55837
732.547	21.70425
732.732	12.87687
732.917	31.76813
733.102	15.43772
733.287	17.58004
733.472	19.96446
733.657	20.26833
733.842	13.70998
734.027	18.16584
734.212	18.94664
734.397	16.71578
734.582	20.62821
734.767	25.06865
734.952	27.0717
735.137	9.84416
735.322	27.4524
735.507	22.21625
735.692	21.15659
735.877	31.36807
736.062	30.70227
736.247	22.83342
736.431	20.87767
736.616	26.37099
736.801	22.92528
736.986	20.84611
737.171	16.89435
737.355	16.07156
737.54	28.80647
737.725	21.55322
737.909	35.83292
738.094	18.34111
738.279	25.84425
738.463	20.71306
738.648	25.56087
738.833	23.22026
739.017	33.38659
739.202	20.19111
739.386	20.78672
739.571	17.24284
739.756	26.69901
739.94	21.83787
740.125	24.90107
740.309	18.19425
740.494	25.55774
740.678	23.13438
740.863	23.86303
741.047	21.88561
741.231	29.73685
741.416	19.30262
741.6	30.27218
741.785	17.60163
741.969	26.65732
742.153	29.90372
742.338	11.54704
742.522	21.00925
742.706	26.16672
742.89	15.39832
743.075	22.18089
743.259	28.54214
743.443	28.54244
743.627	29.40143
743.812	34.97816
743.996	14.13225
744.18	21.6655
744.364	19.45066
744.548	37.635
744.732	21.69476
744.916	26.88376
745.1	25.606
745.285	20.45185
745.469	26.19986
745.653	32.40298
745.837	17.20207
746.021	37.04586
746.205	30.06512
746.389	23.49695
746.573	21.05287
746.757	30.81361
746.94	19.41326
747.124	29.64029
747.308	16.50285
747.492	29.81257
747.676	17.80442
747.86	38.02163
748.044	20.39375
748.227	13.8438
748.411	47.69472
748.595	24.08375
748.779	18.33888
748.963	26.21161
749.146	24.07215
749.33	18.82538
749.514	18.32801
749.697	30.4511
749.881	19.39216
750.065	17.2519
750.248	24.15537
750.432	38.10309
750.616	22.93902
750.799	16.7013
750.983	39.26683
751.166	39.46569
751.35	14.4524
751.533	28.63963
751.717	34.22114
751.9	33.33752
752.084	21.91019
752.267	17.93854
752.451	18.57023
752.634	23.88107
752.818	27.60488
753.001	28.75141
753.184	31.2783
753.368	26.26601
753.551	5.19392
753.734	18.89851
753.918	40.07505
754.101	19.82077
754.284	28.58114
754.467	21.65631
754.651	19.98649
754.834	19.44504
755.017	30.88079
755.2	31.39365
755.384	17.39746
755.567	29.12408
755.75	29.12664
755.933	22.02505
756.116	29.97268
756.299	20.00902
756.482	18.67808
756.665	27.94866
756.848	24.8531
757.032	26.28638
757.215	15.12167
757.398	18.11947
757.581	18.39484
757.764	42.83879
757.947	23.35832
758.129	30.07881
758.312	7.3576
758.495	23.53792
758.678	23.47073
758.861	21.70518
759.044	37.57954
759.227	18.41104
759.41	18.00009
759.592	29.04835
759.775	22.99603
759.958	30.34429
760.141	16.46091
760.324	39.43731
760.506	33.17275
760.689	29.27534
760.872	39.55357
761.054	27.338
761.237	23.49329
761.42	26.10851
761.602	29.5811
761.785	26.55757
761.968	31.72107
762.15	36.42557
762.333	23.2358
762.515	28.04871
762.698	21.78296
762.88	30.30231
763.063	27.43289
763.245	32.41689
763.428	18.94944
763.61	21.15846
763.793	16.3091
763.975	25.23185
764.158	21.67561
764.34	19.43186
764.522	18.09228
764.705	21.36015
764.887	33.7185
765.069	14.15728
765.252	26.86441
765.434	28.96212
765.616	24.18455
765.799	19.19147
765.981	28.67703
766.163	18.84501
766.345	32.79749
766.528	19.53161
766.71	10.48371
766.892	24.87124
767.074	32.94156
767.256	20.86357
767.438	37.01438
767.62	25.97506
767.802	41.06708
767.985	30.16195
768.167	38.72677
768.349	21.77786
768.531	28.42352
768.713	28.0221
768.895	31.89311
769.077	27.90622
769.259	44.75748
769.441	62.80304
769.623	31.86713
769.804	38.14932
769.986	35.33993
770.168	43.0015
770.35	54.15939
770.532	39.51211
770.714	43.08398
770.896	42.84707
771.077	19.0107
771.259	46.59752
771.441	40.47552
771.623	47.87826
771.804	61.41812
771.986	18.63431
772.168	32.70808
772.35	45.85645
772.531	62.85335
772.713	37.92593
772.894	50.63826
773.076	35.23857
773.258	31.27748
773.439	52.85344
773.621	57.90412
773.802	25.43501
773.984	31.27616
774.166	40.14958
774.347	56.27736
774.529	48.14177
774.71	17.4372
774.891	34.03138
775.073	32.15606
775.254	50.90461
775.436	29.60145
775.617	64.54548
775.799	30.22394
775.98	51.62245
776.161	58.50919
776.343	57.3002
776.524	36.71311
776.705	35.2602
776.886	17.81917
777.068	42.94043
777.249	87.04716
777.43	63.26005
777.611	24.98927
777.793	32.44322
777.974	60.97702
778.155	30.79551
778.336	26.55464
778.517	68.08534
778.698	29.85007
778.879	17.22457
779.061	8.35222
779.242	44.21024
779.423	42.77444
779.604	32.1679
779.785	33.94261
779.966	40.5959
780.147	51.12396
780.328	50.29548
780.509	70.98815
780.69	50.43713
780.871	29.83145
781.051	21.49507
781.232	39.54676
781.413	40.16484
781.594	33.3275
781.775	32.90907
781.956	29.22958
782.137	16.22382
782.317	31.16755
782.498	40.16326
782.679	37.97395
782.86	40.10002
783.04	29.7003
783.221	40.04448
783.402	63.64114
783.583	38.9164
783.763	49.66116
783.944	32.18205
784.124	22.6281
784.305	60.66442
784.486	47.39935
784.666	35.76925
784.847	20.12267
785.027	81.61855
785.208	30.48638
785.388	30.07947
785.569	30.39815
785.749	33.99062
785.93	31.71083
786.11	21.66514
786.291	43.15121
786.471	41.1883
786.652	49.32399
786.832	36.09807
787.012	41.16438
787.193	23.64674
787.373	38.1549
787.553	33.9024
787.734	41.37838
787.914	32.32857
788.094	49.62498
788.275	41.72788
788.455	33.64428
788.635	25.70696
788.815	41.12862
788.995	25.71545
789.176	20.3745
789.356	28.84072
789.536	33.99548
789.716	42.74486
789.896	29.45902
790.076	31.65375
790.256	41.03026
790.436	14.20026
790.616	24.65765
790.796	40.64782
790.976	33.59851
791.156	28.83032
791.336	46.01683
791.516	41.13502
791.696	33.24603
791.876	21.10329
792.056	39.7148
792.236	50.17142
792.416	47.55342
792.596	43.18884
792.776	42.33869
792.956	47.21911
793.135	61.21784
793.315	24.59383
793.495	52.31236
793.675	47.47502
793.854	46.37951
794.034	50.04331
794.214	24.63312
794.394	48.52664
794.573	52.71605
794.753	39.73194
794.933	28.42852
795.112	40.42403
795.292	50.8305
795.472	62.0038
795.651	23.76927
795.831	36.13473
796.01	33.89578
796.19	33.83368
796.369	36.36254
796.549	42.52582
796.728	35.69163
796.908	22.14732
797.087	25.15703
797.267	34.38238
797.446	24.70004
797.626	43.6549
797.805	42.0532
797.984	29.50315
798.164	45.93113
798.343	27.62406
798.522	39.62805
798.702	37.63766
798.881	23.20501
799.06	34.70066
799.239	16.53588
799.419	27.21724
799.598	60.49902
799.777	43.66993
799.956	51.84855
800.136	34.21368
800.315	28.82327
800.494	40.38703
800.673	49.60606
800.852	46.06255
801.031	52.71377
801.21	45.24409
801.389	31.81885
801.568	40.46217
801.747	61.72536
801.926	35.58477
802.105	57.8229
802.284	30.35786
802.463	57.19828
802.642	41.12093
802.821	41.57857
803	56.09824
803.179	48.04491
803.358	50.51936
803.537	30.18582
803.716	38.03496
803.895	29.16292
804.073	34.44562
804.252	28.43281
804.431	44.72568
804.61	34.60706
804.789	49.37328
804.967	31.58036
805.146	31.04121
805.325	67.44458
805.503	42.50484
805.682	22.54774
805.861	82.52754
806.039	56.10669
806.218	31.42468
806.397	40.09834
806.575	38.43954
806.754	43.28571
806.932	26.17214
807.111	51.47189
807.289	50.23993
807.468	37.99445
807.646	51.80513
807.825	44.47697
808.003	39.91536
808.182	52.0957
808.36	38.51978
808.539	27.72327
808.717	58.9777
808.895	31.69395
809.074	42.5541
809.252	36.22559
809.43	46.72607
809.609	53.95409
809.787	64.57364
809.965	34.68348
810.144	37.51734
810.322	35.95597
810.5	45.68516
810.678	34.50965
810.856	69.17269
811.035	54.62431
811.213	48.03991
811.391	55.97184
811.569	42.99333
811.747	92.92292
811.925	53.76401
812.103	30.99541
812.281	39.49833
812.459	62.83307
812.637	64.96566
812.816	50.66429
812.994	71.30046
813.171	57.82832
813.349	48.70381
813.527	54.90985
813.705	60.06967
813.883	76.60113
814.061	51.60803
814.239	65.39351
814.417	73.92664
814.595	50.33042
814.773	45.39103
814.95	42.85037
815.128	47.17056
815.306	43.75975
815.484	40.4071
815.662	29.06192
815.839	27.07534
816.017	35.43349
816.195	56.40394
816.372	35.90924
816.55	52.98754
816.728	65.57375
816.905	37.94713
817.083	62.0706
817.261	41.00998
817.438	87.70552
817.616	69.53797
817.793	35.00055
817.971	52.56755
818.148	51.72771
818.326	60.32724
818.503	45.75573
818.681	65.89339
818.858	38.59102
819.036	41.13991
819.213	44.28633
819.391	33.61592
819.568	33.54194
819.745	29.17291
819.923	52.81739
820.1	38.42576
820.277	30.81458
820.455	37.89911
820.632	39.35603
820.809	42.86007
820.986	27.24536
821.164	22.5749
821.341	18.8841
821.518	30.87758
821.695	21.49818
821.872	19.55407
822.05	16.84119
822.227	13.14691
822.404	13.85254
822.581	16.62053
822.758	13.21559
822.935	13.27239
823.112	15.04427
823.289	12.15147
823.466	15.00286
823.643	13.87118
823.82	16.6889
823.997	14.1533
824.174	16.98156
824.351	23.66549
824.528	21.58068
824.705	20.04344
824.882	21.55189
825.059	29.48789
825.236	20.05322
825.412	22.2245
825.589	26.84404
825.766	40.33923
825.943	24.42124
826.12	28.49287
826.296	20.12213
826.473	26.15673
826.65	26.31117
826.827	32.84927
827.003	21.04948
827.18	23.83342
827.357	26.32612
827.533	22.35138
827.71	12.32627
827.887	19.89604
828.063	22.51678
828.24	18.69944
828.416	26.1093
828.593	20.78628
828.769	29.94937
828.946	31.11199
829.122	31.97075
829.299	31.42444
829.475	18.50415
829.652	29.67282
829.828	51.41222
830.005	33.29477
830.181	43.74592
830.357	33.04099
830.534	46.68157
830.71	36.28755
830.886	47.24177
831.063	45.25752
831.239	57.08494
831.415	28.08116
831.592	58.15825
831.768	36.53
831.944	32.8463
832.12	65.25721
832.296	62.04435
832.473	49.84928
832.649	35.53876
832.825	51.17265
833.001	30.55017
833.177	44.90546
833.353	41.51278
833.529	23.76884
833.705	37.2143
833.881	23.42815
834.058	22.96171
834.234	25.35413
834.41	24.60718
834.586	18.75142
834.761	22.55794
834.937	25.97365
835.113	26.48903
835.289	22.022
835.465	26.60136
835.641	23.62075
835.817	26.57251
835.993	46.7044
836.169	24.51787
836.344	35.99169
836.52	41.06528
836.696	40.10282
836.872	29.82422
837.048	88.97097
837.223	32.93169
837.399	70.50706
837.575	52.83285
837.75	48.18308
837.926	69.21224
838.102	100.47784
838.277	81.87933
838.453	111.2636
838.628	115.331
838.804	44.34853
838.98	101.60759
839.155	52.13171
839.331	69.51921
839.506	49.14867
839.682	49.02006
839.857	73.18813
840.033	82.15852
840.208	37.01544
840.384	18.38239
840.559	38.24902
840.734	60.18825
840.91	78.80132
841.085	48.28784
841.26	46.70542
841.436	42.57861
841.611	41.94146
841.786	62.71589
841.962	82.16588
842.137	53.93255
842.312	34.35019
842.487	47.07023
842.663	38.37085
842.838	46.5633
843.013	152.56738
843.188	72.96161
843.363	82.6048
843.538	130.30178
843.714	131.00216
843.889	131.89174
844.064	142.05813
844.239	114.18555
844.414	136.53836
844.589	88.72814
844.764	167.12368
844.939	158.46135
845.114	173.74523
845.289	170.61756
845.464	226.98356
845.639	150.09133
845.814	77.10119
845.989	89.56054
846.163	113.73164
846.338	118.01417
846.513	171.52719
846.688	103.93498
846.863	111.89401
847.038	97.21473
847.212	115.5153
847.387	116.04295
847.562	119.22353
847.737	150.46366
847.911	58.80708
848.086	67.78283
848.261	248.89747
848.435	106.56456
848.61	157.73925
848.785	80.01801
848.959	163.42021
849.134	217.63789
849.308	229.06562
849.483	124.69257
849.658	192.1624
849.832	101.36632
850.007	87.25449
850.181	257.66064
850.356	95.76994
850.53	237.49286
850.705	76.3132
850.879	41.40098
851.053	117.14553
851.228	107.28861
851.402	132.49009
851.577	174.09685
851.751	191.46482
851.925	125.96675
852.099	58.38877
852.274	88.8892
852.448	117.54932
852.622	149.57774
852.797	118.36587
852.971	115.28459
853.145	126.78163
853.319	354.16925
853.493	177.18278
853.668	103.44923
853.842	227.52735
854.016	185.06817
854.19	210.47908
854.364	129.29795
854.538	138.64094
854.712	182.56062
854.886	115.08223
855.06	107.21337
855.234	46.64722
855.408	199.54617
855.582	168.06873
855.756	168.18219
855.93	215.15696
856.104	143.15922
856.278	172.02746
856.452	116.49087
856.626	163.78618
856.8	270.57738
856.973	144.18794
857.147	146.96536
857.321	150.5754
857.495	183.01048
857.669	122.6443
857.842	112.0961
858.016	179.08111
858.19	93.77279
858.364	292.97137
858.537	110.16047
858.711	132.12635
858.885	116.50339
859.058	97.74908
859.232	65.44785
859.405	70.13881
859.579	166.79408
859.753	139.41588
859.926	95.32824
860.1	70.73145
860.273	120.93692
860.447	209.39667
860.62	109.71196
860.794	248.51314
860.967	143.11062
861.141	188.57463
861.314	271.67722
861.487	166.285
861.661	203.35714
861.834	205.55208
862.008	181.67977
862.181	130.4425
862.354	144.04714
862.528	154.95298
862.701	104.66071
862.874	78.30557
863.047	116.16127
863.221	103.89108
863.394	56.76875
863.567	207.538
863.74	41.83205
863.913	175.01797
864.087	142.70963
864.26	177.51922
864.433	123.38089
864.606	231.03425
864.779	134.87752
864.952	58.66738
865.125	107.28949
865.298	124.62564
865.471	131.20638
865.644	263.97709
865.817	211.78646
865.99	176.48384
866.163	199.30309
866.336	110.13596
866.509	127.32666
866.682	106.68337
866.855	192.16227
867.028	78.38341
867.2	163.03473
867.373	52.65225
867.546	137.82478
867.719	262.43185
867.892	159.86892
868.064	89.79522
868.237	153.64792
868.41	126.83017
868.583	75.30632
868.755	79.38617
868.928	133.07068
869.101	269.7717
869.273	196.0343
869.446	164.4583
869.619	189.73571
869.791	125.74408
869.964	189.66246
870.136	181.56512
870.309	140.03479
870.481	136.54778
870.654	71.12382
870.826	141.4139
870.999	110.31417
871.171	174.43831
871.344	109.03997
871.516	122.15193
871.689	94.14919
871.861	147.46981
872.033	99.41078
872.206	117.66576
872.378	186.2944
872.55	118.83434
872.723	81.49938
872.895	121.52481
873.067	188.33503
873.24	207.60047
873.412	105.38712
873.584	119.83051
873.756	116.76059
873.928	147.98541
874.101	155.13387
874.273	165.04559
874.445	55.25927
874.617	83.37964
874.789	138.48894
874.961	116.70567
875.133	160.93859
875.305	134.05481
875.477	91.21215
875.649	67.85784
875.821	88.59458
875.993	228.35173
876.165	85.24036
876.337	156.61669
876.509	113.92283
876.681	151.96555
876.853	138.82088
877.025	147.25741
877.197	95.54818
877.369	85.44349
877.541	181.88883
877.712	50.02553
877.884	85.346
878.056	167.66572
878.228	86.06663
878.4	155.51492
878.571	89.19024
878.743	59.23574
878.915	146.01341
879.086	84.92393
879.258	105.18802
879.43	94.95616
879.601	87.07281
879.773	89.99626
879.945	23.3062
880.116	38.78354
880.288	24.33923
880.459	26.52001
880.631	20.27346
880.802	25.04888
880.974	22.74274
881.145	16.34822
881.317	21.58519
881.488	16.42807
881.66	18.10062
881.831	16.06615
882.002	22.71937
882.174	16.13078
882.345	21.34884
882.517	11.1529
882.688	24.60762
882.859	20.71253
883.03	33.63866
883.202	30.92458
883.373	26.51154
883.544	25.32079
883.715	46.97514
883.887	37.38951
884.058	32.99452
884.229	47.15706
884.4	47.63415
884.571	54.64409
884.742	47.16333
884.914	53.09158
885.085	76.90276
885.256	96.79065
885.427	79.21583
885.598	94.3144
885.769	98.23534
885.94	86.89497
886.111	58.87234
886.282	115.70133
886.453	90.70546
886.624	63.12911
886.795	113.27737
886.966	94.50637
887.136	119.92319
887.307	79.43553
887.478	157.23622
887.649	139.64818
887.82	143.2459
887.991	104.67823
888.161	156.31618
888.332	146.05311
888.503	78.94783
888.674	194.74045
888.844	219.73123
889.015	163.05553
889.186	79.52697
889.356	203.46526
889.527	79.26771
889.698	348.51378
889.868	108.86454
890.039	148.94841
890.209	127.29527
890.38	177.54659
890.551	145.97441
890.721	215.18577
890.892	174.58698
891.062	120.42791
891.233	155.63615
891.403	110.12504
891.574	94.45424
891.744	122.70575
891.914	162.69877
892.085	139.60783
892.255	40.03297
892.425	212.13331
892.596	164.05742
892.766	154.78678
892.936	210.69555
893.107	175.46153
893.277	90.80176
893.447	77.03976
893.618	54.80873
893.788	115.74597
893.958	56.60474
894.128	64.69293
894.298	75.03911
894.468	99.23885
894.639	45.51266
894.809	29.8976
894.979	49.51972
895.149	56.30955
895.319	48.40761
895.489	66.10633
895.659	81.88738
895.829	55.27294
895.999	57.4409
896.169	42.47305
896.339	54.32699
896.509	109.53764
896.679	120.72146
896.849	117.29802
897.019	171.47441
897.189	126.57397
897.358	113.08722
897.528	169.3239
897.698	61.82087
897.868	151.6354
898.038	272.69148
898.208	251.40093
898.377	79.15174
898.547	261.20489
898.717	412.8143
898.886	161.54272
899.056	251.67551
899.226	386.57119
899.395	236.68607
899.565	301.33561
899.735	193.3822
899.904	327.88061
900.074	277.15217
900.244	128.53158
900.413	503.321
900.583	109.44026
900.752	186.07081
900.922	303.96821
901.091	39.95966
901.261	261.43225
901.43	245.31338
901.599	260.93732
901.769	570.65261
901.938	298.71907
902.108	276.43274
902.277	365.38609
902.446	97.73842
902.616	118.86929
902.785	177.53827
902.954	287.14516
903.124	187.86374
903.293	153.92607
903.462	82.48022
903.631	116.87138
903.801	85.89709
903.97	45.39823
904.139	76.39528
904.308	55.67718
904.477	46.48319
904.646	26.50102
904.816	44.30697
904.985	65.92133
905.154	99.06508
