Data from WindowProjectSample_Transmission__36__00036__09896986508811036.txt Node

Date: Mon May 05 17:44:50 EDT 2025
User: jessi
Spectrometer: SR400872
Trigger mode: 0
Integration Time (sec): 5.000010E-1
Scans to average: 20
Electric dark correction enabled: true
Nonlinearity correction enabled: true
Boxcar width: 0
XAxis mode: Wavelengths
Number of Pixels in Spectrum: 3648
>>>>>Begin Spectral Data<<<<<
184.909	21141.82369
185.132	-5145.855
185.355	-3152.71118
185.578	-18744.96326
185.801	1405.26467
186.024	10511.21857
186.247	-1829.88271
186.47	1282.89757
186.693	451.71324
186.916	336.00385
187.139	-3753.01032
187.362	3768.55784
187.585	4649.06331
187.808	3327.96838
188.031	98.79519
188.254	-50235.84504
188.476	-698.92034
188.699	6423.48963
188.922	648.42907
189.145	-15591.81323
189.368	-725.13244
189.591	-1456.58617
189.813	3165.57041
190.036	-50941.23128
190.259	-874.77422
190.482	-4507.48797
190.705	7027.14527
190.927	-2544.83062
191.15	13273.67881
191.373	3272.26045
191.595	-8772.21164
191.818	-4233.74275
192.041	-8220.52018
192.263	-3382.81166
192.486	-898.29753
192.709	-3952.85333
192.931	8153.99361
193.154	-29228.07165
193.377	-2845.5649
193.599	-2497.89904
193.822	-9518.77898
194.044	-1948.56202
194.267	1123.60306
194.489	330.23723
194.712	-42682.1337
194.934	-32782.11456
195.157	1274.02017
195.379	1529.48006
195.602	-6889.96222
195.824	-1367.4318
196.047	-9373.68113
196.269	2757.11825
196.492	-7369.1099
196.714	28486.85865
196.936	-8958.91318
197.159	-1213.16205
197.381	1084.36918
197.604	411.75051
197.826	12031.67375
198.048	-10903.88585
198.271	-2818.04974
198.493	7521.94113
198.715	2430.53982
198.938	-488.9748
199.16	7195.9172
199.382	-100234.08316
199.604	2855.33117
199.827	-1102.11767
200.049	-2912.44297
200.271	14863.37592
200.493	1199.84607
200.715	-37701.77606
200.938	-6047.48577
201.16	-4260.62532
201.382	20921.30522
201.604	2340.15071
201.826	2292.76171
202.048	-2006.66176
202.27	-1956.42951
202.492	-35395.90983
202.715	3099.90777
202.937	-4597.86719
203.159	-6268.8422
203.381	1458.60358
203.603	6744.28855
203.825	6916.43177
204.047	2246.68671
204.269	-2846.20897
204.491	2240.88242
204.713	5965.03798
204.935	-497120.22719
205.156	1255.89625
205.378	-3037.27066
205.6	1649.37763
205.822	158672.56809
206.044	-1029.86935
206.266	1551.68604
206.488	4910.69072
206.71	-5389.50508
206.932	1117.36541
207.153	12388.26655
207.375	-7600.14392
207.597	-39167.63205
207.819	-2976.77688
208.041	2374.20248
208.262	490.7508
208.484	734.60023
208.706	-736.13641
208.927	-872.95575
209.149	631.62778
209.371	-2943.02095
209.593	-282.9117
209.814	-874.22577
210.036	687.79205
210.258	-697.67929
210.479	1827.22444
210.701	1589.43272
210.922	3410.67046
211.144	-3592.05131
211.366	2204.69725
211.587	6520.40254
211.809	-8153.41401
212.03	2344.63778
212.252	447.72544
212.473	2154.43807
212.695	-5464.6912
212.916	2890.88181
213.138	-630.82201
213.359	3697.02542
213.581	5202.00745
213.802	-774.32294
214.024	1125.12014
214.245	2120.77301
214.466	3053.28804
214.688	-3164.75304
214.909	-1251.68029
215.131	-1734.02785
215.352	-3120.59769
215.573	15188.08061
215.795	5300.83328
216.016	5413.61372
216.237	789.94026
216.459	3895.52034
216.68	1789.96034
216.901	5138.18354
217.122	-2949.85561
217.344	-12054.52758
217.565	3521.5766
217.786	9197.03516
218.007	16283.87689
218.228	-736.70409
218.45	5997.94286
218.671	774.00136
218.892	37319.42695
219.113	1521.90134
219.334	-310.80478
219.555	9521.12502
219.776	2988.07999
219.997	22829.15886
220.219	2718.91456
220.44	-11398.10353
220.661	483.04001
220.882	1542.15896
221.103	-1170.44188
221.324	2325.23581
221.545	2372.2082
221.766	-8959.86649
221.987	899.99481
222.208	1633.42123
222.429	4369.65807
222.65	335.64877
222.87	19357.19956
223.091	761.79256
223.312	609.06357
223.533	1366.49291
223.754	1506.27624
223.975	1420.5951
224.196	2110.29163
224.417	1306.59374
224.637	650.2783
224.858	44.27641
225.079	1092.14359
225.3	670.06901
225.521	3770.38988
225.741	508.26963
225.962	510.03012
226.183	155.55617
226.404	681.90743
226.624	448.13413
226.845	629.32676
227.066	401.68
227.286	263.66715
227.507	130.58048
227.728	119.46373
227.948	245.9025
228.169	75.19597
228.389	88.94831
228.61	49.30782
228.831	65.29328
229.051	-0.00997
229.272	38.91559
229.492	58.70035
229.713	12.81896
229.933	37.61175
230.154	31.45349
230.374	56.01042
230.595	40.06636
230.815	23.22395
231.036	40.47722
231.256	-8.16421
231.477	70.81707
231.697	39.41646
231.917	42.1515
232.138	58.36403
232.358	119.35388
232.579	102.5805
232.799	19.62237
233.019	104.62326
233.24	114.78929
233.46	42.89152
233.68	60.88645
233.901	43.92881
234.121	26.10916
234.341	11.264
234.561	-3.8367
234.782	22.43483
235.002	71.20259
235.222	-2.80958
235.442	66.68261
235.662	30.15767
235.883	64.63716
236.103	50.2461
236.323	38.9631
236.543	32.36077
236.763	39.67829
236.983	44.30019
237.203	41.04441
237.423	62.42116
237.643	91.32219
237.864	77.91536
238.084	20.17869
238.304	25.6601
238.524	46.98824
238.744	39.9875
238.964	75.53065
239.184	61.77778
239.404	66.96868
239.624	35.14771
239.843	60.3375
240.063	36.01188
240.283	21.94205
240.503	26.0533
240.723	27.27915
240.943	13.55499
241.163	20.55037
241.383	14.52811
241.603	7.42157
241.822	9.66182
242.042	6.50133
242.262	8.39865
242.482	9.76273
242.702	10.6913
242.921	2.87161
243.141	6.49434
243.361	6.24244
243.581	9.50263
243.8	7.53238
244.02	5.84243
244.24	9.12143
244.459	9.43066
244.679	18.10601
244.899	11.22309
245.118	12.75519
245.338	12.5931
245.558	14.15227
245.777	8.72573
245.997	11.13025
246.216	10.4629
246.436	6.51017
246.655	4.76175
246.875	3.24888
247.094	6.4843
247.314	2.26676
247.533	3.66026
247.753	4.46043
247.972	3.53477
248.192	1.01013
248.411	1.86489
248.631	3.55663
248.85	4.82878
249.07	3.68517
249.289	5.83277
249.508	4.88324
249.728	7.81385
249.947	7.10461
250.166	9.38639
250.386	4.28648
250.605	6.37705
250.824	11.19075
251.044	7.63148
251.263	29.2443
251.482	15.21794
251.701	11.66858
251.921	0.08399
252.14	3.31633
252.359	4.1515
252.578	10.1364
252.798	3.33991
253.017	8.86804
253.236	4.26375
253.455	6.03854
253.674	10.43647
253.893	4.72186
254.112	7.65706
254.331	11.2649
254.551	8.72636
254.77	3.88041
254.989	12.97019
255.208	10.3018
255.427	15.11552
255.646	11.82479
255.865	22.79304
256.084	9.12148
256.303	11.35374
256.522	13.55489
256.741	2.28688
256.96	2.90858
257.179	8.11988
257.397	11.11865
257.616	5.61565
257.835	6.55271
258.054	15.08869
258.273	10.89469
258.492	11.69944
258.711	6.60082
258.93	3.09786
259.148	4.94558
259.367	4.87452
259.586	5.59742
259.805	2.59085
260.023	5.42587
260.242	4.05595
260.461	2.88181
260.68	1.26697
260.898	4.49805
261.117	1.44838
261.336	1.04474
261.554	3.62997
261.773	3.51668
261.992	0.65989
262.21	3.42722
262.429	3.60096
262.648	7.55332
262.866	8.20273
263.085	5.59159
263.303	5.0762
263.522	8.94922
263.74	8.90014
263.959	15.6588
264.178	7.19146
264.396	6.52489
264.615	4.93668
264.833	10.74736
265.051	9.4252
265.27	11.09455
265.488	11.00779
265.707	6.21564
265.925	10.71111
266.144	4.74041
266.362	5.76446
266.58	5.61982
266.799	5.10171
267.017	6.32347
267.235	5.27577
267.454	3.41547
267.672	2.03615
267.89	4.30324
268.109	4.41443
268.327	4.4192
268.545	0.92885
268.763	3.96937
268.982	1.50798
269.2	4.34989
269.418	3.19898
269.636	1.80029
269.854	4.80056
270.073	3.28044
270.291	1.9475
270.509	1.72612
270.727	4.49158
270.945	7.36591
271.163	7.18478
271.381	1.35889
271.599	3.23688
271.817	5.64279
272.036	1.74093
272.254	3.15044
272.472	2.48183
272.69	2.66441
272.908	2.40212
273.126	4.69802
273.344	5.49383
273.562	1.94947
273.779	2.54423
273.997	3.77359
274.215	4.13678
274.433	2.81105
274.651	4.50584
274.869	4.75761
275.087	2.93136
275.305	3.94825
275.523	2.59296
275.74	2.99194
275.958	5.65846
276.176	8.31546
276.394	2.40529
276.612	3.30629
276.829	3.30497
277.047	2.66567
277.265	2.79967
277.483	3.6372
277.7	4.35385
277.918	3.33629
278.136	6.47341
278.353	2.79165
278.571	1.82661
278.789	4.30408
279.006	0.94689
279.224	2.98034
279.442	5.16355
279.659	3.91523
279.877	2.4238
280.094	5.76946
280.312	1.10634
280.529	3.36956
280.747	0.96437
280.964	2.82426
281.182	6.14562
281.399	2.61987
281.617	3.75906
281.834	2.47475
282.052	1.89171
282.269	3.3183
282.487	2.51916
282.704	2.07339
282.921	2.33298
283.139	3.4117
283.356	4.10219
283.574	3.85404
283.791	2.05392
284.008	5.73761
284.226	3.0627
284.443	3.32035
284.66	4.63521
284.877	3.5091
285.095	2.07311
285.312	1.70808
285.529	0.90943
285.746	0.84763
285.964	2.12654
286.181	1.40465
286.398	2.00101
286.615	2.77001
286.832	2.51354
287.05	0.53111
287.267	1.8592
287.484	2.05344
287.701	2.72473
287.918	2.67145
288.135	2.6427
288.352	1.28378
288.569	1.40498
288.786	2.31305
289.003	2.18781
289.22	3.04176
289.437	1.68733
289.654	3.00288
289.871	3.15536
290.088	3.00129
290.305	2.3331
290.522	1.88034
290.739	2.09772
290.956	3.2259
291.173	3.55388
291.39	3.45388
291.607	2.4096
291.824	1.75917
292.04	1.35526
292.257	2.88227
292.474	3.31165
292.691	2.04987
292.908	0.86814
293.125	1.82607
293.341	1.21349
293.558	5.09663
293.775	2.11476
293.992	2.00545
294.208	0.90128
294.425	1.54961
294.642	2.12339
294.858	3.22169
295.075	0.83306
295.292	2.10845
295.508	2.67881
295.725	4.40348
295.942	2.18697
296.158	1.68485
296.375	2.62707
296.591	2.14539
296.808	2.42431
297.024	2.69093
297.241	3.06531
297.458	3.25812
297.674	1.07936
297.891	2.73472
298.107	2.686
298.323	2.12165
298.54	4.23531
298.756	2.42626
298.973	1.80649
299.189	4.48894
299.406	2.64117
299.622	4.01476
299.838	4.15485
300.055	4.04365
300.271	2.07815
300.487	2.50291
300.704	2.93898
300.92	2.29534
301.136	5.97598
301.353	4.24012
301.569	3.3759
301.785	3.79661
302.001	4.25563
302.218	3.94635
302.434	4.11368
302.65	2.48972
302.866	3.26913
303.083	5.90962
303.299	5.77935
303.515	3.90168
303.731	4.26745
303.947	2.65492
304.163	3.33596
304.379	4.21321
304.595	4.36302
304.812	3.28628
305.028	3.3114
305.244	3.80415
305.46	4.56231
305.676	4.83765
305.892	5.25443
306.108	4.60113
306.324	3.64494
306.54	5.84348
306.756	4.5885
306.972	4.4448
307.187	4.15288
307.403	5.28146
307.619	3.62211
307.835	5.06957
308.051	5.54703
308.267	3.20191
308.483	5.43697
308.699	4.60287
308.914	4.20258
309.13	4.0789
309.346	2.99302
309.562	3.35068
309.778	3.03442
309.993	4.69528
310.209	4.5086
310.425	3.25729
310.641	4.2231
310.856	3.54251
311.072	3.44048
311.288	4.37211
311.503	4.62252
311.719	2.83688
311.935	2.91877
312.15	4.97601
312.366	4.61596
312.581	4.82872
312.797	4.45397
313.013	5.30501
313.228	3.82208
313.444	4.16557
313.659	3.71686
313.875	4.90434
314.09	4.18117
314.306	5.60881
314.521	5.08945
314.737	5.11663
314.952	4.30514
315.168	4.38992
315.383	4.63285
315.599	4.06211
315.814	4.21988
316.029	4.89537
316.245	3.56572
316.46	2.816
316.675	5.46688
316.891	5.9533
317.106	7.16693
317.321	4.54473
317.537	5.10596
317.752	5.27247
317.967	5.22384
318.183	3.60707
318.398	4.06795
318.613	5.25663
318.828	5.82036
319.043	5.12412
319.259	4.17806
319.474	4.67228
319.689	5.6682
319.904	2.90807
320.119	5.28121
320.334	4.5911
320.549	4.29632
320.765	5.47835
320.98	4.77012
321.195	4.92836
321.41	4.5176
321.625	5.29018
321.84	5.95317
322.055	6.04047
322.27	3.94535
322.485	3.64604
322.7	4.99089
322.915	5.44258
323.13	3.88888
323.345	6.13083
323.56	5.71646
323.775	5.28051
323.989	5.08125
324.204	4.86529
324.419	5.86183
324.634	3.75605
324.849	4.61585
325.064	7.87775
325.279	5.88297
325.493	5.12638
325.708	5.69012
325.923	3.99439
326.138	4.52673
326.352	6.30697
326.567	5.66285
326.782	4.45858
326.997	4.47338
327.211	5.39279
327.426	5.19248
327.641	4.68684
327.855	3.5659
328.07	5.40187
328.285	6.75707
328.499	4.49313
328.714	5.12028
328.928	5.49171
329.143	4.89174
329.358	5.99714
329.572	5.77802
329.787	6.38948
330.001	7.3455
330.216	3.81173
330.43	7.09626
330.645	6.39007
330.859	5.78007
331.074	4.21809
331.288	5.24939
331.503	6.58339
331.717	4.00713
331.931	5.32943
332.146	5.36472
332.36	6.94246
332.575	5.53702
332.789	5.33356
333.003	5.45725
333.218	5.85902
333.432	4.76525
333.646	6.10319
333.86	7.08756
334.075	6.72108
334.289	4.87226
334.503	4.23827
334.717	5.82368
334.932	5.55927
335.146	6.22994
335.36	4.76129
335.574	6.09147
335.788	5.69194
336.003	6.29822
336.217	6.26319
336.431	5.95133
336.645	5.13304
336.859	4.60846
337.073	5.46275
337.287	5.84439
337.501	4.60878
337.715	6.12654
337.929	6.38867
338.143	4.70519
338.357	5.64942
338.571	5.2557
338.785	6.44338
338.999	5.35387
339.213	5.26054
339.427	4.70357
339.641	6.96967
339.855	5.47191
340.069	5.0276
340.283	6.71968
340.497	7.41996
340.711	6.34711
340.924	5.80389
341.138	5.07071
341.352	4.63716
341.566	6.05049
341.78	4.65053
341.993	5.59012
342.207	5.3008
342.421	6.24479
342.635	5.78534
342.848	5.78602
343.062	4.0936
343.276	5.44892
343.49	7.7407
343.703	5.3722
343.917	7.10366
344.131	7.19537
344.344	5.423
344.558	5.87209
344.771	5.03609
344.985	7.56427
345.199	7.60301
345.412	6.64044
345.626	6.72735
345.839	4.83232
346.053	5.27841
346.266	5.61178
346.48	6.831
346.693	6.72882
346.907	6.52919
347.12	5.56777
347.334	6.41051
347.547	6.61472
347.76	6.3084
347.974	7.32709
348.187	6.54211
348.401	6.14836
348.614	5.62042
348.827	6.05677
349.041	6.74304
349.254	5.05396
349.467	5.95735
349.681	5.65743
349.894	5.5594
350.107	7.41445
350.32	8.10107
350.534	5.38538
350.747	6.17656
350.96	5.74389
351.173	5.93435
351.386	6.29917
351.6	6.03121
351.813	6.08721
352.026	6.30831
352.239	5.67534
352.452	6.16786
352.665	7.61059
352.878	6.47619
353.092	8.29676
353.305	7.18077
353.518	6.81297
353.731	5.76787
353.944	7.72254
354.157	6.33364
354.37	6.24148
354.583	5.85755
354.796	5.63369
355.009	7.52359
355.222	7.21344
355.435	6.91394
355.647	7.69254
355.86	6.40554
356.073	7.17627
356.286	6.46141
356.499	7.81197
356.712	7.62159
356.925	7.60467
357.138	7.71214
357.35	6.52725
357.563	6.96037
357.776	7.40277
357.989	7.21359
358.201	7.76342
358.414	7.59934
358.627	8.52822
358.84	7.17913
359.052	6.48168
359.265	6.73198
359.478	8.21737
359.69	5.52735
359.903	8.10911
360.116	8.2769
360.328	6.46978
360.541	8.06845
360.753	6.95962
360.966	7.40999
361.179	7.59321
361.391	7.41388
361.604	7.50977
361.816	7.69328
362.029	7.76077
362.241	7.37707
362.454	7.84066
362.666	7.28858
362.879	8.51819
363.091	7.80294
363.304	7.70244
363.516	7.77228
363.728	7.24111
363.941	8.30805
364.153	8.1747
364.366	6.54606
364.578	7.29504
364.79	8.19634
365.003	8.20724
365.215	7.59198
365.427	8.56243
365.639	8.83285
365.852	8.14939
366.064	9.56513
366.276	8.0029
366.488	8.33134
366.701	8.05726
366.913	7.96183
367.125	8.08701
367.337	7.5921
367.549	7.93208
367.762	8.18648
367.974	8.33997
368.186	7.97984
368.398	9.06565
368.61	8.63565
368.822	8.93687
369.034	8.14784
369.246	9.11208
369.458	10.68143
369.67	7.99005
369.882	9.69422
370.094	7.07483
370.306	9.70467
370.518	8.37317
370.73	8.13981
370.942	8.31772
371.154	8.77616
371.366	8.60625
371.578	9.18723
371.79	8.7972
372.002	9.75746
372.214	10.67676
372.425	8.85199
372.637	10.24938
372.849	9.42123
373.061	7.66545
373.273	9.4797
373.484	9.52577
373.696	9.66226
373.908	7.7341
374.12	9.87627
374.331	9.53232
374.543	8.71721
374.755	8.72765
374.967	9.38827
375.178	10.2786
375.39	9.07002
375.602	9.5763
375.813	8.4539
376.025	9.0815
376.236	9.7798
376.448	10.04845
376.66	9.63343
376.871	9.74266
377.083	10.68199
377.294	11.30424
377.506	9.67888
377.717	10.96162
377.929	10.31492
378.14	9.96727
378.352	10.38983
378.563	10.65058
378.775	11.17776
378.986	9.62036
379.197	10.43286
379.409	9.77881
379.62	10.67032
379.832	10.74173
380.043	10.20494
380.254	10.6204
380.466	9.80837
380.677	12.62691
380.888	11.90089
381.1	12.54094
381.311	12.61972
381.522	11.0606
381.733	12.74837
381.945	10.94781
382.156	10.71345
382.367	10.57775
382.578	12.95487
382.789	13.07435
383.001	10.45363
383.212	12.4235
383.423	12.31798
383.634	12.10172
383.845	11.75572
384.056	11.11671
384.267	11.50341
384.478	11.48713
384.69	10.70544
384.901	11.96163
385.112	11.84757
385.323	12.93652
385.534	12.0634
385.745	12.0586
385.956	11.88482
386.167	11.34459
386.378	12.25467
386.588	11.57447
386.799	11.52243
387.01	11.0268
387.221	12.7259
387.432	12.14068
387.643	13.22578
387.854	11.93426
388.065	11.99116
388.275	12.26354
388.486	11.85597
388.697	12.37352
388.908	12.01114
389.119	13.29955
389.329	13.38365
389.54	12.57418
389.751	12.6164
389.962	13.45956
390.172	12.63245
390.383	12.63107
390.594	12.27917
390.804	12.30507
391.015	12.35245
391.226	13.11475
391.436	13.29856
391.647	13.22899
391.858	13.37176
392.068	12.01582
392.279	12.53428
392.489	13.6247
392.7	13.90919
392.91	12.92453
393.121	12.84345
393.331	13.77065
393.542	13.9858
393.752	13.94104
393.963	13.71961
394.173	13.75723
394.384	13.79084
394.594	13.70742
394.804	12.95078
395.015	13.8886
395.225	14.08351
395.436	13.24117
395.646	14.07005
395.856	13.64864
396.067	12.89497
396.277	14.41254
396.487	14.06515
396.697	14.20368
396.908	14.14048
397.118	14.27496
397.328	13.90845
397.538	14.68093
397.749	13.4141
397.959	14.57383
398.169	14.36699
398.379	13.27359
398.589	14.43582
398.8	14.45759
399.01	14.34146
399.22	14.15287
399.43	15.70121
399.64	14.26376
399.85	14.56948
400.06	14.53196
400.27	13.80567
400.48	14.30407
400.69	15.26225
400.9	14.20295
401.11	13.82897
401.32	14.90717
401.53	14.19134
401.74	15.54931
401.95	15.00379
402.16	14.27871
402.37	14.89714
402.58	14.35793
402.79	14.97894
403	15.44546
403.209	14.26919
403.419	15.65728
403.629	14.25461
403.839	15.56976
404.049	15.49942
404.258	14.72974
404.468	14.67513
404.678	15.30479
404.888	15.89354
405.097	15.08347
405.307	15.08284
405.517	15.73203
405.727	15.60216
405.936	15.10475
406.146	15.6158
406.356	16.22434
406.565	15.43797
406.775	15.18199
406.984	15.2875
407.194	16.7108
407.404	15.47923
407.613	15.73999
407.823	16.03904
408.032	16.19849
408.242	16.20092
408.451	15.30064
408.661	15.3426
408.87	16.73207
409.08	15.07174
409.289	15.87408
409.499	15.82806
409.708	15.71782
409.918	14.41471
410.127	16.06438
410.336	16.83502
410.546	16.37114
410.755	15.72261
410.964	16.00637
411.174	15.30502
411.383	16.44107
411.592	16.17395
411.802	15.59451
412.011	16.50882
412.22	15.97418
412.429	17.0892
412.639	17.05842
412.848	16.73273
413.057	17.15273
413.266	16.81515
413.475	16.32388
413.685	16.63662
413.894	16.99707
414.103	17.00262
414.312	16.85431
414.521	16.22624
414.73	16.54063
414.939	17.78385
415.148	16.84402
415.357	16.70402
415.566	16.5254
415.776	16.3636
415.985	16.62788
416.194	17.26418
416.403	17.92583
416.611	16.0079
416.82	16.74516
417.029	17.00685
417.238	16.65187
417.447	16.62099
417.656	16.96409
417.865	16.68726
418.074	17.07966
418.283	17.25106
418.492	17.85278
418.7	17.67462
418.909	18.93023
419.118	18.16645
419.327	18.59858
419.536	18.64895
419.744	19.00863
419.953	20.38326
420.162	20.97691
420.371	20.7734
420.579	21.87762
420.788	22.76384
420.997	22.84627
421.205	23.8661
421.414	23.46305
421.623	23.84324
421.831	23.40791
422.04	23.92416
422.249	22.8619
422.457	23.03635
422.666	21.84362
422.874	22.63058
423.083	22.6856
423.291	22.80393
423.5	22.79285
423.708	23.52703
423.917	24.03393
424.125	23.69043
424.334	23.77312
424.542	25.45366
424.751	25.09391
424.959	24.64497
425.167	24.32825
425.376	24.29538
425.584	22.452
425.793	22.2002
426.001	20.98799
426.209	20.46608
426.418	19.12539
426.626	18.40765
426.834	18.37974
427.042	18.64139
427.251	18.30779
427.459	19.09728
427.667	18.72127
427.875	17.93759
428.084	18.31496
428.292	19.14923
428.5	18.99991
428.708	18.16421
428.916	18.08588
429.124	18.66373
429.333	18.32946
429.541	18.43504
429.749	18.7852
429.957	18.63275
430.165	20.29496
430.373	17.96591
430.581	18.751
430.789	19.66348
430.997	18.58261
431.205	18.38388
431.413	18.99028
431.621	18.66288
431.829	19.21436
432.037	18.65845
432.245	19.15352
432.453	19.16606
432.661	18.96949
432.869	19.90157
433.076	18.64702
433.284	19.02936
433.492	19.54853
433.7	19.81348
433.908	19.09155
434.116	19.36979
434.323	19.49301
434.531	19.27584
434.739	19.66319
434.947	19.90698
435.154	19.91555
435.362	19.43965
435.57	19.21475
435.778	19.00464
435.985	19.56224
436.193	19.14813
436.401	20.20599
436.608	19.26807
436.816	19.14249
437.023	20.21472
437.231	20.25371
437.439	19.56011
437.646	19.67399
437.854	19.61356
438.061	19.89086
438.269	19.40179
438.476	19.90036
438.684	19.57301
438.891	19.51855
439.099	19.28771
439.306	19.02702
439.514	19.30425
439.721	20.45932
439.929	20.49794
440.136	21.58813
440.343	21.81697
440.551	22.05895
440.758	23.75901
440.965	22.12479
441.173	22.02659
441.38	22.04112
441.587	21.33038
441.795	21.22636
442.002	20.3683
442.209	20.32344
442.416	20.39805
442.624	20.45859
442.831	20.19671
443.038	19.76195
443.245	19.51434
443.452	19.87569
443.66	20.32151
443.867	19.676
444.074	19.64424
444.281	19.59165
444.488	19.84276
444.695	19.95538
444.902	19.83949
445.109	21.34696
445.316	21.5563
445.523	22.6468
445.73	23.1314
445.937	24.45999
446.144	25.23524
446.351	26.18157
446.558	24.96499
446.765	27.52013
446.972	26.15475
447.179	26.03108
447.386	26.37518
447.593	24.29334
447.8	25.11631
448.007	23.03412
448.214	21.9631
448.42	21.13473
448.627	21.05719
448.834	20.56954
449.041	20.37857
449.248	20.39321
449.454	20.95338
449.661	21.5058
449.868	20.26976
450.075	20.29155
450.281	19.59102
450.488	19.98481
450.695	20.03561
450.901	20.09074
451.108	20.15181
451.315	20.84711
451.521	20.31124
451.728	20.97151
451.935	20.03693
452.141	20.29518
452.348	20.47068
452.554	20.43398
452.761	20.20115
452.967	21.50209
453.174	20.67351
453.38	20.99485
453.587	20.03742
453.793	20.85391
454	21.30099
454.206	21.90994
454.413	21.28863
454.619	21.02228
454.825	20.52615
455.032	21.09393
455.238	21.27039
455.445	20.28341
455.651	20.8716
455.857	19.97731
456.064	20.71984
456.27	20.72821
456.476	20.60641
456.682	20.36941
456.889	21.06685
457.095	20.98975
457.301	22.2326
457.507	20.79362
457.714	20.9409
457.92	20.94266
458.126	20.44515
458.332	20.69322
458.538	20.53246
458.744	20.66182
458.951	20.70901
459.157	23.47316
459.363	23.35054
459.569	24.3336
459.775	25.17068
459.981	25.52581
460.187	26.36289
460.393	26.27645
460.599	26.28529
460.805	25.06354
461.011	23.65232
461.217	22.83261
461.423	22.2649
461.629	21.67819
461.835	21.97738
462.041	21.53738
462.247	22.35487
462.453	21.39891
462.658	21.43548
462.864	21.88269
463.07	21.41335
463.276	21.54384
463.482	21.36655
463.688	22.09673
463.893	21.03829
464.099	21.31382
464.305	22.2641
464.511	21.23615
464.716	21.46591
464.922	22.00035
465.128	21.03764
465.333	22.55376
465.539	21.95981
465.745	21.64186
465.95	21.63807
466.156	23.16714
466.362	22.24297
466.567	21.63891
466.773	21.34335
466.978	22.51372
467.184	21.2114
467.389	20.76469
467.595	21.85438
467.8	21.46267
468.006	22.69454
468.211	22.64081
468.417	21.32565
468.622	22.29165
468.828	22.20079
469.033	22.17491
469.239	23.41637
469.444	21.68928
469.649	22.52103
469.855	21.91741
470.06	21.87507
470.266	21.44605
470.471	22.42307
470.676	22.29083
470.881	21.17523
471.087	22.61426
471.292	23.46818
471.497	21.32246
471.703	22.10546
471.908	21.7538
472.113	22.08264
472.318	22.50323
472.523	21.52696
472.729	22.4666
472.934	22.48758
473.139	21.9056
473.344	22.4624
473.549	22.89886
473.754	21.84598
473.959	23.73672
474.164	21.8618
474.369	22.22316
474.575	22.73029
474.78	22.32928
474.985	21.93544
475.19	21.28431
475.395	21.86299
475.6	22.23856
475.804	23.11293
476.009	22.21449
476.214	22.24106
476.419	22.02903
476.624	21.38155
476.829	21.79612
477.034	22.73922
477.239	22.0115
477.444	22.72057
477.648	22.63462
477.853	22.71061
478.058	22.37188
478.263	22.0681
478.468	21.88024
478.672	22.14149
478.877	23.33696
479.082	23.38545
479.287	22.78243
479.491	22.42925
479.696	22.13658
479.901	22.91692
480.105	23.04171
480.31	22.21269
480.515	22.60985
480.719	23.60184
480.924	22.2225
481.128	21.84909
481.333	22.62067
481.538	22.65864
481.742	23.58213
481.947	25.30349
482.151	27.33446
482.356	29.37174
482.56	33.7711
482.765	37.65305
482.969	44.15365
483.174	49.9346
483.378	57.22772
483.582	60.92229
483.787	65.17686
483.991	68.02751
484.196	69.40032
484.4	69.03196
484.604	69.42904
484.809	65.2478
485.013	61.47235
485.217	56.33094
485.422	50.70242
485.626	45.87325
485.83	42.72508
486.034	40.65266
486.239	40.87891
486.443	41.38271
486.647	42.38668
486.851	44.06173
487.055	47.33435
487.26	48.34684
487.464	50.57851
487.668	50.79803
487.872	52.39112
488.076	52.4453
488.28	51.16148
488.484	48.71692
488.688	47.3067
488.892	44.8095
489.096	41.639
489.3	38.72911
489.504	36.06068
489.708	33.76469
489.912	32.56176
490.116	31.51469
490.32	31.16214
490.524	32.87722
490.728	34.67467
490.932	36.80543
491.136	39.34743
491.34	41.66393
491.544	42.83111
491.748	43.7436
491.951	43.89762
492.155	43.49178
492.359	42.42061
492.563	39.81278
492.767	37.70551
492.97	34.11992
493.174	30.77699
493.378	28.0844
493.582	25.18773
493.785	23.69445
493.989	23.67329
494.193	23.64891
494.396	23.30918
494.6	23.82186
494.804	23.41825
495.007	23.08115
495.211	23.09925
495.414	23.21497
495.618	23.31456
495.822	23.85309
496.025	23.21833
496.229	23.67598
496.432	22.92887
496.636	23.47593
496.839	23.38522
497.043	24.17768
497.246	23.84101
497.45	23.49625
497.653	23.89731
497.856	23.7375
498.06	23.33607
498.263	23.68822
498.467	23.6669
498.67	24.13969
498.873	23.79526
499.077	23.69023
499.28	23.5845
499.483	23.89134
499.686	24.0624
499.89	23.90088
500.093	24.17452
500.296	23.35765
500.499	24.56137
500.703	23.71174
500.906	23.96709
501.109	24.51387
501.312	23.83755
501.515	23.64463
501.719	23.99506
501.922	24.4931
502.125	23.92654
502.328	23.85602
502.531	23.27019
502.734	23.69657
502.937	22.96021
503.14	23.88505
503.343	23.52462
503.546	23.56218
503.749	23.48162
503.952	24.25741
504.155	23.54944
504.358	24.05483
504.561	23.85853
504.764	23.28184
504.967	23.9893
505.17	23.71668
505.373	24.67433
505.576	23.93824
505.778	24.33146
505.981	23.62576
506.184	24.59225
506.387	23.08034
506.59	24.98829
506.793	24.4525
506.995	24.23305
507.198	23.14154
507.401	24.22606
507.604	24.16545
507.806	23.57171
508.009	23.62945
508.212	24.3553
508.414	23.73341
508.617	23.80524
508.82	24.12326
509.022	24.82368
509.225	24.20115
509.427	23.4507
509.63	24.85274
509.833	24.30173
510.035	23.92321
510.238	23.46378
510.44	24.71602
510.643	23.34198
510.845	25.16679
511.048	24.43065
511.25	23.88389
511.453	24.06463
511.655	24.24651
511.858	24.03692
512.06	24.64685
512.262	24.29091
512.465	24.64174
512.667	24.0925
512.869	23.79641
513.072	24.56584
513.274	24.71984
513.476	24.62966
513.679	24.77345
513.881	23.8911
514.083	25.1481
514.286	24.11914
514.488	24.03474
514.69	23.9129
514.892	23.66778
515.094	24.72489
515.297	23.9275
515.499	24.38927
515.701	23.90144
515.903	25.16233
516.105	25.18327
516.307	24.54656
516.509	23.29013
516.711	23.6982
516.913	24.19552
517.116	24.27827
517.318	23.89596
517.52	24.70002
517.722	24.38834
517.924	23.62301
518.126	24.46798
518.328	24.28775
518.529	25.36972
518.731	26.23944
518.933	24.92944
519.135	25.27363
519.337	25.67552
519.539	24.90893
519.741	23.91224
519.943	24.56217
520.145	24.65594
520.346	25.06745
520.548	24.5567
520.75	24.76744
520.952	24.61207
521.153	24.69719
521.355	24.88518
521.557	24.01592
521.759	24.68267
521.96	24.59367
522.162	24.12134
522.364	25.10337
522.565	24.33211
522.767	24.9195
522.969	25.09748
523.17	24.79684
523.372	24.63617
523.573	24.3146
523.775	24.35799
523.977	24.02539
524.178	25.31436
524.38	24.09684
524.581	24.67268
524.783	24.16652
524.984	24.61631
525.186	24.56298
525.387	25.75702
525.589	26.17053
525.79	26.81842
525.991	27.2967
526.193	28.0611
526.394	27.83577
526.596	28.91575
526.797	29.57405
526.998	29.26049
527.2	31.01599
527.401	34.2092
527.602	37.06525
527.803	41.87265
528.005	45.56094
528.206	49.43661
528.407	52.33683
528.608	54.0785
528.81	55.3106
529.011	55.25424
529.212	56.50606
529.413	54.03076
529.614	51.26275
529.815	48.08124
530.017	44.28604
530.218	39.4209
530.419	35.64994
530.62	33.65958
530.821	31.51608
531.022	28.95808
531.223	29.22186
531.424	28.30552
531.625	28.41326
531.826	27.97104
532.027	29.10459
532.228	31.11182
532.429	32.36908
532.63	33.87832
532.831	36.11605
533.032	36.98754
533.233	38.52059
533.433	38.38319
533.634	38.91031
533.835	37.90671
534.036	36.81196
534.237	35.42252
534.438	33.40217
534.638	30.74552
534.839	28.79064
535.04	27.47699
535.241	26.00963
535.441	26.50703
535.642	26.07962
535.843	25.8673
536.043	26.37561
536.244	26.92822
536.445	27.51294
536.645	28.51462
536.846	28.25297
537.047	28.61972
537.247	27.3521
537.448	26.67697
537.648	25.95045
537.849	25.26858
538.049	25.33636
538.25	25.60413
538.451	25.48612
538.651	24.71241
538.851	25.42181
539.052	25.68454
539.252	25.42546
539.453	24.89315
539.653	25.04471
539.854	24.7674
540.054	24.96592
540.254	28.03683
540.455	30.96216
540.655	32.77855
540.855	36.57244
541.056	39.0016
541.256	40.1225
541.456	41.86822
541.657	42.33338
541.857	42.99141
542.057	41.69182
542.257	40.44458
542.458	39.69477
542.658	37.66297
542.858	34.59693
543.058	32.99217
543.258	31.40281
543.458	28.99267
543.659	27.75267
543.859	27.50595
544.059	26.55894
544.259	25.53668
544.459	26.03085
544.659	25.43902
544.859	25.6551
545.059	25.33866
545.259	25.78571
545.459	25.59725
545.659	25.76102
545.859	25.34989
546.059	25.53504
546.259	24.98705
546.459	24.70067
546.659	24.97021
546.859	25.91749
547.059	25.62781
547.258	25.83879
547.458	25.98794
547.658	25.20351
547.858	25.01861
548.058	25.83497
548.258	25.83467
548.457	25.4415
548.657	27.0123
548.857	25.58971
549.057	26.20902
549.256	25.81653
549.456	25.28676
549.656	24.48557
549.855	26.58463
550.055	25.312
550.255	26.66654
550.454	25.64662
550.654	26.13539
550.853	26.20911
551.053	26.02277
551.253	25.60266
551.452	25.8189
551.652	24.7855
551.851	24.61443
552.051	25.18986
552.25	25.18389
552.45	25.04259
552.649	25.21999
552.849	24.79221
553.048	25.75661
553.248	25.99752
553.447	25.05338
553.646	26.19158
553.846	27.25051
554.045	26.59241
554.244	25.00983
554.444	26.66384
554.643	25.29525
554.842	26.65474
555.042	26.88517
555.241	25.27286
555.44	25.12782
555.64	25.96119
555.839	26.61871
556.038	26.05149
556.237	25.16827
556.436	25.66452
556.636	25.92431
556.835	25.23448
557.034	26.68626
557.233	25.57597
557.432	24.79021
557.631	26.37101
557.83	25.46529
558.029	25.4591
558.228	25.17517
558.427	25.12354
558.626	26.05054
558.825	24.90224
559.024	25.45697
559.223	26.85028
559.422	25.42171
559.621	25.81519
559.82	24.13788
560.019	25.54823
560.218	25.30975
560.417	23.98855
560.616	25.16526
560.815	27.69426
561.014	24.67396
561.212	26.81957
561.411	25.65132
561.61	24.85744
561.809	25.48289
562.008	26.88214
562.206	25.56939
562.405	26.16042
562.604	25.65786
562.803	25.88641
563.001	25.52719
563.2	24.87186
563.399	25.90231
563.597	25.08709
563.796	25.53088
563.995	24.93844
564.193	26.18809
564.392	25.52062
564.59	26.95682
564.789	24.42057
564.988	25.39113
565.186	25.78178
565.385	25.47267
565.583	25.47038
565.782	25.57332
565.98	25.52518
566.179	25.52793
566.377	25.2081
566.575	25.24175
566.774	26.84711
566.972	26.38532
567.171	27.2036
567.369	26.99836
567.567	26.15967
567.766	26.08444
567.964	24.53335
568.162	26.4845
568.361	26.92509
568.559	25.72978
568.757	26.0309
568.956	25.80551
569.154	25.86849
569.352	26.25938
569.55	25.77876
569.748	25.84836
569.947	25.29014
570.145	25.11168
570.343	25.0795
570.541	26.75688
570.739	24.84833
570.937	25.78053
571.135	26.14989
571.333	27.21018
571.532	27.03731
571.73	25.92985
571.928	26.49094
572.126	26.27907
572.324	25.77817
572.522	26.82599
572.72	27.86078
572.918	26.21788
573.116	26.47668
573.313	25.97958
573.511	26.10055
573.709	25.48143
573.907	26.64562
574.105	25.81594
574.303	24.89354
574.501	24.87579
574.699	26.37723
574.896	26.23066
575.094	26.45153
575.292	25.02499
575.49	26.64244
575.688	25.88444
575.885	26.91388
576.083	27.72813
576.281	26.53345
576.478	25.6475
576.676	26.61575
576.874	25.18477
577.071	26.12784
577.269	27.86524
577.467	25.99274
577.664	26.00642
577.862	26.93207
578.059	25.40115
578.257	26.9639
578.455	25.9305
578.652	26.07062
578.85	24.71279
579.047	26.16463
579.245	25.6461
579.442	25.93342
579.64	25.9319
579.837	24.84764
580.034	28.17485
580.232	25.82946
580.429	25.00501
580.627	26.59457
580.824	27.0886
581.021	26.61791
581.219	25.58971
581.416	25.57752
581.613	27.13358
581.811	27.17393
582.008	25.38672
582.205	26.68009
582.402	26.3584
582.6	27.30224
582.797	26.00872
582.994	26.50799
583.191	26.73314
583.388	25.83737
583.586	26.74013
583.783	26.86075
583.98	25.51976
584.177	26.28337
584.374	24.10196
584.571	26.15594
584.768	25.94755
584.965	25.88483
585.162	26.73989
585.359	27.47876
585.556	26.21415
585.753	26.45379
585.95	25.12642
586.147	25.43735
586.344	26.67385
586.541	25.99511
586.738	25.27916
586.935	26.20807
587.132	25.65763
587.329	26.9586
587.526	26.11182
587.722	30.36175
587.919	25.13251
588.116	26.68156
588.313	27.19442
588.51	27.8264
588.706	26.09337
588.903	26.73273
589.1	27.04156
589.297	28.66587
589.493	26.18794
589.69	26.81425
589.887	25.94482
590.083	25.30795
590.28	25.86701
590.477	27.1182
590.673	26.78853
590.87	27.5544
591.067	26.18479
591.263	26.65955
591.46	26.7957
591.656	26.27401
591.853	27.6809
592.049	25.88883
592.246	26.03209
592.442	27.19721
592.639	27.53606
592.835	25.6476
593.032	26.71225
593.228	25.12483
593.425	25.2455
593.621	25.27491
593.817	26.60613
594.014	25.56489
594.21	26.70359
594.406	27.40621
594.603	26.86125
594.799	25.89358
594.995	24.63678
595.192	27.52032
595.388	26.16995
595.584	26.09628
595.78	25.24131
595.977	28.66392
596.173	27.82466
596.369	26.16957
596.565	25.53292
596.761	25.41301
596.957	27.41834
597.154	26.102
597.35	26.21006
597.546	26.18871
597.742	27.41968
597.938	27.01568
598.134	26.35264
598.33	27.3075
598.526	28.12363
598.722	27.05767
598.918	28.44207
599.114	27.29157
599.31	25.5931
599.506	26.72233
599.702	25.61137
599.898	26.78457
600.094	27.36547
600.29	27.27417
600.485	27.55218
600.681	25.55219
600.877	28.19094
601.073	26.72895
601.269	28.40181
601.465	27.92238
601.66	25.66459
601.856	24.89417
602.052	28.72929
602.248	26.34524
602.443	25.02866
602.639	25.30368
602.835	25.93861
603.03	25.61987
603.226	27.24799
603.422	25.81771
603.617	26.57359
603.813	26.4255
604.009	26.26764
604.204	27.6391
604.4	25.871
604.595	27.79416
604.791	26.06475
604.986	27.27812
605.182	26.59482
605.377	26.78315
605.573	26.82093
605.768	27.22873
605.964	27.77704
606.159	27.82604
606.355	28.04854
606.55	26.71058
606.746	27.87507
606.941	26.8789
607.136	28.76275
607.332	29.65898
607.527	25.83373
607.722	27.06627
607.918	26.55197
608.113	26.18421
608.308	27.68255
608.503	27.17232
608.699	27.30804
608.894	27.36858
609.089	26.33805
609.284	27.44395
609.479	26.77317
609.675	27.75403
609.87	26.95816
610.065	27.77492
610.26	28.03821
610.455	28.23394
610.65	27.40055
610.845	27.64836
611.04	28.50237
611.235	27.43826
611.43	27.49467
611.625	26.52045
611.82	28.98977
612.015	26.93371
612.21	29.08358
612.405	25.99008
612.6	28.91662
612.795	28.79043
612.99	27.92112
613.185	26.23235
613.38	26.75832
613.575	27.4745
613.77	30.44133
613.965	25.80808
614.159	26.62853
614.354	28.89879
614.549	28.40521
614.744	27.87856
614.938	26.1437
615.133	25.6547
615.328	28.82262
615.523	28.66265
615.717	30.47494
615.912	26.68521
616.107	27.3273
616.301	26.83102
616.496	26.57578
616.691	28.90507
616.885	27.95056
617.08	30.72906
617.274	28.15113
617.469	29.30718
617.664	28.16082
617.858	26.66078
618.053	27.74891
618.247	26.83077
618.442	24.83931
618.636	28.84617
618.831	26.38476
619.025	26.58636
619.219	30.64163
619.414	24.03349
619.608	27.03465
619.803	26.41622
619.997	29.66749
620.191	28.48927
620.386	27.8455
620.58	27.09615
620.774	25.27171
620.969	25.43696
621.163	27.06653
621.357	26.21843
621.551	27.14065
621.746	27.32062
621.94	26.83256
622.134	30.90869
622.328	29.75472
622.522	25.80201
622.716	28.54782
622.911	28.63738
623.105	28.01702
623.299	27.83592
623.493	31.0546
623.687	26.44503
623.881	26.65849
624.075	27.77428
624.269	28.66715
624.463	25.29453
624.657	25.82416
624.851	28.21675
625.045	28.30529
625.239	28.4672
625.433	26.84967
625.627	29.62504
625.821	26.60974
626.015	26.63617
626.209	27.82902
626.403	25.71936
626.596	28.19322
626.79	28.58481
626.984	26.47709
627.178	28.73442
627.372	28.3107
627.565	28.7969
627.759	26.33368
627.953	26.57467
628.147	28.30526
628.34	28.61162
628.534	30.59226
628.728	27.37932
628.921	28.81398
629.115	28.42268
629.309	28.98178
629.502	29.15434
629.696	27.84515
629.89	27.93375
630.083	28.13405
630.277	28.24071
630.47	29.89482
630.664	27.32952
630.857	26.24465
631.051	29.21482
631.244	29.29867
631.438	28.66787
631.631	26.85339
631.825	29.62517
632.018	28.38382
632.212	30.12527
632.405	29.45613
632.598	26.63246
632.792	27.79629
632.985	24.71192
633.178	27.28404
633.372	27.37235
633.565	27.26552
633.758	29.47652
633.952	26.79379
634.145	26.74818
634.338	28.03695
634.531	27.27736
634.724	26.91496
634.918	28.13519
635.111	27.63692
635.304	27.83064
635.497	31.40891
635.69	28.42058
635.883	29.43025
636.077	26.6338
636.27	28.40811
636.463	28.45518
636.656	28.15745
636.849	27.81648
637.042	29.08113
637.235	30.30461
637.428	29.1372
637.621	28.47629
637.814	30.22567
638.007	29.98995
638.2	29.80364
638.393	30.94458
638.586	26.11297
638.778	27.55398
638.971	27.54753
639.164	30.18617
639.357	28.35611
639.55	30.41062
639.743	29.2133
639.935	28.60298
640.128	31.12176
640.321	29.58606
640.514	28.01792
640.707	31.44807
640.899	28.88298
641.092	25.5836
641.285	43.90267
641.477	25.13247
641.67	31.78119
641.863	30.03576
642.055	28.51397
642.248	28.01408
642.441	27.61459
642.633	29.26623
642.826	29.66684
643.018	30.35755
643.211	31.56377
643.403	31.22472
643.596	32.07449
643.788	31.07882
643.981	27.94295
644.173	29.63992
644.366	28.00452
644.558	25.39271
644.751	30.06885
644.943	26.69717
645.135	30.87084
645.328	30.92601
645.52	29.54904
645.712	30.13985
645.905	33.21356
646.097	26.60418
646.289	28.55418
646.482	32.12289
646.674	27.10244
646.866	31.06895
647.058	29.47261
647.251	26.94945
647.443	27.93901
647.635	28.30937
647.827	26.89955
648.019	26.97879
648.211	28.15566
648.404	28.77461
648.596	31.38173
648.788	28.7434
648.98	29.20722
649.172	29.48342
649.364	29.53818
649.556	25.96126
649.748	33.65495
649.94	27.53161
650.132	30.24622
650.324	27.4353
650.516	28.21531
650.708	31.04067
650.9	26.76372
651.092	26.47812
651.284	27.2011
651.476	27.28603
651.667	30.6122
651.859	31.5731
652.051	29.10734
652.243	29.03381
652.435	28.50532
652.627	29.91844
652.818	30.01719
653.01	26.99763
653.202	27.53165
653.394	28.36672
653.585	29.835
653.777	36.77827
653.969	31.97291
654.16	31.21188
654.352	27.35971
654.544	29.17157
654.735	30.79013
654.927	29.82475
655.118	31.98449
655.31	30.50563
655.502	31.56513
655.693	29.2959
655.885	29.93722
656.076	31.87285
656.268	29.49867
656.459	32.17388
656.651	31.68663
656.842	28.75361
657.034	28.27132
657.225	31.22323
657.416	31.84556
657.608	32.04254
657.799	29.44335
657.99	31.94955
658.182	28.53254
658.373	28.52033
658.564	31.50509
658.756	30.39597
658.947	29.83491
659.138	28.7694
659.33	29.19026
659.521	28.78233
659.712	29.95724
659.903	29.83048
660.094	29.30175
660.286	27.653
660.477	33.23987
660.668	31.47444
660.859	30.08885
661.05	27.89178
661.241	31.05295
661.432	30.66535
661.623	29.40738
661.814	29.18635
662.006	27.26066
662.197	30.20798
662.388	32.16803
662.579	30.21537
662.77	32.36239
662.96	34.98109
663.151	31.50806
663.342	26.28419
663.533	31.40811
663.724	30.00728
663.915	33.16711
664.106	29.9073
664.297	33.29298
664.488	31.00436
664.678	28.36321
664.869	31.82578
665.06	31.34431
665.251	30.18991
665.442	30.95674
665.632	27.82034
665.823	33.8779
666.014	24.61803
666.204	31.21805
666.395	32.43452
666.586	34.7829
666.776	31.7457
666.967	34.01174
667.158	30.37105
667.348	33.30835
667.539	28.41501
667.729	31.93096
667.92	29.12946
668.111	32.23374
668.301	31.76466
668.492	30.07839
668.682	30.74708
668.873	30.66229
669.063	28.15634
669.253	31.3108
669.444	33.33308
669.634	31.28922
669.825	34.37234
670.015	33.09101
670.206	29.14515
670.396	34.39697
670.586	30.13425
670.777	31.67601
670.967	26.48701
671.157	29.96675
671.347	29.19327
671.538	33.48856
671.728	31.35252
671.918	34.70757
672.108	32.3689
672.299	30.19712
672.489	31.46026
672.679	29.05347
672.869	31.6928
673.059	35.84139
673.249	31.66092
673.44	27.6544
673.63	30.67502
673.82	32.76141
674.01	29.02727
674.2	32.02698
674.39	36.83424
674.58	32.68899
674.77	31.10154
674.96	30.4443
675.15	39.87635
675.34	33.4707
675.53	31.30133
675.72	30.5609
675.91	27.39978
676.099	35.57883
676.289	36.4978
676.479	33.88911
676.669	30.26312
676.859	31.85115
677.049	29.6643
677.238	31.15131
677.428	35.15444
677.618	32.22432
677.808	35.92169
677.997	32.59321
678.187	29.28706
678.377	31.56631
678.567	29.89328
678.756	30.45763
678.946	31.80389
679.136	28.80061
679.325	30.14968
679.515	30.07269
679.704	28.93314
679.894	34.02962
680.084	32.51551
680.273	34.6798
680.463	30.80516
680.652	30.46478
680.842	32.3549
681.031	34.44385
681.221	30.69243
681.41	33.63108
681.6	32.11625
681.789	33.47272
681.978	34.93303
682.168	32.75143
682.357	32.57453
682.547	33.36556
682.736	32.9936
682.925	35.29797
683.115	35.02992
683.304	33.91495
683.493	32.98082
683.682	33.59543
683.872	33.3545
684.061	34.9701
684.25	33.84721
684.439	37.7445
684.629	34.40189
684.818	40.64827
685.007	32.12836
685.196	31.81533
685.385	37.08931
685.574	33.48196
685.763	33.53166
685.952	33.10871
686.142	30.21592
686.331	36.25264
686.52	29.12008
686.709	37.9305
686.898	37.20404
687.087	35.00257
687.276	37.46706
687.465	36.54507
687.654	33.03795
687.842	37.32838
688.031	30.67409
688.22	37.00109
688.409	33.68028
688.598	33.79237
688.787	39.86919
688.976	33.72044
689.165	38.59509
689.353	32.59928
689.542	34.66059
689.731	36.24462
689.92	39.43486
690.108	35.81543
690.297	32.68409
690.486	34.21769
690.675	35.56045
690.863	38.30879
691.052	37.48832
691.241	34.48696
691.429	34.78956
691.618	37.90614
691.806	30.82542
691.995	33.032
692.184	33.96997
692.372	33.06562
692.561	34.65503
692.749	34.41644
692.938	43.39791
693.126	35.70001
693.315	33.29327
693.503	36.1497
693.692	36.55984
693.88	37.06669
694.068	40.58285
694.257	34.53653
694.445	36.10007
694.634	28.69383
694.822	36.51068
695.01	37.93649
695.199	40.50622
695.387	39.12458
695.575	37.84736
695.763	34.18637
695.952	33.55797
696.14	30.59368
696.328	32.83785
696.516	34.4152
696.705	35.89501
696.893	34.55626
697.081	30.2602
697.269	37.06043
697.457	31.52027
697.645	31.70673
697.833	36.66307
698.021	32.56656
698.21	33.4743
698.398	34.27923
698.586	32.24085
698.774	31.47013
698.962	34.70513
699.15	32.50659
699.338	31.09399
699.526	36.47904
699.714	33.33877
699.901	33.59075
700.089	37.2832
700.277	33.25318
700.465	34.42305
700.653	37.1523
700.841	35.81926
701.029	33.16987
701.217	39.34445
701.404	35.2721
701.592	39.71928
701.78	42.29817
701.968	35.10891
702.155	34.28516
702.343	31.78816
702.531	39.28747
702.718	35.91396
702.906	33.2843
703.094	33.21248
703.281	39.75119
703.469	35.23167
703.657	38.57609
703.844	46.01753
704.032	41.94179
704.219	34.46759
704.407	37.62826
704.595	40.29374
704.782	37.36599
704.97	36.43934
705.157	36.20775
705.345	43.35711
705.532	49.07889
705.719	40.29005
705.907	43.68247
706.094	39.84364
706.282	47.09253
706.469	40.49765
706.656	42.00541
706.844	40.50602
707.031	44.88363
707.218	43.56595
707.406	47.42359
707.593	44.98493
707.78	45.16052
707.968	42.91315
708.155	40.98408
708.342	45.10622
708.529	45.71819
708.716	45.10598
708.904	48.63884
709.091	45.85089
709.278	39.57018
709.465	50.61708
709.652	48.09621
709.839	47.19538
710.026	42.58297
710.213	36.40503
710.4	42.62186
710.587	44.35058
710.774	46.07195
710.961	45.63004
711.148	42.81616
711.335	45.94355
711.522	42.2638
711.709	43.71693
711.896	50.31583
712.083	46.26081
712.27	40.13749
712.457	43.7147
712.644	38.01905
712.831	50.10509
713.017	43.90689
713.204	45.38184
713.391	40.261
713.578	46.23453
713.765	47.21691
713.951	43.28847
714.138	53.29122
714.325	42.39742
714.512	40.69233
714.698	37.50193
714.885	45.80889
715.072	40.30037
715.258	40.14243
715.445	37.0405
715.631	44.19532
715.818	30.74749
716.005	37.17317
716.191	41.56793
716.378	37.93201
716.564	42.44834
716.751	35.47832
716.937	37.7631
717.124	42.8014
717.31	35.93928
717.497	46.29456
717.683	36.35234
717.869	46.99328
718.056	37.1617
718.242	41.31334
718.429	37.79937
718.615	34.3831
718.801	38.25534
718.988	43.16388
719.174	40.95555
719.36	37.98848
719.547	44.36597
719.733	39.42379
719.919	39.81605
720.105	41.716
720.291	39.29969
720.478	39.63841
720.664	38.63031
720.85	37.42635
721.036	50.34856
721.222	46.30694
721.408	39.61328
721.595	47.17216
721.781	46.13132
721.967	44.22323
722.153	46.91883
722.339	42.52191
722.525	40.85928
722.711	34.72048
722.897	34.97592
723.083	38.42234
723.269	44.15931
723.455	52.62652
723.641	57.76352
723.827	40.65086
724.012	42.51337
724.198	39.72415
724.384	46.7673
724.57	42.14583
724.756	34.60887
724.942	31.94261
725.127	44.7662
725.313	46.28325
725.499	45.80336
725.685	48.85819
725.87	41.36635
726.056	36.72465
726.242	47.15471
726.428	33.16311
726.613	44.18771
726.799	38.27474
726.985	35.91984
727.17	33.18387
727.356	49.5447
727.541	36.15479
727.727	39.89653
727.913	43.89235
728.098	38.18503
728.284	43.41682
728.469	35.51925
728.655	37.52678
728.84	45.64538
729.026	44.5545
729.211	43.79242
729.397	43.72155
729.582	44.34683
729.767	40.79831
729.953	42.60352
730.138	46.34971
730.323	31.55417
730.509	36.6496
730.694	49.05077
730.879	43.66072
731.065	41.7461
731.25	52.01098
731.435	44.6568
731.621	34.6673
731.806	38.9579
731.991	41.41139
732.176	35.09899
732.361	48.71619
732.547	42.87229
732.732	34.66808
732.917	52.67228
733.102	36.00578
733.287	38.1401
733.472	40.70385
733.657	41.46453
733.842	35.19112
734.027	38.41777
734.212	41.23819
734.397	38.51826
734.582	41.51201
734.767	47.32726
734.952	49.10915
735.137	30.32527
735.322	47.81717
735.507	44.53138
735.692	41.99573
735.877	52.87812
736.062	51.21038
736.247	44.3518
736.431	41.07229
736.616	46.78399
736.801	42.7837
736.986	42.33063
737.171	36.98338
737.355	35.91995
737.54	48.9041
737.725	42.70638
737.909	56.3477
738.094	38.61566
738.279	45.8574
738.463	39.6405
738.648	45.64215
738.833	44.31004
739.017	53.22994
739.202	40.47474
739.386	40.64328
739.571	37.11552
739.756	46.49254
739.94	42.00308
740.125	44.61743
740.309	37.6731
740.494	46.80676
740.678	43.59227
740.863	45.5059
741.047	43.38364
741.231	50.60426
741.416	38.87058
741.6	50.79878
741.785	38.33358
741.969	47.99045
742.153	50.4293
742.338	33.1583
742.522	42.21825
742.706	47.14579
742.89	36.70077
743.075	42.31488
743.259	49.70884
743.443	49.23851
743.627	50.76881
743.812	56.1381
743.996	33.93604
744.18	40.60921
744.364	40.00773
744.548	57.19936
744.732	40.60732
744.916	49.09727
745.1	46.26652
745.285	40.43803
745.469	46.42273
745.653	52.09898
745.837	36.92413
746.021	57.07135
746.205	50.09234
746.389	44.06912
746.573	42.04661
746.757	52.56801
746.94	41.17313
747.124	50.14403
747.308	36.86751
747.492	50.99469
747.676	37.95748
747.86	58.86396
748.044	41.21741
748.227	34.12229
748.411	66.5895
748.595	44.31456
748.779	38.83114
748.963	45.64319
749.146	44.64403
749.33	39.275
749.514	38.32498
749.697	50.4409
749.881	38.76191
750.065	38.26522
750.248	45.32514
750.432	59.07021
750.616	44.34841
750.799	37.40491
750.983	58.95122
751.166	59.24603
751.35	36.70791
751.533	48.00564
751.717	53.4829
751.9	53.53003
752.084	43.26438
752.267	38.78962
752.451	41.25445
752.634	44.53676
752.818	48.60191
753.001	49.91515
753.184	51.54195
753.368	47.08132
753.551	25.60743
753.734	39.47167
753.918	58.44039
754.101	39.92183
754.284	49.08165
754.467	41.8191
754.651	40.29417
754.834	38.31403
755.017	52.20245
755.2	52.74168
755.384	38.53678
755.567	49.32757
755.75	49.54962
755.933	41.01557
756.116	49.38528
756.299	40.57206
756.482	39.1246
756.665	48.02082
756.848	43.18483
757.032	46.99522
757.215	36.00788
757.398	39.76694
757.581	39.35273
757.764	63.87139
757.947	43.62633
758.129	50.0374
758.312	28.61446
758.495	43.32878
758.678	43.51614
758.861	41.24944
759.044	57.58343
759.227	37.84757
759.41	40.47319
759.592	49.89735
759.775	42.74667
759.958	50.83823
760.141	37.29836
760.324	61.85682
760.506	54.80667
760.689	51.00657
760.872	59.66556
761.054	48.2722
761.237	44.68833
761.42	46.35311
761.602	50.38118
761.785	46.69007
761.968	53.26522
762.15	57.49463
762.333	44.02728
762.515	48.12291
762.698	43.71483
762.88	52.47894
763.063	47.89651
763.245	52.95594
763.428	39.08344
763.61	43.14081
763.793	37.83179
763.975	48.0831
764.158	43.87284
764.34	42.6512
764.522	40.71692
764.705	45.15524
764.887	55.277
765.069	36.40134
765.252	50.21778
765.434	49.63413
765.616	45.71203
765.799	42.04952
765.981	50.24901
766.163	42.10734
766.345	53.76795
766.528	41.75877
766.71	33.37843
766.892	47.05188
767.074	54.6028
767.256	43.37668
767.438	57.96401
767.62	47.56776
767.802	62.21122
767.985	50.72925
768.167	59.56564
768.349	43.08594
768.531	49.58108
768.713	49.048
768.895	52.55577
769.077	49.09723
769.259	66.96145
769.441	82.45978
769.623	51.16492
769.804	56.7768
769.986	55.23765
770.168	63.83166
770.35	73.73408
770.532	59.41065
770.714	63.30557
770.896	63.35823
771.077	38.84581
771.259	66.55881
771.441	59.09357
771.623	69.03635
771.804	81.07127
771.986	40.81407
772.168	50.47691
772.35	65.11303
772.531	81.56005
772.713	59.07619
772.894	73.81377
773.076	55.32484
773.258	51.9997
773.439	72.49297
773.621	80.67615
773.802	47.9964
773.984	52.12785
774.166	61.95979
774.347	74.70707
774.529	70.22772
774.71	37.59373
774.891	57.00793
775.073	51.5412
775.254	72.72483
775.436	50.53386
775.617	83.62022
775.799	53.58733
775.98	72.47224
776.161	77.5261
776.343	81.09228
776.524	57.80516
776.705	54.31621
776.886	37.50161
777.068	64.66549
777.249	107.41775
777.43	81.25463
777.611	46.63587
777.793	55.3244
777.974	79.59701
778.155	51.77031
778.336	44.78734
778.517	91.60418
778.698	48.79082
778.879	40.28954
779.061	30.55597
779.242	64.50355
779.423	63.73066
779.604	52.31401
779.785	55.55244
779.966	58.44745
780.147	71.04407
780.328	70.69385
780.509	92.15797
780.69	72.35716
780.871	51.06653
781.051	43.50132
781.232	60.71275
781.413	59.7502
781.594	56.74087
781.775	53.21967
781.956	49.9253
782.137	37.5321
782.317	51.15018
782.498	59.45133
782.679	56.73277
782.86	61.71457
783.04	51.35143
783.221	60.93839
783.402	81.68103
783.583	58.1807
783.763	68.69702
783.944	52.88384
784.124	42.78048
784.305	82.71521
784.486	68.25639
784.666	59.01965
784.847	41.19028
785.027	100.94675
785.208	52.03099
785.388	51.7101
785.569	52.57717
785.749	55.59034
785.93	52.86114
786.11	42.50781
786.291	65.97201
786.471	61.46185
786.652	69.70261
786.832	57.00955
787.012	60.83932
787.193	46.15613
787.373	59.55997
787.553	53.61531
787.734	62.67889
787.914	55.18106
788.094	71.11387
788.275	63.8167
788.455	56.44859
788.635	45.83407
788.815	61.92825
788.995	48.17059
789.176	41.39775
789.356	51.21045
789.536	55.10115
789.716	64.36349
789.896	50.63118
790.076	52.2678
790.256	62.65673
790.436	35.9078
790.616	46.5472
790.796	62.73288
790.976	53.84438
791.156	50.71947
791.336	65.41592
791.516	61.57647
791.696	54.12975
791.876	43.92009
792.056	60.19097
792.236	68.03787
792.416	68.19614
792.596	62.51728
792.776	64.7307
792.956	66.75254
793.135	82.3957
793.315	48.21966
793.495	72.35429
793.675	68.40413
793.854	68.10061
794.034	71.27364
794.214	47.45104
794.394	69.47555
794.573	76.14469
794.753	60.98875
794.933	49.11391
795.112	62.06319
795.292	72.03096
795.472	81.26078
795.651	45.23933
795.831	58.5756
796.01	55.75787
796.19	55.41441
796.369	59.21883
796.549	66.39261
796.728	57.90498
796.908	42.40296
797.087	46.19985
797.267	56.04554
797.446	46.04366
797.626	64.37921
797.805	64.61559
797.984	51.52683
798.164	68.561
798.343	50.21985
798.522	61.40403
798.702	60.57527
798.881	44.21838
799.06	57.47982
799.239	38.1946
799.419	49.57067
799.598	81.60427
799.777	62.46488
799.956	74.58784
800.136	54.03249
800.315	49.35037
800.494	63.34706
800.673	73.60871
800.852	68.59154
801.031	75.17211
801.21	67.15885
801.389	56.10768
801.568	60.90025
801.747	84.82793
801.926	59.62412
802.105	79.19182
802.284	52.44176
802.463	80.92815
802.642	61.96423
802.821	62.13966
803	78.04171
803.179	70.50433
803.358	73.75465
803.537	51.74618
803.716	58.55788
803.895	55.42178
804.073	57.3315
804.252	50.62764
804.431	64.44842
804.61	55.70816
804.789	71.36753
804.967	51.23066
805.146	51.50151
805.325	89.2521
805.503	63.88941
805.682	46.05721
805.861	104.6874
806.039	80.09851
806.218	55.00624
806.397	63.23044
806.575	57.68722
806.754	63.41103
806.932	48.70309
807.111	73.85561
807.289	71.25539
807.468	60.65611
807.646	71.58099
807.825	68.31392
808.003	61.81896
808.182	73.99881
808.36	62.36229
808.539	50.25741
808.717	80.62892
808.895	51.70767
809.074	66.38512
809.252	59.75613
809.43	67.57925
809.609	76.79596
809.787	80.16474
809.965	57.36026
810.144	59.4928
810.322	60.895
810.5	67.06985
810.678	55.90951
810.856	90.55967
811.035	75.48174
811.213	69.47938
811.391	82.33258
811.569	66.12032
811.747	116.67361
811.925	79.23937
812.103	53.39535
812.281	60.86237
812.459	88.27203
812.637	87.08368
812.816	73.38675
812.994	91.75321
813.171	82.53834
813.349	67.94
813.527	76.88503
813.705	80.10234
813.883	103.93533
814.061	75.48033
814.239	89.86033
814.417	92.44525
814.595	72.02945
814.773	69.59276
814.95	65.03931
815.128	70.41219
815.306	68.53512
815.484	62.44835
815.662	53.69796
815.839	49.57517
816.017	57.78714
816.195	78.36317
816.372	55.39416
816.55	73.08614
816.728	86.7507
816.905	60.01415
817.083	89.59249
817.261	61.76999
817.438	108.77892
817.616	89.13135
817.793	57.09535
817.971	74.72157
818.148	75.94585
818.326	82.47201
818.503	67.22666
818.681	90.10866
818.858	60.88772
819.036	64.00041
819.213	65.28892
819.391	55.76309
819.568	56.04427
819.745	51.01237
819.923	75.89156
820.1	60.01408
820.277	53.32986
820.455	60.1325
820.632	62.83273
820.809	64.29095
820.986	51.24063
821.164	45.22831
821.341	45.04997
821.518	54.1736
821.695	46.00968
821.872	44.70771
822.05	41.70399
822.227	38.86936
822.404	40.11418
822.581	42.85731
822.758	40.47375
822.935	40.55075
823.112	42.74415
823.289	40.39694
823.466	43.4307
823.643	42.55545
823.82	46.26442
823.997	44.42746
824.174	47.86104
824.351	54.01649
824.528	53.20721
824.705	51.64739
824.882	52.86945
825.059	60.77294
825.236	50.31281
825.412	51.72512
825.589	56.50135
825.766	68.21074
825.943	53.01436
826.12	56.78718
826.296	48.68207
826.473	54.34384
826.65	53.56438
826.827	58.7365
827.003	47.31257
827.18	50.62554
827.357	53.32311
827.533	48.74992
827.71	39.05725
827.887	46.21014
828.063	49.44228
828.24	45.97026
828.416	51.47328
828.593	47.83348
828.769	58.47381
828.946	58.07613
829.122	61.3245
829.299	58.34824
829.475	46.96465
829.652	58.72494
829.828	78.40285
830.005	58.79473
830.181	72.41253
830.357	60.77332
830.534	72.48246
830.71	61.70057
830.886	70.971
831.063	71.67891
831.239	83.99746
831.415	51.80601
831.592	84.53058
831.768	62.32567
831.944	59.20383
832.12	89.50118
832.296	84.11932
832.473	72.51976
832.649	56.89082
832.825	73.99328
833.001	53.90198
833.177	68.54139
833.353	62.76994
833.529	46.15212
833.705	60.33469
833.881	47.55306
834.058	48.05481
834.234	50.25438
834.41	49.78623
834.586	44.54426
834.761	48.29916
834.937	51.8859
835.113	52.27182
835.289	48.47127
835.465	52.24549
835.641	48.94039
835.817	52.14901
835.993	71.92204
836.169	50.27334
836.344	64.53669
836.52	67.97675
836.696	64.8602
836.872	58.01487
837.048	115.7579
837.223	59.05257
837.399	93.58462
837.575	77.43013
837.75	75.98699
837.926	98.5271
838.102	126.22987
838.277	110.64149
838.453	142.1056
838.628	140.24973
838.804	68.52431
838.98	122.17638
839.155	76.79189
839.331	96.68096
839.506	75.04963
839.682	77.13835
839.857	95.51142
840.033	106.5029
840.208	61.8029
840.384	42.56885
840.559	63.69858
840.734	84.56447
840.91	103.29583
841.085	69.45672
841.26	72.14985
841.436	66.01861
841.611	65.4707
841.786	88.00853
841.962	108.88412
842.137	76.19016
842.312	59.74067
842.487	71.9931
842.663	67.8855
842.838	75.76511
843.013	182.99819
843.188	99.73667
843.363	111.48504
843.538	152.50176
843.714	154.67513
843.889	158.83816
844.064	165.05602
844.239	141.45457
844.414	158.95035
844.589	113.49985
844.764	193.69086
844.939	185.59281
845.114	204.36509
845.289	197.86402
845.464	253.25288
845.639	179.65311
845.814	108.9796
845.989	120.26308
846.163	138.54836
846.338	149.02899
846.513	188.5214
846.688	132.06002
846.863	132.54107
847.038	128.09586
847.212	136.66386
847.387	143.33842
847.562	151.73458
847.737	176.73478
847.911	86.10399
848.086	95.77643
848.261	294.17576
848.435	129.37355
848.61	184.93336
848.785	109.1109
848.959	187.15767
849.134	249.60218
849.308	248.92243
849.483	157.52835
849.658	222.17713
849.832	128.47876
850.007	116.10271
850.181	278.72417
850.356	120.43843
850.53	264.03471
850.705	98.90952
850.879	70.30612
851.053	135.96148
851.228	128.42298
851.402	155.04501
851.577	197.96876
851.751	213.28641
851.925	153.8305
852.099	87.54825
852.274	117.97969
852.448	136.80484
852.622	150.02712
852.797	147.49143
852.971	136.49008
853.145	144.8141
853.319	374.97984
853.493	207.4264
853.668	121.7768
853.842	250.38558
854.016	204.48604
854.19	239.66166
854.364	150.22675
854.538	162.4007
854.712	209.66467
854.886	146.01233
855.06	138.72921
855.234	71.38931
855.408	225.39881
855.582	193.76063
855.756	190.71657
855.93	244.39379
856.104	181.0052
856.278	199.58925
856.452	153.48277
856.626	190.88549
856.8	287.95882
856.973	186.66647
857.147	170.44786
857.321	174.13066
857.495	209.05181
857.669	144.84191
857.842	130.66017
858.016	203.1507
858.19	124.70729
858.364	316.60413
858.537	139.268
858.711	161.74881
858.885	141.78893
859.058	125.83854
859.232	82.32948
859.405	93.77628
859.579	200.49255
859.753	163.40553
859.926	126.60027
860.1	92.3863
860.273	149.03488
860.447	235.97483
860.62	137.82852
860.794	280.26889
860.967	165.15453
861.141	212.72638
861.314	295.56708
861.487	191.33467
861.661	233.8938
861.834	229.57193
862.008	204.86489
862.181	153.44389
862.354	155.5405
862.528	173.08909
862.701	132.18192
862.874	97.55758
863.047	141.09897
863.221	139.43005
863.394	81.50237
863.567	236.58462
863.74	74.72161
863.913	195.74866
864.087	169.27075
864.26	200.47231
864.433	145.56423
864.606	260.83118
864.779	159.67534
864.952	94.01867
865.125	127.33327
865.298	152.9394
865.471	155.55167
865.644	287.42435
865.817	243.52125
865.99	196.68568
866.163	221.78315
866.336	136.95375
866.509	160.12388
866.682	141.77255
866.855	216.88924
867.028	112.45138
867.2	186.93636
867.373	82.04061
867.546	157.77243
867.719	293.89772
867.892	189.22935
868.064	118.06684
868.237	178.95985
868.41	161.20389
868.583	111.76704
868.755	107.41514
868.928	161.97508
869.101	298.56511
869.273	221.89579
869.446	195.24012
869.619	212.09167
869.791	151.90217
869.964	219.04843
870.136	210.99875
870.309	172.34377
870.481	168.15798
870.654	98.72041
870.826	163.49853
870.999	138.90377
871.171	209.20777
871.344	135.43584
871.516	159.46309
871.689	124.38647
871.861	158.18449
872.033	119.24473
872.206	145.0104
872.378	218.32742
872.55	138.23075
872.723	107.4123
872.895	148.9701
873.067	215.04818
873.24	245.25647
873.412	131.59038
873.584	145.8493
873.756	145.04176
873.928	183.53584
874.101	182.68176
874.273	192.40875
874.445	80.31956
874.617	100.92112
874.789	170.70398
874.961	137.84445
875.133	189.49788
875.305	161.59289
875.477	122.19342
875.649	100.49863
875.821	123.40798
875.993	253.55583
876.165	116.33237
876.337	176.62695
876.509	136.59154
876.681	175.07371
876.853	170.44846
877.025	175.10449
877.197	122.02712
877.369	123.13679
877.541	205.83138
877.712	82.05397
877.884	108.7251
878.056	193.41482
878.228	110.95606
878.4	185.26524
878.571	114.60742
878.743	91.24688
878.915	169.76778
879.086	110.8263
879.258	131.3659
879.43	122.85029
879.601	111.07838
879.773	112.97669
879.945	45.60827
880.116	61.01679
880.288	47.58444
880.459	49.74767
880.631	44.93006
880.802	48.96605
880.974	47.95286
881.145	40.79437
881.317	46.72553
881.488	41.63222
881.66	44.28021
881.831	41.97056
882.002	49.86361
882.174	43.35311
882.345	48.85969
882.517	39.06561
882.688	52.71988
882.859	49.62984
883.03	63.29858
883.202	61.83781
883.373	57.80929
883.544	58.32963
883.715	80.95254
883.887	71.54411
884.058	65.89325
884.229	82.61375
884.4	86.00337
884.571	92.06256
884.742	85.13185
884.914	91.71572
885.085	117.641
885.256	135.9285
885.427	113.89936
885.598	132.48587
885.769	139.7638
885.94	128.39595
886.111	97.56143
886.282	153.86244
886.453	129.15493
886.624	101.39819
886.795	145.07419
886.966	131.09556
887.136	155.81637
887.307	120.79295
887.478	189.02735
887.649	173.37192
887.82	174.77763
887.991	144.34423
888.161	185.54876
888.332	183.50554
888.503	106.16592
888.674	236.23236
888.844	245.41414
889.015	205.37035
889.186	105.09443
889.356	235.66564
889.527	108.19287
889.698	377.42887
889.868	145.46691
890.039	174.90823
890.209	152.11988
890.38	204.7396
890.551	172.94269
890.721	243.47609
890.892	205.59043
891.062	152.47833
891.233	177.16834
891.403	153.46897
891.574	119.42725
891.744	150.5878
891.914	199.49052
892.085	162.08034
892.255	74.90942
892.425	240.94691
892.596	194.27062
892.766	185.25176
892.936	241.05859
893.107	200.77238
893.277	130.91769
893.447	102.48649
893.618	79.81352
893.788	140.27938
893.958	86.85756
894.128	89.70507
894.298	94.43316
894.468	123.83412
894.639	66.27646
894.809	57.63696
894.979	73.72186
895.149	82.9072
895.319	71.25044
895.489	90.24745
895.659	105.28036
895.829	83.08102
895.999	83.47204
896.169	71.20967
896.339	79.36265
896.509	139.85833
896.679	159.50034
896.849	154.43094
897.019	203.44147
897.189	160.31606
897.358	154.98508
897.528	211.68219
897.698	96.27034
897.868	191.42045
898.038	310.18041
898.208	282.73801
898.377	122.57421
898.547	298.22886
898.717	450.62649
898.886	192.87884
899.056	295.36492
899.226	416.25381
899.395	258.49531
899.565	330.04113
899.735	231.16762
899.904	366.17707
900.074	307.22885
900.244	168.42242
900.413	541.27056
900.583	147.97748
900.752	216.84937
900.922	344.6151
901.091	64.23416
901.261	290.64944
901.43	288.95493
901.599	281.88124
901.769	586.97434
901.938	314.74387
902.108	318.98059
902.277	390.47768
902.446	125.00935
902.616	142.49421
902.785	206.90776
902.954	310.91726
903.124	215.29171
903.293	184.91781
903.462	107.00538
903.631	138.24811
903.801	107.93524
903.97	70.40805
904.139	103.86901
904.308	82.50552
904.477	70.88331
904.646	52.96319
904.816	68.84042
904.985	87.8797
905.154	125.01997
