Data from WindowProjectSample_Transmission__55__00055.txt Node

Date: Sat May 03 16:52:48 EDT 2025
User: jessi
Spectrometer: SR400872
Trigger mode: 0
Integration Time (sec): 5.000010E-1
Scans to average: 6
Electric dark correction enabled: true
Nonlinearity correction enabled: true
Boxcar width: 0
XAxis mode: Wavelengths
Number of Pixels in Spectrum: 3648
>>>>>Begin Spectral Data<<<<<
184.909	181110.07641
185.132	1643.13381
185.355	-2074.63377
185.578	3382.96062
185.801	-552.09242
186.024	6148.04943
186.247	1213.0088
186.47	1099.9899
186.693	-797.2688
186.916	333.15348
187.139	10470.44312
187.362	3287.91523
187.585	2888.74036
187.808	-1359.0948
188.031	-17.78807
188.254	7655.52316
188.476	580.94278
188.699	-4262.11965
188.922	-349.26629
189.145	-4224.24164
189.368	-499.65026
189.591	-944.32575
189.813	-2053.27984
190.036	4960.03219
190.259	3411.04322
190.482	2180.41494
190.705	8537.84186
190.927	-1478.22287
191.15	-1745.69268
191.373	4792.60428
191.595	-1853.61592
191.818	9410.07427
192.041	-215.66765
192.263	-2376.24768
192.486	-964.46235
192.709	9288.8779
192.931	-2513.98937
193.154	-1934.22378
193.377	4902.74917
193.599	5960.36191
193.822	-1711.76216
194.044	-1815.32023
194.267	528.67554
194.489	153.84393
194.712	2009.83271
194.934	3477.44708
195.157	-7977.94788
195.379	2215.53562
195.602	5155.87906
195.824	5541.1302
196.047	-8834.37754
196.269	-10522.36257
196.492	-1043.01681
196.714	-5434.90208
196.936	4389.8398
197.159	-2486.14954
197.381	-600.95924
197.604	1253.92253
197.826	-3273.56545
198.048	-1189.59317
198.271	-12056.76672
198.493	8939.55274
198.715	-2465.20973
198.938	-553.11686
199.16	-3543.49429
199.382	1737.28157
199.604	-1281.998
199.827	-1244.61501
200.049	-4066.36957
200.271	2481.62823
200.493	-25376.83054
200.715	4562.70105
200.938	12639.26113
201.16	-222766.33834
201.382	-5672.6105
201.604	-1049.86333
201.826	-6612.32145
202.048	-7069.47613
202.27	-4772.38199
202.492	-3638.35719
202.715	-1413.64299
202.937	-3257.96308
203.159	1059.58308
203.381	-95839.31137
203.603	-1023.32327
203.825	-1281.75427
204.047	2123.84394
204.269	-843.18241
204.491	6453.19218
204.713	-8495.31563
204.935	38868.75412
205.156	1990.40629
205.378	-7553.69352
205.6	-1572.0089
205.822	6277.91507
206.044	-294.14658
206.266	-1936.67093
206.488	766.82566
206.71	-491483.32464
206.932	-15617.48923
207.153	10901.13337
207.375	-2222.94082
207.597	15251.43473
207.819	1601.30689
208.041	6402.37221
208.262	658.92181
208.484	-1008.7537
208.706	-815.26966
208.927	10538.82204
209.149	-8104.44837
209.371	-2632.89062
209.593	-1980.95946
209.814	-4082.40562
210.036	2099.90002
210.258	-701.73647
210.479	1883.29431
210.701	834.4645
210.922	4282.12996
211.144	-1468.17323
211.366	5761.91526
211.587	-619.23141
211.809	-3318.52985
212.03	-2367.14362
212.252	-444.97138
212.473	2446.22999
212.695	-699.91484
212.916	-851.44289
213.138	555.78257
213.359	-1166.73228
213.581	-3360.28881
213.802	-1224.86786
214.024	11582.80252
214.245	-994.55034
214.466	-145.75941
214.688	-3634.07539
214.909	-748.88041
215.131	8762.48519
215.352	-1251.87417
215.573	-244281.75188
215.795	4231.47179
216.016	-3446.86358
216.237	-532.91264
216.459	-12174.93199
216.68	-1518.70464
216.901	-1670.54834
217.122	1902.16092
217.344	-8678.71019
217.565	-1514.86334
217.786	22620.17307
218.007	920.93578
218.228	-4011.38292
218.45	-5921.65497
218.671	-1354.2323
218.892	848.98093
219.113	1698.90873
219.334	300.25731
219.555	-6476.3401
219.776	32287.62404
219.997	-6556.15989
220.219	-8825.20838
220.44	-4693.33541
220.661	-1371.02115
220.882	12617.72428
221.103	-875.85437
221.324	2323.80221
221.545	-6592.09532
221.766	-1510.07832
221.987	-487.22441
222.208	1877.43108
222.429	6454.41588
222.65	-83.32254
222.87	-758.57154
223.091	35534.14887
223.312	851.91171
223.533	-2106.49818
223.754	3410.6654
223.975	1538.41839
224.196	-833.37785
224.417	-29115.44211
224.637	-2128.87438
224.858	708.58625
225.079	3787.4181
225.3	1811.23857
225.521	3627.25804
225.741	-2280.16599
225.962	1573.28168
226.183	1187.56862
226.404	1872.728
226.624	1892.09458
226.845	1347.01852
227.066	2412.69376
227.286	660.25088
227.507	439.50973
227.728	361.89189
227.948	516.71921
228.169	130.5233
228.389	128.292
228.61	58.03728
228.831	82.30157
229.051	7.41789
229.272	46.12622
229.492	61.73749
229.713	19.24454
229.933	46.98792
230.154	40.93839
230.374	70.49817
230.595	52.734
230.815	36.33689
231.036	53.21168
231.256	-6.23792
231.477	101.82723
231.697	66.59391
231.917	63.54323
232.138	80.16263
232.358	166.49323
232.579	173.07945
232.799	23.21268
233.019	166.65028
233.24	243.42816
233.46	69.27522
233.68	105.63262
233.901	92.05023
234.121	47.90166
234.341	18.90756
234.561	-5.83614
234.782	33.47216
235.002	120.58903
235.222	-1.96209
235.442	90.51422
235.662	40.90498
235.883	105.38386
236.103	84.86455
236.323	59.83893
236.543	48.20627
236.763	66.72658
236.983	71.00087
237.203	78.67174
237.423	106.71232
237.643	148.71634
237.864	137.43574
238.084	30.00484
238.304	48.89658
238.524	81.31575
238.744	68.80658
238.964	107.28645
239.184	108.4184
239.404	98.89747
239.624	49.60415
239.843	100.4465
240.063	50.76067
240.283	38.22724
240.503	37.41228
240.723	32.38673
240.943	17.95198
241.163	27.69845
241.383	18.29218
241.603	9.1231
241.822	11.60954
242.042	8.20367
242.262	10.14247
242.482	11.89183
242.702	14.25658
242.921	5.15592
243.141	9.03013
243.361	8.39607
243.581	13.28593
243.8	10.62158
244.02	7.42772
244.24	13.69955
244.459	13.34666
244.679	25.82461
244.899	17.23086
245.118	18.76324
245.338	15.98416
245.558	20.07742
245.777	12.28503
245.997	13.23222
246.216	13.1156
246.436	8.13129
246.655	5.36379
246.875	3.87994
247.094	8.04994
247.314	2.76648
247.533	4.77292
247.753	5.90723
247.972	4.25285
248.192	1.96208
248.411	2.67292
248.631	5.03961
248.85	6.59937
249.07	4.56156
249.289	8.76286
249.508	6.28834
249.728	10.14099
249.947	10.94967
250.166	12.10366
250.386	6.28037
250.605	9.70046
250.824	16.35999
251.044	10.14084
251.263	35.83705
251.482	19.96454
251.701	17.80469
251.921	0.37766
252.14	4.81931
252.359	5.29828
252.578	13.21382
252.798	4.40401
253.017	13.12674
253.236	6.48043
253.455	8.07086
253.674	16.77751
253.893	7.2704
254.112	11.46335
254.331	17.29797
254.551	12.80314
254.77	7.38605
254.989	20.44433
255.208	18.93783
255.427	21.30226
255.646	18.53441
255.865	31.95415
256.084	12.55473
256.303	15.54617
256.522	20.72334
256.741	3.24931
256.96	5.7451
257.179	13.62673
257.397	14.13089
257.616	7.91562
257.835	8.33758
258.054	21.4953
258.273	13.3922
258.492	15.47896
258.711	8.90198
258.93	3.92105
259.148	5.27187
259.367	5.5029
259.586	7.32
259.805	3.30148
260.023	6.74945
260.242	5.25171
260.461	3.65223
260.68	1.85043
260.898	5.9528
261.117	1.97003
261.336	1.32533
261.554	4.92774
261.773	5.2262
261.992	0.97899
262.21	4.97923
262.429	6.03471
262.648	10.407
262.866	12.03455
263.085	7.68158
263.303	7.45728
263.522	12.20747
263.74	13.22295
263.959	20.94088
264.178	11.31724
264.396	11.15521
264.615	7.63854
264.833	17.36157
265.051	14.50348
265.27	13.64738
265.488	14.65847
265.707	9.26121
265.925	15.72015
266.144	6.84903
266.362	8.85368
266.58	9.30726
266.799	6.84501
267.017	8.72749
267.235	7.39441
267.454	5.03683
267.672	3.08638
267.89	5.71041
268.109	6.58378
268.327	5.87108
268.545	1.85579
268.763	6.13606
268.982	2.2866
269.2	7.16581
269.418	4.37547
269.636	3.23747
269.854	6.20968
270.073	5.12362
270.291	1.79321
270.509	2.24993
270.727	5.67832
270.945	9.83369
271.163	9.76533
271.381	2.6321
271.599	4.30762
271.817	7.45282
272.036	2.49738
272.254	4.39026
272.472	3.4203
272.69	3.61189
272.908	3.50137
273.126	5.88299
273.344	7.23994
273.562	2.58419
273.779	3.59231
273.997	5.03447
274.215	5.73951
274.433	3.98206
274.651	6.25212
274.869	6.47974
275.087	4.42452
275.305	5.71274
275.523	3.26974
275.74	4.4416
275.958	7.38057
276.176	11.01743
276.394	3.27536
276.612	4.67637
276.829	4.20809
277.047	3.44562
277.265	3.85363
277.483	5.1979
277.7	6.31715
277.918	4.83465
278.136	8.80878
278.353	4.58569
278.571	2.44034
278.789	6.71713
279.006	1.52585
279.224	3.97542
279.442	7.22851
279.659	4.84879
279.877	3.3989
280.094	7.87182
280.312	1.66111
280.529	4.57171
280.747	1.20903
280.964	3.95318
281.182	8.09749
281.399	3.84753
281.617	5.16426
281.834	3.84141
282.052	3.31494
282.269	4.39866
282.487	3.78057
282.704	2.60019
282.921	3.36415
283.139	4.25381
283.356	5.86611
283.574	4.75052
283.791	2.45991
284.008	7.55646
284.226	3.98137
284.443	4.21963
284.66	5.74
284.877	4.32186
285.095	3.42993
285.312	2.21847
285.529	1.56701
285.746	1.12125
285.964	2.78042
286.181	1.72309
286.398	2.80545
286.615	3.72597
286.832	3.69602
287.05	1.14265
287.267	2.3666
287.484	3.07209
287.701	4.08442
287.918	3.73393
288.135	3.78311
288.352	1.76105
288.569	2.19879
288.786	3.41098
289.003	2.67383
289.22	3.54157
289.437	2.66781
289.654	4.23807
289.871	4.27664
290.088	4.08215
290.305	3.07532
290.522	2.46342
290.739	2.86451
290.956	4.15121
291.173	5.12336
291.39	4.7969
291.607	3.37728
291.824	2.42122
292.04	1.54108
292.257	3.98941
292.474	4.45537
292.691	2.41192
292.908	1.69025
293.125	2.67845
293.341	1.53513
293.558	7.05702
293.775	2.9371
293.992	3.15615
294.208	1.25401
294.425	1.83342
294.642	2.647
294.858	4.14978
295.075	1.06856
295.292	2.94311
295.508	3.21645
295.725	5.12738
295.942	2.4623
296.158	1.7802
296.375	2.86374
296.591	2.29981
296.808	2.4154
297.024	2.69579
297.241	2.98599
297.458	3.37385
297.674	0.32106
297.891	2.67953
298.107	2.13421
298.323	1.50071
298.54	3.80843
298.756	1.81572
298.973	0.86635
299.189	3.90286
299.406	1.73634
299.622	4.1577
299.838	3.8632
300.055	3.46765
300.271	1.10928
300.487	1.44324
300.704	1.76492
300.92	0.86011
301.136	5.5943
301.353	3.74058
301.569	2.86852
301.785	3.09101
302.001	3.99868
302.218	3.25393
302.434	3.17087
302.65	1.22695
302.866	2.46976
303.083	5.31639
303.299	5.37352
303.515	2.76444
303.731	3.01188
303.947	1.2803
304.163	1.76596
304.379	2.81162
304.595	3.31228
304.812	2.02749
305.028	1.73904
305.244	2.10795
305.46	3.73562
305.676	3.84364
305.892	4.52672
306.108	3.06731
306.324	2.31211
306.54	5.0725
306.756	3.40953
306.972	3.67754
307.187	2.98705
307.403	4.69026
307.619	2.02802
307.835	4.13183
308.051	4.60899
308.267	1.27441
308.483	3.96027
308.699	3.53353
308.914	2.9063
309.13	2.55174
309.346	0.88371
309.562	1.45937
309.778	1.05574
309.993	3.27183
310.209	2.71148
310.425	1.24724
310.641	2.49283
310.856	1.44201
311.072	1.23929
311.288	2.53846
311.503	2.87687
311.719	0.42308
311.935	0.58511
312.15	3.11526
312.366	2.68751
312.581	3.29326
312.797	2.77187
313.013	3.46012
313.228	2.04745
313.444	2.82172
313.659	1.75845
313.875	3.2963
314.09	2.68059
314.306	4.21957
314.521	3.68851
314.737	3.43173
314.952	3.15636
315.168	2.74514
315.383	3.55203
315.599	2.40433
315.814	2.42958
316.029	3.55493
316.245	1.21088
316.46	1.05584
316.675	4.35555
316.891	5.17014
317.106	6.02449
317.321	3.62924
317.537	3.51076
317.752	3.80183
317.967	3.67107
318.183	1.81584
318.398	2.26755
318.613	3.89529
318.828	4.4612
319.043	3.68035
319.259	2.40394
319.474	3.57976
319.689	4.0436
319.904	0.75007
320.119	3.98869
320.334	3.09663
320.549	2.585
320.765	4.09234
320.98	3.00141
321.195	4.23923
321.41	2.54585
321.625	3.68486
321.84	5.04941
322.055	5.41083
322.27	2.05066
322.485	1.48729
322.7	2.92438
322.915	4.32396
323.13	1.81796
323.345	4.85095
323.56	3.85163
323.775	3.8314
323.989	3.511
324.204	2.98031
324.419	3.85792
324.634	1.31064
324.849	2.62026
325.064	5.81249
325.279	4.19876
325.493	3.53377
325.708	3.95352
325.923	1.69757
326.138	1.91516
326.352	4.64781
326.567	3.77688
326.782	2.19397
326.997	1.84081
327.211	3.48895
327.426	3.19912
327.641	2.35468
327.855	0.86976
328.07	3.4567
328.285	4.93537
328.499	2.33899
328.714	3.56204
328.928	3.84419
329.143	2.91687
329.358	3.9338
329.572	4.22995
329.787	4.69303
330.001	6.02824
330.216	1.08313
330.43	4.93531
330.645	4.8779
330.859	3.86562
331.074	2.16383
331.288	3.181
331.503	4.41425
331.717	1.70201
331.931	2.93716
332.146	3.00526
332.36	5.23978
332.575	3.64624
332.789	3.2655
333.003	2.64133
333.218	3.71602
333.432	2.57066
333.646	3.89768
333.86	4.6577
334.075	4.81729
334.289	2.48056
334.503	1.88783
334.717	3.8289
334.932	3.79782
335.146	4.60477
335.36	2.65337
335.574	3.96985
335.788	3.41711
336.003	4.46665
336.217	3.90277
336.431	3.42158
336.645	2.1935
336.859	1.50542
337.073	2.68896
337.287	3.41279
337.501	1.52965
337.715	3.21004
337.929	3.54578
338.143	1.76714
338.357	2.98702
338.571	1.83638
338.785	3.62602
338.999	2.03447
339.213	2.46125
339.427	1.12064
339.641	4.17286
339.855	2.60272
340.069	2.08566
340.283	3.87695
340.497	4.98215
340.711	3.30511
340.924	2.49909
341.138	1.54712
341.352	1.24295
341.566	3.24517
341.78	1.15555
341.993	2.08471
342.207	1.82111
342.421	3.25349
342.635	2.84898
342.848	2.23071
343.062	0.28061
343.276	2.23925
343.49	5.4938
343.703	2.13862
343.917	3.64366
344.131	3.65965
344.344	2.01044
344.558	2.24324
344.771	1.7492
344.985	4.46807
345.199	4.70894
345.412	2.85849
345.626	3.0914
345.839	0.87594
346.053	1.30596
346.266	1.64373
346.48	3.53307
346.693	2.87108
346.907	3.5251
347.12	1.60873
347.334	2.94023
347.547	3.20709
347.76	2.54082
347.974	3.94207
348.187	3.25924
348.401	2.34682
348.614	1.92485
348.827	2.36249
349.041	3.49301
349.254	0.98903
349.467	2.46122
349.681	1.3726
349.894	2.03546
350.107	4.09918
350.32	4.54887
350.534	0.8996
350.747	2.15676
350.96	1.80759
351.173	2.07242
351.386	2.37583
351.6	2.13643
351.813	1.93632
352.026	2.76058
352.239	1.31351
352.452	2.186
352.665	3.83348
352.878	2.38604
353.092	5.3048
353.305	3.40352
353.518	2.82223
353.731	1.6774
353.944	4.06124
354.157	1.983
354.37	1.65753
354.583	1.32988
354.796	1.12018
355.009	3.94289
355.222	2.78758
355.435	2.65821
355.647	3.66685
355.86	1.54598
356.073	2.53046
356.286	2.1426
356.499	3.27165
356.712	2.98619
356.925	2.92537
357.138	3.79309
357.35	1.61358
357.563	2.14055
357.776	2.58807
357.989	2.25562
358.201	3.10337
358.414	2.7004
358.627	3.89423
358.84	2.28669
359.052	1.42847
359.265	1.47405
359.478	3.51707
359.69	-0.29971
359.903	3.17269
360.116	3.58245
360.328	0.8188
360.541	3.44797
360.753	1.6787
360.966	2.17489
361.179	2.39501
361.391	2.01503
361.604	1.55469
361.816	2.05007
362.029	1.80612
362.241	1.66367
362.454	2.05637
362.666	1.53783
362.879	2.71378
363.091	2.0893
363.304	1.84225
363.516	2.17445
363.728	1.2918
363.941	2.98393
364.153	2.23156
364.366	0.51577
364.578	1.38586
364.79	3.04757
365.003	2.58339
365.215	2.1156
365.427	2.95014
365.639	3.63988
365.852	2.93194
366.064	4.38955
366.276	2.14402
366.488	2.94497
366.701	2.22082
366.913	2.36625
367.125	2.12671
367.337	1.86705
367.549	2.09384
367.762	2.49787
367.974	2.55837
368.186	2.26959
368.398	3.72331
368.61	3.06621
368.822	3.36285
369.034	2.41313
369.246	3.50466
369.458	5.33705
369.67	1.93047
369.882	4.52056
370.094	0.64443
370.306	4.22648
370.518	2.08594
370.73	2.09231
370.942	2.19497
371.154	2.67165
371.366	2.37315
371.578	3.30624
371.79	2.34278
372.002	3.91352
372.214	4.64808
372.425	2.71876
372.637	4.55358
372.849	3.08936
373.061	0.69664
373.273	3.4497
373.484	3.48139
373.696	3.70083
373.908	0.71431
374.12	3.95159
374.331	3.84697
374.543	2.09214
374.755	2.02268
374.967	3.14693
375.178	4.01552
375.39	2.99028
375.602	3.31363
375.813	1.98614
376.025	2.20677
376.236	3.26979
376.448	3.45458
376.66	3.26721
376.871	3.15645
377.083	4.34345
377.294	5.11826
377.506	3.03427
377.717	4.6996
377.929	3.76442
378.14	3.10469
378.352	4.02809
378.563	4.35601
378.775	4.93828
378.986	2.64219
379.197	3.79049
379.409	2.86477
379.62	4.34302
379.832	3.92242
380.043	3.4899
380.254	4.12593
380.466	2.63577
380.677	6.68081
380.888	5.84575
381.1	6.49844
381.311	6.52895
381.522	4.49567
381.733	6.70523
381.945	3.87372
382.156	3.77663
382.367	3.76832
382.578	7.034
382.789	7.29374
383.001	3.61952
383.212	6.07906
383.423	6.17032
383.634	5.51075
383.845	5.14101
384.056	4.28008
384.267	4.817
384.478	4.68519
384.69	3.55627
384.901	5.50486
385.112	5.07934
385.323	6.57974
385.534	5.22173
385.745	5.60226
385.956	5.14476
386.167	4.2514
386.378	5.51975
386.588	4.58004
386.799	4.37261
387.01	3.82439
387.221	6.23069
387.432	5.22339
387.643	6.85396
387.854	5.13125
388.065	5.08614
388.275	5.34027
388.486	4.93947
388.697	5.65664
388.908	5.07339
389.119	6.80919
389.329	7.25729
389.54	5.83338
389.751	6.26156
389.962	7.08197
390.172	6.00699
390.383	6.08671
390.594	5.57415
390.804	5.62473
391.015	6.10424
391.226	6.44802
391.436	7.11231
391.647	6.92023
391.858	7.05269
392.068	5.11542
392.279	5.80618
392.489	7.14082
392.7	7.49469
392.91	6.43266
393.121	6.24077
393.331	7.441
393.542	8.28841
393.752	8.1393
393.963	7.56345
394.173	7.46771
394.384	8.0018
394.594	7.43328
394.804	6.35658
395.015	7.39927
395.225	7.95534
395.436	6.61448
395.646	7.83252
395.856	7.35446
396.067	6.25611
396.277	8.32436
396.487	7.9678
396.697	8.44263
396.908	8.55071
397.118	8.29465
397.328	8.07018
397.538	8.79171
397.749	7.57761
397.959	8.97985
398.169	8.6113
398.379	7.07338
398.589	8.63549
398.8	8.8908
399.01	8.64218
399.22	8.2469
399.43	10.39315
399.64	8.91664
399.85	8.9058
400.06	8.79334
400.27	7.99121
400.48	8.83072
400.69	9.69006
400.9	8.45598
401.11	7.75117
401.32	9.66777
401.53	8.50855
401.74	10.10331
401.95	9.53609
402.16	8.99881
402.37	9.62562
402.58	9.02755
402.79	9.8658
403	10.21487
403.209	9.03034
403.419	10.6969
403.629	9.26227
403.839	10.84078
404.049	10.69294
404.258	9.70715
404.468	9.74894
404.678	10.78626
404.888	11.44032
405.097	10.17301
405.307	10.01269
405.517	11.05228
405.727	10.83914
405.936	9.84293
406.146	10.66652
406.356	11.59465
406.565	10.2595
406.775	9.89214
406.984	10.05585
407.194	12.26599
407.404	10.69958
407.613	10.88006
407.823	11.49436
408.032	11.89216
408.242	11.4144
408.451	10.12985
408.661	10.7652
408.87	12.3762
409.08	10.05759
409.289	11.25638
409.499	11.26654
409.708	10.92762
409.918	9.43347
410.127	11.51033
410.336	12.86609
410.546	12.02393
410.755	10.99926
410.964	11.0583
411.174	10.23936
411.383	11.8206
411.592	11.57054
411.802	10.50225
412.011	11.7913
412.22	11.35117
412.429	12.56307
412.639	12.6779
412.848	12.42001
413.057	13.10023
413.266	12.39287
413.475	11.94024
413.685	12.45057
413.894	12.48403
414.103	12.74972
414.312	12.57878
414.521	11.7478
414.73	12.26144
414.939	14.02451
415.148	12.43062
415.357	12.44815
415.566	12.40266
415.776	12.20815
415.985	12.22618
416.194	13.09535
416.403	14.1851
416.611	11.68593
416.82	12.45841
417.029	13.07448
417.238	12.53664
417.447	12.44608
417.656	12.85832
417.865	12.4126
418.074	13.02645
418.283	13.17976
418.492	13.99865
418.7	13.99165
418.909	14.87303
419.118	13.60253
419.327	14.04325
419.536	13.60426
419.744	13.63969
419.953	15.13927
420.162	15.33466
420.371	14.73057
420.579	15.69872
420.788	16.56195
420.997	16.80808
421.205	16.94721
421.414	16.74139
421.623	17.01176
421.831	16.22957
422.04	16.82899
422.249	15.45325
422.457	15.90476
422.666	14.9695
422.874	16.07945
423.083	16.19751
423.291	16.259
423.5	16.56014
423.708	16.93718
423.917	17.72144
424.125	16.85838
424.334	16.72522
424.542	18.42158
424.751	17.88482
424.959	17.13685
425.167	17.49815
425.376	17.08145
425.584	15.54309
425.793	15.435
426.001	14.24092
426.209	14.97313
426.418	14.01354
426.626	13.8003
426.834	13.83267
427.042	14.4604
427.251	13.64858
427.459	14.85515
427.667	14.37258
427.875	13.24464
428.084	13.83287
428.292	15.22862
428.5	15.02787
428.708	13.57506
428.916	13.63467
429.124	14.39517
429.333	14.21431
429.541	14.28323
429.749	14.4235
429.957	14.43337
430.165	16.42346
430.373	13.05883
430.581	14.19668
430.789	15.51179
430.997	14.40486
431.205	13.72629
431.413	14.68934
431.621	14.22445
431.829	15.04788
432.037	14.25337
432.245	14.78878
432.453	15.18682
432.661	14.49397
432.869	16.14296
433.076	14.22642
433.284	14.70756
433.492	15.43576
433.7	15.89717
433.908	14.62082
434.116	14.93939
434.323	15.05024
434.531	14.79835
434.739	15.52747
434.947	15.48002
435.154	15.69872
435.362	15.00313
435.57	14.64549
435.778	14.39279
435.985	15.11938
436.193	14.47212
436.401	15.87543
436.608	14.93204
436.816	14.77867
437.023	16.03685
437.231	16.62236
437.439	15.26401
437.646	15.743
437.854	15.3998
438.061	15.87696
438.269	15.10719
438.476	16.03488
438.684	15.35665
438.891	14.98322
439.099	15.05513
439.306	14.65086
439.514	14.76197
439.721	15.93417
439.929	15.04061
440.136	15.88679
440.343	15.93826
440.551	15.50761
440.758	17.47556
440.965	15.82373
441.173	15.71901
441.38	15.23252
441.587	15.91547
441.795	15.35481
442.002	15.49894
442.209	15.81408
442.416	15.77875
442.624	15.7889
442.831	15.74837
443.038	15.12537
443.245	14.99183
443.452	15.3456
443.66	16.15882
443.867	15.32904
444.074	15.11327
444.281	15.11336
444.488	15.24972
444.695	15.64536
444.902	15.38067
445.109	16.27338
445.316	15.5095
445.523	16.29
445.73	16.32384
445.937	17.40882
446.144	18.2161
446.351	18.69207
446.558	17.18768
446.765	19.45347
446.972	18.46692
447.179	17.79638
447.386	18.31325
447.593	16.33407
447.8	17.35623
448.007	15.82878
448.214	15.69099
448.42	15.43113
448.627	16.58476
448.834	15.8563
449.041	15.5752
449.248	15.56064
449.454	16.39688
449.661	16.99717
449.868	15.32387
450.075	15.26578
450.281	14.23291
450.488	14.82806
450.695	15.08004
450.901	14.92941
451.108	15.13731
451.315	16.56828
451.521	15.32609
451.728	16.71072
451.935	15.25955
452.141	15.55536
452.348	15.63114
452.554	15.76782
452.761	15.3232
452.967	17.15929
453.174	15.95752
453.38	15.74243
453.587	14.80558
453.793	15.87938
454	16.07103
454.206	17.33279
454.413	16.49918
454.619	16.22929
454.825	15.02293
455.032	16.05415
455.238	16.29122
455.445	14.67175
455.651	15.83551
455.857	14.34974
456.064	15.51819
456.27	15.64239
456.476	15.43796
456.682	14.84146
456.889	15.94776
457.095	16.05337
457.301	17.50127
457.507	15.95971
457.714	15.89647
457.92	15.77493
458.126	15.24113
458.332	16.06815
458.538	15.70135
458.744	16.05641
458.951	16.00942
459.157	17.47832
459.363	16.84479
459.569	17.22876
459.775	17.72925
459.981	17.64701
460.187	18.05293
460.393	18.07793
460.599	17.89918
460.805	16.57837
461.011	16.27807
461.217	16.81319
461.423	16.86561
461.629	16.00889
461.835	16.44474
462.041	16.03356
462.247	17.18014
462.453	15.95067
462.658	15.6065
462.864	16.47364
463.07	16.12523
463.276	16.12649
463.482	15.93419
463.688	17.41975
463.893	15.3452
464.099	15.80588
464.305	17.04271
464.511	15.87054
464.716	15.69315
464.922	16.74026
465.128	15.17162
465.333	17.33557
465.539	16.70457
465.745	16.14042
465.95	16.26353
466.156	18.44655
466.362	17.01364
466.567	16.00446
466.773	15.90658
466.978	17.11207
467.184	15.61403
467.389	14.78024
467.595	16.41745
467.8	15.53958
468.006	17.12189
468.211	17.08959
468.417	15.34493
468.622	16.3969
468.828	16.74342
469.033	16.59889
469.239	18.23799
469.444	15.66387
469.649	16.80891
469.855	16.24387
470.06	16.57011
470.266	15.32732
470.471	16.87219
470.676	16.56452
470.881	14.58926
471.087	17.86656
471.292	17.8674
471.497	15.19441
471.703	16.12212
471.908	15.93785
472.113	16.44418
472.318	16.94084
472.523	15.47506
472.729	16.73825
472.934	16.6527
473.139	16.09728
473.344	16.80968
473.549	17.45418
473.754	15.80391
473.959	18.20114
474.164	15.68914
474.369	16.02714
474.575	16.84965
474.78	16.36102
474.985	15.75674
475.19	15.05749
475.395	16.06087
475.6	16.28815
475.804	17.93247
476.009	16.74161
476.214	16.41625
476.419	16.18378
476.624	15.6613
476.829	16.21211
477.034	17.32233
477.239	16.2264
477.444	17.02967
477.648	17.27746
477.853	17.15053
478.058	16.66597
478.263	16.24865
478.468	16.10986
478.672	16.27647
478.877	18.00592
479.082	18.07345
479.287	17.01909
479.491	16.79179
479.696	16.26971
479.901	17.37543
480.105	17.27982
480.31	16.27541
480.515	17.01755
480.719	18.63311
480.924	16.65078
481.128	16.09732
481.333	17.30737
481.538	17.35553
481.742	16.79332
481.947	17.97716
482.151	19.7617
482.356	21.34337
482.56	25.14028
482.765	28.73449
482.969	34.32896
483.174	38.36183
483.378	43.87563
483.582	45.15792
483.787	47.33338
483.991	47.87532
484.196	47.83404
484.4	46.67531
484.604	46.0785
484.809	41.38101
485.013	38.30879
485.217	34.16627
485.422	30.426
485.626	27.77611
485.83	26.6381
486.034	26.17804
486.239	27.46885
486.443	28.40802
486.647	29.65604
486.851	31.65631
487.055	34.05599
487.26	34.18053
487.464	35.55241
487.668	34.9986
487.872	35.47531
488.076	35.18897
488.28	33.54839
488.484	30.94726
488.688	29.90273
488.892	27.89268
489.096	25.66469
489.3	23.83149
489.504	22.1976
489.708	21.2588
489.912	20.94586
490.116	20.67169
490.32	20.96841
490.524	23.23648
490.728	24.83836
490.932	26.38464
491.136	27.90758
491.34	29.58725
491.544	30.17558
491.748	29.96235
491.951	29.74359
492.155	28.55735
492.359	27.29729
492.563	24.60574
492.767	22.70791
492.97	20.22603
493.174	18.02019
493.378	17.38903
493.582	16.89611
493.785	17.28923
493.989	17.62136
494.193	17.46097
494.396	17.20725
494.6	17.84153
494.804	17.01287
495.007	16.98654
495.211	17.24821
495.414	17.12608
495.618	17.55605
495.822	18.30715
496.025	17.47108
496.229	17.9682
496.432	17.20446
496.636	17.53217
496.839	17.60016
497.043	18.25267
497.246	17.48188
497.45	17.23036
497.653	17.61174
497.856	17.56637
498.06	16.92869
498.263	17.19968
498.467	17.42759
498.67	18.07702
498.873	17.78573
499.077	17.21986
499.28	17.42352
499.483	17.65938
499.686	18.03761
499.89	17.21267
500.093	17.92556
500.296	16.9108
500.499	18.78796
500.703	17.20672
500.906	17.68083
501.109	18.68249
501.312	17.14577
501.515	17.23557
501.719	17.60134
501.922	17.77509
502.125	17.43367
502.328	17.37685
502.531	16.62136
502.734	17.34311
502.937	16.20413
503.14	17.59119
503.343	16.89052
503.546	17.23239
503.749	16.90295
503.952	17.76567
504.155	16.79305
504.358	17.97455
504.561	17.56308
504.764	16.26475
504.967	17.53677
505.17	17.26251
505.373	18.56192
505.576	17.10333
505.778	17.95553
505.981	16.76333
506.184	18.49015
506.387	16.04868
506.59	18.73389
506.793	18.34234
506.995	17.90906
507.198	16.02967
507.401	17.91303
507.604	17.98753
507.806	16.8786
508.009	17.16114
508.212	18.11389
508.414	17.27982
508.617	17.23934
508.82	17.80068
509.022	18.64913
509.225	17.97952
509.427	16.58303
509.63	18.69491
509.833	17.55717
510.035	17.34657
510.238	16.6914
510.44	18.58023
510.643	16.46279
510.845	19.14553
511.048	17.96273
511.25	17.21522
511.453	17.54664
511.655	17.87005
511.858	17.67577
512.06	18.19297
512.262	17.80866
512.465	18.40695
512.667	17.51305
512.869	16.77306
513.072	18.05889
513.274	18.46005
513.476	18.3268
513.679	18.07732
513.881	17.09799
514.083	18.72824
514.286	17.22196
514.488	17.04275
514.69	16.87711
514.892	16.67872
515.094	18.29847
515.297	17.0579
515.499	17.88329
515.701	17.0042
515.903	18.98589
516.105	18.95106
516.307	18.26621
516.509	16.35765
516.711	17.17901
516.913	17.90622
517.116	18.11466
517.318	17.75069
517.52	18.97135
517.722	18.5062
517.924	17.21425
518.126	18.48118
518.328	17.75396
518.529	18.2572
518.731	19.17546
518.933	17.6761
519.135	17.8871
519.337	18.72108
519.539	18.38031
519.741	16.72913
519.943	17.67313
520.145	17.52914
520.346	18.43027
520.548	17.57281
520.75	17.95701
520.952	17.39917
521.153	18.28644
521.355	18.13707
521.557	17.05356
521.759	17.83879
521.96	17.74641
522.162	16.66716
522.364	18.5523
522.565	17.46768
522.767	18.19438
522.969	18.45098
523.17	18.35727
523.372	17.97317
523.573	17.72149
523.775	17.89491
523.977	17.14828
524.178	19.29164
524.38	17.7632
524.581	18.93691
524.783	18.087
524.984	18.76289
525.186	18.27337
525.387	18.62937
525.589	18.28681
525.79	17.90858
525.991	17.96439
526.193	18.68261
526.394	17.97343
526.596	19.18186
526.797	19.73889
526.998	19.47696
527.2	21.01631
527.401	24.45416
527.602	26.8576
527.803	31.10959
528.005	33.37351
528.206	35.56831
528.407	37.30047
528.608	37.3901
528.81	37.6499
529.011	36.17419
529.212	36.54145
529.413	33.82052
529.614	31.14707
529.815	28.91871
530.017	26.02086
530.218	22.99053
530.419	20.8238
530.62	19.76199
530.821	19.02884
531.022	17.50534
531.223	18.68084
531.424	18.91198
531.625	18.89646
531.826	18.62861
532.027	19.6099
532.228	21.75706
532.429	22.73932
532.63	23.54928
532.831	25.22084
533.032	25.04654
533.233	26.33946
533.433	25.57369
533.634	25.53984
533.835	24.39026
534.036	22.94147
534.237	21.50897
534.438	20.00297
534.638	17.93615
534.839	18.09109
535.04	18.7215
535.241	18.27576
535.441	19.73189
535.642	18.82579
535.843	17.68323
536.043	18.12624
536.244	17.93723
536.445	18.34947
536.645	19.13509
536.846	18.76359
537.047	19.16896
537.247	17.83468
537.448	18.11612
537.648	18.4514
537.849	18.27472
538.049	18.15024
538.25	18.61946
538.451	18.72589
538.651	17.46638
538.851	18.52707
539.052	19.60341
539.252	19.23682
539.453	18.36556
539.653	18.96989
539.854	18.55365
540.054	19.04028
540.254	20.3841
540.455	22.64236
540.655	23.63246
540.855	26.05492
541.056	27.98737
541.256	27.78334
541.456	28.76124
541.657	27.96405
541.857	28.38543
542.057	26.35754
542.257	24.80399
542.458	24.58725
542.658	23.04528
542.858	20.57936
543.058	20.1592
543.258	19.25359
543.458	17.80136
543.659	17.76533
543.859	18.98017
544.059	18.98285
544.259	18.40503
544.459	19.18591
544.659	18.0896
544.859	18.8729
545.059	17.9464
545.259	19.33994
545.459	18.78164
545.659	19.19224
545.859	18.69148
546.059	18.6346
546.259	18.09558
546.459	17.63938
546.659	17.73301
546.859	19.13076
547.059	18.76944
547.258	18.96094
547.458	18.72674
547.658	17.90594
547.858	17.46974
548.058	18.51648
548.258	18.21616
548.457	17.29424
548.657	20.1438
548.857	17.87876
549.057	18.71498
549.256	18.91102
549.456	17.5453
549.656	16.28706
549.855	19.54788
550.055	17.9402
550.255	19.7815
550.454	18.28282
550.654	18.49981
550.853	19.5051
551.053	19.01767
551.253	18.25031
551.452	18.56877
551.652	17.02563
551.851	17.07589
552.051	17.82871
552.25	17.68995
552.45	17.77873
552.649	18.04896
552.849	17.65616
553.048	18.08296
553.248	18.82062
553.447	17.38715
553.646	18.97217
553.846	19.88617
554.045	19.03953
554.244	16.93209
554.444	19.73857
554.643	17.4296
554.842	19.44858
555.042	19.95918
555.241	17.3518
555.44	16.90562
555.64	18.76969
555.839	19.80268
556.038	18.57099
556.237	17.04174
556.436	18.26176
556.636	18.54132
556.835	17.60296
557.034	19.5341
557.233	18.0732
557.432	16.77456
557.631	19.17064
557.83	18.13958
558.029	17.54359
558.228	17.10909
558.427	17.12657
558.626	18.40532
558.825	17.29978
559.024	17.97307
559.223	19.57081
559.422	18.14117
559.621	18.45327
559.82	15.31864
560.019	18.00325
560.218	18.00741
560.417	15.1441
560.616	17.2984
560.815	21.46267
561.014	16.90896
561.212	19.86375
561.411	18.10481
561.61	16.4093
561.809	17.95772
562.008	19.28382
562.206	17.70687
562.405	18.81753
562.604	17.88184
562.803	18.40476
563.001	17.86193
563.2	16.7939
563.399	18.83912
563.597	17.26403
563.796	17.89177
563.995	17.0295
564.193	18.73852
564.392	17.63553
564.59	20.52924
564.789	16.2991
564.988	17.60326
565.186	18.43754
565.385	18.72171
565.583	18.33331
565.782	18.36476
565.98	18.24111
566.179	18.42658
566.377	17.64636
566.575	17.71252
566.774	19.73403
566.972	19.07734
567.171	20.22653
567.369	19.65233
567.567	18.42003
567.766	18.58911
567.964	16.38345
568.162	18.83526
568.361	19.35257
568.559	17.8894
568.757	18.66984
568.956	18.52505
569.154	18.31299
569.352	19.02516
569.55	18.39098
569.748	18.11817
569.947	17.50832
570.145	17.59113
570.343	17.21651
570.541	19.43931
570.739	17.29036
570.937	18.36212
571.135	18.84915
571.333	20.42317
571.532	19.76836
571.73	18.7985
571.928	20.00468
572.126	19.08561
572.324	17.7884
572.522	19.90335
572.72	21.17055
572.918	18.4058
573.116	18.82978
573.313	18.36864
573.511	18.63532
573.709	17.68259
573.907	19.09238
574.105	17.79877
574.303	17.00364
574.501	16.96055
574.699	18.66592
574.896	19.05363
575.094	18.90962
575.292	16.87274
575.49	19.38565
575.688	18.2662
575.885	19.72639
576.083	20.61355
576.281	19.16447
576.478	17.43515
576.676	18.92536
576.874	16.33925
577.071	17.97153
577.269	20.75822
577.467	18.07141
577.664	17.90727
577.862	19.55919
578.059	16.67124
578.257	19.04808
578.455	17.62173
578.652	18.37885
578.85	15.68671
579.047	18.10789
579.245	17.83698
579.442	17.91685
579.64	17.82906
579.837	15.95412
580.034	21.41522
580.232	17.74816
580.429	16.48336
580.627	18.2674
580.824	19.45147
581.021	18.28221
581.219	17.08226
581.416	16.82581
581.613	19.11651
581.811	19.74276
582.008	16.82187
582.205	19.10339
582.402	17.97715
582.6	19.69354
582.797	17.70135
582.994	18.03531
583.191	18.63626
583.388	17.496
583.586	19.14353
583.783	19.08736
583.98	17.04216
584.177	18.14244
584.374	14.43755
584.571	17.87972
584.768	17.47397
584.965	17.41997
585.162	18.2015
585.359	20.14032
585.556	18.17442
585.753	17.95476
585.95	16.07869
586.147	16.95507
586.344	18.40431
586.541	17.13038
586.738	16.16028
586.935	17.40939
587.132	16.90452
587.329	19.27543
587.526	18.03059
587.722	24.49932
587.919	16.60394
588.116	18.62281
588.313	19.77789
588.51	21.14039
588.706	17.61182
588.903	18.56382
589.1	19.32592
589.297	21.27509
589.493	18.64055
589.69	18.86128
589.887	17.10952
590.083	17.23371
590.28	17.56594
590.477	18.77475
590.673	19.12369
590.87	19.9529
591.067	17.82138
591.263	18.75682
591.46	18.61454
591.656	17.74466
591.853	19.22761
592.049	17.00061
592.246	16.99629
592.442	19.62373
592.639	19.7507
592.835	17.04974
593.032	18.88689
593.228	16.66246
593.425	16.33813
593.621	16.62223
593.817	18.47616
594.014	17.06361
594.21	18.12172
594.406	19.74887
594.603	18.9543
594.799	17.51573
594.995	15.47178
595.192	19.49947
595.388	17.8054
595.584	17.82493
595.78	17.0538
595.977	21.49477
596.173	20.77089
596.369	18.40908
596.565	17.30853
596.761	16.73162
596.957	20.35167
597.154	18.13503
597.35	17.98598
597.546	17.68981
597.742	19.68822
597.938	18.59403
598.134	17.35589
598.33	18.37292
598.526	20.09092
598.722	18.49757
598.918	20.58059
599.114	18.83298
599.31	17.03686
599.506	18.03655
599.702	16.5367
599.898	18.08485
600.094	18.9909
600.29	19.02917
600.485	19.3077
600.681	16.93184
600.877	20.50397
601.073	17.81601
601.269	21.03991
601.465	19.87408
601.66	17.00332
601.856	15.76353
602.052	20.6484
602.248	18.00732
602.443	15.87286
602.639	17.05616
602.835	17.64733
603.03	17.52707
603.226	19.95981
603.422	17.55869
603.617	18.03369
603.813	18.23441
604.009	17.99598
604.204	20.25782
604.4	17.13392
604.595	20.12213
604.791	17.50539
604.986	18.86344
605.182	17.42966
605.377	18.38379
605.573	17.57108
605.768	18.23545
605.964	19.18246
606.159	19.25252
606.355	19.64655
606.55	17.46474
606.746	19.57634
606.941	17.81139
607.136	21.11443
607.332	22.40258
607.527	16.2984
607.722	18.73861
607.918	18.21271
608.113	17.28779
608.308	20.0961
608.503	19.67921
608.699	19.12124
608.894	19.62838
609.089	17.39657
609.284	18.86648
609.479	18.23766
609.675	19.53822
609.87	18.21239
610.065	19.70984
610.26	19.68027
610.455	19.8174
610.65	18.26661
610.845	18.47935
611.04	19.79935
611.235	17.76063
611.43	17.4614
611.625	16.53956
611.82	20.69324
612.015	17.30191
612.21	20.7299
612.405	15.93694
612.6	21.15009
612.795	20.19486
612.99	18.81397
613.185	16.61227
613.38	17.03833
613.575	18.25007
613.77	22.58862
613.965	15.50396
614.159	16.57921
614.354	19.77798
614.549	19.89063
614.744	19.3846
614.938	16.55607
615.133	15.45849
615.328	20.41215
615.523	19.60137
615.717	22.88321
615.912	16.38298
616.107	18.63871
616.301	17.70602
616.496	17.3072
616.691	20.4529
616.885	19.30333
617.08	23.66892
617.274	20.17515
617.469	21.61749
617.664	19.41574
617.858	17.26627
618.053	18.99067
618.247	18.56049
618.442	14.07837
618.636	20.75783
618.831	17.39765
619.025	17.51916
619.219	22.98027
619.414	12.88086
619.608	18.11676
619.803	17.6847
619.997	22.61351
620.191	20.12219
620.386	18.20757
620.58	18.46477
620.774	15.3334
620.969	15.30993
621.163	18.56758
621.357	16.61979
621.551	17.64969
621.746	18.33598
621.94	17.23516
622.134	24.15869
622.328	22.12737
622.522	15.77062
622.716	19.45543
622.911	20.55951
623.105	20.44511
623.299	19.17988
623.493	23.99727
623.687	16.8004
623.881	17.14788
624.075	19.17703
624.269	20.88958
624.463	15.16604
624.657	15.42164
624.851	19.73082
625.045	20.23969
625.239	20.86572
625.433	18.59758
625.627	21.69828
625.821	18.23571
626.015	17.87858
626.209	19.24754
626.403	16.95228
626.596	20.16295
626.79	20.27126
626.984	16.81433
627.178	19.80122
627.372	19.98488
627.565	20.30637
627.759	15.80881
627.953	16.83208
628.147	19.31738
628.34	20.13008
628.534	22.36078
628.728	18.54001
628.921	20.57268
629.115	19.50471
629.309	20.41583
629.502	20.64117
629.696	18.63925
629.89	18.41889
630.083	19.50957
630.277	19.51686
630.47	22.7701
630.664	17.7321
630.857	15.49468
631.051	19.85227
631.244	20.70834
631.438	20.27854
631.631	17.63239
631.825	21.90207
632.018	20.41742
632.212	22.37349
632.405	21.71588
632.598	17.78978
632.792	18.4175
632.985	14.58245
633.178	18.26382
633.372	18.9198
633.565	18.47551
633.758	22.10814
633.952	17.47294
634.145	17.2229
634.338	18.90126
634.531	17.48913
634.724	18.03786
634.918	18.47996
635.111	18.01465
635.304	17.58681
635.497	23.83414
635.69	19.40707
635.883	21.85813
636.077	17.2102
636.27	19.44087
636.463	19.2276
636.656	19.13356
636.849	18.10841
637.042	20.37208
637.235	21.99313
637.428	21.39398
637.621	20.65978
637.814	21.48728
638.007	21.75079
638.2	21.47692
638.393	23.18068
638.586	15.94853
638.778	18.57973
638.971	18.35191
639.164	21.83863
639.357	19.18005
639.55	22.4251
639.743	21.01598
639.935	20.23138
640.128	24.24088
640.321	20.86614
640.514	19.08773
640.707	24.04361
640.899	20.86932
641.092	15.23636
641.285	38.23033
641.477	14.52268
641.67	24.80229
641.863	22.39207
642.055	20.16979
642.248	18.24887
642.441	17.70877
642.633	20.704
642.826	22.26837
643.018	22.4123
643.211	23.74055
643.403	23.98207
643.596	24.51339
643.788	23.77978
643.981	19.23174
644.173	22.16246
644.366	18.93012
644.558	15.0404
644.751	23.00293
644.943	15.82395
645.135	22.89464
645.328	23.59328
645.52	20.79382
645.712	22.55591
645.905	27.89124
646.097	16.76258
646.289	20.09952
646.482	25.25182
646.674	17.53572
646.866	23.70881
647.058	21.45958
647.251	16.97918
647.443	18.37722
647.635	19.67488
647.827	17.35499
648.019	18.1301
648.211	19.57423
648.404	19.69429
648.596	24.11478
648.788	20.87591
648.98	20.17657
649.172	21.47913
649.364	20.89336
649.556	15.32771
649.748	28.11108
649.94	18.44626
650.132	21.87829
650.324	16.98505
650.516	18.78537
650.708	23.44403
650.9	16.8555
651.092	18.93987
651.284	16.66209
651.476	17.63624
651.667	21.42236
651.859	23.26864
652.051	19.19091
652.243	20.31581
652.435	18.73757
652.627	21.7774
652.818	21.59099
653.01	16.11838
653.202	17.19288
653.394	19.38896
653.585	21.44543
653.777	32.94933
653.969	24.27824
654.16	23.06171
654.352	16.84959
654.544	18.6218
654.735	24.10192
654.927	20.96436
655.118	24.53278
655.31	22.19915
655.502	23.75659
655.693	18.37374
655.885	22.34585
656.076	24.4461
656.268	21.89463
656.459	24.96549
656.651	24.68999
656.842	20.60825
657.034	19.2127
657.225	23.44553
657.416	24.18506
657.608	24.54933
657.799	21.54371
657.99	25.07624
658.182	20.13081
658.373	19.89061
658.564	23.56692
658.756	21.70367
658.947	20.76357
659.138	18.99189
659.33	19.84299
659.521	19.51282
659.712	21.26923
659.903	20.94007
660.094	19.83216
660.286	16.85514
660.477	25.99436
660.668	22.99498
660.859	20.97103
661.05	17.51173
661.241	23.75489
661.432	22.17561
661.623	19.70682
661.814	19.79013
662.006	16.2577
662.197	21.73467
662.388	24.32299
662.579	21.41145
662.77	25.4195
662.96	29.64866
663.151	23.94297
663.342	16.23185
663.533	23.49171
663.724	21.57025
663.915	26.52309
664.106	20.35996
664.297	26.00807
664.488	23.49361
664.678	19.39171
664.869	24.10282
665.06	24.01006
665.251	22.76068
665.442	22.69088
665.632	17.61815
665.823	26.98603
666.014	12.62673
666.204	24.19493
666.395	25.48889
666.586	29.88542
666.776	23.89742
666.967	27.088
667.158	21.75205
667.348	25.95737
667.539	18.63192
667.729	24.74827
667.92	19.56894
668.111	24.95086
668.301	23.46867
668.492	21.87225
668.682	22.84724
668.873	22.06792
669.063	19.08115
669.253	23.17699
669.444	24.85014
669.634	20.1848
669.825	28.76814
670.015	25.81619
670.206	18.76409
670.396	28.90302
670.586	21.82148
670.777	24.49494
670.967	15.64642
671.157	21.21193
671.347	18.69756
671.538	28.10602
671.728	24.05897
671.918	29.13741
672.108	25.50985
672.299	21.72137
672.489	23.91565
672.679	20.49843
672.869	23.72189
673.059	30.05627
673.249	24.4696
673.44	17.74424
673.63	22.26644
673.82	26.12728
674.01	20.12274
674.2	24.05321
674.39	33.0069
674.58	26.48254
674.77	23.5569
674.96	21.86945
675.15	37.33096
675.34	28.10797
675.53	22.91968
675.72	21.8337
675.91	17.14164
676.099	30.1553
676.289	32.01475
676.479	26.79834
676.669	20.82437
676.859	24.05069
677.049	20.34436
677.238	23.4282
677.428	30.48354
677.618	25.85336
677.808	28.52154
677.997	25.28884
678.187	19.58978
678.377	23.38467
678.567	21.27929
678.756	22.01983
678.946	23.16049
679.136	18.33015
679.325	21.34199
679.515	19.78268
679.704	20.13847
679.894	26.32217
680.084	24.16009
680.273	27.48195
680.463	21.48091
680.652	20.81453
680.842	22.87442
681.031	27.32921
681.221	21.5585
681.41	25.64943
681.6	22.73896
681.789	25.99857
681.978	27.48453
682.168	24.01162
682.357	23.39708
682.547	26.0878
682.736	24.47705
682.925	27.67792
683.115	28.01084
683.304	26.16214
683.493	24.80957
683.682	25.707
683.872	26.43595
684.061	28.72337
684.25	26.28668
684.439	31.77944
684.629	26.85238
684.818	37.64843
685.007	24.71415
685.196	24.1499
685.385	31.45341
685.574	25.36288
685.763	25.47441
685.952	25.03607
686.142	20.85687
686.331	29.78009
686.52	16.84458
686.709	32.29612
686.898	30.53059
687.087	27.98194
687.276	31.13072
687.465	29.67294
687.654	24.50009
687.842	31.01235
688.031	20.82288
688.22	30.50065
688.409	25.87895
688.598	26.13719
688.787	36.02219
688.976	25.06381
689.165	35.34289
689.353	23.52821
689.542	27.23418
689.731	28.89169
689.92	34.23665
690.108	28.91622
690.297	24.45686
690.486	25.66219
690.675	30.35221
690.863	34.45023
691.052	33.78604
691.241	26.79867
691.429	26.85819
691.618	34.4655
691.806	21.70078
691.995	25.01112
692.184	28.00605
692.372	25.01433
692.561	28.16185
692.749	27.09733
692.938	39.24638
693.126	29.5837
693.315	26.32353
693.503	30.37349
693.692	29.25881
693.88	31.29777
694.068	37.98714
694.257	27.35969
694.445	28.55077
694.634	16.98309
694.822	31.66717
695.01	33.21511
695.199	34.95038
695.387	34.9663
695.575	32.5358
695.763	26.65259
695.952	25.49311
696.14	21.54675
696.328	25.18772
696.516	27.73399
696.705	29.20168
696.893	28.22218
697.081	20.96464
697.269	31.2996
697.457	23.8097
697.645	23.2455
697.833	31.70323
698.021	24.25905
698.21	25.62661
698.398	26.91078
698.586	23.67337
698.774	22.92092
698.962	26.45071
699.15	23.05612
699.338	20.57617
699.526	28.9253
699.714	24.29046
699.901	24.7383
700.089	31.90912
700.277	24.10537
700.465	26.29585
700.653	31.00287
700.841	28.81769
701.029	23.80759
701.217	34.13373
701.404	28.69904
701.592	35.31054
701.78	39.18147
701.968	27.04307
702.155	27.72128
702.343	22.08587
702.531	34.68195
702.718	31.14577
702.906	28.28044
703.094	25.76487
703.281	36.59831
703.469	30.10121
703.657	34.04353
703.844	46.41982
704.032	38.53794
704.219	25.97357
704.407	30.29906
704.595	36.57162
704.782	29.2213
704.97	26.96408
705.157	26.73572
705.345	35.66341
705.532	45.60786
705.719	32.38118
705.907	38.08578
706.094	28.89952
706.282	39.95263
706.469	28.91043
706.656	30.90459
706.844	28.61987
707.031	35.85628
707.218	31.67983
707.406	40.0504
707.593	34.9148
707.78	35.43913
707.968	30.6595
708.155	27.10458
708.342	33.28229
708.529	34.14595
708.716	32.79328
708.904	39.23651
709.091	35.20479
709.278	22.97069
709.465	44.52565
709.652	41.69103
709.839	39.3971
710.026	33.508
710.213	22.60153
710.4	33.95518
710.587	36.61689
710.774	37.66276
710.961	38.07989
711.148	31.1652
711.335	37.42165
711.522	30.29046
711.709	33.03156
711.896	44.86193
712.083	37.93206
712.27	26.25389
712.457	32.1059
712.644	24.39086
712.831	45.88974
713.017	32.52036
713.204	36.11012
713.391	29.70477
713.578	39.07725
713.765	43.01255
713.951	37.08774
714.138	51.99467
714.325	39.20397
714.512	34.792
714.698	29.01189
714.885	43.22095
715.072	35.04088
715.258	33.52527
715.445	29.96451
715.631	41.67462
715.818	19.18728
716.005	30.5326
716.191	39.64874
716.378	31.86767
716.564	40.45665
716.751	29.73579
716.937	31.9369
717.124	41.32978
717.31	29.18712
717.497	46.70418
717.683	31.22582
717.869	49.71925
718.056	32.29324
718.242	38.07538
718.429	33.57706
718.615	27.52697
718.801	34.56651
718.988	41.64448
719.174	39.52321
719.36	35.62645
719.547	41.60218
719.733	36.96958
719.919	38.96044
720.105	42.97766
720.291	35.53165
720.478	35.28505
720.664	36.80356
720.85	33.08545
721.036	58.01289
721.222	45.92321
721.408	37.18426
721.595	48.94357
721.781	48.0812
721.967	41.67828
722.153	49.31766
722.339	42.83377
722.525	40.65166
722.711	31.51815
722.897	28.98012
723.083	33.10034
723.269	46.1046
723.455	56.94673
723.641	62.97543
723.827	39.81735
724.012	41.16371
724.198	34.54785
724.384	47.45743
724.57	39.57167
724.756	25.5778
724.942	23.65365
725.127	46.55136
725.313	49.80832
725.499	46.66394
725.685	53.34577
725.87	38.9368
726.056	32.79497
726.242	47.52007
726.428	27.34409
726.613	45.61874
726.799	33.32685
726.985	28.87382
727.17	25.44885
727.356	51.95764
727.541	29.79729
727.727	34.79045
727.913	42.91415
728.098	34.69679
728.284	42.32495
728.469	28.81202
728.655	31.76593
728.84	44.30911
729.026	43.88532
729.211	44.9359
729.397	41.95406
729.582	40.08715
729.767	38.12017
729.953	40.33608
730.138	46.62298
730.323	21.55115
730.509	29.29434
730.694	50.98682
730.879	44.34218
731.065	39.74237
731.25	57.30795
731.435	45.85138
731.621	26.17485
731.806	33.47135
731.991	41.78668
732.176	27.7063
732.361	49.46101
732.547	44.67957
732.732	26.3159
732.917	58.80029
733.102	29.12566
733.287	33.1675
733.472	38.62491
733.657	41.14663
733.842	27.09198
734.027	36.56001
734.212	37.48347
734.397	31.59759
734.582	41.32577
734.767	47.9273
734.952	51.80459
735.137	18.37564
735.322	53.25073
735.507	42.22288
735.692	41.18817
735.877	60.48286
736.062	57.64586
736.247	45.19104
736.431	38.09841
736.616	52.65521
736.801	42.23726
736.986	38.91865
737.171	32.85028
737.355	28.32572
737.54	51.53251
737.725	40.1019
737.909	67.10132
738.094	33.44673
738.279	48.48283
738.463	37.26661
738.648	48.00763
738.833	45.54011
739.017	60.1743
739.202	38.64249
739.386	39.52469
739.571	31.15299
739.756	47.5511
739.94	40.33875
740.125	47.95633
740.309	35.23911
740.494	46.88959
740.678	43.49904
740.863	46.90771
741.047	43.34149
741.231	54.74948
741.416	33.99911
741.6	57.09008
741.785	34.33622
741.969	50.70053
742.153	53.81458
742.338	22.32977
742.522	41.71868
742.706	50.67193
742.89	29.15973
743.075	44.10604
743.259	54.54921
743.443	51.40442
743.627	56.50846
743.812	66.2098
743.996	20.44449
744.18	39.81305
744.364	37.04415
744.548	69.71867
744.732	41.60648
744.916	51.74087
745.1	51.4563
745.285	41.68576
745.469	48.62698
745.653	63.32664
745.837	31.21379
746.021	67.49482
746.205	55.47546
746.389	44.26378
746.573	39.14155
746.757	62.00682
746.94	42.14092
747.124	55.88108
747.308	32.38298
747.492	53.323
747.676	40.51656
747.86	69.42421
748.044	38.4692
748.227	28.07466
748.411	87.17159
748.595	48.02667
748.779	30.61259
748.963	47.97943
749.146	45.02635
749.33	37.74682
749.514	34.52631
749.697	55.56717
749.881	38.72155
750.065	32.7825
750.248	43.5272
750.432	69.04781
750.616	44.98302
750.799	30.79076
750.983	67.99542
751.166	74.29128
751.35	29.74445
751.533	50.98826
751.717	60.69902
751.9	62.89621
752.084	39.41732
752.267	31.16552
752.451	38.57468
752.634	47.12003
752.818	55.34938
753.001	54.15553
753.184	58.35263
753.368	49.99552
753.551	9.2003
753.734	41.04735
753.918	70.06161
754.101	37.45709
754.284	50.21496
754.467	40.70591
754.651	37.79247
754.834	34.62612
755.017	57.28239
755.2	59.03971
755.384	35.4026
755.567	56.86916
755.75	57.58561
755.933	43.66577
756.116	50.91495
756.299	40.70279
756.482	33.28485
756.665	52.55582
756.848	46.38935
757.032	50.0246
757.215	29.20228
757.398	36.88342
757.581	33.93279
757.764	78.05828
757.947	45.95228
758.129	63.22144
758.312	11.74141
758.495	42.56037
758.678	46.66741
758.861	44.78279
759.044	70.83204
759.227	37.83455
759.41	39.41107
759.592	57.23028
759.775	42.47431
759.958	61.02217
760.141	31.40025
760.324	73.47039
760.506	66.61257
760.689	57.37466
760.872	78.07758
761.054	52.65878
761.237	42.59924
761.42	52.23578
761.602	59.25967
761.785	47.76064
761.968	62.01052
762.15	68.34641
762.333	44.88184
762.515	50.37927
762.698	38.06943
762.88	54.12879
763.063	45.65207
763.245	51.82178
763.428	34.30935
763.61	34.91222
763.793	30.72698
763.975	47.02915
764.158	40.32714
764.34	36.88761
764.522	32.46776
764.705	42.59219
764.887	58.32192
765.069	30.57486
765.252	53.64353
765.434	53.94279
765.616	46.37999
765.799	38.40848
765.981	53.58422
766.163	38.98629
766.345	61.771
766.528	37.6006
766.71	22.3897
766.892	49.51776
767.074	61.46453
767.256	43.43081
767.438	71.82537
767.62	54.85993
767.802	80.19297
767.985	57.06559
768.167	73.23764
768.349	41.41776
768.531	61.53179
768.713	50.29697
768.895	62.96473
769.077	57.39814
769.259	89.20973
769.441	123.91911
769.623	67.42463
769.804	78.41179
769.986	79.22697
770.168	90.69862
770.35	115.13575
770.532	81.29969
770.714	87.95959
770.896	90.74981
771.077	38.80601
771.259	92.46422
771.441	82.21836
771.623	100.13752
771.804	121.62344
771.986	30.10309
772.168	57.9693
772.35	97.15816
772.531	139.2518
772.713	77.2829
772.894	95.4025
773.076	73.93889
773.258	65.79984
773.439	101.24029
773.621	113.49722
773.802	46.70859
773.984	66.56768
774.166	76.63207
774.347	118.03553
774.529	96.90144
774.71	33.43052
774.891	72.77238
775.073	70.73772
775.254	116.96752
775.436	59.52023
775.617	129.44781
775.799	64.52235
775.98	116.47814
776.161	121.78343
776.343	114.0388
776.524	72.07514
776.705	69.28823
776.886	31.90757
777.068	85.14909
777.249	142.01899
777.43	125.22906
777.611	48.03739
777.793	72.74342
777.974	118.43714
778.155	68.38977
778.336	52.1573
778.517	126.85881
778.698	58.08293
778.879	32.6964
779.061	15.46459
779.242	90.28007
779.423	87.62518
779.604	59.75837
779.785	73.10874
779.966	87.11104
780.147	102.66003
780.328	103.20242
780.509	137.05832
780.69	102.23519
780.871	62.0617
781.051	39.58985
781.232	81.11994
781.413	85.41403
781.594	64.73573
781.775	64.88708
781.956	58.39222
782.137	36.30242
782.317	55.94449
782.498	80.68376
782.679	83.13025
782.86	81.31925
783.04	64.67404
783.221	83.07144
783.402	129.24065
783.583	79.97673
783.763	97.57159
783.944	68.01573
784.124	42.81741
784.305	123.74121
784.486	90.32766
784.666	74.19715
784.847	37.9267
785.027	168.72099
785.208	58.79073
785.388	62.53539
785.569	62.10513
785.749	69.84349
785.93	60.66103
786.11	40.71123
786.291	95.42044
786.471	83.79922
786.652	101.82558
786.832	75.24399
787.012	84.65831
787.193	43.28926
787.373	75.35053
787.553	65.7404
787.734	86.01692
787.914	67.41741
788.094	87.20964
788.275	86.25934
788.455	69.9213
788.635	43.06369
788.815	78.71495
788.995	47.64522
789.176	40.77453
789.356	57.15911
789.536	67.81945
789.716	86.09048
789.896	53.18235
790.076	62.28898
790.256	78.92884
790.436	27.09199
790.616	52.03047
790.796	82.04514
790.976	63.31246
791.156	59.07388
791.336	91.50162
791.516	80.0386
791.696	65.85099
791.876	39.10932
792.056	79.34705
792.236	102.82446
792.416	94.04245
792.596	87.73375
792.776	87.66451
792.956	94.72961
793.135	122.30999
793.315	52.99415
793.495	109.53596
793.675	94.52651
793.854	99.32702
794.034	98.02471
794.214	49.13625
794.394	97.56195
794.573	106.92631
794.753	76.00041
794.933	57.74709
795.112	81.89794
795.292	93.49468
795.472	122.88575
795.651	45.38206
795.831	75.26676
796.01	65.41435
796.19	64.48527
796.369	69.50746
796.549	93.75356
796.728	71.16056
796.908	45.9037
797.087	48.4251
797.267	75.52764
797.446	51.05593
797.626	90.99842
797.805	83.85448
797.984	56.29485
798.164	88.68431
798.343	57.61213
798.522	77.47228
798.702	72.55294
798.881	47.01088
799.06	73.28078
799.239	31.8958
799.419	50.12334
799.598	115.38178
799.777	90.81953
799.956	107.1898
800.136	64.69541
800.315	56.01917
800.494	85.3753
800.673	106.14792
800.852	97.31105
801.031	106.93235
801.21	91.6319
801.389	61.63132
801.568	84.78283
801.747	134.08826
801.926	73.56841
802.105	113.71128
802.284	68.39786
802.463	113.87518
802.642	85.31637
802.821	87.50361
803	112.59721
803.179	93.16173
803.358	109.70815
803.537	66.19905
803.716	90.98379
803.895	52.31997
804.073	78.0182
804.252	60.86367
804.431	96.14633
804.61	85.81298
804.789	105.06022
804.967	64.49881
805.146	63.8107
805.325	141.36388
805.503	92.90024
805.682	42.91772
805.861	157.28642
806.039	115.42997
806.218	65.74342
806.397	84.07423
806.575	83.49947
806.754	81.41292
806.932	58.35111
807.111	125.53772
807.289	106.23092
807.468	89.0239
807.646	100.01217
807.825	91.21898
808.003	88.86276
808.182	100.68917
808.36	78.22625
808.539	57.70983
808.717	121.83752
808.895	55.93918
809.074	87.96496
809.252	71.70706
809.43	108.06838
809.609	118.61583
809.787	132.84315
809.965	75.67346
810.144	81.91486
810.322	70.55533
810.5	108.52273
810.678	74.403
810.856	149.41785
811.035	108.91114
811.213	116.7015
811.391	121.83114
811.569	87.44949
811.747	183.98624
811.925	126.74713
812.103	61.7092
812.281	68.15451
812.459	157.81427
812.637	129.70088
812.816	126.16907
812.994	151.58281
813.171	125.57532
813.349	102.14878
813.527	130.12357
813.705	138.05762
813.883	151.78246
814.061	133.6619
814.239	147.40166
814.417	155.79199
814.595	108.54138
814.773	99.00518
814.95	99.12701
815.128	104.13184
815.306	93.88047
815.484	85.52968
815.662	68.8653
815.839	52.6573
816.017	71.91264
816.195	114.33818
816.372	84.07384
816.55	123.54535
816.728	140.15794
816.905	85.55019
817.083	125.80785
817.261	96.08835
817.438	187.57524
817.616	155.49613
817.793	83.57733
817.971	116.73516
818.148	116.02499
818.326	128.71362
818.503	106.01135
818.681	134.93693
818.858	73.06166
819.036	92.47223
819.213	92.52807
819.391	72.19193
819.568	63.14755
819.745	57.89386
819.923	96.81233
820.1	64.20455
820.277	58.1437
820.455	71.99484
820.632	71.57664
820.809	77.24278
820.986	48.79176
821.164	39.81778
821.341	36.44766
821.518	49.62643
821.695	38.39596
821.872	36.84111
822.05	32.45493
822.227	27.62075
822.404	29.13225
822.581	33.32131
822.758	28.86297
822.935	29.77727
823.112	32.63106
823.289	28.82443
823.466	32.26267
823.643	31.4995
823.82	36.15568
823.997	33.93202
824.174	39.52583
824.351	48.2351
824.528	49.50142
824.705	43.85255
824.882	48.19731
825.059	62.13354
825.236	45.13807
825.412	46.65532
825.589	58.05536
825.766	73.33513
825.943	49.38845
826.12	57.73881
826.296	42.43389
826.473	51.84673
826.65	51.44798
826.827	59.26868
827.003	42.22411
827.18	45.4298
827.357	47.31866
827.533	42.91447
827.71	27.90464
827.887	39.92587
828.063	46.39413
828.24	38.57136
828.416	52.43559
828.593	43.60636
828.769	60.48179
828.946	65.37491
829.122	70.15753
829.299	71.32363
829.475	42.75699
829.652	69.97012
829.828	112.80426
830.005	73.22525
830.181	99.70891
830.357	70.36864
830.534	93.43118
830.71	81.61474
830.886	105.30469
831.063	96.06836
831.239	132.33538
831.415	57.05252
831.592	118.89281
831.768	75.41865
831.944	60.25975
832.12	125.75175
832.296	117.5468
832.473	98.92556
832.649	64.54838
832.825	88.60079
833.001	53.27563
833.177	77.54986
833.353	66.93853
833.529	40.28867
833.705	56.48107
833.881	41.8262
834.058	40.90652
834.234	45.37385
834.41	45.99324
834.586	38.70054
834.761	42.626
834.937	48.79131
835.113	49.6997
835.289	44.7337
835.465	54.10575
835.641	50.30447
835.817	55.54767
835.993	103.11454
836.169	55.45494
836.344	82.11088
836.52	87.21477
836.696	97.90401
836.872	63.38878
837.048	199.49339
837.223	75.35678
837.399	163.96065
837.575	137.9816
837.75	119.66443
837.926	178.30625
838.102	269.86943
838.277	195.80681
838.453	281.91916
838.628	272.82792
838.804	87.6791
838.98	254.64862
839.155	133.14201
839.331	169.4991
839.506	117.71759
839.682	107.5825
839.857	159.04518
840.033	168.28751
840.208	77.50709
840.384	45.17654
840.559	77.84771
840.734	125.82429
840.91	169.79165
841.085	109.85189
841.26	108.66135
841.436	120.97677
841.611	95.65659
841.786	146.5203
841.962	241.96656
842.137	159.75692
842.312	78.67829
842.487	145.05184
842.663	105.02066
842.838	123.02754
843.013	527.08192
843.188	289.76589
843.363	197.46863
843.538	511.74211
843.714	481.25122
843.889	477.51857
844.064	513.86836
844.239	272.45141
844.414	536.31824
844.589	296.65439
844.764	724.40299
844.939	495.31149
845.114	452.08114
845.289	672.02139
845.464	759.21012
845.639	713.84272
845.814	250.04768
845.989	489.98914
846.163	414.43295
846.338	763.68296
846.513	643.36797
846.688	356.41278
846.863	682.35146
847.038	401.57951
847.212	360.61789
847.387	716.02232
847.562	394.67529
847.737	592.62469
847.911	252.43134
848.086	267.10554
848.261	500.41686
848.435	348.82831
848.61	548.8532
848.785	265.37269
848.959	514.84369
849.134	648.70599
849.308	1105.14645
849.483	671.50757
849.658	661.13977
849.832	388.18148
850.007	240.01605
850.181	1045.88079
850.356	667.14468
850.53	935.44218
850.705	387.42527
850.879	221.85537
851.053	522.76071
851.228	407.6077
851.402	880.71104
851.577	650.57067
851.751	838.58758
851.925	431.62876
852.099	213.19306
852.274	304.37839
852.448	383.93611
852.622	955.24873
852.797	372.71738
852.971	465.14025
853.145	847.28399
853.319	1013.50588
853.493	1139.71247
853.668	473.3682
853.842	1540.18826
854.016	1165.81832
854.19	1651.31483
854.364	647.14269
854.538	597.12078
854.712	735.64211
854.886	397.13613
855.06	387.03295
855.234	188.03656
855.408	814.02951
855.582	589.76936
855.756	909.20662
855.93	561.06597
856.104	680.15051
856.278	823.07475
856.452	361.71576
856.626	638.32571
856.8	1166.14943
856.973	1142.35113
857.147	1087.00265
857.321	1484.77445
857.495	554.51807
857.669	838.22064
857.842	646.24988
858.016	497.62314
858.19	365.37965
858.364	1269.05676
858.537	595.49625
858.711	1202.50267
858.885	870.03277
859.058	314.77678
859.232	294.23416
859.405	416.44191
859.579	762.24152
859.753	667.0546
859.926	894.2374
860.1	524.31406
860.273	1044.20752
860.447	898.59774
860.62	605.17441
860.794	836.64835
860.967	625.48468
861.141	546.81645
861.314	730.02011
861.487	673.4737
861.661	542.05487
861.834	834.87346
862.008	1104.55247
862.181	824.53288
862.354	1409.02497
862.528	666.93898
862.701	425.7044
862.874	365.30439
863.047	491.76929
863.221	480.11843
863.394	352.51336
863.567	469.54095
863.74	146.65517
863.913	1070.36059
864.087	659.29726
864.26	640.11871
864.433	716.23211
864.606	1026.71212
864.779	1649.68957
864.952	322.68785
865.125	1007.47788
865.298	561.53037
865.471	622.33519
865.644	990.27982
865.817	592.62773
865.99	992.92671
866.163	821.46814
866.336	452.015
866.509	449.27267
866.682	555.29997
866.855	1343.92957
867.028	196.78049
867.2	602.20583
867.373	113.00861
867.546	468.02827
867.719	1266.3916
867.892	658.55344
868.064	436.79098
868.237	463.6855
868.41	495.15368
868.583	319.4714
868.755	288.855
868.928	648.22014
869.101	921.71152
869.273	1723.8923
869.446	478.43116
869.619	899.64156
869.791	496.69535
869.964	789.93977
870.136	1014.7129
870.309	420.90181
870.481	401.51303
870.654	385.38541
870.826	411.37447
870.999	317.16329
871.171	529.07367
871.344	289.25642
871.516	421.90501
871.689	427.18008
871.861	508.35489
872.033	357.49763
872.206	352.29824
872.378	493.10193
872.55	442.52003
872.723	397.0032
872.895	691.00219
873.067	566.34528
873.24	515.14794
873.412	468.13662
873.584	359.60807
873.756	631.49119
873.928	803.39665
874.101	366.96665
874.273	501.06262
874.445	164.45554
874.617	294.0909
874.789	353.62406
874.961	365.57558
875.133	475.12971
875.305	533.88205
875.477	398.19092
875.649	228.74557
875.821	323.37572
875.993	695.81209
876.165	373.63547
876.337	502.09179
876.509	483.17844
876.681	431.46054
876.853	453.18299
877.025	764.87215
877.197	249.24864
877.369	307.63272
877.541	410.52367
877.712	97.27962
877.884	211.31861
878.056	490.3398
878.228	225.41171
878.4	503.17853
878.571	232.1395
878.743	159.4562
878.915	307.73836
879.086	159.02875
879.258	199.8113
879.43	187.37568
879.601	162.74563
879.773	149.0606
879.945	42.59749
880.116	61.22115
880.288	42.3287
880.459	43.03483
880.631	35.91399
880.802	41.488
880.974	38.8339
881.145	30.02961
881.317	38.529
881.488	31.41053
881.66	34.13503
881.831	30.3894
882.002	38.59596
882.174	32.01404
882.345	38.44125
882.517	24.86467
882.688	46.4768
882.859	37.91959
883.03	59.76375
883.202	56.47856
883.373	53.44176
883.544	52.15905
883.715	83.41444
883.887	76.8502
884.058	66.68909
884.229	91.22883
884.4	90.15675
884.571	115.89626
884.742	90.63638
884.914	94.45954
885.085	152.2267
885.256	189.35745
885.427	162.62533
885.598	176.67424
885.769	196.76246
885.94	196.93978
886.111	122.68002
886.282	202.88609
886.453	218.63428
886.624	163.44194
886.795	255.1847
886.966	231.43397
887.136	278.68425
887.307	185.45973
887.478	424.40098
887.649	326.86716
887.82	372.61557
887.991	245.90579
888.161	440.21159
888.332	392.82637
888.503	233.31911
888.674	459.3901
888.844	724.8999
889.015	638.59995
889.186	331.47017
889.356	618.00174
889.527	372.92027
889.698	988.47632
889.868	280.02265
890.039	524.38498
890.209	355.62581
890.38	598.35696
890.551	484.82651
890.721	771.22481
890.892	513.67688
891.062	1171.15247
891.233	531.38799
891.403	685.19455
891.574	571.54531
891.744	374.48621
891.914	340.79952
892.085	550.03888
892.255	141.20904
892.425	523.45154
892.596	413.65391
892.766	537.53966
892.936	777.11911
893.107	464.43163
893.277	238.55478
893.447	205.88059
893.618	132.63715
893.788	238.38593
893.958	126.77622
894.128	94.52871
894.298	130.03858
894.468	165.28577
894.639	80.95946
894.809	48.55496
894.979	78.96108
895.149	103.41774
895.319	82.89927
895.489	104.32136
895.659	148.70304
895.829	93.38557
895.999	104.95746
896.169	94.97402
896.339	112.84871
896.509	247.54772
896.679	244.31465
896.849	274.96296
897.019	351.63932
897.189	346.00257
897.358	285.81078
897.528	507.89908
897.698	198.89406
897.868	352.71511
898.038	868.69061
898.208	1002.99181
898.377	235.92386
898.547	1805.04191
898.717	3260.15015
898.886	936.63559
899.056	768.90052
899.226	2064.86453
899.395	2301.55922
899.565	2409.40199
899.735	4174.89248
899.904	1670.7877
900.074	5818.93403
900.244	697.67149
900.413	3324.64691
900.583	794.96436
900.752	-1858.75666
900.922	1108.91661
901.091	335.6033
901.261	2111.57726
901.43	1185.2223
901.599	3101.19087
901.769	2738.0213
901.938	2761.32963
902.108	1005.01746
902.277	1430.86541
902.446	423.94978
902.616	678.95835
902.785	585.10291
902.954	818.58449
903.124	488.81917
903.293	354.26253
903.462	135.6068
903.631	206.97888
903.801	147.13704
903.97	80.70984
904.139	120.54699
904.308	99.20379
904.477	74.7059
904.646	48.27426
904.816	69.89215
904.985	108.16386
905.154	172.33859
