Data from WindowProjectSample3_Transmission__7__00007.txt Node

Date: Sun May 04 09:46:31 EDT 2025
User: jessi
Spectrometer: SR400872
Trigger mode: 0
Integration Time (sec): 5.000070E-1
Scans to average: 10
Electric dark correction enabled: true
Nonlinearity correction enabled: true
Boxcar width: 0
XAxis mode: Wavelengths
Number of Pixels in Spectrum: 3648
>>>>>Begin Spectral Data<<<<<
184.909	-5795.23349
185.132	10735.3221
185.355	-8329.76845
185.578	-54534.26974
185.801	3140.04796
186.024	-139380.67081
186.247	-743.41677
186.47	1420.10332
186.693	1126.07029
186.916	-526.28933
187.139	-2494824.5903
187.362	-2834.2675
187.585	8674.0769
187.808	1911.3694
188.031	21.92235
188.254	4216.46899
188.476	-1550.78697
188.699	2450.32199
188.922	494.59876
189.145	-6020.44781
189.368	-4182.94146
189.591	1444.11797
189.813	-149553.55604
190.036	9144.69232
190.259	1429.67729
190.482	5617.59059
190.705	16728.75199
190.927	18068.60274
191.15	-4201.55615
191.373	2103.51955
191.595	1448.4048
191.818	16705.54062
192.041	795.80827
192.263	-7448.75126
192.486	-1796.84433
192.709	2769.17352
192.931	-3285.03896
193.154	13560.64476
193.377	2487.93781
193.599	27810.74762
193.822	2099.54748
194.044	2044.42415
194.267	1065.45772
194.489	-150.59402
194.712	3726.89622
194.934	33147.98921
195.157	-630.24889
195.379	10938.63394
195.602	1859.24434
195.824	4475.89581
196.047	6091.55292
196.269	13669.86592
196.492	-11095.39715
196.714	3817.53211
196.936	6896.59683
197.159	10695.02989
197.381	4428.07985
197.604	1833734.74852
197.826	1938.9298
198.048	1998.87471
198.271	9340.00405
198.493	1984.96061
198.715	2676.77803
198.938	8486.17034
199.16	3527.254
199.382	9847.24819
199.604	10105.39749
199.827	1675.54088
200.049	3070.03528
200.271	20285.75356
200.493	1752.21122
200.715	7176.42542
200.938	7966.98947
201.16	-3812.23988
201.382	31263.22499
201.604	3920.83491
201.826	8277.70665
202.048	4346.89671
202.27	1847.69922
202.492	5817.22878
202.715	18468.82188
202.937	3834.06947
203.159	1552.19134
203.381	1922.67552
203.603	2608.16729
203.825	-1535.94305
204.047	-22037.03531
204.269	3446.69911
204.491	6825.74331
204.713	-1665923.16197
204.935	2180.69087
205.156	3980.91156
205.378	1569.84734
205.6	35958.38707
205.822	4839.03417
206.044	3789.77966
206.266	5981.13635
206.488	1468.96723
206.71	8839.35908
206.932	1352.86839
207.153	29215.75682
207.375	15662.48054
207.597	12216.94517
207.819	36176.72182
208.041	-43518.72704
208.262	1132.83786
208.484	13878.5161
208.706	4047.32648
208.927	2358.7072
209.149	923.28977
209.371	3761.87552
209.593	969.69946
209.814	9903.72439
210.036	-490855.66173
210.258	1609.91236
210.479	2094.99223
210.701	3459.26686
210.922	-5532.64413
211.144	-3306.19469
211.366	5215.14076
211.587	2295.9307
211.809	5295.96235
212.03	-63672.13236
212.252	384.0717
212.473	781.92866
212.695	749.54671
212.916	1238.74764
213.138	598.81675
213.359	5028.77776
213.581	2804.93644
213.802	894.61149
214.024	7249.3774
214.245	-12739.10123
214.466	396.81573
214.688	3753.08843
214.909	9980.65342
215.131	4178.61393
215.352	2638.7311
215.573	11483.8532
215.795	2089.34676
216.016	1841.17882
216.237	-714920.89763
216.459	1871.89484
216.68	5781.15488
216.901	3213.8302
217.122	733.52319
217.344	3051.07523
217.565	7108.13032
217.786	3469.96126
218.007	896.45844
218.228	2235.80414
218.45	-16626.80349
218.671	39651.72711
218.892	19934.52159
219.113	1604.82359
219.334	8084.73289
219.555	-8560.75465
219.776	1779.17519
219.997	4040.97773
220.219	1123.62105
220.44	1469.86375
220.661	1563.2153
220.882	5300.52416
221.103	1335.52507
221.324	8055.34913
221.545	3082.37558
221.766	2967.97822
221.987	1536.48528
222.208	971.98709
222.429	2204.90634
222.65	90.58976
222.87	795.35121
223.091	1703.06354
223.312	957.22953
223.533	2051.05067
223.754	1593.19436
223.975	1709.03427
224.196	968.9965
224.417	5184.34737
224.637	608.52944
224.858	80.8686
225.079	1101.5041
225.3	601.36496
225.521	2247.90226
225.741	616.1272
225.962	602.41682
226.183	163.21463
226.404	987.86049
226.624	559.58802
226.845	603.08767
227.066	462.60815
227.286	310.74117
227.507	192.53577
227.728	148.334
227.948	272.10055
228.169	93.56823
228.389	102.56213
228.61	57.01474
228.831	82.17503
229.051	6.64178
229.272	48.2036
229.492	71.99899
229.713	20.67468
229.933	51.42595
230.154	44.92218
230.374	76.3979
230.595	56.97576
230.815	32.21354
231.036	57.10058
231.256	-11.72661
231.477	98.83548
231.697	56.75589
231.917	54.94479
232.138	84.47889
232.358	155.73327
232.579	148.673
232.799	22.92571
233.019	128.97085
233.24	159.0863
233.46	56.64554
233.68	83.46493
233.901	60.09199
234.121	38.73346
234.341	20.34379
234.561	-2.36985
234.782	29.5515
235.002	100.42706
235.222	0.03502
235.442	87.1624
235.662	42.96572
235.883	88.78875
236.103	72.01189
236.323	51.58808
236.543	40.60467
236.763	57.4285
236.983	63.13734
237.203	59.26126
237.423	87.0785
237.643	128.35107
237.864	107.69563
238.084	30.67314
238.304	38.93144
238.524	67.80066
238.744	55.40436
238.964	96.50552
239.184	89.03398
239.404	91.38527
239.624	50.05419
239.843	82.63635
240.063	49.22127
240.283	34.09899
240.503	37.9271
240.723	33.60147
240.943	21.35838
241.163	26.86201
241.383	15.10868
241.603	9.07405
241.822	13.18978
242.042	8.9956
242.262	11.80225
242.482	12.96377
242.702	16.06344
242.921	5.20925
243.141	10.97077
243.361	9.85946
243.581	14.58804
243.8	11.21766
244.02	8.03123
244.24	15.03912
244.459	13.5588
244.679	29.06317
244.899	17.94165
245.118	19.60623
245.338	18.51286
245.558	20.64256
245.777	13.7085
245.997	14.26056
246.216	14.29981
246.436	8.90907
246.655	6.06345
246.875	3.86402
247.094	8.45779
247.314	3.12743
247.533	5.03695
247.753	6.14783
247.972	5.21478
248.192	1.86215
248.411	3.14679
248.631	5.458
248.85	7.18737
249.07	6.35628
249.289	9.47731
249.508	6.72653
249.728	11.45821
249.947	11.59605
250.166	13.83665
250.386	6.99954
250.605	9.72292
250.824	16.70681
251.044	11.93775
251.263	36.28285
251.482	20.80051
251.701	16.62673
251.921	-0.78063
252.14	5.26372
252.359	6.43527
252.578	14.1598
252.798	5.03851
253.017	13.51303
253.236	7.00115
253.455	9.48829
253.674	17.87567
253.893	8.23234
254.112	12.42038
254.331	18.25763
254.551	15.15986
254.77	6.98437
254.989	19.40804
255.208	15.78983
255.427	21.48133
255.646	19.2797
255.865	30.22812
256.084	12.80781
256.303	16.02432
256.522	20.00722
256.741	3.8103
256.96	4.57264
257.179	12.27398
257.397	15.66291
257.616	8.59879
257.835	8.50943
258.054	21.66324
258.273	14.24359
258.492	15.8081
258.711	9.18926
258.93	3.88459
259.148	5.95463
259.367	6.28516
259.586	7.59662
259.805	3.17674
260.023	7.04303
260.242	5.24534
260.461	3.90426
260.68	2.09734
260.898	6.44602
261.117	2.10947
261.336	1.29894
261.554	5.72824
261.773	5.59511
261.992	1.42061
262.21	5.71509
262.429	6.85401
262.648	10.43825
262.866	12.31177
263.085	8.05137
263.303	7.94348
263.522	13.18344
263.74	13.67277
263.959	22.58568
264.178	11.50242
264.396	9.95354
264.615	7.69756
264.833	17.0379
265.051	14.51974
265.27	15.19965
265.488	15.97374
265.707	8.96979
265.925	15.42275
266.144	7.10949
266.362	8.28777
266.58	8.79304
266.799	7.20089
267.017	8.58687
267.235	7.28058
267.454	5.16331
267.672	2.66988
267.89	6.69597
268.109	6.88508
268.327	6.60719
268.545	1.41365
268.763	6.11906
268.982	2.56345
269.2	6.79434
269.418	4.44329
269.636	3.6935
269.854	7.36147
270.073	4.86123
270.291	2.68665
270.509	3.17275
270.727	6.44832
270.945	10.64186
271.163	10.44343
271.381	2.55751
271.599	4.43136
271.817	7.77114
272.036	2.63912
272.254	4.6506
272.472	3.59783
272.69	3.71118
272.908	3.83934
273.126	6.18323
273.344	7.76593
273.562	3.03733
273.779	3.84191
273.997	6.01692
274.215	6.41617
274.433	4.7178
274.651	6.81733
274.869	6.96491
275.087	4.67614
275.305	6.10557
275.523	3.82599
275.74	4.40475
275.958	7.69207
276.176	12.07175
276.394	3.77769
276.612	5.14435
276.829	4.82291
277.047	4.2665
277.265	4.69627
277.483	5.54333
277.7	6.50624
277.918	5.22031
278.136	9.46578
278.353	4.87954
278.571	2.80214
278.789	6.94631
279.006	1.45118
279.224	3.93936
279.442	7.48732
279.659	5.43079
279.877	3.84582
280.094	8.29661
280.312	1.92596
280.529	5.13053
280.747	1.67265
280.964	4.12021
281.182	8.62167
281.399	4.48473
281.617	5.55079
281.834	3.58863
282.052	3.02989
282.269	4.66837
282.487	3.73497
282.704	3.19601
282.921	3.43604
283.139	4.76819
283.356	6.20875
283.574	5.45286
283.791	3.05679
284.008	8.00643
284.226	4.30797
284.443	5.03229
284.66	6.24978
284.877	4.93314
285.095	2.92684
285.312	2.32124
285.529	1.57691
285.746	1.2544
285.964	3.14519
286.181	1.9902
286.398	3.0363
286.615	4.14571
286.832	3.82184
287.05	1.10008
287.267	2.89595
287.484	2.80709
287.701	4.22414
287.918	3.8602
288.135	4.09023
288.352	1.79829
288.569	2.31311
288.786	3.50203
289.003	3.05237
289.22	4.25184
289.437	2.70526
289.654	4.4482
289.871	4.23583
290.088	4.39385
290.305	3.44389
290.522	2.62259
290.739	3.09426
290.956	4.77409
291.173	5.40754
291.39	5.16376
291.607	3.53573
291.824	2.89081
292.04	2.05648
292.257	4.47604
292.474	4.94933
292.691	3.15961
292.908	1.46782
293.125	2.6042
293.341	1.93027
293.558	7.62472
293.775	3.19972
293.992	3.15685
294.208	1.34943
294.425	2.03653
294.642	2.77948
294.858	3.94757
295.075	1.24124
295.292	2.88563
295.508	3.64468
295.725	5.22455
295.942	2.35044
296.158	1.6526
296.375	3.04369
296.591	2.31002
296.808	2.51349
297.024	2.77757
297.241	3.29239
297.458	3.3415
297.674	0.29548
297.891	2.73426
298.107	2.02874
298.323	1.59686
298.54	4.23076
298.756	2.04286
298.973	0.79187
299.189	4.39865
299.406	1.75935
299.622	4.2955
299.838	4.26844
300.055	3.89133
300.271	0.73741
300.487	1.55609
300.704	1.78301
300.92	0.94794
301.136	5.64424
301.353	4.48529
301.569	3.05304
301.785	3.42258
302.001	4.03592
302.218	3.44127
302.434	3.40186
302.65	1.11837
302.866	2.23812
303.083	5.73987
303.299	5.39351
303.515	2.70871
303.731	3.02693
303.947	0.98996
304.163	1.94264
304.379	3.06625
304.595	3.58377
304.812	1.90225
305.028	1.90179
305.244	2.46185
305.46	4.15388
305.676	3.8423
305.892	4.81026
306.108	3.22797
306.324	2.38941
306.54	5.44474
306.756	3.77509
306.972	3.51108
307.187	2.46008
307.403	5.04557
307.619	2.29963
307.835	4.45248
308.051	4.88681
308.267	1.21544
308.483	4.09887
308.699	3.62094
308.914	3.02904
309.13	2.9735
309.346	0.90816
309.562	1.40105
309.778	0.78998
309.993	3.63582
310.209	2.60044
310.425	1.16401
310.641	2.36404
310.856	1.42043
311.072	1.50406
311.288	2.79072
311.503	2.96618
311.719	0.69784
311.935	0.47115
312.15	3.12075
312.366	2.69663
312.581	3.42169
312.797	2.63058
313.013	3.72157
313.228	1.86566
313.444	2.82603
313.659	1.79453
313.875	3.496
314.09	2.55422
314.306	4.56478
314.521	3.99659
314.737	3.68637
314.952	3.20822
315.168	2.82244
315.383	3.42608
315.599	2.70386
315.814	2.43549
316.029	3.78846
316.245	1.01703
316.46	1.01608
316.675	4.74279
316.891	5.47421
317.106	7.02994
317.321	3.7318
317.537	3.56702
317.752	3.67199
317.967	3.83137
318.183	1.99752
318.398	2.70853
318.613	4.39515
318.828	4.76168
319.043	4.26335
319.259	2.61167
319.474	3.4349
319.689	4.65352
319.904	0.50962
320.119	4.03517
320.334	3.24917
320.549	3.27297
320.765	4.70681
320.98	3.31572
321.195	4.06591
321.41	2.69654
321.625	4.09327
321.84	5.60979
322.055	5.36186
322.27	2.01412
322.485	1.85409
322.7	3.55594
322.915	4.76016
323.13	1.71725
323.345	4.82799
323.56	3.59035
323.775	3.63564
323.989	3.83571
324.204	3.41962
324.419	4.05183
324.634	1.35568
324.849	2.77322
325.064	5.99613
325.279	4.11974
325.493	3.74004
325.708	4.57501
325.923	2.12451
326.138	1.86634
326.352	5.28066
326.567	4.30329
326.782	2.48005
326.997	1.90968
327.211	4.21296
327.426	3.83297
327.641	2.37
327.855	1.06408
328.07	3.51504
328.285	5.2684
328.499	2.7161
328.714	3.59263
328.928	3.96101
329.143	3.15178
329.358	4.3961
329.572	4.69314
329.787	4.61052
330.001	6.49969
330.216	1.275
330.43	5.07629
330.645	5.37207
330.859	4.13504
331.074	2.17207
331.288	3.4903
331.503	4.79859
331.717	1.87139
331.931	2.9696
332.146	3.11287
332.36	5.61406
332.575	3.82075
332.789	3.47502
333.003	2.86469
333.218	3.76756
333.432	2.11375
333.646	4.14181
333.86	4.98282
334.075	5.28922
334.289	2.2054
334.503	1.9606
334.717	3.70392
334.932	3.39751
335.146	4.86818
335.36	2.91042
335.574	4.29037
335.788	4.15438
336.003	4.93928
336.217	4.07217
336.431	4.24818
336.645	2.25823
336.859	1.57863
337.073	2.54666
337.287	3.07248
337.501	1.66707
337.715	3.09105
337.929	3.74832
338.143	1.63234
338.357	2.87377
338.571	1.71673
338.785	3.42344
338.999	2.6483
339.213	2.36002
339.427	1.24123
339.641	4.63036
339.855	2.79915
340.069	2.23945
340.283	4.68421
340.497	5.49872
340.711	3.41636
340.924	2.46159
341.138	1.72878
341.352	1.21148
341.566	3.2811
341.78	0.80503
341.993	2.30315
342.207	1.54534
342.421	3.38036
342.635	2.80246
342.848	2.00459
343.062	0.44563
343.276	2.12769
343.49	5.8158
343.703	2.19357
343.917	3.94382
344.131	3.95193
344.344	2.09299
344.558	2.2553
344.771	1.78058
344.985	4.61699
345.199	4.66722
345.412	3.20725
345.626	3.08903
345.839	0.88372
346.053	1.38996
346.266	1.5703
346.48	3.87303
346.693	3.23946
346.907	3.66672
347.12	1.71485
347.334	3.30041
347.547	3.29974
347.76	2.49296
347.974	4.6762
348.187	3.32495
348.401	2.24845
348.614	2.0697
348.827	2.39086
349.041	3.69808
349.254	0.88153
349.467	2.5772
349.681	1.46003
349.894	2.30597
350.107	4.28884
350.32	4.6561
350.534	0.97009
350.747	2.32994
350.96	1.82916
351.173	2.01863
351.386	2.23652
351.6	2.52957
351.813	1.82924
352.026	2.90275
352.239	1.06409
352.452	2.51445
352.665	3.78535
352.878	2.40715
353.092	5.59869
353.305	3.40887
353.518	2.9266
353.731	1.78144
353.944	3.93928
354.157	1.96013
354.37	1.65582
354.583	1.34458
354.796	0.7464
355.009	4.32466
355.222	2.72081
355.435	2.62873
355.647	3.90079
355.86	1.5191
356.073	2.51508
356.286	2.09885
356.499	3.48411
356.712	2.83517
356.925	2.97828
357.138	3.68323
357.35	1.31715
357.563	2.16615
357.776	2.52349
357.989	1.97583
358.201	3.10464
358.414	2.64065
358.627	3.85021
358.84	2.19093
359.052	1.27979
359.265	1.18855
359.478	3.69862
359.69	-0.39109
359.903	3.05976
360.116	3.13997
360.328	0.5856
360.541	3.19119
360.753	1.25293
360.966	1.63396
361.179	1.74271
361.391	1.60565
361.604	1.22781
361.816	1.65906
362.029	1.50919
362.241	1.1245
362.454	1.52845
362.666	1.1972
362.879	2.13146
363.091	1.9621
363.304	1.38354
363.516	2.16671
363.728	0.87247
363.941	2.91536
364.153	1.55287
364.366	-0.00936
364.578	1.00035
364.79	2.71127
365.003	1.96997
365.215	1.79049
365.427	2.45818
365.639	3.5689
365.852	2.4351
366.064	4.35228
366.276	1.54264
366.488	2.82359
366.701	1.72434
366.913	2.11267
367.125	1.50028
367.337	1.6804
367.549	1.81503
367.762	2.3401
367.974	2.29051
368.186	1.30613
368.398	3.34638
368.61	2.95868
368.822	2.91625
369.034	2.35037
369.246	2.84588
369.458	4.82061
369.67	1.12456
369.882	4.32822
370.094	0.31589
370.306	3.97021
370.518	1.75171
370.73	1.46514
370.942	1.26339
371.154	1.70765
371.366	1.50208
371.578	2.52428
371.79	1.19428
372.002	3.59871
372.214	4.03917
372.425	2.51491
372.637	3.55659
372.849	2.37377
373.061	0.04102
373.273	2.62136
373.484	2.63049
373.696	3.08936
373.908	-0.09294
374.12	3.27289
374.331	2.59181
374.543	1.10249
374.755	0.91977
374.967	2.23911
375.178	2.83188
375.39	1.79907
375.602	2.14987
375.813	0.7762
376.025	0.78241
376.236	2.17173
376.448	2.17391
376.66	1.42898
376.871	1.39112
377.083	3.13654
377.294	3.14008
377.506	1.34179
377.717	3.26702
377.929	2.17931
378.14	1.03565
378.352	2.70157
378.563	2.33386
378.775	3.32846
378.986	1.34644
379.197	2.14093
379.409	1.68723
379.62	2.92224
379.832	2.33927
380.043	1.66019
380.254	2.18739
380.466	0.79193
380.677	4.94157
380.888	4.50639
381.1	4.6585
381.311	4.35037
381.522	1.80916
381.733	5.29232
381.945	1.53838
382.156	2.41153
382.367	1.59856
382.578	4.9589
382.789	4.87318
383.001	1.71689
383.212	3.23469
383.423	3.51287
383.634	3.55932
383.845	2.39317
384.056	1.67315
384.267	2.0758
384.478	1.69822
384.69	0.84926
384.901	2.56577
385.112	2.38285
385.323	3.48723
385.534	2.60244
385.745	2.25396
385.956	2.44532
386.167	1.01388
386.378	2.4071
386.588	0.57324
386.799	1.0699
387.01	0.21791
387.221	2.9067
387.432	1.71086
387.643	4.08121
387.854	1.75086
388.065	1.62239
388.275	1.81463
388.486	1.77733
388.697	1.82237
388.908	1.71704
389.119	3.08385
389.329	3.8235
389.54	2.10668
389.751	2.3002
389.962	3.19895
390.172	2.20079
390.383	1.32716
390.594	1.23712
390.804	1.26734
391.015	1.35691
391.226	1.99434
391.436	2.38701
391.647	2.25038
391.858	2.58082
392.068	0.3378
392.279	0.72992
392.489	1.90184
392.7	2.93511
392.91	0.58445
393.121	1.15519
393.331	2.36811
393.542	3.12217
393.752	1.99255
393.963	1.90678
394.173	1.90931
394.384	2.50777
394.594	1.76598
394.804	0.72413
395.015	2.13709
395.225	2.48002
395.436	0.87576
395.646	2.52419
395.856	1.07852
396.067	0.71891
396.277	3.05766
396.487	2.31755
396.697	1.90933
396.908	2.63475
397.118	2.70228
397.328	2.22251
397.538	2.96289
397.749	1.10129
397.959	2.83608
398.169	2.71755
398.379	0.62252
398.589	2.7635
398.8	2.02135
399.01	1.70491
399.22	1.75526
399.43	4.37051
399.64	1.7981
399.85	2.66104
400.06	1.9306
400.27	1.1808
400.48	2.13711
400.69	3.65539
400.9	1.63604
401.11	1.40062
401.32	3.11801
401.53	1.61295
401.74	3.89051
401.95	3.12314
402.16	1.13053
402.37	2.69226
402.58	1.59733
402.79	2.71193
403	3.07236
403.209	1.51564
403.419	2.92763
403.629	1.6517
403.839	2.86313
404.049	2.86802
404.258	1.48373
404.468	1.30533
404.678	2.60198
404.888	2.86407
405.097	1.26033
405.307	2.13331
405.517	2.57345
405.727	2.56843
405.936	1.77797
406.146	2.41222
406.356	3.60462
406.565	2.36941
406.775	1.81239
406.984	1.83605
407.194	4.13794
407.404	2.59789
407.613	2.77511
407.823	3.25367
408.032	3.62372
408.242	3.58438
408.451	2.07198
408.661	2.41524
408.87	4.22331
409.08	2.06559
409.289	2.94925
409.499	2.72923
409.708	2.5793
409.918	0.57415
410.127	2.68367
410.336	4.13965
410.546	3.32334
410.755	2.17108
410.964	2.23798
411.174	1.92811
411.383	3.15074
411.592	3.25868
411.802	1.80237
412.011	3.65707
412.22	2.95245
412.429	4.36294
412.639	4.17929
412.848	4.05347
413.057	4.44693
413.266	4.0969
413.475	2.94312
413.685	3.63628
413.894	3.69411
414.103	4.16491
414.312	3.66538
414.521	2.98149
414.73	3.10502
414.939	4.94889
415.148	3.50463
415.357	3.4047
415.566	2.83133
415.776	2.64876
415.985	2.64923
416.194	3.91339
416.403	4.80648
416.611	1.9697
416.82	2.57481
417.029	3.24637
417.238	2.54
417.447	2.35574
417.656	2.75571
417.865	2.49386
418.074	2.835
418.283	3.15525
418.492	3.90876
418.7	3.80707
418.909	4.52026
419.118	3.29614
419.327	3.58459
419.536	3.36466
419.744	2.84935
419.953	4.16153
420.162	4.00474
420.371	2.94642
420.579	2.93756
420.788	4.08331
420.997	4.13237
421.205	4.04628
421.414	3.87175
421.623	3.97604
421.831	3.45962
422.04	4.26548
422.249	3.30317
422.457	3.96552
422.666	3.37129
422.874	4.34553
423.083	4.39704
423.291	4.30259
423.5	3.9957
423.708	4.2726
423.917	4.77978
424.125	4.11262
424.334	3.89171
424.542	5.92803
424.751	4.9803
424.959	4.66184
425.167	5.22192
425.376	4.89999
425.584	4.11742
425.793	4.5421
426.001	3.43772
426.209	4.90439
426.418	3.6871
426.626	3.78287
426.834	3.58367
427.042	4.20851
427.251	3.68861
427.459	4.94217
427.667	4.53912
427.875	3.15402
428.084	3.77636
428.292	5.36273
428.5	4.86521
428.708	3.39952
428.916	3.45221
429.124	4.29184
429.333	3.99476
429.541	4.08913
429.749	4.37948
429.957	4.3218
430.165	6.43503
430.373	3.20017
430.581	4.37481
430.789	5.41999
430.997	3.79487
431.205	3.72934
431.413	4.3425
431.621	4.16011
431.829	4.94928
432.037	4.15413
432.245	4.62581
432.453	4.71374
432.661	4.13284
432.869	5.9175
433.076	3.6466
433.284	4.23338
433.492	4.99396
433.7	5.43642
433.908	4.09435
434.116	4.63278
434.323	4.61752
434.531	4.47181
434.739	5.13313
434.947	5.27619
435.154	5.25787
435.362	4.62318
435.57	4.33147
435.778	4.15423
435.985	5.02244
436.193	4.08724
436.401	5.72219
436.608	4.66449
436.816	4.39026
437.023	6.16021
437.231	6.25781
437.439	4.82021
437.646	5.10488
437.854	4.99203
438.061	5.28344
438.269	4.57019
438.476	5.22567
438.684	4.79164
438.891	4.50148
439.099	4.327
439.306	3.7636
439.514	4.0069
439.721	4.99133
439.929	4.19446
440.136	5.04792
440.343	4.96159
440.551	4.48267
440.758	6.36887
440.965	5.27776
441.173	4.96521
441.38	4.43972
441.587	5.20392
441.795	4.46544
442.002	5.05872
442.209	5.04038
442.416	5.30543
442.624	5.36997
442.831	5.19213
443.038	4.48169
443.245	4.20729
443.452	4.61042
443.66	5.52768
443.867	4.33158
444.074	4.37219
444.281	4.35548
444.488	4.62636
444.695	4.72238
444.902	4.39215
445.109	5.36204
445.316	4.57698
445.523	4.53463
445.73	4.1229
445.937	4.95977
446.144	5.363
446.351	5.4905
446.558	4.38745
446.765	6.01114
446.972	5.89749
447.179	5.05612
447.386	5.96291
447.593	4.70562
447.8	5.82766
448.007	4.89054
448.214	4.93927
448.42	4.60429
448.627	6.05228
448.834	4.91874
449.041	4.73422
449.248	4.59711
449.454	5.70211
449.661	6.65373
449.868	4.63784
450.075	4.45768
450.281	3.42081
450.488	4.07795
450.695	4.22545
450.901	4.28595
451.108	4.34347
451.315	5.71951
451.521	4.99333
451.728	5.72034
451.935	4.26707
452.141	4.81542
452.348	4.75091
452.554	4.81976
452.761	4.59819
452.967	6.1879
453.174	5.00407
453.38	5.16057
453.587	3.89978
453.793	4.83669
454	5.51301
454.206	6.61449
454.413	5.89097
454.619	5.40238
454.825	4.28812
455.032	5.53909
455.238	5.68882
455.445	3.95766
455.651	5.08168
455.857	3.30807
456.064	4.79381
456.27	4.58666
456.476	4.70021
456.682	3.84686
456.889	5.3832
457.095	5.36083
457.301	6.84773
457.507	4.81832
457.714	5.13822
457.92	4.82412
458.126	4.40577
458.332	4.74318
458.538	4.34982
458.744	4.52594
458.951	4.56055
459.157	6.13135
459.363	4.87285
459.569	4.74942
459.775	5.51622
459.981	4.48344
460.187	4.99361
460.393	5.49254
460.599	5.95382
460.805	5.20181
461.011	5.20681
461.217	5.9269
461.423	6.07381
461.629	4.92573
461.835	5.64314
462.041	4.95844
462.247	6.66136
462.453	4.82532
462.658	5.01018
462.864	5.7325
463.07	5.16966
463.276	5.26902
463.482	5.27579
463.688	6.26773
463.893	4.48693
464.099	4.89547
464.305	6.48734
464.511	4.5818
464.716	5.00575
464.922	5.72537
465.128	4.54407
465.333	6.54083
465.539	5.77089
465.745	4.99318
465.95	5.29633
466.156	7.41481
466.362	6.12396
466.567	5.12059
466.773	4.78087
466.978	6.42973
467.184	4.29985
467.389	3.38569
467.595	5.60315
467.8	4.43356
468.006	6.46773
468.211	6.18116
468.417	4.27845
468.622	5.6365
468.828	5.57481
469.033	5.43291
469.239	7.68817
469.444	4.6957
469.649	5.84522
469.855	5.13267
470.06	5.38051
470.266	4.26801
470.471	5.79351
470.676	5.44417
470.881	3.67712
471.087	6.35728
471.292	6.87082
471.497	4.15151
471.703	5.02228
471.908	4.54754
472.113	5.3198
472.318	5.95957
472.523	4.46227
472.729	5.50982
472.934	5.56125
473.139	4.94774
473.344	5.62665
473.549	6.34529
473.754	4.48602
473.959	6.99738
474.164	4.60945
474.369	5.08706
474.575	5.90479
474.78	5.21807
474.985	4.84038
475.19	3.69835
475.395	4.62256
475.6	4.95357
475.804	6.20093
476.009	5.16256
476.214	5.14357
476.419	4.73305
476.624	3.85603
476.829	4.37537
477.034	5.57894
477.239	4.50125
477.444	5.2436
477.648	5.36175
477.853	5.5495
478.058	4.69975
478.263	4.54007
478.468	4.32613
478.672	4.30406
478.877	6.02041
479.082	6.61248
479.287	5.35781
479.491	5.06642
479.696	4.1046
479.901	5.72263
480.105	5.55438
480.31	4.38476
480.515	4.86429
480.719	6.79747
480.924	4.38991
481.128	4.04217
481.333	4.91069
481.538	5.02648
481.742	4.45454
481.947	5.11046
482.151	5.34142
482.356	5.41269
482.56	6.77059
482.765	7.22743
482.969	8.84083
483.174	9.96977
483.378	11.66027
483.582	11.41873
483.787	12.45419
483.991	12.38043
484.196	12.44197
484.4	12.05021
484.604	12.27497
484.809	10.58191
485.013	10.10606
485.217	8.8179
485.422	7.78746
485.626	7.1824
485.83	6.81743
486.034	6.67759
486.239	7.03054
486.443	7.22409
486.647	7.1885
486.851	8.13261
487.055	8.95204
487.26	8.27725
487.464	8.83747
487.668	8.13239
487.872	8.18891
488.076	8.75724
488.28	8.13572
488.484	7.37012
488.688	7.28251
488.892	7.09512
489.096	6.66172
489.3	5.93217
489.504	5.63635
489.708	5.72493
489.912	5.60669
490.116	5.47309
490.32	4.96315
490.524	5.85547
490.728	6.23205
490.932	6.2897
491.136	6.39172
491.34	7.51953
491.544	7.64132
491.748	7.05526
491.951	7.21026
492.155	6.77588
492.359	6.66795
492.563	5.61521
492.767	5.24444
492.97	4.9564
493.174	4.43226
493.378	4.82055
493.582	4.20873
493.785	4.78056
493.989	5.00154
494.193	4.99587
494.396	4.58073
494.6	5.274
494.804	4.73552
495.007	4.35754
495.211	4.1563
495.414	4.51435
495.618	4.74162
495.822	5.56183
496.025	4.51187
496.229	5.20716
496.432	4.12908
496.636	4.55807
496.839	4.53148
497.043	5.88904
497.246	4.56174
497.45	4.2788
497.653	4.4896
497.856	4.80094
498.06	3.76709
498.263	4.39485
498.467	4.20354
498.67	5.28738
498.873	4.92266
499.077	4.34289
499.28	4.26773
499.483	4.75311
499.686	5.13733
499.89	4.74798
500.093	5.05298
500.296	3.99953
500.499	5.64322
500.703	4.53361
500.906	4.7969
501.109	6.01533
501.312	4.77776
501.515	4.3852
501.719	4.87142
501.922	5.81811
502.125	4.73701
502.328	4.44936
502.531	3.49309
502.734	4.52831
502.937	2.98303
503.14	4.49227
503.343	3.5908
503.546	4.22971
503.749	3.83462
503.952	4.7993
504.155	3.6114
504.358	4.89508
504.561	4.57318
504.764	3.56528
504.967	4.37863
505.17	4.49324
505.373	5.81663
505.576	4.40609
505.778	4.93564
505.981	3.88108
506.184	5.3689
506.387	3.06203
506.59	5.83069
506.793	5.32809
506.995	4.67787
507.198	2.81619
507.401	4.41163
507.604	4.53601
507.806	3.42234
508.009	3.5908
508.212	4.60151
508.414	3.81363
508.617	3.59412
508.82	4.13403
509.022	5.30896
509.225	4.45316
509.427	2.90559
509.63	5.19601
509.833	4.09921
510.035	3.98573
510.238	2.96262
510.44	5.08538
510.643	2.52996
510.845	6.08639
511.048	4.34629
511.25	3.72905
511.453	3.99908
511.655	4.5097
511.858	3.79081
512.06	4.74341
512.262	4.08096
512.465	4.72771
512.667	3.58395
512.869	3.22177
513.072	4.27123
513.274	4.77804
513.476	4.54426
513.679	4.74104
513.881	3.27288
514.083	5.50871
514.286	3.68387
514.488	3.70926
514.69	3.39276
514.892	2.98308
515.094	4.65808
515.297	3.6497
515.499	4.07973
515.701	3.20643
515.903	5.51355
516.105	5.42246
516.307	4.64031
516.509	2.40082
516.711	2.92939
516.913	4.04182
517.116	3.8485
517.318	3.46132
517.52	4.64728
517.722	4.26181
517.924	2.8572
518.126	3.99554
518.328	3.21185
518.529	4.03399
518.731	5.11413
518.933	3.27731
519.135	3.66472
519.337	4.6267
519.539	4.16361
519.741	2.44315
519.943	3.76749
520.145	3.50745
520.346	4.29359
520.548	3.57564
520.75	4.22484
520.952	3.60326
521.153	4.19459
521.355	4.25546
521.557	2.89807
521.759	4.06746
521.96	3.9003
522.162	3.10271
522.364	4.75579
522.565	3.33048
522.767	4.44866
522.969	4.7519
523.17	4.21888
523.372	4.21073
523.573	3.38596
523.775	3.76601
523.977	2.98922
524.178	5.0306
524.38	3.14981
524.581	4.24124
524.783	3.18288
524.984	4.23854
525.186	3.52477
525.387	3.96692
525.589	3.56042
525.79	3.1881
525.991	2.9271
526.193	3.76979
526.394	2.43306
526.596	3.69693
526.797	3.61561
526.998	3.13057
527.2	2.70534
527.401	4.20845
527.602	4.31023
527.803	5.86866
528.005	5.51415
528.206	6.08541
528.407	6.36451
528.608	5.95733
528.81	6.06468
529.011	5.277
529.212	6.3542
529.413	5.58397
529.614	4.9753
529.815	5.0109
530.017	4.60963
530.218	4.01559
530.419	3.26839
530.62	3.73541
530.821	3.83705
531.022	2.81802
531.223	4.03675
531.424	4.00857
531.625	3.78919
531.826	3.62162
532.027	3.53239
532.228	4.3763
532.429	3.91151
532.63	3.85226
532.831	4.13306
533.032	4.07307
533.233	4.58739
533.433	4.3249
533.634	4.56083
533.835	3.91709
534.036	3.34047
534.237	3.4695
534.438	3.21618
534.638	2.88155
534.839	3.10975
535.04	3.95408
535.241	3.19002
535.441	4.67789
535.642	3.70224
535.843	2.7765
536.043	2.85902
536.244	2.9892
536.445	3.12059
536.645	3.9919
536.846	3.5481
537.047	4.32914
537.247	2.80313
537.448	3.28407
537.648	3.56373
537.849	3.58751
538.049	3.53255
538.25	4.35569
538.451	4.00324
538.651	2.99916
538.851	4.1814
539.052	4.73447
539.252	4.41519
539.453	3.5799
539.653	3.7128
539.854	3.44963
540.054	3.39969
540.254	3.93408
540.455	4.31089
540.655	3.50873
540.855	4.09141
541.056	4.84288
541.256	4.19691
541.456	5.2068
541.657	4.13979
541.857	5.00431
542.057	3.5494
542.257	3.51586
542.458	4.23937
542.658	4.26388
542.858	2.83092
543.058	4.34601
543.258	3.82596
543.458	2.74028
543.659	2.57531
543.859	3.97018
544.059	4.0445
544.259	3.42148
544.459	4.44089
544.659	3.15895
544.859	4.107
545.059	3.10825
545.259	4.17818
545.459	3.87033
545.659	4.20659
545.859	3.56627
546.059	3.71447
546.259	2.95316
546.459	2.3117
546.659	2.84768
546.859	4.10932
547.059	3.75114
547.258	4.05259
547.458	3.92482
547.658	2.83313
547.858	2.91027
548.058	4.08294
548.258	3.683
548.457	3.20117
548.657	6.60478
548.857	3.72351
549.057	4.79383
549.256	4.51597
549.456	3.82911
549.656	2.278
549.855	6.30992
550.055	3.98018
550.255	5.99211
550.454	4.47874
550.654	5.22575
550.853	5.66148
551.053	5.39745
551.253	4.56551
551.452	4.67463
551.652	2.9483
551.851	2.8139
552.051	3.76475
552.25	3.54286
552.45	3.26423
552.649	3.82618
552.849	3.1159
553.048	4.10511
553.248	4.66564
553.447	3.15624
553.646	5.09458
553.846	6.05149
554.045	5.32676
554.244	3.02592
554.444	6.25152
554.643	3.50914
554.842	6.04224
555.042	6.71827
555.241	3.79312
555.44	3.58135
555.64	4.76842
555.839	6.53894
556.038	5.05765
556.237	4.02855
556.436	4.41216
556.636	5.04866
556.835	3.6985
557.034	6.27933
557.233	4.46815
557.432	3.23566
557.631	5.73054
557.83	4.57586
558.029	3.86738
558.228	4.10991
558.427	3.45811
558.626	4.92515
558.825	3.57943
559.024	4.9287
559.223	6.71295
559.422	4.48567
559.621	5.25083
559.82	2.00231
560.019	4.59515
560.218	4.12832
560.417	1.47873
560.616	4.0722
560.815	8.30189
561.014	2.9291
561.212	5.7073
561.411	4.69068
561.61	2.65437
561.809	4.19981
562.008	6.47632
562.206	4.47605
562.405	5.48005
562.604	4.67469
562.803	4.95314
563.001	4.50529
563.2	2.9885
563.399	5.37764
563.597	3.31891
563.796	4.84462
563.995	3.22589
564.193	5.25927
564.392	4.10645
564.59	7.094
564.789	2.42437
564.988	4.0449
565.186	4.59138
565.385	4.16815
565.583	3.85482
565.782	4.37402
565.98	3.99874
566.179	4.42527
566.377	2.98146
566.575	3.5218
566.774	5.47842
566.972	5.4036
567.171	6.69733
567.369	6.21514
567.567	4.64285
567.766	4.94401
567.964	2.34961
568.162	5.40393
568.361	5.99705
568.559	4.72149
568.757	5.08862
568.956	4.90244
569.154	4.5098
569.352	5.87656
569.55	4.58856
569.748	4.63374
569.947	3.8949
570.145	3.77706
570.343	3.59484
570.541	5.77263
570.739	3.12291
570.937	4.77532
571.135	5.13276
571.333	6.56702
571.532	6.51456
571.73	4.93693
571.928	5.78812
572.126	5.15297
572.324	3.97912
572.522	6.10157
572.72	7.62501
572.918	4.82334
573.116	5.15273
573.313	4.76196
573.511	4.50043
573.709	4.36934
573.907	5.76102
574.105	4.68691
574.303	2.83871
574.501	3.22734
574.699	5.05061
574.896	5.24332
575.094	5.36861
575.292	3.57376
575.49	5.86982
575.688	4.74789
575.885	6.58903
576.083	7.52874
576.281	5.77436
576.478	4.31972
576.676	5.96747
576.874	3.77862
577.071	5.04492
577.269	8.27169
577.467	5.33634
577.664	5.53772
577.862	6.50917
578.059	4.51269
578.257	6.2466
578.455	5.23646
578.652	5.52686
578.85	3.58811
579.047	5.73661
579.245	5.71222
579.442	5.56807
579.64	5.63227
579.837	3.46322
580.034	9.27829
580.232	5.43966
580.429	4.363
580.627	6.82721
580.824	7.55755
581.021	6.7248
581.219	5.26341
581.416	4.50266
581.613	7.65181
581.811	7.53043
582.008	4.84635
582.205	7.11424
582.402	6.36743
582.6	8.07878
582.797	6.41194
582.994	6.8226
583.191	7.36524
583.388	6.27736
583.586	7.36285
583.783	7.76627
583.98	4.94974
584.177	6.55726
584.374	2.15343
584.571	6.48837
584.768	6.38101
584.965	5.89465
585.162	7.41537
585.359	8.76878
585.556	6.67097
585.753	7.01771
585.95	4.64485
586.147	5.43756
586.344	7.43444
586.541	6.63863
586.738	4.61099
586.935	6.18975
587.132	5.67278
587.329	7.99876
587.526	6.43881
587.722	13.56976
587.919	4.48613
588.116	6.98389
588.313	8.35327
588.51	9.76038
588.706	6.15474
588.903	7.35284
589.1	7.89685
589.297	10.58662
589.493	6.5159
589.69	7.21616
589.887	5.87769
590.083	4.7611
590.28	5.30915
590.477	7.99328
590.673	7.86898
590.87	8.60631
591.067	6.0243
591.263	7.69062
591.46	7.28171
591.656	6.322
591.853	8.8715
592.049	5.9064
592.246	6.22947
592.442	9.03479
592.639	8.60674
592.835	5.45887
593.032	7.69016
593.228	4.79964
593.425	4.76174
593.621	4.64256
593.817	7.36947
594.014	5.86696
594.21	6.96264
594.406	8.35905
594.603	7.63907
594.799	6.1573
594.995	3.59128
595.192	8.47683
595.388	6.34743
595.584	6.13133
595.78	4.805
595.977	9.6495
596.173	9.11312
596.369	6.45102
596.565	5.30742
596.761	4.71847
596.957	8.29311
597.154	5.5371
597.35	5.9377
597.546	5.72581
597.742	7.65616
597.938	7.29647
598.134	5.73322
598.33	7.38296
598.526	9.39924
598.722	8.06333
598.918	9.98488
599.114	8.09436
599.31	6.13093
599.506	7.71166
599.702	6.2106
599.898	8.15583
600.094	8.7823
600.29	8.5869
600.485	8.96052
600.681	6.59043
600.877	10.07022
601.073	7.53972
601.269	10.70366
601.465	9.6093
601.66	6.24299
601.856	4.70417
602.052	10.07193
602.248	6.90974
602.443	4.55954
602.639	5.61141
602.835	6.18634
603.03	5.95088
603.226	8.31364
603.422	5.64877
603.617	6.74669
603.813	6.58356
604.009	6.44624
604.204	8.69483
604.4	4.98834
604.595	8.36389
604.791	5.77218
604.986	7.48152
605.182	5.81998
605.377	6.63555
605.573	6.34724
605.768	7.40294
605.964	8.2864
606.159	8.51238
606.355	9.35803
606.55	7.20657
606.746	9.33476
606.941	7.67451
607.136	11.02793
607.332	12.62992
607.527	5.56498
607.722	8.48647
607.918	7.85408
608.113	6.55294
608.308	8.96088
608.503	8.44891
608.699	8.19403
608.894	8.2112
609.089	6.43214
609.284	7.86375
609.479	6.94456
609.675	8.54733
609.87	7.02763
610.065	8.60148
610.26	9.30781
610.455	8.83078
610.65	7.4232
610.845	7.9921
611.04	9.59828
611.235	8.08522
611.43	7.41408
611.625	6.29313
611.82	10.64579
612.015	6.89209
612.21	11.24888
612.405	6.02077
612.6	11.9335
612.795	11.04525
612.99	9.6271
613.185	6.48216
613.38	7.18312
613.575	8.89084
613.77	13.55608
613.965	5.87916
614.159	7.00346
614.354	11.2626
614.549	10.80068
614.744	10.20849
614.938	6.6613
615.133	6.12493
615.328	11.2799
615.523	11.03775
615.717	14.2196
615.912	7.49332
616.107	9.02814
616.301	8.72127
616.496	7.51561
616.691	12.23539
616.885	10.38692
617.08	14.21536
617.274	11.66884
617.469	13.4435
617.664	10.29353
617.858	7.79688
618.053	10.03147
618.247	8.63846
618.442	4.95862
618.636	10.83098
618.831	8.18812
619.025	8.40461
619.219	14.23314
619.414	3.0059
619.608	9.18424
619.803	7.92091
619.997	13.54459
620.191	11.42396
620.386	10.10987
620.58	9.50386
620.774	6.11657
620.969	6.17623
621.163	9.75816
621.357	7.05997
621.551	8.70473
621.746	9.55184
621.94	8.83423
622.134	16.54271
622.328	13.86882
622.522	6.07644
622.716	11.68753
622.911	11.50097
623.105	11.33316
623.299	10.47394
623.493	16.0393
623.687	8.09032
623.881	8.65136
624.075	10.69921
624.269	11.88658
624.463	5.90848
624.657	6.39129
624.851	10.73613
625.045	11.41406
625.239	11.04807
625.433	8.19991
625.627	12.38636
625.821	8.44712
626.015	7.80341
626.209	9.32654
626.403	6.6147
626.596	10.11177
626.79	10.50291
626.984	7.13408
627.178	10.15916
627.372	9.90306
627.565	11.01382
627.759	6.28715
627.953	6.69329
628.147	10.32671
628.34	10.66901
628.534	13.64816
628.728	9.02801
628.921	11.27591
629.115	10.88713
629.309	11.72907
629.502	12.17385
629.696	10.41216
629.89	9.69033
630.083	10.79364
630.277	10.88424
630.47	13.57517
630.664	9.48961
630.857	6.90977
631.051	11.83649
631.244	12.46562
631.438	12.08134
631.631	7.93561
631.825	13.03945
632.018	11.8159
632.212	14.16238
632.405	12.88167
632.598	8.62153
632.792	10.48342
632.985	4.90639
633.178	9.33402
633.372	9.78087
633.565	9.98922
633.758	12.81585
633.952	8.24392
634.145	7.95839
634.338	9.651
634.531	9.19155
634.724	8.64027
634.918	10.42005
635.111	9.6249
635.304	9.22713
635.497	15.58752
635.69	11.31732
635.883	13.41975
636.077	7.93012
636.27	11.67622
636.463	10.69286
636.656	11.14092
636.849	9.61156
637.042	11.35973
637.235	14.58165
637.428	12.04938
637.621	11.58188
637.814	14.56106
638.007	14.52135
638.2	14.80047
638.393	15.76783
638.586	7.95956
638.778	9.67405
638.971	11.02135
639.164	15.12572
639.357	11.91159
639.55	14.65634
639.743	13.30632
639.935	12.87695
640.128	16.91056
640.321	13.40173
640.514	12.05404
640.707	17.65748
640.899	13.24675
641.092	7.84404
641.285	32.15648
641.477	5.81355
641.67	17.31947
641.863	15.65405
642.055	12.70507
642.248	12.27783
642.441	11.03018
642.633	13.41157
642.826	14.75072
643.018	15.78564
643.211	17.12739
643.403	16.38028
643.596	17.63687
643.788	17.87504
643.981	11.14703
644.173	14.33847
644.366	11.33983
644.558	7.91856
644.751	15.1358
644.943	8.13127
645.135	16.77323
645.328	17.73865
645.52	14.58186
645.712	15.68669
645.905	21.36486
646.097	9.01854
646.289	13.49172
646.482	18.05789
646.674	10.99304
646.866	15.85104
647.058	14.14227
647.251	9.9766
647.443	11.43949
647.635	12.01339
647.827	9.74213
648.019	10.55897
648.211	12.35576
648.404	12.84686
648.596	17.16966
648.788	13.40623
648.98	13.61976
649.172	13.77637
649.364	13.58597
649.556	7.35
649.748	20.33814
649.94	9.45454
650.132	14.78686
650.324	10.1523
650.516	10.8995
650.708	16.48298
650.9	8.37055
651.092	10.68222
651.284	8.26149
651.476	10.03198
651.667	14.41912
651.859	16.78849
652.051	12.29874
652.243	13.20387
652.435	11.7384
652.627	13.91656
652.818	14.60149
653.01	7.97723
653.202	10.50154
653.394	11.79819
653.585	14.73505
653.777	26.91129
653.969	17.2295
654.16	17.01957
654.352	10.22928
654.544	12.93289
654.735	16.35182
654.927	14.04971
655.118	18.42335
655.31	16.1287
655.502	16.35635
655.693	11.72215
655.885	15.2417
656.076	17.63452
656.268	14.57993
656.459	17.25288
656.651	18.03327
656.842	12.31439
657.034	10.94355
657.225	15.78729
657.416	17.88134
657.608	17.73446
657.799	12.85681
657.99	16.02761
658.182	10.57584
658.373	10.99908
658.564	15.24694
658.756	13.41189
658.947	12.39646
659.138	9.90906
659.33	11.16507
659.521	10.71906
659.712	12.6111
659.903	12.345
660.094	11.22651
660.286	8.37028
660.477	19.13554
660.668	15.09947
660.859	13.41962
661.05	8.86549
661.241	15.61264
661.432	15.40033
661.623	13.25713
661.814	12.98994
662.006	8.57442
662.197	15.1768
662.388	17.63337
662.579	14.49276
662.77	19.14309
662.96	23.90641
663.151	17.4542
663.342	8.544
663.533	16.75773
663.724	14.46844
663.915	20.49058
664.106	14.47893
664.297	21.31746
664.488	17.89155
664.678	12.88344
664.869	17.21354
665.06	19.04697
665.251	15.57675
665.442	16.88658
665.632	11.97453
665.823	22.1105
666.014	4.33135
666.204	17.18626
666.395	19.91706
666.586	25.48677
666.776	18.14578
666.967	21.73699
667.158	14.46841
667.348	20.30528
667.539	11.21539
667.729	17.86786
667.92	12.51778
668.111	18.69184
668.301	17.33835
668.492	14.13372
668.682	14.34624
668.873	14.2962
669.063	11.82136
669.253	15.33066
669.444	19.34099
669.634	14.5161
669.825	22.13019
670.015	18.47616
670.206	12.00514
670.396	23.84181
670.586	15.05942
670.777	17.72113
670.967	8.15126
671.157	14.93297
671.347	13.15389
671.538	22.1804
671.728	17.35334
671.918	22.43663
672.108	20.30294
672.299	15.21676
672.489	17.03424
672.679	13.72671
672.869	17.43263
673.059	23.2597
673.249	18.30477
673.44	13.33438
673.63	16.05378
673.82	19.7752
674.01	12.70991
674.2	18.12117
674.39	28.31693
674.58	18.96585
674.77	16.82783
674.96	16.15745
675.15	33.30225
675.34	21.0548
675.53	16.52037
675.72	14.56987
675.91	11.01608
676.099	24.22289
676.289	25.69379
676.479	20.95828
676.669	15.05777
676.859	17.92303
677.049	11.88987
677.238	16.15354
677.428	24.49212
677.618	18.20904
677.808	21.43103
677.997	18.606
678.187	12.48471
678.377	16.45296
678.567	14.82334
678.756	14.72286
678.946	15.24001
679.136	10.70383
679.325	13.88545
679.515	12.54896
679.704	11.07781
679.894	17.75681
680.084	16.20554
680.273	20.74369
680.463	12.25492
680.652	13.13124
680.842	15.67233
681.031	19.37836
681.221	12.5243
681.41	18.79878
681.6	15.76328
681.789	18.9231
681.978	21.68773
682.168	17.82701
682.357	17.43757
682.547	19.70987
682.736	17.2863
682.925	23.11726
683.115	22.85418
683.304	21.37445
683.493	19.01769
683.682	20.06851
683.872	19.19805
684.061	23.01791
684.25	19.89165
684.439	25.91359
684.629	19.96739
684.818	32.87885
685.007	18.22195
685.196	17.00542
685.385	25.47601
685.574	20.13514
685.763	20.46349
685.952	19.89092
686.142	13.82428
686.331	25.80781
686.52	10.95575
686.709	26.0298
686.898	25.49909
687.087	21.45725
687.276	27.1305
687.465	23.38417
687.654	17.24303
687.842	26.71825
688.031	12.47661
688.22	24.96042
688.409	20.26136
688.598	20.28124
688.787	31.10315
688.976	19.10369
689.165	27.75206
689.353	17.72947
689.542	22.31964
689.731	23.46911
689.92	29.4321
690.108	24.91322
690.297	19.27423
690.486	21.02231
690.675	23.93452
690.863	28.76697
691.052	28.25619
691.241	22.02921
691.429	21.76043
691.618	27.46218
691.806	14.76301
691.995	20.21196
692.184	20.34761
692.372	17.78624
692.561	21.96629
692.749	21.5803
692.938	33.52408
693.126	24.20524
693.315	18.55393
693.503	24.59557
693.692	24.69441
693.88	26.44111
694.068	32.9501
694.257	21.35181
694.445	23.10435
694.634	10.40833
694.822	27.26446
695.01	27.93774
695.199	29.73625
695.387	29.66329
695.575	29.25587
695.763	21.54365
695.952	19.65224
696.14	14.25264
696.328	18.70577
696.516	22.04193
696.705	23.35274
696.893	22.1647
697.081	11.64233
697.269	24.34473
697.457	14.67671
697.645	14.42445
697.833	22.75845
698.021	14.92866
698.21	16.79145
698.398	18.72642
698.586	13.94116
698.774	13.38578
698.962	17.83223
699.15	14.29889
699.338	11.86702
699.526	21.10824
699.714	16.5592
699.901	17.11975
700.089	25.18059
700.277	16.39945
700.465	19.25514
700.653	24.80035
700.841	23.35927
701.029	17.17875
701.217	28.99378
701.404	22.76269
701.592	30.12201
701.78	32.17558
701.968	20.6592
702.155	22.00482
702.343	14.39428
702.531	30.70237
702.718	25.02038
702.906	22.37873
703.094	19.83335
703.281	31.24209
703.469	21.62082
703.657	29.693
703.844	42.57861
704.032	33.88385
704.219	19.74399
704.407	25.77001
704.595	31.75324
704.782	24.7506
704.97	22.06474
705.157	20.54036
705.345	34.01869
705.532	40.81791
705.719	25.21831
705.907	32.76046
706.094	24.72502
706.282	36.10405
706.469	24.171
706.656	25.75638
706.844	23.52533
707.031	30.413
707.218	26.57363
707.406	35.27206
707.593	29.32048
707.78	29.07487
707.968	24.43857
708.155	19.52749
708.342	27.62354
708.529	28.45926
708.716	25.43263
708.904	35.02324
709.091	29.8573
709.278	20.17066
709.465	37.70857
709.652	37.77532
709.839	33.42546
710.026	27.01018
710.213	16.27757
710.4	28.35063
710.587	31.91725
710.774	33.85925
710.961	33.71984
711.148	26.90972
711.335	33.14072
711.522	26.73479
711.709	27.82671
711.896	40.216
712.083	32.22989
712.27	22.33147
712.457	27.95371
712.644	17.55937
712.831	40.28858
713.017	28.71287
713.204	31.98104
713.391	22.66958
713.578	36.7717
713.765	35.74054
713.951	31.27541
714.138	50.04257
714.325	32.31352
714.512	28.16225
714.698	23.42621
714.885	38.13993
715.072	30.2694
715.258	29.56976
715.445	24.50345
715.631	36.84563
715.818	12.67695
716.005	23.88482
716.191	32.38537
716.378	26.68041
716.564	34.7351
716.751	22.11942
716.937	27.0341
717.124	37.7863
717.31	23.84317
717.497	39.82941
717.683	24.36681
717.869	46.80241
718.056	25.83845
718.242	34.58994
718.429	29.74735
718.615	21.66556
718.801	29.27551
718.988	37.56404
719.174	33.93531
719.36	29.9556
719.547	40.38646
719.733	32.93494
719.919	32.30075
720.105	36.71674
720.291	30.40455
720.478	33.23623
720.664	29.77228
720.85	28.17002
721.036	55.7116
721.222	43.92517
721.408	31.45014
721.595	49.30755
721.781	44.08489
721.967	40.37563
722.153	45.59393
722.339	38.00612
722.525	34.78135
722.711	25.12948
722.897	21.3754
723.083	29.14449
723.269	42.08089
723.455	53.23296
723.641	59.31133
723.827	33.66243
724.012	38.0013
724.198	31.22537
724.384	45.49203
724.57	36.93556
724.756	21.69155
724.942	18.28092
725.127	41.49461
725.313	45.03476
725.499	44.74818
725.685	49.81399
725.87	36.08609
726.056	28.26186
726.242	45.87476
726.428	21.40089
726.613	42.05111
726.799	31.40271
726.985	25.40702
727.17	21.43705
727.356	49.61922
727.541	26.50773
727.727	33.19554
727.913	39.90974
728.098	29.76174
728.284	40.09093
728.469	23.85282
728.655	27.19036
728.84	40.64633
729.026	40.55057
729.211	41.16885
729.397	37.46128
729.582	40.2613
729.767	33.55817
729.953	36.91711
730.138	42.87484
730.323	15.5121
730.509	25.84331
730.694	48.97809
730.879	37.17666
731.065	34.00904
731.25	53.81654
731.435	38.71531
731.621	20.89234
731.806	29.2173
731.991	36.61198
732.176	22.3534
732.361	45.48577
732.547	36.05712
732.732	21.9089
732.917	55.0163
733.102	24.57258
733.287	27.61607
733.472	34.1969
733.657	37.10935
733.842	22.60021
734.027	31.19566
734.212	34.10858
734.397	27.4804
734.582	36.38109
734.767	44.55895
734.952	51.21399
735.137	13.48917
735.322	49.57897
735.507	39.5927
735.692	39.3907
735.877	57.7297
736.062	53.60674
736.247	40.67383
736.431	37.00368
736.616	47.98183
736.801	41.3893
736.986	38.01526
737.171	28.4235
737.355	23.18196
737.54	48.58333
737.725	36.96556
737.909	64.31563
738.094	31.68631
738.279	45.50683
738.463	32.79835
738.648	41.94266
738.833	41.51507
739.017	55.85457
739.202	34.55808
739.386	35.95892
739.571	28.29454
739.756	44.10162
739.94	36.71661
740.125	46.68724
740.309	31.58516
740.494	46.01967
740.678	40.94319
740.863	43.38321
741.047	40.45132
741.231	52.46772
741.416	29.31538
741.6	54.91973
741.785	30.34633
741.969	46.47475
742.153	52.19938
742.338	17.07907
742.522	40.07598
742.706	48.03781
742.89	25.68162
743.075	40.32192
743.259	56.01614
743.443	48.70948
743.627	51.41294
743.812	64.01639
743.996	23.25159
744.18	36.54001
744.364	36.0166
744.548	67.97311
744.732	36.91247
744.916	49.5281
745.1	46.89828
745.285	38.51117
745.469	46.61749
745.653	61.90353
745.837	23.75533
746.021	67.39203
746.205	52.1546
746.389	43.5849
746.573	38.38317
746.757	60.26909
746.94	36.0117
747.124	53.60654
747.308	28.90067
747.492	52.66958
747.676	34.31556
747.86	67.40925
748.044	35.67874
748.227	20.46052
748.411	82.94693
748.595	41.10394
748.779	30.76648
748.963	46.38998
749.146	40.93894
749.33	31.73229
749.514	30.4194
749.697	56.22637
749.881	35.55799
750.065	31.95911
750.248	41.81146
750.432	70.27713
750.616	40.79755
750.799	28.59526
750.983	65.59008
751.166	72.65082
751.35	23.32177
751.533	47.77848
751.717	58.64877
751.9	61.59093
752.084	38.40826
752.267	30.54236
752.451	33.225
752.634	44.00617
752.818	49.62778
753.001	54.03529
753.184	53.725
753.368	46.03006
753.551	5.8604
753.734	33.34792
753.918	67.07489
754.101	33.79602
754.284	52.14641
754.467	34.70784
754.651	35.73757
754.834	34.64824
755.017	55.93847
755.2	55.52492
755.384	29.58494
755.567	51.8374
755.75	57.08502
755.933	37.96247
756.116	44.31612
756.299	35.86818
756.482	31.53412
756.665	49.06526
756.848	44.08039
757.032	47.21058
757.215	26.8374
757.398	31.99624
757.581	31.24498
757.764	78.2794
757.947	42.61145
758.129	58.18497
758.312	10.97548
758.495	40.18646
758.678	41.69433
758.861	39.16393
759.044	66.62568
759.227	33.1555
759.41	34.30828
759.592	52.21626
759.775	41.44011
759.958	56.50517
760.141	28.33841
760.324	73.11031
760.506	62.80577
760.689	56.63113
760.872	77.94819
761.054	50.13772
761.237	40.67082
761.42	46.83921
761.602	54.32689
761.785	49.23453
761.968	55.73055
762.15	67.19743
762.333	40.63039
762.515	46.41842
762.698	34.22797
762.88	48.68599
763.063	44.59157
763.245	48.34195
763.428	28.91742
763.61	32.96077
763.793	25.90134
763.975	42.2487
764.158	35.0292
764.34	33.00865
764.522	28.59139
764.705	38.71465
764.887	57.94499
765.069	23.21785
765.252	51.55405
765.434	52.70641
765.616	42.3395
765.799	36.88866
765.981	52.47787
766.163	34.41182
766.345	57.1513
766.528	36.69965
766.71	14.12727
766.892	43.52038
767.074	60.60792
767.256	40.65682
767.438	66.95007
767.62	49.8464
767.802	74.90554
767.985	53.55686
768.167	73.7837
768.349	36.69959
768.531	54.35019
768.713	48.32272
768.895	58.73032
769.077	53.15417
769.259	83.91178
769.441	119.36404
769.623	61.09887
769.804	67.91974
769.986	69.58687
770.168	86.6421
770.35	102.10512
770.532	72.96567
770.714	80.68135
770.896	83.65445
771.077	31.84641
771.259	85.61897
771.441	68.12916
771.623	95.48968
771.804	113.53949
771.986	32.04752
772.168	53.53168
772.35	87.47224
772.531	115.62154
772.713	64.73031
772.894	91.79524
773.076	66.16636
773.258	56.73067
773.439	95.55642
773.621	105.55069
773.802	47.55437
773.984	55.20999
774.166	71.5015
774.347	99.44477
774.529	89.29121
774.71	26.07379
774.891	59.35941
775.073	57.48333
775.254	96.98274
775.436	56.23805
775.617	109.33179
775.799	56.96828
775.98	100.05135
776.161	104.37084
776.343	107.31483
776.524	63.43308
776.705	61.68894
776.886	30.63122
777.068	76.489
777.249	129.70954
777.43	114.94817
777.611	44.19765
777.793	60.83683
777.974	106.67823
778.155	61.33228
778.336	47.70321
778.517	117.53675
778.698	52.89583
778.879	30.69127
779.061	10.96974
779.242	76.476
779.423	77.06192
779.604	57.48836
779.785	65.65689
779.966	73.51318
780.147	93.82548
780.328	94.35391
780.509	136.32974
780.69	84.59236
780.871	52.19327
781.051	36.91868
781.232	75.87918
781.413	69.80813
781.594	59.55741
781.775	56.15127
781.956	51.43213
782.137	29.19224
782.317	53.72752
782.498	77.77306
782.679	66.44535
782.86	72.37018
783.04	55.29118
783.221	75.14003
783.402	115.03708
783.583	70.60083
783.763	85.18169
783.944	53.46489
784.124	35.91389
784.305	107.32246
784.486	82.72531
784.666	68.84136
784.847	36.19466
785.027	135.25595
785.208	52.4863
785.388	56.24961
785.569	56.46035
785.749	61.45486
785.93	54.42471
786.11	36.46663
786.291	81.30781
786.471	74.0446
786.652	87.92955
786.832	63.74231
787.012	75.27301
787.193	42.85857
787.373	66.07822
787.553	57.18388
787.734	76.10735
787.914	60.7829
788.094	82.84304
788.275	75.63793
788.455	60.91989
788.635	40.27498
788.815	72.07958
788.995	45.86447
789.176	35.55923
789.356	49.50977
789.536	61.49611
789.716	80.6827
789.896	52.51942
790.076	57.82631
790.256	73.59812
790.436	20.5734
790.616	49.34633
790.796	76.45153
790.976	57.08884
791.156	50.06017
791.336	87.62224
791.516	78.84687
791.696	65.42653
791.876	34.71165
792.056	71.66136
792.236	88.56979
792.416	81.77465
792.596	80.06394
792.776	77.89343
792.956	82.30676
793.135	100.88746
793.315	42.4736
793.495	98.6587
793.675	81.83213
793.854	86.44865
794.034	88.1962
794.214	43.67761
794.394	86.82461
794.573	97.31546
794.753	68.39353
794.933	48.63391
795.112	71.59094
795.292	84.78101
795.472	112.44876
795.651	40.14995
795.831	64.73034
796.01	61.00086
796.19	63.69826
796.369	65.05862
796.549	78.53132
796.728	63.68698
796.908	37.3976
797.087	43.19516
797.267	56.18362
797.446	43.07902
797.626	82.73399
797.805	78.04989
797.984	49.71098
798.164	85.74157
798.343	45.2185
798.522	70.3418
798.702	70.74143
798.881	39.51725
799.06	63.08968
799.239	25.84794
799.419	46.28949
799.598	101.26973
799.777	80.98079
799.956	98.75103
800.136	59.72831
800.315	53.16417
800.494	75.29189
800.673	98.70416
800.852	82.39042
801.031	96.04876
801.21	83.92152
801.389	56.42692
801.568	70.87336
801.747	113.51737
801.926	70.62545
802.105	106.87323
802.284	58.23305
802.463	105.60165
802.642	72.62777
802.821	71.18973
803	102.34476
803.179	90.29523
803.358	101.45698
803.537	50.25706
803.716	71.49364
803.895	52.23545
804.073	64.0656
804.252	54.057
804.431	76.46139
804.61	67.61904
804.789	93.78129
804.967	57.41185
805.146	55.31559
805.325	115.71736
805.503	79.61318
805.682	37.97341
805.861	138.01392
806.039	99.86455
806.218	53.65763
806.397	74.95932
806.575	67.14987
806.754	77.64577
806.932	47.71096
807.111	107.20472
807.289	93.02601
807.468	74.84972
807.646	96.23187
807.825	84.8598
808.003	75.44867
808.182	97.90016
808.36	76.81872
808.539	53.33017
808.717	113.09613
808.895	54.0625
809.074	75.37665
809.252	72.61366
809.43	84.59945
809.609	94.13467
809.787	115.45539
809.965	65.19605
810.144	74.48145
810.322	66.76862
810.5	79.39415
810.678	64.29456
810.856	133.10954
811.035	104.53718
811.213	88.40428
811.391	106.48742
811.569	71.91095
811.747	146.42064
811.925	105.05268
812.103	60.26771
812.281	73.5295
812.459	123.86899
812.637	125.77471
812.816	101.00844
812.994	126.09768
813.171	105.6885
813.349	86.27503
813.527	103.25582
813.705	113.93442
813.883	141.10845
814.061	99.30221
814.239	126.51576
814.417	138.32942
814.595	88.64126
814.773	80.85008
814.95	85.47896
815.128	90.05946
815.306	76.91042
815.484	69.07824
815.662	55.37706
815.839	50.24516
816.017	56.91147
816.195	106.38706
816.372	63.44884
816.55	93.21401
816.728	117.08065
816.905	72.41218
817.083	126.60673
817.261	77.58355
817.438	141.97376
817.616	127.09445
817.793	65.4426
817.971	98.56387
818.148	91.03557
818.326	117.10239
818.503	86.56506
818.681	115.0119
818.858	62.87036
819.036	77.08165
819.213	81.52697
819.391	60.9694
819.568	54.76227
819.745	51.85195
819.923	93.97332
820.1	61.38879
820.277	51.76303
820.455	63.92495
820.632	66.67754
820.809	66.53904
820.986	42.76461
821.164	33.90633
821.341	30.37035
821.518	40.32051
821.695	28.96877
821.872	27.75036
822.05	23.22119
822.227	17.48201
822.404	19.34258
822.581	23.03602
822.758	18.84607
822.935	19.1536
823.112	23.50047
823.289	18.5742
823.466	24.66921
823.643	22.78346
823.82	28.585
823.997	25.69259
824.174	32.30471
824.351	44.35068
824.528	42.02838
824.705	38.26984
824.882	43.63176
825.059	55.437
825.236	37.76027
825.412	37.80124
825.589	48.15957
825.766	68.4135
825.943	40.85925
826.12	48.26968
826.296	32.60982
826.473	40.38662
826.65	40.07334
826.827	50.95769
827.003	31.94913
827.18	36.24896
827.357	42.45482
827.533	37.55871
827.71	20.17593
827.887	32.29357
828.063	39.13734
828.24	33.73638
828.416	48.65709
828.593	39.46999
828.769	59.49811
828.946	67.16736
829.122	70.47976
829.299	64.98536
829.475	36.50401
829.652	62.94734
829.828	109.49512
830.005	61.73988
830.181	89.89483
830.357	59.94634
830.534	90.55703
830.71	61.52549
830.886	86.30425
831.063	82.87218
831.239	110.89454
831.415	47.04283
831.592	106.65258
831.768	68.96682
831.944	55.71933
832.12	103.5392
832.296	101.55279
832.473	87.31667
832.649	60.13993
832.825	82.283
833.001	45.48417
833.177	71.70166
833.353	62.55068
833.529	33.66127
833.705	53.10956
833.881	36.13875
834.058	37.46613
834.234	41.13882
834.41	41.45625
834.586	32.27667
834.761	40.58684
834.937	46.74471
835.113	50.67863
835.289	45.05167
835.465	56.3543
835.641	46.2436
835.817	58.1816
835.993	100.66439
836.169	47.08696
836.344	71.98929
836.52	84.76379
836.696	78.4329
836.872	53.12121
837.048	166.74301
837.223	62.71
837.399	141.06388
837.575	101.8865
837.75	96.27362
837.926	126.55953
838.102	202.07568
838.277	158.13209
838.453	200.37076
838.628	189.12579
838.804	83.4041
838.98	194.02897
839.155	85.18336
839.331	122.70807
839.506	85.10682
839.682	95.7502
839.857	110.23961
840.033	129.02173
840.208	69.75568
840.384	30.80943
840.559	69.6571
840.734	105.23156
840.91	147.10148
841.085	91.55415
841.26	89.14792
841.436	84.3197
841.611	77.15493
841.786	135.79285
841.962	175.83703
842.137	102.6158
842.312	62.98619
842.487	87.22217
842.663	70.24957
842.838	90.29859
843.013	268.41809
843.188	140.76949
843.363	120.40538
843.538	251.91022
843.714	247.51656
843.889	254.89076
844.064	248.24479
844.239	206.38464
844.414	259.10306
844.589	168.05692
844.764	298.26054
844.939	283.80243
845.114	365.03264
845.289	315.96817
845.464	354.15411
845.639	267.6854
845.814	143.65911
845.989	179.26706
846.163	178.29813
846.338	238.99457
846.513	321.67561
846.688	207.11675
846.863	222.36601
847.038	171.68745
847.212	218.6655
847.387	215.92638
847.562	218.49654
847.737	236.54438
847.911	102.99183
848.086	131.23944
848.261	408.07293
848.435	193.01148
848.61	314.9034
848.785	130.71078
848.959	251.16089
849.134	369.9027
849.308	502.37869
849.483	216.74896
849.658	332.87596
849.832	191.77182
850.007	158.88722
850.181	412.43285
850.356	161.6641
850.53	365.08065
850.705	135.10514
850.879	67.37676
851.053	224.10033
851.228	183.72551
851.402	267.70407
851.577	332.74046
851.751	314.71476
851.925	234.45879
852.099	95.22684
852.274	168.89739
852.448	202.57793
852.622	228.44861
852.797	211.83145
852.971	208.12566
853.145	250.7955
853.319	448.8844
853.493	336.47032
853.668	196.46509
853.842	381.7682
854.016	306.60266
854.19	403.72217
854.364	258.29699
854.538	266.82214
854.712	337.67466
854.886	224.91687
855.06	191.0052
855.234	78.04212
855.408	370.19405
855.582	327.42983
855.756	306.9823
855.93	376.66606
856.104	278.31375
856.278	311.64467
856.452	225.77697
856.626	275.92176
856.8	445.28935
856.973	283.05896
857.147	256.17341
857.321	246.19175
857.495	318.28825
857.669	231.73709
857.842	212.78363
858.016	355.43775
858.19	141.71698
858.364	570.95766
858.537	197.9172
858.711	240.28481
858.885	180.0344
859.058	168.32573
859.232	103.44808
859.405	111.05037
859.579	314.34851
859.753	254.01197
859.926	167.63143
860.1	100.14487
860.273	224.00638
860.447	403.42835
860.62	205.95024
860.794	433.16872
860.967	240.50153
861.141	330.40626
861.314	468.26784
861.487	268.94827
861.661	345.3062
861.834	400.43088
862.008	311.96763
862.181	256.89475
862.354	252.64173
862.528	268.1042
862.701	168.54289
862.874	120.80676
863.047	190.61962
863.221	210.79895
863.394	94.2943
863.567	339.74939
863.74	69.56991
863.913	327.90853
864.087	280.49579
864.26	291.80864
864.433	207.98419
864.606	459.69453
864.779	233.75681
864.952	109.01677
865.125	177.82907
865.298	230.49278
865.471	241.05146
865.644	404.01469
865.817	322.39908
865.99	287.92893
866.163	374.89772
866.336	194.96605
866.509	213.60786
866.682	179.57742
866.855	321.55671
867.028	127.90535
867.2	274.18191
867.373	75.36723
867.546	236.02824
867.719	427.23949
867.892	253.03453
868.064	154.90187
868.237	259.66879
868.41	249.37004
868.583	125.88496
868.755	130.10917
868.928	192.12352
869.101	433.27222
869.273	302.51282
869.446	263.6876
869.619	349.30602
869.791	218.54832
869.964	336.60126
870.136	306.33073
870.309	246.01432
870.481	242.32566
870.654	122.08498
870.826	244.76784
870.999	192.85268
871.171	289.7453
871.344	174.56738
871.516	220.28432
871.689	162.41076
871.861	222.92316
872.033	170.45956
872.206	205.90186
872.378	305.40642
872.55	214.76626
872.723	125.89349
872.895	189.3018
873.067	329.43017
873.24	298.72137
873.412	179.65064
873.584	208.46593
873.756	193.30904
873.928	243.48208
874.101	248.23074
874.273	257.16127
874.445	88.96839
874.617	132.53351
874.789	221.42972
874.961	190.9987
875.133	260.55662
875.305	218.50876
875.477	138.29251
875.649	115.30095
875.821	149.96082
875.993	334.73744
876.165	148.4904
876.337	236.94498
876.509	212.73762
876.681	237.85488
876.853	248.004
877.025	240.57713
877.197	158.77099
877.369	144.36228
877.541	270.35718
877.712	72.7239
877.884	133.78441
878.056	238.58407
878.228	133.01642
878.4	249.88362
878.571	135.0844
878.743	85.19854
878.915	200.3279
879.086	125.28413
879.258	157.20163
879.43	130.97117
879.601	114.6422
879.773	122.87652
879.945	28.28206
880.116	48.34772
880.288	31.35727
880.459	34.84847
880.631	26.86883
880.802	31.51214
880.974	30.05472
881.145	20.30974
881.317	28.17681
881.488	20.40703
881.66	23.92434
881.831	20.90339
882.002	31.35173
882.174	22.18129
882.345	30.30067
882.517	15.01287
882.688	39.77425
882.859	30.42617
883.03	55.31068
883.202	53.64184
883.373	44.19494
883.544	45.67077
883.715	79.63408
883.887	65.8074
884.058	53.77887
884.229	82.31851
884.4	79.21896
884.571	93.55252
884.742	71.3048
884.914	83.13117
885.085	118.15616
885.256	156.66224
885.427	130.39784
885.598	144.77408
885.769	150.15428
885.94	154.02976
886.111	96.89945
886.282	182.34244
886.453	134.56072
886.624	99.42818
886.795	184.94304
886.966	140.2388
887.136	183.69778
887.307	122.31622
887.478	255.06644
887.649	218.28074
887.82	213.0599
887.991	173.08153
888.161	246.71261
888.332	208.11915
888.503	110.60623
888.674	293.3537
888.844	326.93532
889.015	258.02335
889.186	127.13712
889.356	320.77514
889.527	96.26552
889.698	462.42857
889.868	171.16735
890.039	229.37201
890.209	184.87367
890.38	245.93358
890.551	205.41693
890.721	298.53633
890.892	261.3894
891.062	183.89238
891.233	239.40937
891.403	168.97581
891.574	129.822
891.744	189.4029
891.914	202.95819
892.085	181.87261
892.255	64.10008
892.425	288.60297
892.596	205.68273
892.766	223.77543
892.936	266.77254
893.107	232.26512
893.277	124.84852
893.447	101.48392
893.618	70.51613
893.788	157.19588
893.958	82.8388
894.128	80.41094
894.298	92.7402
894.468	121.93477
894.639	59.62084
894.809	37.70429
894.979	63.57326
895.149	80.15343
895.319	64.5268
895.489	95.19274
895.659	122.82098
895.829	84.17684
895.999	88.91668
896.169	69.9779
896.339	84.8979
896.509	186.65136
896.679	201.04051
896.849	197.90407
897.019	265.77713
897.189	190.94902
897.358	181.40373
897.528	249.12881
897.698	89.65311
897.868	229.10063
898.038	401.56288
898.208	356.44377
898.377	108.24017
898.547	326.63797
898.717	472.44727
898.886	238.12654
899.056	407.49515
899.226	454.64255
899.395	297.8145
899.565	431.30598
899.735	297.52282
899.904	475.98915
900.074	385.2382
900.244	146.28284
900.413	598.28482
900.583	152.66145
900.752	262.04344
900.922	401.36781
901.091	39.86405
901.261	323.57465
901.43	319.63872
901.599	334.07052
901.769	686.43384
901.938	452.81553
902.108	347.36955
902.277	445.23534
902.446	113.365
902.616	163.04726
902.785	192.44985
902.954	360.07103
903.124	212.25567
903.293	164.89229
903.462	94.63555
903.631	137.15019
903.801	100.65974
903.97	49.97654
904.139	91.46298
904.308	68.84342
904.477	59.79257
904.646	35.32847
904.816	57.22336
904.985	87.02052
905.154	144.77435
