Data from WindowProjectSample_Transmission__7__00007__04721294454977615.txt Node

Date: Mon May 05 16:44:38 EDT 2025
User: jessi
Spectrometer: SR400872
Trigger mode: 0
Integration Time (sec): 5.000010E-1
Scans to average: 20
Electric dark correction enabled: true
Nonlinearity correction enabled: true
Boxcar width: 0
XAxis mode: Wavelengths
Number of Pixels in Spectrum: 3648
>>>>>Begin Spectral Data<<<<<
184.909	19667.85373
185.132	-4803.36755
185.355	-2977.17363
185.578	-17390.49779
185.801	796.86617
186.024	10002.24872
186.247	-1577.4235
186.47	1171.13551
186.693	515.21143
186.916	316.40277
187.139	-3537.12702
187.362	3089.8875
187.585	4537.06453
187.808	3589.84554
188.031	38.2894
188.254	-46248.969
188.476	-1575.64988
188.699	5798.32531
188.922	551.50728
189.145	-14501.51985
189.368	-623.62585
189.591	-1026.67794
189.813	2930.36741
190.036	-45430.03173
190.259	-766.63467
190.482	-4008.48667
190.705	6459.60425
190.927	-2188.76655
191.15	12094.85501
191.373	3166.06104
191.595	-8444.09856
191.818	-3826.51034
192.041	-4157.58871
192.263	-3341.80801
192.486	-736.91838
192.709	-3553.15646
192.931	7398.92359
193.154	-26380.1509
193.377	-2623.14677
193.599	-2181.21626
193.822	-8712.86638
194.044	-1832.33156
194.267	1086.32403
194.489	311.49334
194.712	-39128.59003
194.934	-29424.22608
195.157	1064.62072
195.379	1236.95594
195.602	-6191.33758
195.824	-1256.96244
196.047	-7430.627
196.269	2607.9214
196.492	-6051.31189
196.714	25921.86569
196.936	-8062.60784
197.159	-1069.21712
197.381	997.82158
197.604	415.35038
197.826	11151.97878
198.048	-9977.30194
198.271	-2505.51229
198.493	7220.62589
198.715	2132.49782
198.938	-478.13143
199.16	6133.88757
199.382	-93835.704
199.604	2610.66861
199.827	-967.85761
200.049	-2715.97262
200.271	13480.39645
200.493	1153.78647
200.715	-36364.21056
200.938	-5657.99004
201.16	-4016.76501
201.382	19921.54036
201.604	2059.53824
201.826	2093.72929
202.048	-1734.14006
202.27	-1925.39943
202.492	-34257.0528
202.715	2699.11417
202.937	-4210.81645
203.159	-5692.10315
203.381	1404.07928
203.603	5880.32207
203.825	6156.15939
204.047	2045.85926
204.269	-2568.37227
204.491	2095.84688
204.713	5566.86252
204.935	-424274.51612
205.156	1061.82918
205.378	-2796.62673
205.6	1425.21756
205.822	144924.53372
206.044	-957.77081
206.266	1480.43717
206.488	3732.40689
206.71	-4955.81765
206.932	1021.63291
207.153	11568.85451
207.375	-6483.50896
207.597	-35628.43343
207.819	-2646.20812
208.041	2280.42386
208.262	387.07487
208.484	663.12804
208.706	-756.78206
208.927	-876.70375
209.149	494.2051
209.371	-2586.27058
209.593	-278.18828
209.814	-697.85907
210.036	423.4604
210.258	-558.99138
210.479	1681.25307
210.701	1596.39814
210.922	2968.84237
211.144	-3591.85875
211.366	1878.36556
211.587	5216.68185
211.809	-7630.41936
212.03	2202.27989
212.252	412.85054
212.473	2012.71215
212.695	-5428.6993
212.916	2762.51792
213.138	-615.89704
213.359	3441.73945
213.581	4915.2152
213.802	-857.75555
214.024	1022.21029
214.245	1923.45962
214.466	2170.1383
214.688	-3038.89212
214.909	-1084.65218
215.131	-1581.85729
215.352	-2886.24272
215.573	14120.82574
215.795	4780.03639
216.016	5215.77798
216.237	749.4791
216.459	3354.57653
216.68	1726.12138
216.901	4667.64243
217.122	-2779.75677
217.344	-10882.43703
217.565	3150.98151
217.786	8455.47296
218.007	14069.27787
218.228	-734.56471
218.45	5362.62621
218.671	728.48281
218.892	33154.95941
219.113	1434.23258
219.334	-275.06092
219.555	9846.78998
219.776	2923.02238
219.997	21284.46879
220.219	2522.06861
220.44	-10680.67736
220.661	407.85812
220.882	1416.24842
221.103	-967.35276
221.324	1989.02436
221.545	2123.52944
221.766	-8601.31985
221.987	855.26788
222.208	1525.72902
222.429	4057.74529
222.65	172.95325
222.87	16008.44679
223.091	731.9637
223.312	538.72938
223.533	1215.25321
223.754	1382.50152
223.975	1270.5732
224.196	1795.62466
224.417	1225.57704
224.637	649.68449
224.858	36.90292
225.079	982.347
225.3	628.67845
225.521	3629.15932
225.741	475.68499
225.962	460.57224
226.183	125.04877
226.404	623.06453
226.624	399.89442
226.845	601.81053
227.066	379.69376
227.286	234.95416
227.507	111.31934
227.728	110.85115
227.948	222.53898
228.169	64.25246
228.389	77.55868
228.61	46.09413
228.831	57.96161
229.051	2.23997
229.272	33.09472
229.492	52.28654
229.713	12.38296
229.933	35.38227
230.154	30.44505
230.374	51.0472
230.595	34.84185
230.815	20.13652
231.036	35.14098
231.256	-8.79518
231.477	63.52998
231.697	33.4961
231.917	36.70088
232.138	50.0625
232.358	98.79931
232.579	97.64541
232.799	17.49938
233.019	97.51533
233.24	107.68948
233.46	37.74703
233.68	59.14742
233.901	43.20963
234.121	25.91603
234.341	10.42369
234.561	-4.93109
234.782	17.66619
235.002	62.4838
235.222	-5.81343
235.442	61.30892
235.662	29.81909
235.883	57.24192
236.103	46.19631
236.323	37.50224
236.543	29.46286
236.763	35.94066
236.983	39.32348
237.203	37.75768
237.423	54.32045
237.643	80.55432
237.864	68.20545
238.084	18.16576
238.304	21.95892
238.524	39.08334
238.744	36.2091
238.964	68.26591
239.184	57.62949
239.404	59.87722
239.624	31.38483
239.843	54.58468
240.063	33.15647
240.283	19.5528
240.503	24.66578
240.723	23.59206
240.943	13.29319
241.163	18.08694
241.383	13.86827
241.603	6.93712
241.822	9.0145
242.042	5.44839
242.262	7.50587
242.482	8.752
242.702	10.04418
242.921	2.48789
243.141	6.38526
243.361	6.10485
243.581	8.6562
243.8	6.67329
244.02	4.9284
244.24	8.69623
244.459	8.63958
244.679	16.7326
244.899	10.54892
245.118	11.98065
245.338	10.4872
245.558	13.57171
245.777	8.10246
245.997	9.44462
246.216	9.68813
246.436	5.52687
246.655	4.28379
246.875	2.77714
247.094	5.88892
247.314	1.96525
247.533	3.42885
247.753	4.19245
247.972	3.3558
248.192	0.91927
248.411	1.59617
248.631	3.31496
248.85	4.40898
249.07	3.43037
249.289	5.57783
249.508	4.68563
249.728	6.82291
249.947	6.37939
250.166	8.34964
250.386	4.06283
250.605	7.01444
250.824	10.09574
251.044	7.17492
251.263	27.08469
251.482	13.99538
251.701	11.00073
251.921	-0.42332
252.14	3.06866
252.359	3.50531
252.578	9.68209
252.798	2.93157
253.017	8.1714
253.236	3.7273
253.455	5.28704
253.674	9.529
253.893	4.21342
254.112	7.09623
254.331	9.98473
254.551	7.864
254.77	2.97421
254.989	12.29225
255.208	8.38726
255.427	14.44676
255.646	10.77876
255.865	20.29595
256.084	8.07535
256.303	9.64891
256.522	13.2918
256.741	2.24606
256.96	3.42351
257.179	7.31321
257.397	10.15371
257.616	5.32992
257.835	5.4839
258.054	14.10813
258.273	10.02208
258.492	10.24257
258.711	5.94174
258.93	2.83496
259.148	4.42741
259.367	4.33538
259.586	5.0729
259.805	2.13703
260.023	4.98157
260.242	3.63448
260.461	2.58943
260.68	1.20239
260.898	4.06838
261.117	1.35532
261.336	1.0861
261.554	3.1368
261.773	3.19707
261.992	0.69231
262.21	3.02183
262.429	3.43146
262.648	6.8915
262.866	7.66112
263.085	5.11466
263.303	4.47879
263.522	7.81767
263.74	8.04881
263.959	14.42823
264.178	6.356
264.396	6.22431
264.615	3.9077
264.833	9.93438
265.051	8.53573
265.27	9.75913
265.488	10.03401
265.707	5.85151
265.925	10.30048
266.144	4.17917
266.362	4.99641
266.58	5.05804
266.799	4.82173
267.017	5.51229
267.235	4.97457
267.454	2.95602
267.672	1.71997
267.89	3.7665
268.109	4.35585
268.327	3.91911
268.545	0.88834
268.763	3.88629
268.982	1.39555
269.2	3.982
269.418	2.76095
269.636	1.82216
269.854	4.37938
270.073	2.74253
270.291	1.97296
270.509	1.57586
270.727	3.91276
270.945	6.7356
271.163	4.85121
271.381	1.27677
271.599	2.93339
271.817	5.11958
272.036	1.55402
272.254	2.87451
272.472	2.30009
272.69	2.31969
272.908	2.07358
273.126	4.17315
273.344	4.98292
273.562	1.60765
273.779	2.41403
273.997	3.49467
274.215	3.62341
274.433	2.69465
274.651	4.10679
274.869	4.32946
275.087	2.71419
275.305	3.74102
275.523	2.1681
275.74	2.80021
275.958	5.01864
276.176	7.88962
276.394	2.50879
276.612	2.95514
276.829	2.89978
277.047	2.50394
277.265	2.75068
277.483	3.34584
277.7	3.97597
277.918	3.24302
278.136	5.76592
278.353	2.72025
278.571	1.66197
278.789	4.07235
279.006	0.93532
279.224	2.85953
279.442	4.82271
279.659	3.25933
279.877	2.43725
280.094	5.46339
280.312	0.93489
280.529	3.03428
280.747	0.73853
280.964	2.34538
281.182	5.66129
281.399	2.43171
281.617	3.4704
281.834	2.2799
282.052	1.78417
282.269	2.88192
282.487	2.38186
282.704	1.93778
282.921	2.23009
283.139	3.19038
283.356	3.73115
283.574	3.50166
283.791	1.65025
284.008	5.29214
284.226	2.70221
284.443	3.12044
284.66	4.15293
284.877	3.17552
285.095	1.87802
285.312	1.60486
285.529	0.89011
285.746	0.79298
285.964	2.00321
286.181	1.26358
286.398	1.69576
286.615	2.48736
286.832	2.48607
287.05	0.46551
287.267	1.73945
287.484	1.7156
287.701	2.42872
287.918	2.45393
288.135	2.53463
288.352	1.27841
288.569	1.31042
288.786	2.26214
289.003	1.86458
289.22	2.74916
289.437	1.55571
289.654	2.56771
289.871	2.89105
290.088	2.77388
290.305	2.06463
290.522	1.61315
290.739	1.86997
290.956	2.7861
291.173	3.29373
291.39	3.18763
291.607	2.23624
291.824	1.64944
292.04	1.15677
292.257	2.58787
292.474	2.97581
292.691	1.92064
292.908	0.94009
293.125	1.561
293.341	1.1171
293.558	4.66688
293.775	1.79744
293.992	2.02304
294.208	0.76914
294.425	1.32066
294.642	1.91592
294.858	2.41305
295.075	0.52107
295.292	1.87118
295.508	2.23259
295.725	3.77453
295.942	1.69343
296.158	1.25197
296.375	2.16703
296.591	1.57303
296.808	1.83362
297.024	2.10424
297.241	2.36199
297.458	2.54553
297.674	0.47686
297.891	2.02791
298.107	1.83179
298.323	1.38458
298.54	3.34578
298.756	1.62725
298.973	0.98968
299.189	3.50377
299.406	1.66487
299.622	3.09739
299.838	3.04609
300.055	3.02289
300.271	1.24366
300.487	1.60462
300.704	1.87763
300.92	1.22276
301.136	4.69991
301.353	2.97293
301.569	2.44029
301.785	2.80842
302.001	3.09981
302.218	2.79252
302.434	2.95237
302.65	1.49867
302.866	2.06804
303.083	4.67151
303.299	4.49351
303.515	2.77762
303.731	3.02796
303.947	1.53201
304.163	2.19392
304.379	2.93587
304.595	3.07768
304.812	2.07262
305.028	2.13842
305.244	2.50978
305.46	3.40671
305.676	3.5822
305.892	3.91241
306.108	3.37091
306.324	2.38649
306.54	4.45606
306.756	3.42579
306.972	3.26497
307.187	2.78665
307.403	4.08666
307.619	2.56343
307.835	3.93316
308.051	4.29854
308.267	1.99813
308.483	3.98392
308.699	3.40734
308.914	2.99452
309.13	2.9361
309.346	1.84802
309.562	2.20469
309.778	1.90478
309.993	3.49489
310.209	3.1229
310.425	2.10797
310.641	2.994
310.856	2.29396
311.072	2.19627
311.288	3.09467
311.503	3.29097
311.719	1.7219
311.935	1.56971
312.15	3.53665
312.366	3.19457
312.581	3.50839
312.797	3.08549
313.013	3.85906
313.228	2.51371
313.444	2.94527
313.659	2.64683
313.875	3.59383
314.09	2.95492
314.306	4.22197
314.521	3.77639
314.737	3.70099
314.952	2.97384
315.168	3.11696
315.383	3.32407
315.599	2.84185
315.814	2.71773
316.029	3.70976
316.245	2.17937
316.46	1.67435
316.675	4.13001
316.891	4.67171
317.106	5.38707
317.321	3.35214
317.537	3.8825
317.752	3.9122
317.967	3.88716
318.183	2.42053
318.398	2.77949
318.613	3.95615
318.828	4.40504
319.043	3.75321
319.259	3.20543
319.474	3.39374
319.689	4.27924
319.904	1.80059
320.119	3.86152
320.334	3.47438
320.549	3.03077
320.765	4.13897
320.98	3.46105
321.195	3.62411
321.41	3.14661
321.625	3.89307
321.84	4.82429
322.055	4.51992
322.27	2.54375
322.485	2.25677
322.7	3.57251
322.915	3.70216
323.13	2.75887
323.345	4.67192
323.56	4.20675
323.775	3.88636
323.989	3.71482
324.204	3.54444
324.419	4.3442
324.634	2.32533
324.849	3.12399
325.064	6.40732
325.279	4.22028
325.493	3.79092
325.708	3.92831
325.923	2.7803
326.138	2.96259
326.352	4.61734
326.567	4.19943
326.782	3.02225
326.997	2.91111
327.211	3.88234
327.426	3.5977
327.641	3.11642
327.855	2.21653
328.07	3.79485
328.285	4.89566
328.499	2.90394
328.714	3.49844
328.928	3.93617
329.143	3.29143
329.358	4.19625
329.572	4.2148
329.787	4.47937
330.001	5.46962
330.216	2.32661
330.43	5.30275
330.645	4.69761
330.859	4.10747
331.074	2.76932
331.288	3.56066
331.503	4.71276
331.717	2.46729
331.931	3.6535
332.146	3.6922
332.36	4.9983
332.575	3.64992
332.789	3.54685
333.003	3.6709
333.218	3.85853
333.432	2.93332
333.646	4.23353
333.86	4.9161
334.075	4.89995
334.289	3.09673
334.503	2.52709
334.717	4.0073
334.932	3.67748
335.146	4.16756
335.36	2.96819
335.574	3.99895
335.788	3.7909
336.003	4.24209
336.217	4.07522
336.431	3.92201
336.645	2.96522
336.859	2.58427
337.073	3.35356
337.287	3.82515
337.501	2.53814
337.715	3.97245
337.929	4.19789
338.143	2.65978
338.357	3.3381
338.571	2.85299
338.785	4.06035
338.999	3.08972
339.213	3.04238
339.427	2.36849
339.641	4.54824
339.855	3.2186
340.069	2.88775
340.283	4.2011
340.497	4.9428
340.711	3.95052
340.924	3.49459
341.138	2.69696
341.352	2.43008
341.566	3.64836
341.78	2.27381
341.993	3.18254
342.207	2.73782
342.421	3.67984
342.635	3.30605
342.848	3.06514
343.062	1.77004
343.276	2.86972
343.49	5.03544
343.703	2.90273
343.917	4.35606
344.131	4.3244
344.344	2.79704
344.558	3.31131
344.771	2.4963
344.985	4.73499
345.199	4.80982
345.412	3.70103
345.626	3.78785
345.839	2.22052
346.053	2.58384
346.266	2.65442
346.48	3.95698
346.693	3.75702
346.907	3.53065
347.12	2.75342
347.334	3.60233
347.547	3.66999
347.76	3.33105
347.974	4.34632
348.187	3.58898
348.401	3.11966
348.614	2.64997
348.827	3.02038
349.041	3.64948
349.254	2.21439
349.467	3.03025
349.681	2.53417
349.894	2.76058
350.107	4.29375
350.32	4.83467
350.534	2.36365
350.747	3.02068
350.96	2.62352
351.173	2.90741
351.386	3.14097
351.6	2.88541
351.813	2.96968
352.026	3.27314
352.239	2.45573
352.452	3.14798
352.665	4.11989
352.878	3.30692
353.092	4.95506
353.305	4.04648
353.518	3.45745
353.731	2.60355
353.944	4.27109
354.157	3.05761
354.37	2.81574
354.583	2.58164
354.796	2.26282
355.009	4.02694
355.222	3.63581
355.435	3.31963
355.647	4.02449
355.86	2.72113
356.073	3.46341
356.286	2.96828
356.499	3.90965
356.712	3.7159
356.925	3.82959
357.138	4.00538
357.35	2.73005
357.563	3.09108
357.776	3.38779
357.989	3.24024
358.201	3.72856
358.414	3.66731
358.627	4.38454
358.84	3.1858
359.052	2.48351
359.265	2.77385
359.478	4.071
359.69	1.63792
359.903	3.94748
360.116	4.13393
360.328	2.29779
360.541	4.00683
360.753	2.76944
360.966	3.1205
361.179	3.25118
361.391	3.13673
361.604	2.88667
361.816	3.12442
362.029	3.12504
362.241	2.85555
362.454	3.23952
362.666	2.81771
362.879	3.76254
363.091	3.15175
363.304	2.91191
363.516	3.19239
363.728	2.7089
363.941	3.65564
364.153	3.27327
364.366	1.94717
364.578	2.60145
364.79	3.52448
365.003	3.3872
365.215	2.79384
365.427	3.64191
365.639	3.9491
365.852	3.30375
366.064	4.78757
366.276	3.13625
366.488	3.47923
366.701	3.05875
366.913	3.20341
367.125	3.16968
367.337	2.69195
367.549	2.96287
367.762	3.32143
367.974	3.28588
368.186	2.98579
368.398	3.91348
368.61	3.67429
368.822	3.68024
369.034	3.13845
369.246	3.72189
369.458	5.33969
369.67	2.75151
369.882	4.57029
370.094	2.01629
370.306	4.28213
370.518	3.02502
370.73	2.82043
370.942	2.82711
371.154	3.26839
371.366	3.01047
371.578	3.48292
371.79	2.98697
372.002	4.07125
372.214	4.66559
372.425	3.27668
372.637	4.25713
372.849	3.53102
373.061	2.05698
373.273	3.57351
373.484	3.61024
373.696	3.89294
373.908	2.01779
374.12	4.07613
374.331	3.64162
374.543	2.828
374.755	2.75094
374.967	3.33542
375.178	3.84244
375.39	3.09764
375.602	3.4351
375.813	2.32954
376.025	2.69033
376.236	3.45574
376.448	3.56288
376.66	3.16932
376.871	3.14453
377.083	4.26869
377.294	4.43514
377.506	3.10834
377.717	4.34688
377.929	3.5859
378.14	3.06064
378.352	3.67827
378.563	3.68044
378.775	4.26138
378.986	2.84053
379.197	3.44563
379.409	2.8783
379.62	3.82311
379.832	3.80634
380.043	3.26123
380.254	3.52335
380.466	2.7464
380.677	5.32542
380.888	4.70775
381.1	5.1267
381.311	5.10048
381.522	3.48642
381.733	5.35027
381.945	3.36766
382.156	3.42063
382.367	3.11001
382.578	5.34927
382.789	5.2776
383.001	3.08788
383.212	4.44306
383.423	4.56828
383.634	4.27002
383.845	4.00865
384.056	3.2837
384.267	3.6597
384.478	3.62057
384.69	2.88284
384.901	3.90715
385.112	3.79521
385.323	4.59162
385.534	3.86727
385.745	3.7589
385.956	3.80198
386.167	3.06413
386.378	3.94405
386.588	3.06797
386.799	3.0768
387.01	2.66269
387.221	4.15358
387.432	3.52958
387.643	4.78514
387.854	3.41501
388.065	3.45614
388.275	3.56411
388.486	3.29632
388.697	3.5142
388.908	3.3893
389.119	4.3312
389.329	4.54851
389.54	3.73284
389.751	3.88109
389.962	4.45571
390.172	3.81613
390.383	3.49608
390.594	3.20373
390.804	3.35671
391.015	3.40689
391.226	3.78264
391.436	4.15234
391.647	3.95812
391.858	4.1712
392.068	2.85147
392.279	3.14766
392.489	3.87492
392.7	4.44996
392.91	3.2838
393.121	3.30513
393.331	4.05975
393.542	4.49641
393.752	4.24314
393.963	3.9817
394.173	3.98539
394.384	4.13532
394.594	3.82691
394.804	3.24421
395.015	3.88471
395.225	4.15488
395.436	3.24531
395.646	4.11496
395.856	3.54284
396.067	2.98535
396.277	4.36797
396.487	4.0535
396.697	4.03265
396.908	4.20824
397.118	4.20706
397.328	3.98646
397.538	4.50602
397.749	3.32175
397.959	4.40085
398.169	4.21191
398.379	3.11779
398.589	4.24818
398.8	4.05076
399.01	4.03449
399.22	3.74068
399.43	5.30059
399.64	3.89806
399.85	4.3756
400.06	4.07749
400.27	3.45947
400.48	3.87915
400.69	4.85594
400.9	3.7201
401.11	3.43075
401.32	4.4926
401.53	3.72421
401.74	4.93318
401.95	4.36966
402.16	3.60059
402.37	4.25293
402.58	3.7199
402.79	4.45667
403	4.72873
403.209	3.69465
403.419	4.79093
403.629	3.67912
403.839	4.71766
404.049	4.61469
404.258	3.92102
404.468	3.81097
404.678	4.61942
404.888	4.94286
405.097	4.05827
405.307	4.25695
405.517	4.55737
405.727	4.55479
405.936	4.11076
406.146	4.50292
406.356	5.03363
406.565	4.3172
406.775	4.11357
406.984	4.02589
407.194	5.39109
407.404	4.31803
407.613	4.73219
407.823	4.87748
408.032	5.0923
408.242	5.08482
408.451	4.13666
408.661	4.39047
408.87	5.43214
409.08	4.0748
409.289	4.68377
409.499	4.68202
409.708	4.66358
409.918	3.3976
410.127	4.76697
410.336	5.61286
410.546	5.08438
410.755	4.42819
410.964	4.47854
411.174	4.23673
411.383	4.92778
411.592	4.97637
411.802	4.24436
412.011	5.16952
412.22	4.6079
412.429	5.85262
412.639	5.69505
412.848	5.32063
413.057	5.6991
413.266	5.61024
413.475	4.8943
413.685	5.18507
413.894	5.46176
414.103	5.67601
414.312	5.4189
414.521	4.94461
414.73	5.03072
414.939	6.3232
415.148	5.47283
415.357	5.32389
415.566	4.99776
415.776	5.01523
415.985	5.13186
416.194	5.82501
416.403	6.32852
416.611	4.73021
416.82	5.14686
417.029	5.61919
417.238	5.25872
417.447	5.10117
417.656	5.49662
417.865	5.24366
418.074	5.60756
418.283	5.66655
418.492	6.36529
418.7	6.0522
418.909	6.95538
419.118	6.20993
419.327	6.46081
419.536	6.445
419.744	6.34927
419.953	7.40034
420.162	7.72286
420.371	7.0466
420.579	7.36854
420.788	8.23045
420.997	8.31266
421.205	8.57345
421.414	8.33716
421.623	8.47254
421.831	8.1604
422.04	8.6279
422.249	7.9202
422.457	8.2715
422.666	7.60091
422.874	8.39771
423.083	8.4028
423.291	8.48086
423.5	8.23997
423.708	8.66062
423.917	9.07414
424.125	8.7177
424.334	8.59377
424.542	10.02452
424.751	9.60332
424.959	9.28192
425.167	9.4645
425.376	9.31672
425.584	8.33577
425.793	8.38176
426.001	7.56596
426.209	7.73973
426.418	6.88316
426.626	6.63243
426.834	6.54875
427.042	6.85838
427.251	6.53686
427.459	7.3061
427.667	6.82577
427.875	6.23511
428.084	6.58564
428.292	7.49444
428.5	7.24839
428.708	6.38633
428.916	6.38003
429.124	6.94556
429.333	6.71072
429.541	6.79874
429.749	6.9943
429.957	6.9253
430.165	8.49691
430.373	6.20577
430.581	7.12996
430.789	7.8953
430.997	6.86967
431.205	6.71411
431.413	7.34753
431.621	6.9798
431.829	7.60506
432.037	7.12163
432.245	7.49469
432.453	7.51768
432.661	7.30381
432.869	8.37265
433.076	7.11746
433.284	7.45525
433.492	7.83611
433.7	8.09818
433.908	7.44816
434.116	7.66741
434.323	7.74652
434.531	7.53028
434.739	7.93506
434.947	8.0906
435.154	8.04187
435.362	7.70131
435.57	7.50684
435.778	7.24702
435.985	7.79937
436.193	7.37817
436.401	8.28184
436.608	7.65348
436.816	7.4658
437.023	8.49623
437.231	8.56176
437.439	7.93132
437.646	8.08158
437.854	7.99984
438.061	8.25503
438.269	7.87013
438.476	8.26163
438.684	8.02058
438.891	7.91846
439.099	7.63551
439.306	7.59017
439.514	7.62428
439.721	8.62204
439.929	8.22821
440.136	9.14241
440.343	9.11746
440.551	9.07835
440.758	10.51786
440.965	9.42201
441.173	9.19199
441.38	9.0624
441.587	8.97544
441.795	8.66263
442.002	8.47818
442.209	8.50936
442.416	8.62472
442.624	8.5435
442.831	8.4919
443.038	8.11594
443.245	7.88348
443.452	8.17106
443.66	8.54653
443.867	8.08677
444.074	8.06759
444.281	8.1544
444.488	8.43446
444.695	8.47402
444.902	8.40019
445.109	9.32022
445.316	9.14196
445.523	9.58865
445.73	9.75612
445.937	10.57003
446.144	10.96397
446.351	11.47508
446.558	10.56529
446.765	12.19118
446.972	11.61291
447.179	11.23946
447.386	11.70398
447.593	10.31861
447.8	11.10232
448.007	9.79305
448.214	9.42391
448.42	8.94992
448.627	9.27331
448.834	8.74632
449.041	8.61241
449.248	8.59156
449.454	9.02581
449.661	9.58549
449.868	8.4468
450.075	8.52499
450.281	7.7707
450.488	8.20143
450.695	8.2853
450.901	8.4738
451.108	8.55982
451.315	9.34801
451.521	8.7712
451.728	9.41959
451.935	8.43907
452.141	8.7765
452.348	8.87903
452.554	8.95229
452.761	8.68302
452.967	9.74399
453.174	8.9959
453.38	9.21063
453.587	8.40468
453.793	9.12182
454	9.39703
454.206	10.13874
454.413	9.51504
454.619	9.32315
454.825	8.75843
455.032	9.38251
455.238	9.47882
455.445	8.58632
455.651	9.2403
455.857	8.26686
456.064	8.91395
456.27	8.90793
456.476	8.88485
456.682	8.46538
456.889	9.33182
457.095	9.33326
457.301	10.40843
457.507	9.2574
457.714	9.35158
457.92	9.35783
458.126	8.99183
458.332	9.35071
458.538	9.16335
458.744	9.33213
458.951	9.3342
459.157	11.4078
459.363	10.77495
459.569	11.13889
459.775	11.8774
459.981	11.58005
460.187	12.03265
460.393	12.22325
460.599	12.39461
460.805	11.60513
461.011	10.69709
461.217	10.54657
461.423	10.34687
461.629	9.69428
461.835	9.98854
462.041	9.67309
462.247	10.48845
462.453	9.56747
462.658	9.58302
462.864	10.03581
463.07	9.85135
463.276	9.81459
463.482	9.82628
463.688	10.4768
463.893	9.53707
464.099	9.68233
464.305	10.56719
464.511	9.63511
464.716	9.83448
464.922	10.3965
465.128	9.58003
465.333	10.82509
465.539	10.31652
465.745	10.05928
465.95	10.0478
466.156	11.40711
466.362	10.63772
466.567	10.03692
466.773	9.70716
466.978	10.88056
467.184	9.63726
467.389	9.27005
467.595	10.32546
467.8	9.84805
468.006	10.92934
468.211	10.7399
468.417	9.64533
468.622	10.40456
468.828	10.6131
469.033	10.52019
469.239	11.51486
469.444	10.09843
469.649	10.8307
469.855	10.28306
470.06	10.28418
470.266	9.96021
470.471	10.68467
470.676	10.5916
470.881	9.637
471.087	10.7619
471.292	11.79065
471.497	9.76872
471.703	10.40662
471.908	10.18008
472.113	10.49908
472.318	11.02527
472.523	10.06031
472.729	10.75279
472.934	10.90487
473.139	10.45891
473.344	10.71594
473.549	11.08122
473.754	10.26999
473.959	12.08561
474.164	10.38169
474.369	10.67876
474.575	11.0584
474.78	10.72242
474.985	10.37873
475.19	9.73023
475.395	10.35421
475.6	10.6611
475.804	11.53556
476.009	10.83155
476.214	10.77617
476.419	10.69577
476.624	10.13533
476.829	10.53493
477.034	11.17949
477.239	10.5572
477.444	11.27511
477.648	11.15417
477.853	11.29643
478.058	10.93394
478.263	10.62227
478.468	10.50267
478.672	10.62515
478.877	11.77076
479.082	11.82904
479.287	11.40707
479.491	11.00998
479.696	10.69667
479.901	11.46022
480.105	11.55901
480.31	10.83307
480.515	11.16149
480.719	12.30607
480.924	11.05152
481.128	10.75823
481.333	11.38938
481.538	11.41968
481.742	11.83125
481.947	12.95578
482.151	14.07215
482.356	15.10647
482.56	17.58332
482.765	19.56512
482.969	23.2222
483.174	26.14568
483.378	30.47444
483.582	31.99051
483.787	34.43468
483.991	35.54626
484.196	36.16349
484.4	35.86879
484.604	36.23187
484.809	33.39176
485.013	31.63102
485.217	28.66714
485.422	25.6458
485.626	23.21575
485.83	21.75287
486.034	20.77722
486.239	20.99681
486.443	21.47475
486.647	22.00824
486.851	23.23714
487.055	25.01943
487.26	25.30363
487.464	26.4534
487.668	26.54957
487.872	27.31715
488.076	27.40294
488.28	26.50731
488.484	25.0966
488.688	24.32094
488.892	23.06467
489.096	21.43387
489.3	19.77221
489.504	18.48589
489.708	17.36661
489.912	16.89843
490.116	16.42697
490.32	16.03154
490.524	17.35157
490.728	18.43808
490.932	19.42967
491.136	20.80212
491.34	22.18998
491.544	22.84903
491.748	23.01486
491.951	23.14536
492.155	22.69983
492.359	22.11597
492.563	20.62435
492.767	19.32724
492.97	17.45375
493.174	15.66497
493.378	14.25474
493.582	12.66971
493.785	12.06037
493.989	12.14071
494.193	12.10996
494.396	12.0048
494.6	12.44771
494.804	12.09418
495.007	11.73262
495.211	11.95853
495.414	11.97063
495.618	12.15343
495.822	12.73047
496.025	12.1366
496.229	12.46308
496.432	11.99693
496.636	12.33973
496.839	12.23741
497.043	12.93899
497.246	12.5892
497.45	12.25368
497.653	12.45236
497.856	12.46786
498.06	11.97819
498.263	12.31741
498.467	12.23574
498.67	12.84655
498.873	12.56837
499.077	12.37585
499.28	12.31962
499.483	12.50392
499.686	12.67436
499.89	12.48691
500.093	12.77971
500.296	12.0165
500.499	13.23665
500.703	12.34361
500.906	12.65898
501.109	13.15571
501.312	12.50869
501.515	12.3327
501.719	12.59673
501.922	13.02635
502.125	12.49275
502.328	12.37753
502.531	12.00748
502.734	12.45156
502.937	11.70059
503.14	12.57811
503.343	12.14147
503.546	12.321
503.749	12.07826
503.952	12.95667
504.155	12.21995
504.358	12.83069
504.561	12.60632
504.764	12.03336
504.967	12.6229
505.17	12.56682
505.373	13.30265
505.576	12.6533
505.778	12.95533
505.981	12.23184
506.184	13.2317
506.387	11.97678
506.59	13.63717
506.793	13.19625
506.995	12.9539
507.198	11.84003
507.401	12.94069
507.604	12.92076
507.806	12.42017
508.009	12.5198
508.212	13.18518
508.414	12.51098
508.617	12.657
508.82	12.75585
509.022	13.61065
509.225	13.01275
509.427	12.27598
509.63	13.52816
509.833	12.98324
510.035	12.67451
510.238	12.34526
510.44	13.52139
510.643	12.14606
510.845	13.83464
511.048	13.11165
511.25	12.71097
511.453	12.85332
511.655	13.14591
511.858	12.96921
512.06	13.48194
512.262	13.13266
512.465	13.39313
512.667	12.88198
512.869	12.58209
513.072	13.22802
513.274	13.36546
513.476	13.34803
513.679	13.4818
513.881	12.70324
514.083	13.77173
514.286	12.72324
514.488	12.78241
514.69	12.63857
514.892	12.47388
515.094	13.356
515.297	12.76913
515.499	13.09842
515.701	12.71488
515.903	13.90616
516.105	13.85843
516.307	13.55862
516.509	12.35908
516.711	12.61986
516.913	13.28159
517.116	13.25351
517.318	13.04601
517.52	13.78068
517.722	13.65091
517.924	12.89672
518.126	13.60881
518.328	13.36198
518.529	14.09495
518.731	14.93756
518.933	13.65753
519.135	13.87095
519.337	14.39432
519.539	13.67599
519.741	12.79216
519.943	13.28736
520.145	13.20159
520.346	13.80585
520.548	13.20099
520.75	13.50821
520.952	13.2939
521.153	13.53269
521.355	13.50926
521.557	12.86734
521.759	13.4589
521.96	13.32186
522.162	12.93947
522.364	13.91686
522.565	13.12637
522.767	13.71755
522.969	13.89175
523.17	13.7064
523.372	13.67153
523.573	13.29183
523.775	13.29198
523.977	13.19403
524.178	14.45842
524.38	13.34766
524.581	13.94345
524.783	13.50186
524.984	13.98124
525.186	13.87329
525.387	14.59755
525.589	14.67327
525.79	15.09842
525.991	15.18628
526.193	15.73978
526.394	15.41884
526.596	16.273
526.797	16.66514
526.998	16.42535
527.2	17.30459
527.401	19.53702
527.602	21.28943
527.803	24.36265
528.005	26.30562
528.206	28.50275
528.407	30.33009
528.608	30.87557
528.81	31.61123
529.011	31.48973
529.212	32.16952
529.413	30.57297
529.614	28.80573
529.815	26.90141
530.017	24.64002
530.218	21.90076
530.419	19.74755
530.62	18.74626
530.821	17.63509
531.022	16.0013
531.223	16.46547
531.424	16.09369
531.625	16.03128
531.826	15.83124
532.027	16.60542
532.228	18.00552
532.429	18.59984
532.63	19.46926
532.831	20.80921
533.032	21.26214
533.233	22.28394
533.433	21.97652
533.634	22.40463
533.835	21.55065
534.036	20.90331
534.237	19.95218
534.438	18.66747
534.638	16.98603
534.839	16.0773
535.04	15.3719
535.241	14.49373
535.441	15.24615
535.642	14.92233
535.843	14.59677
536.043	14.86954
536.244	15.298
536.445	15.65232
536.645	16.47458
536.846	16.17259
537.047	16.54833
537.247	15.53025
537.448	15.09282
537.648	14.70561
537.849	14.20688
538.049	14.16725
538.25	14.47741
538.451	14.30366
538.651	13.7063
538.851	14.47903
539.052	14.78841
539.252	14.61853
539.453	14.32478
539.653	14.44864
539.854	14.31159
540.054	14.47167
540.254	16.65044
540.455	18.37149
540.655	19.19729
540.855	21.53551
541.056	23.10636
541.256	23.47606
541.456	24.67832
541.657	24.71411
541.857	25.29672
542.057	23.90209
542.257	23.1611
542.458	22.8839
542.658	21.83884
542.858	19.7096
543.058	18.9664
543.258	18.10626
543.458	16.40673
543.659	15.73182
543.859	15.90902
544.059	15.37403
544.259	14.62517
544.459	15.0581
544.659	14.39536
544.859	14.80563
545.059	14.41345
545.259	14.89208
545.459	14.76714
545.659	15.15134
545.859	14.64038
546.059	14.83835
546.259	14.38063
546.459	14.09451
546.659	14.31799
546.859	15.14177
547.059	14.96668
547.258	14.98578
547.458	14.96198
547.658	14.34233
547.858	14.30924
548.058	14.71787
548.258	14.40908
548.457	14.16494
548.657	15.75873
548.857	14.40641
549.057	15.02402
549.256	14.74443
549.456	14.1725
549.656	13.61082
549.855	15.48468
550.055	14.22958
550.255	15.41305
550.454	14.72688
550.654	14.86011
550.853	15.45465
551.053	14.94277
551.253	14.76401
551.452	15.03194
551.652	13.93437
551.851	13.8743
552.051	14.48397
552.25	14.41213
552.45	14.29455
552.649	14.5224
552.849	14.25974
553.048	14.7384
553.248	15.16873
553.447	14.17977
553.646	15.12665
553.846	16.22379
554.045	15.55642
554.244	13.94267
554.444	15.39772
554.643	14.13006
554.842	15.50467
555.042	15.70494
555.241	14.21944
555.44	14.05403
555.64	14.87346
555.839	15.48964
556.038	15.04621
556.237	14.26726
556.436	14.7324
556.636	14.81095
556.835	14.2961
557.034	15.58164
557.233	14.75429
557.432	13.675
557.631	15.27968
557.83	14.35138
558.029	14.31756
558.228	14.29322
558.427	14.10531
558.626	14.90321
558.825	14.00147
559.024	14.42097
559.223	15.51969
559.422	14.49748
559.621	14.95063
559.82	13.20683
560.019	14.67131
560.218	14.43389
560.417	13.20406
560.616	14.25662
560.815	16.85663
561.014	13.80393
561.212	15.57975
561.411	14.815
561.61	14.00154
561.809	14.49152
562.008	15.80858
562.206	14.43301
562.405	15.04389
562.604	14.46078
562.803	14.7163
563.001	14.71375
563.2	14.00483
563.399	14.82049
563.597	14.03465
563.796	14.61012
563.995	14.11101
564.193	15.27339
564.392	14.56044
564.59	16.07421
564.789	13.76245
564.988	14.67393
565.186	14.95744
565.385	14.84483
565.583	14.82817
565.782	14.93416
565.98	14.85655
566.179	14.759
566.377	14.55041
566.575	14.55757
566.774	15.8455
566.972	15.56662
567.171	16.10044
567.369	15.76803
567.567	15.10023
567.766	15.21646
567.964	13.76642
568.162	15.36876
568.361	15.89439
568.559	14.78571
568.757	15.1599
568.956	14.82238
569.154	15.01152
569.352	15.28264
569.55	14.96392
569.748	14.91773
569.947	14.53773
570.145	14.24528
570.343	14.45168
570.541	15.94231
570.739	14.28577
570.937	15.05784
571.135	15.47341
571.333	16.60441
571.532	16.51676
571.73	15.2748
571.928	15.85439
572.126	15.60913
572.324	15.04126
572.522	15.9282
572.72	16.94761
572.918	15.26045
573.116	15.60659
573.313	15.08095
573.511	15.23057
573.709	14.81238
573.907	15.80854
574.105	14.92054
574.303	14.36964
574.501	14.18879
574.699	15.54237
574.896	15.46712
575.094	15.67974
575.292	14.35388
575.49	15.74133
575.688	15.13415
575.885	16.05102
576.083	16.60839
576.281	15.65329
576.478	14.70118
576.676	15.43562
576.874	14.34855
577.071	15.13376
577.269	16.59961
577.467	15.02706
577.664	14.94452
577.862	15.66427
578.059	14.43804
578.257	15.73145
578.455	14.90862
578.652	15.05411
578.85	13.66013
579.047	15.26956
579.245	14.69109
579.442	14.9362
579.64	14.70329
579.837	13.66428
580.034	16.96686
580.232	14.77546
580.429	14.02554
580.627	15.31219
580.824	15.85536
581.021	15.5579
581.219	14.75278
581.416	14.53824
581.613	16.09832
581.811	16.05863
582.008	14.40135
582.205	15.78235
582.402	15.22799
582.6	16.67634
582.797	15.09859
582.994	15.35351
583.191	15.75552
583.388	14.99525
583.586	15.65821
583.783	15.85759
583.98	14.39974
584.177	15.00614
584.374	13.25493
584.571	14.79706
584.768	14.89261
584.965	14.85322
585.162	15.70157
585.359	16.24588
585.556	14.98861
585.753	15.43205
585.95	13.94018
586.147	14.21386
586.344	15.50106
586.541	14.89081
586.738	14.1484
586.935	14.96309
587.132	14.65223
587.329	16.10704
587.526	15.05304
587.722	19.10784
587.919	14.18713
588.116	15.51135
588.313	16.34583
588.51	16.8394
588.706	14.90319
588.903	15.80514
589.1	16.24644
589.297	17.57386
589.493	15.39703
589.69	15.78543
589.887	14.94168
590.083	14.54587
590.28	14.91451
590.477	16.2999
590.673	15.92907
590.87	16.36616
591.067	14.75376
591.263	15.54206
591.46	15.58113
591.656	14.89046
591.853	16.7077
592.049	14.72832
592.246	14.94722
592.442	16.15627
592.639	16.41494
592.835	14.62137
593.032	15.65009
593.228	14.14329
593.425	14.27476
593.621	14.23009
593.817	15.67726
594.014	14.76896
594.21	15.82808
594.406	16.34162
594.603	15.808
594.799	14.90327
594.995	13.84171
595.192	16.45586
595.388	15.36788
595.584	15.22201
595.78	14.53541
595.977	17.96509
596.173	17.00345
596.369	15.60785
596.565	14.9362
596.761	14.74898
596.957	16.72829
597.154	15.28302
597.35	15.38478
597.546	15.38935
597.742	16.17984
597.938	15.79094
598.134	15.13904
598.33	15.65976
598.526	16.54324
598.722	15.76542
598.918	16.97686
599.114	16.07975
599.31	14.59578
599.506	15.35753
599.702	14.64564
599.898	15.42203
600.094	16.01871
600.29	15.92489
600.485	16.28767
600.681	14.70696
600.877	16.77285
601.073	15.48765
601.269	17.19205
601.465	16.99705
601.66	14.61839
601.856	14.1747
602.052	17.44712
602.248	15.57546
602.443	14.19998
602.639	14.90382
602.835	15.32395
603.03	15.09248
603.226	16.60192
603.422	15.26957
603.617	15.89042
603.813	15.86825
604.009	15.68972
604.204	17.06557
604.4	15.14286
604.595	16.98878
604.791	15.23136
604.986	16.26203
605.182	15.31025
605.377	15.79525
605.573	15.89621
605.768	15.95523
605.964	16.30623
606.159	16.32534
606.355	16.58491
606.55	15.49696
606.746	16.63189
606.941	15.70809
607.136	17.29141
607.332	18.03464
607.527	14.72558
607.722	15.94527
607.918	15.72926
608.113	15.31624
608.308	16.6349
608.503	16.41062
608.699	16.47913
608.894	16.71795
609.089	15.52054
609.284	16.53688
609.479	15.92411
609.675	16.7406
609.87	16.17834
610.065	16.99707
610.26	16.96785
610.455	16.88982
610.65	16.17473
610.845	16.47558
611.04	16.93565
611.235	16.07996
611.43	15.89719
611.625	14.91108
611.82	17.28661
612.015	15.41158
612.21	17.62806
612.405	14.67957
612.6	17.39418
612.795	17.29754
612.99	16.68442
613.185	14.90239
613.38	15.2925
613.575	15.92998
613.77	18.89441
613.965	14.56306
614.159	15.38927
614.354	17.39192
614.549	16.80706
614.744	16.52098
614.938	14.77595
615.133	14.56343
615.328	17.18235
615.523	16.79176
615.717	18.86062
615.912	15.38246
616.107	16.12979
616.301	15.66253
616.496	15.37109
616.691	17.64527
616.885	16.76621
617.08	18.99531
617.274	16.86843
617.469	17.98301
617.664	16.85348
617.858	15.73822
618.053	16.20919
618.247	15.7349
618.442	13.94634
618.636	17.39911
618.831	15.4018
619.025	15.41426
619.219	18.98846
619.414	12.97507
619.608	15.68481
619.803	15.4196
619.997	18.3258
620.191	17.1541
620.386	16.43978
620.58	15.91792
620.774	14.30191
620.969	14.33612
621.163	16.11612
621.357	14.96115
621.551	15.6276
621.746	16.15715
621.94	15.65726
622.134	19.60872
622.328	18.24902
622.522	14.49538
622.716	17.20812
622.911	17.20819
623.105	16.94666
623.299	16.71994
623.493	19.46644
623.687	15.16992
623.881	15.45615
624.075	17.11208
624.269	17.51106
624.463	13.92439
624.657	14.56237
624.851	16.97744
625.045	16.88598
625.239	17.31677
625.433	15.98271
625.627	18.2717
625.821	15.96729
626.015	15.51656
626.209	16.95321
626.403	14.98382
626.596	17.16837
626.79	17.57661
626.984	15.3215
627.178	17.34707
627.372	17.13927
627.565	17.39764
627.759	15.35469
627.953	15.43565
628.147	16.8048
628.34	17.1854
628.534	18.89877
628.728	16.2672
628.921	17.3839
629.115	17.16657
629.309	17.66381
629.502	17.76154
629.696	16.36957
629.89	16.40238
630.083	16.8828
630.277	16.59454
630.47	18.11996
630.664	16.04354
630.857	14.78394
631.051	17.07826
631.244	17.42034
631.438	17.38864
631.631	15.8064
631.825	17.97341
632.018	16.89831
632.212	18.4859
632.405	17.92264
632.598	15.56033
632.792	16.47852
632.985	13.83218
633.178	16.25997
633.372	16.52371
633.565	16.10944
633.758	17.93447
633.952	15.56821
634.145	15.3348
634.338	16.217
634.531	16.19761
634.724	15.57893
634.918	16.697
635.111	16.3176
635.304	16.1286
635.497	19.4785
635.69	17.15743
635.883	18.11919
636.077	15.38294
636.27	17.15311
636.463	16.99946
636.656	16.89766
636.849	16.4115
637.042	17.43016
637.235	18.8718
637.428	17.50775
637.621	17.0121
637.814	18.45755
638.007	18.53164
638.2	18.20896
638.393	18.88018
638.586	14.67333
638.778	15.86118
638.971	16.48097
639.164	18.53931
639.357	16.88774
639.55	18.71739
639.743	17.43079
639.935	16.93177
640.128	19.59135
640.321	17.87914
640.514	16.76833
640.707	19.4213
640.899	17.4495
641.092	14.55009
641.285	31.90939
641.477	14.00046
641.67	20.38325
641.863	18.58366
642.055	17.19006
642.248	16.59218
642.441	16.3326
642.633	17.68288
642.826	17.88492
643.018	18.5332
643.211	19.57744
643.403	20.00407
643.596	20.02748
643.788	19.35281
643.981	16.44612
644.173	18.18154
644.366	16.06496
644.558	14.10063
644.751	18.56684
644.943	15.21272
645.135	19.3969
645.328	19.58367
645.52	18.06294
645.712	18.59251
645.905	21.60261
646.097	15.13546
646.289	17.14067
646.482	20.32263
646.674	15.9584
646.866	18.98269
647.058	17.93697
647.251	15.61746
647.443	16.32463
647.635	17.13029
647.827	15.28561
648.019	15.78622
648.211	16.90358
648.404	17.40975
648.596	20.15144
648.788	17.63912
648.98	17.49809
649.172	17.8958
649.364	17.97799
649.556	15.13986
649.748	21.51168
649.94	16.44478
650.132	18.31599
650.324	16.29422
650.516	16.53144
650.708	18.92061
650.9	15.44866
651.092	16.70939
651.284	15.47701
651.476	16.16572
651.667	18.52178
651.859	19.84893
652.051	17.18673
652.243	18.08932
652.435	17.07146
652.627	18.32656
652.818	18.56908
653.01	15.27631
653.202	16.27001
653.394	16.89698
653.585	18.22714
653.777	24.62543
653.969	19.81595
654.16	19.50894
654.352	16.12088
654.544	17.24439
654.735	19.54006
654.927	18.0676
655.118	19.9271
655.31	18.93674
655.502	19.64306
655.693	17.48155
655.885	18.70945
656.076	20.01303
656.268	18.43512
656.459	20.32054
656.651	20.09416
656.842	17.18413
657.034	16.66044
657.225	19.64017
657.416	20.1346
657.608	20.15564
657.799	18.33102
657.99	20.46376
658.182	17.25873
658.373	17.40224
658.564	20.44441
658.756	19.02295
658.947	18.49118
659.138	17.10928
659.33	17.73485
659.521	17.70475
659.712	18.45623
659.903	18.33902
660.094	17.82053
660.286	15.99498
660.477	21.14936
660.668	19.47468
660.859	17.93079
661.05	16.18858
661.241	18.94458
661.432	18.67233
661.623	17.92484
661.814	17.55547
662.006	15.77123
662.197	18.52492
662.388	20.1958
662.579	18.62973
662.77	20.53078
662.96	23.04314
663.151	19.69747
663.342	15.2778
663.533	19.33427
663.724	18.43771
663.915	21.5758
664.106	18.28927
664.297	21.68123
664.488	19.22591
664.678	17.23537
664.869	19.86715
665.06	19.50182
665.251	18.39206
665.442	19.58285
665.632	16.88485
665.823	22.51676
666.014	13.33438
666.204	20.16889
666.395	20.91929
666.586	23.04273
666.776	19.94957
666.967	22.40923
667.158	18.71611
667.348	21.4008
667.539	17.15047
667.729	20.5516
667.92	17.71081
668.111	20.96316
668.301	20.08494
668.492	18.81222
668.682	19.27332
668.873	19.11779
669.063	16.83902
669.253	19.85607
669.444	21.77752
669.634	19.21292
669.825	22.43789
670.015	21.61445
670.206	17.38987
670.396	22.87554
670.586	18.50878
670.777	20.2185
670.967	15.52937
671.157	18.66837
671.347	17.79684
671.538	21.878
671.728	20.37982
671.918	23.11555
672.108	21.00399
672.299	18.26711
672.489	19.72038
672.679	17.83269
672.869	20.54914
673.059	24.08078
673.249	20.02517
673.44	17.21874
673.63	18.85983
673.82	21.39837
674.01	17.78375
674.2	20.31633
674.39	24.94563
674.58	20.72556
674.77	19.61725
674.96	19.19423
675.15	28.08585
675.34	21.70244
675.53	19.80653
675.72	18.51936
675.91	16.64365
676.099	23.97412
676.289	24.54517
676.479	22.40605
676.669	18.34341
676.859	20.28571
677.049	18.32731
677.238	20.21331
677.428	23.5311
677.618	20.7085
677.808	24.06082
677.997	21.17502
678.187	18.23332
678.377	20.22406
678.567	19.09496
678.756	19.21913
678.946	20.36226
679.136	17.66833
679.325	19.45717
679.515	18.59878
679.704	18.00395
679.894	22.30915
680.084	21.09761
680.273	22.89937
680.463	18.99396
680.652	18.85608
680.842	20.55893
681.031	22.54471
681.221	18.90365
681.41	21.76434
681.6	20.04572
681.789	21.79742
681.978	23.17991
682.168	21.16753
682.357	20.74411
682.547	21.14622
682.736	21.08249
682.925	23.54241
683.115	23.3732
683.304	22.0934
683.493	20.7278
683.682	21.66334
683.872	21.85774
684.061	23.01886
684.25	21.93489
684.439	25.97323
684.629	22.72648
684.818	28.5586
685.007	20.78473
685.196	20.0824
685.385	25.64747
685.574	21.89423
685.763	22.05256
685.952	21.96727
686.142	18.31457
686.331	24.84156
686.52	17.85327
686.709	26.2233
686.898	25.44587
687.087	23.3424
687.276	25.57481
687.465	24.7627
687.654	21.17539
687.842	25.09162
688.031	19.07862
688.22	25.21868
688.409	22.31627
688.598	22.17112
688.787	28.03862
688.976	21.65494
689.165	26.89796
689.353	20.57383
689.542	23.59939
689.731	24.74226
689.92	27.68626
690.108	23.97392
690.297	21.08152
690.486	22.63978
690.675	24.08864
690.863	25.90333
691.052	26.0299
691.241	22.63922
691.429	23.04603
691.618	25.60521
691.806	19.34752
691.995	21.65104
692.184	22.35392
692.372	21.67401
692.561	22.86647
692.749	23.27728
692.938	31.49039
693.126	23.91929
693.315	22.04876
693.503	24.49473
693.692	25.40742
693.88	25.09701
694.068	27.95549
694.257	23.25265
694.445	24.87664
694.634	17.92443
694.822	25.00825
695.01	26.50109
695.199	28.61346
695.387	26.67718
695.575	26.18259
695.763	22.25726
695.952	22.20929
696.14	19.0808
696.328	21.29568
696.516	23.58877
696.705	24.29712
696.893	23.54737
697.081	18.90028
697.269	25.93509
697.457	20.71716
697.645	20.37544
697.833	25.35401
698.021	21.69718
698.21	22.75787
698.398	23.00074
698.586	20.81924
698.774	20.51873
698.962	23.43194
699.15	21.0555
699.338	19.85131
699.526	24.52977
699.714	21.87312
699.901	21.73539
700.089	24.81163
700.277	21.14849
700.465	22.84083
700.653	24.96047
700.841	23.78153
701.029	21.48879
701.217	27.13349
701.404	23.29498
701.592	27.19367
701.78	30.25862
701.968	22.43054
702.155	22.78933
702.343	20.70418
702.531	27.27503
702.718	24.28064
702.906	22.12368
703.094	22.15925
703.281	27.66469
703.469	22.90808
703.657	26.85216
703.844	34.00982
704.032	30.08656
704.219	23.11888
704.407	25.75359
704.595	28.70809
704.782	25.74362
704.97	23.87127
705.157	24.07042
705.345	30.50108
705.532	36.14525
705.719	28.22656
705.907	30.92431
706.094	27.82552
706.282	33.96932
706.469	28.15095
706.656	29.18761
706.844	28.05084
707.031	32.38971
707.218	30.42007
707.406	34.07959
707.593	32.19218
707.78	32.17906
707.968	30.01671
708.155	28.80941
708.342	32.18988
708.529	32.38861
708.716	31.76431
708.904	35.35307
709.091	32.56872
709.278	27.5768
709.465	37.32649
709.652	35.59564
709.839	34.72009
710.026	30.31449
710.213	24.8667
710.4	30.29184
710.587	31.37187
710.774	33.02088
710.961	33.58062
711.148	30.01377
711.335	32.56811
711.522	29.49777
711.709	31.4346
711.896	36.68703
712.083	33.71272
712.27	27.77414
712.457	31.04752
712.644	25.38671
712.831	36.55102
713.017	30.75541
713.204	33.0884
713.391	27.72656
713.578	32.80635
713.765	34.69919
713.951	30.40468
714.138	39.70646
714.325	30.35929
714.512	28.56701
714.698	25.36691
714.885	33.23694
715.072	27.94482
715.258	27.59238
715.445	25.30263
715.631	31.4468
715.818	19.36208
716.005	25.62026
716.191	29.14905
716.378	25.95607
716.564	30.06157
716.751	24.23078
716.937	25.46574
717.124	30.04961
717.31	23.65592
717.497	34.81996
717.683	24.67444
717.869	34.28309
718.056	24.93947
718.242	28.6278
718.429	26.07992
718.615	22.73656
718.801	26.74364
718.988	31.34744
719.174	29.14373
719.36	25.96694
719.547	31.92821
719.733	28.49191
719.919	28.22877
720.105	28.90279
720.291	27.20863
720.478	28.53857
720.664	26.76565
720.85	25.11467
721.036	38.25852
721.222	34.00672
721.408	27.48329
721.595	35.03092
721.781	33.70311
721.967	32.54576
722.153	34.40869
722.339	30.54517
722.525	28.70584
722.711	23.58478
722.897	23.21729
723.083	26.48905
723.269	32.35913
723.455	39.97364
723.641	45.38141
723.827	28.43333
724.012	30.03866
724.198	27.9436
724.384	34.33102
724.57	29.59513
724.756	23.17465
724.942	20.4808
725.127	32.54519
725.313	33.66316
725.499	33.1357
725.685	37.00358
725.87	30.33145
726.056	25.36191
726.242	33.60974
726.428	22.25226
726.613	32.25338
726.799	26.88477
726.985	23.89121
727.17	22.149
727.356	37.84964
727.541	25.21652
727.727	27.92259
727.913	32.32256
728.098	26.75654
728.284	31.95432
728.469	24.70706
728.655	25.8615
728.84	33.67464
729.026	32.27987
729.211	32.065
729.397	31.11729
729.582	32.35983
729.767	28.96945
729.953	30.25327
730.138	34.87653
730.323	20.30521
730.509	23.98806
730.694	36.67345
730.879	32.2393
731.065	30.41236
731.25	39.45926
731.435	32.38844
731.621	23.16425
731.806	27.30342
731.991	30.30023
732.176	24.7881
732.361	36.36104
732.547	30.89572
732.732	23.15344
732.917	40.4142
733.102	24.52126
733.287	26.69112
733.472	28.76008
733.657	27.80255
733.842	23.50829
734.027	26.16397
734.212	28.35883
734.397	26.67258
734.582	29.97914
734.767	33.94319
734.952	36.22323
735.137	18.77938
735.322	36.3405
735.507	31.08066
735.692	29.79745
735.877	39.67101
736.062	38.01894
736.247	30.96895
736.431	28.77906
736.616	34.81371
736.801	31.42446
736.986	30.08436
737.171	25.45529
737.355	24.75581
737.54	36.23208
737.725	30.23208
737.909	43.11669
738.094	27.45434
738.279	34.2341
738.463	29.08338
738.648	33.16605
738.833	32.48769
739.017	41.32478
739.202	28.79621
739.386	28.58589
739.571	25.70072
739.756	34.63738
739.94	29.74378
740.125	32.71362
740.309	26.59354
740.494	33.33675
740.678	30.36305
740.863	32.32051
741.047	30.99
741.231	37.63918
741.416	27.55057
741.6	39.26293
741.785	26.7337
741.969	34.90515
742.153	38.01246
742.338	21.15275
742.522	29.91376
742.706	34.12074
742.89	25.2538
743.075	30.04037
743.259	36.73458
743.443	36.78056
743.627	37.50519
743.812	43.11404
743.996	23.41536
744.18	29.15459
744.364	28.50462
744.548	43.80799
744.732	28.89866
744.916	36.3592
745.1	34.47228
745.285	29.31577
745.469	34.86098
745.653	40.27902
745.837	25.73008
746.021	43.78714
746.205	37.97044
746.389	32.16469
746.573	30.4887
746.757	38.95347
746.94	28.33958
747.124	38.79268
747.308	25.45085
747.492	36.6973
747.676	26.67561
747.86	45.84862
748.044	28.98136
748.227	23.62846
748.411	53.51582
748.595	31.74478
748.779	26.66242
748.963	32.76887
749.146	31.83376
749.33	27.33498
749.514	26.18691
749.697	37.9259
749.881	27.92322
750.065	26.13607
750.248	31.92727
750.432	44.76818
750.616	31.21774
750.799	25.96214
750.983	46.53129
751.166	44.10056
751.35	23.45361
751.533	36.32426
751.717	42.04166
751.9	40.43902
752.084	30.34719
752.267	28.17659
752.451	28.02806
752.634	31.89683
752.818	34.92449
753.001	36.69794
753.184	39.3045
753.368	35.2133
753.551	14.74925
753.734	27.32294
753.918	45.95549
754.101	28.52922
754.284	36.44948
754.467	28.53144
754.651	28.42857
754.834	27.28856
755.017	38.70482
755.2	39.44524
755.384	27.43988
755.567	36.67338
755.75	36.87384
755.933	29.36288
756.116	37.19246
756.299	29.18199
756.482	26.89082
756.665	36.19737
756.848	31.67911
757.032	34.25771
757.215	24.30073
757.398	27.31419
757.581	25.92182
757.764	49.46796
757.947	32.58712
758.129	38.99922
758.312	17.16521
758.495	31.46619
758.678	32.09575
758.861	30.62999
759.044	43.91569
759.227	25.76723
759.41	27.99218
759.592	37.79316
759.775	30.1932
759.958	38.31752
760.141	25.78971
760.324	48.305
760.506	41.15392
760.689	38.50621
760.872	46.02115
761.054	36.36099
761.237	31.20606
761.42	32.98579
761.602	37.9786
761.785	34.45747
761.968	39.7307
762.15	44.4511
762.333	32.27824
762.515	36.26411
762.698	30.28032
762.88	38.84564
763.063	34.68346
763.245	39.76786
763.428	27.47938
763.61	30.31996
763.793	25.58291
763.975	35.20357
764.158	30.57535
764.34	29.32832
764.522	27.90484
764.705	31.7947
764.887	41.90805
765.069	24.32415
765.252	36.29698
765.434	36.89965
765.616	32.40017
765.799	28.00584
765.981	37.51776
766.163	28.43298
766.345	41.30148
766.528	29.07075
766.71	20.56724
766.892	33.95849
767.074	41.4252
767.256	30.85439
767.438	43.56834
767.62	34.95955
767.802	49.14205
767.985	38.15445
768.167	45.90603
768.349	29.80494
768.531	36.53717
768.713	35.47086
768.895	37.21527
769.077	35.97656
769.259	51.42369
769.441	68.03321
769.623	38.19274
769.804	44.0758
769.986	42.53775
770.168	47.70775
770.35	60.13924
770.532	46.94501
770.714	50.68414
770.896	50.16569
771.077	27.56875
771.259	52.28391
771.441	45.2321
771.623	54.64256
771.804	66.26528
771.986	27.04206
772.168	37.65367
772.35	51.12711
772.531	67.91183
772.713	45.45042
772.894	57.43656
773.076	42.27681
773.258	39.09651
773.439	58.91599
773.621	63.83972
773.802	33.86137
773.984	38.9633
774.166	47.94287
774.347	58.95645
774.529	55.05885
774.71	25.74009
774.891	42.54315
775.073	38.84225
775.254	56.23308
775.436	37.52484
775.617	69.89278
775.799	39.99652
775.98	56.22833
776.161	63.46489
776.343	66.836
776.524	43.31049
776.705	41.62952
776.886	25.67902
777.068	46.38858
777.249	95.49119
777.43	67.7796
777.611	32.2667
777.793	41.02978
777.974	65.35432
778.155	37.73922
778.336	34.97979
778.517	73.39372
778.698	35.51986
778.879	26.96251
779.061	18.57124
779.242	49.42452
779.423	50.14057
779.604	38.44164
779.785	42.52548
779.966	46.96106
780.147	55.72076
780.328	56.37203
780.509	75.56111
780.69	55.92823
780.871	38.01035
781.051	30.66986
781.232	46.36536
781.413	45.37084
781.594	40.76963
781.775	40.04234
781.956	36.24724
782.137	22.20363
782.317	39.32349
782.498	46.42385
782.679	46.84322
782.86	47.44745
783.04	37.71643
783.221	48.44878
783.402	67.93165
783.583	44.13045
783.763	55.43189
783.944	38.80344
784.124	30.86773
784.305	64.84391
784.486	52.85867
784.666	45.18604
784.847	28.81666
785.027	86.27913
785.208	38.85481
785.388	37.54865
785.569	38.08505
785.749	44.45868
785.93	39.14832
786.11	30.22866
786.291	51.48895
786.471	46.81983
786.652	56.13808
786.832	43.45614
787.012	46.38483
787.193	32.73167
787.373	45.29093
787.553	40.12549
787.734	47.88205
787.914	41.676
788.094	56.92891
788.275	48.61412
788.455	41.80386
788.635	32.31371
788.815	47.75031
788.995	35.02782
789.176	28.51117
789.356	37.5897
789.536	41.91022
789.716	49.79685
789.896	36.46504
790.076	38.67103
790.256	49.28424
790.436	22.80071
790.616	32.93387
790.796	47.12453
790.976	39.40593
791.156	36.56372
791.336	50.68831
791.516	48.12991
791.696	40.74954
791.876	31.54191
792.056	45.6956
792.236	55.45203
792.416	52.90739
792.596	48.85855
792.776	50.7102
792.956	52.55411
793.135	65.71458
793.315	32.60603
793.495	59.54673
793.675	52.46699
793.854	53.42742
794.034	56.04792
794.214	33.45952
794.394	54.35412
794.573	60.26823
794.753	46.72106
794.933	35.85154
795.112	47.391
795.292	56.76599
795.472	65.45235
795.651	33.47252
795.831	44.88342
796.01	42.08708
796.19	42.15777
796.369	44.63151
796.549	50.92559
796.728	43.83506
796.908	30.20923
797.087	32.82817
797.267	41.65801
797.446	32.78953
797.626	49.1125
797.805	48.92108
797.984	37.10972
798.164	52.97413
798.343	37.68064
798.522	47.70771
798.702	46.23376
798.881	31.66613
799.06	43.07995
799.239	25.57693
799.419	35.50885
799.598	65.98903
799.777	50.08429
799.956	58.04335
800.136	41.03388
800.315	35.02396
800.494	50.43438
800.673	59.04763
800.852	52.94357
801.031	58.53615
801.21	51.11271
801.389	39.11884
801.568	46.5674
801.747	69.19157
801.926	45.44237
802.105	61.11266
802.284	39.18122
802.463	65.76158
802.642	47.99972
802.821	47.7884
803	63.6575
803.179	56.22425
803.358	58.54338
803.537	37.18409
803.716	44.74885
803.895	39.54293
804.073	42.38173
804.252	37.11987
804.431	50.49096
804.61	42.85947
804.789	53.89481
804.967	39.56022
805.146	39.7817
805.325	73.11731
805.503	50.29261
805.682	31.13429
805.861	87.77053
806.039	63.25335
806.218	41.87095
806.397	46.99478
806.575	45.66055
806.754	48.9954
806.932	34.5728
807.111	58.55909
807.289	56.24443
807.468	45.48866
807.646	56.88067
807.825	51.12873
808.003	47.85317
808.182	58.20184
808.36	46.73355
808.539	36.81389
808.717	65.14124
808.895	39.48303
809.074	50.40723
809.252	46.31256
809.43	54.59716
809.609	59.5513
809.787	64.18341
809.965	42.94059
810.144	45.18007
810.322	44.67664
810.5	52.17989
810.678	40.86653
810.856	74.28615
811.035	60.6465
811.213	52.58285
811.391	66.42622
811.569	48.72684
811.747	93.35876
811.925	61.18257
812.103	37.84441
812.281	46.17834
812.459	71.07423
812.637	72.06283
812.816	56.79452
812.994	76.78147
813.171	65.53343
813.349	55.38008
813.527	60.47952
813.705	68.2859
813.883	81.82454
814.061	58.96762
814.239	72.8594
814.417	76.34831
814.595	56.5395
814.773	54.26666
814.95	49.84655
815.128	52.69421
815.306	52.44695
815.484	48.24991
815.662	37.47001
815.839	33.0137
816.017	42.45737
816.195	62.64227
816.372	42.96535
816.55	59.98046
816.728	71.25273
816.905	45.74936
817.083	68.78074
817.261	47.9591
817.438	90.56881
817.616	72.31047
817.793	42.59233
817.971	60.40425
818.148	60.54851
818.326	64.58658
818.503	52.03226
818.681	71.1334
818.858	45.79097
819.036	48.57875
819.213	51.23915
819.391	40.71093
819.568	43.16525
819.745	37.31365
819.923	59.05972
820.1	45.46837
820.277	39.60701
820.455	44.49708
820.632	46.32564
820.809	50.45601
820.986	36.18206
821.164	31.8894
821.341	30.20324
821.518	40.16519
821.695	32.51002
821.872	30.62354
822.05	28.28103
822.227	25.78218
822.404	26.62172
822.581	29.0898
822.758	26.61293
822.935	26.72959
823.112	28.73036
823.289	26.01405
823.466	28.82707
823.643	27.94073
823.82	31.10069
823.997	28.80369
824.174	31.64376
824.351	37.28187
824.528	36.49342
824.705	34.15323
824.882	35.72546
825.059	42.55143
825.236	33.65195
825.412	35.2016
825.589	39.69735
825.766	50.87228
825.943	36.19431
826.12	40.47774
826.296	32.95324
826.473	37.59473
826.65	37.87653
826.827	42.24429
827.003	32.80643
827.18	36.25459
827.357	38.6649
827.533	34.12076
827.71	24.98889
827.887	31.73274
828.063	34.71185
828.24	30.43124
828.416	36.58808
828.593	32.577
828.769	41.3822
828.946	41.423
829.122	42.62927
829.299	42.34138
829.475	31.1412
829.652	41.94287
829.828	60.7877
830.005	43.33572
830.181	54.24477
830.357	43.42359
830.534	55.60938
830.71	44.68963
830.886	55.54442
831.063	54.57535
831.239	66.4374
831.415	36.67009
831.592	67.94411
831.768	46.18081
831.944	42.09844
832.12	73.95369
832.296	67.87224
832.473	57.35842
832.649	45.7967
832.825	59.62174
833.001	38.21705
833.177	52.48769
833.353	48.34281
833.529	32.5746
833.705	44.91302
833.881	33.25266
834.058	33.54559
834.234	35.24983
834.41	35.22356
834.586	29.89508
834.761	33.24941
834.937	36.72597
835.113	36.64901
835.289	32.85518
835.465	37.12506
835.641	34.10753
835.817	37.67847
835.993	55.9475
836.169	35.126
836.344	47.71216
836.52	51.5834
836.696	47.65675
836.872	41.38848
837.048	94.30984
837.223	44.6812
837.399	74.4163
837.575	58.8736
837.75	57.48416
837.926	77.93477
838.102	108.44518
838.277	86.45616
838.453	117.83825
838.628	116.52666
838.804	50.11603
838.98	103.36917
839.155	59.46313
839.331	78.88984
839.506	58.29175
839.682	58.53247
839.857	78.54461
840.033	87.99758
840.208	46.50468
840.384	29.34295
840.559	48.5331
840.734	66.06564
840.91	85.47203
841.085	53.1207
841.26	56.14898
841.436	49.75806
841.611	48.10718
841.786	70.9107
841.962	89.29189
842.137	62.41584
842.312	43.02579
842.487	53.7248
842.663	48.21203
842.838	58.19742
843.013	156.22086
843.188	77.97155
843.363	86.53649
843.538	129.92974
843.714	130.24155
843.889	133.34942
844.064	131.23332
844.239	120.06822
844.414	134.98389
844.589	93.75362
844.764	163.13129
844.939	159.53529
845.114	175.16171
845.289	166.26817
845.464	220.28365
845.639	151.25454
845.814	74.14204
845.989	93.7862
846.163	108.34561
846.338	122.46512
846.513	161.0018
846.688	111.00549
846.863	114.25009
847.038	102.3122
847.212	115.00892
847.387	116.68215
847.562	122.78729
847.737	148.16332
847.911	61.85924
848.086	76.02417
848.261	216.03289
848.435	110.00967
848.61	154.45704
848.785	85.6969
848.959	157.8031
849.134	220.41306
849.308	221.23284
849.483	124.62474
849.658	189.3596
849.832	109.67438
850.007	98.24047
850.181	242.19094
850.356	98.46511
850.53	233.92282
850.705	82.87408
850.879	53.49826
851.053	122.26041
851.228	104.42787
851.402	130.77739
851.577	165.76445
851.751	186.23628
851.925	130.92283
852.099	61.23374
852.274	93.50325
852.448	117.81513
852.622	152.22171
852.797	123.18715
852.971	111.15409
853.145	128.7755
853.319	348.17701
853.493	181.42315
853.668	102.76671
853.842	219.11262
854.016	180.03298
854.19	208.63264
854.364	123.64603
854.538	142.89898
854.712	179.36052
854.886	116.88354
855.06	110.05157
855.234	51.33387
855.408	192.8647
855.582	166.03788
855.756	163.93192
855.93	215.33455
856.104	143.44395
856.278	175.78833
856.452	123.96835
856.626	163.07069
856.8	256.34616
856.973	151.66044
857.147	144.89057
857.321	147.79049
857.495	174.30372
857.669	120.45988
857.842	105.97057
858.016	181.52592
858.19	102.1495
858.364	279.66044
858.537	109.85125
858.711	132.92029
858.885	118.61935
859.058	106.35112
859.232	57.32145
859.405	67.94895
859.579	164.91447
859.753	140.43807
859.926	95.08983
860.1	70.49944
860.273	131.8311
860.447	203.64316
860.62	111.6148
860.794	239.24429
860.967	136.78801
861.141	179.884
861.314	252.29818
861.487	155.31961
861.661	203.69513
861.834	199.63863
862.008	179.66546
862.181	135.93791
862.354	133.82233
862.528	153.52042
862.701	102.98923
862.874	77.85724
863.047	122.57285
863.221	111.76101
863.394	63.72742
863.567	210.01838
863.74	52.349
863.913	168.65506
864.087	143.4918
864.26	171.49874
864.433	131.35081
864.606	219.51873
864.779	125.71974
864.952	68.67717
865.125	104.85368
865.298	127.20671
865.471	132.7908
865.644	255.15423
865.817	207.59134
865.99	173.74636
866.163	194.41148
866.336	115.96594
866.509	129.02555
866.682	109.07218
866.855	188.36558
867.028	83.80806
867.2	161.49221
867.373	54.8834
867.546	141.39361
867.719	258.32166
867.892	160.94829
868.064	91.22516
868.237	155.08168
868.41	128.30638
868.583	82.15711
868.755	84.9941
868.928	123.69589
869.101	267.79711
869.273	192.94261
869.446	157.10226
869.619	193.20453
869.791	124.71663
869.964	183.74448
870.136	170.96984
870.309	140.28664
870.481	145.82622
870.654	68.36235
870.826	145.3518
870.999	119.35211
871.171	172.32241
871.344	111.97362
871.516	118.94437
871.689	101.29637
871.861	139.69062
872.033	100.23452
872.206	117.79843
872.378	189.41893
872.55	120.45568
872.723	85.23429
872.895	119.15174
873.067	186.48827
873.24	205.97515
873.412	108.41014
873.584	120.3676
873.756	113.82866
873.928	154.37408
874.101	148.83755
874.273	161.18999
874.445	63.98893
874.617	83.19681
874.789	144.57783
874.961	122.04462
875.133	160.26678
875.305	136.93729
875.477	85.57464
875.649	79.08693
875.821	93.25536
875.993	222.15708
876.165	87.78277
876.337	149.74031
876.509	118.60535
876.681	154.13574
876.853	144.26014
877.025	145.80025
877.197	97.02615
877.369	94.63517
877.541	177.23335
877.712	58.96722
877.884	88.54316
878.056	168.10303
878.228	94.12094
878.4	156.68099
878.571	91.01454
878.743	69.51811
878.915	147.30231
879.086	93.45341
879.258	108.61204
879.43	103.19654
879.601	91.5662
879.773	92.65927
879.945	32.13205
880.116	46.3082
880.288	34.49702
880.459	36.94113
880.631	31.35534
880.802	34.52395
880.974	33.54105
881.145	27.15049
881.317	33.18039
881.488	28.13982
881.66	30.15939
881.831	27.87388
882.002	35.40017
882.174	29.23126
882.345	33.74407
882.517	24.70176
882.688	37.33048
882.859	34.28899
883.03	45.71858
883.202	43.93482
883.373	40.11029
883.544	39.42662
883.715	61.68432
883.887	51.52008
884.058	47.01361
884.229	61.9875
884.4	63.19226
884.571	67.40614
884.742	60.76801
884.914	68.18588
885.085	89.6755
885.256	107.92161
885.427	91.27519
885.598	102.9889
885.769	108.97304
885.94	104.56659
886.111	73.11418
886.282	121.24584
886.453	103.05856
886.624	74.24948
886.795	119.80612
886.966	102.96554
887.136	131.28506
887.307	90.36954
887.478	160.31148
887.649	142.77108
887.82	147.79304
887.991	120.61223
888.161	156.05202
888.332	153.41166
888.503	82.8934
888.674	196.76611
888.844	209.88348
889.015	171.62095
889.186	82.05077
889.356	195.9842
889.527	85.6089
889.698	341.92436
889.868	114.38364
890.039	144.3182
890.209	132.68289
890.38	176.73442
890.551	148.80606
890.721	209.21835
890.892	171.14063
891.062	120.74783
891.233	157.67311
891.403	115.21795
891.574	101.46598
891.744	123.78581
891.914	159.87063
892.085	138.85897
892.255	59.28081
892.425	208.11325
892.596	165.50898
892.766	154.9292
892.936	210.5386
893.107	179.58857
893.277	104.042
893.447	81.91887
893.618	64.10794
893.788	117.50453
893.958	68.98423
894.128	74.62142
894.298	73.67313
894.468	100.76885
894.639	52.13276
894.809	41.54797
894.979	57.72879
895.149	65.12879
895.319	55.19323
895.489	76.27372
895.659	84.87476
895.829	62.95823
895.999	67.4203
896.169	53.94305
896.339	62.507
896.509	117.56079
896.679	131.93702
896.849	127.28159
897.019	172.35869
897.189	143.06263
897.358	121.4769
897.528	174.08511
897.698	69.74843
897.868	155.93874
898.038	268.13571
898.208	248.06436
898.377	95.09607
898.547	252.0667
898.717	403.66131
898.886	167.99979
899.056	253.59147
899.226	363.54041
899.395	240.62517
899.565	297.10479
899.735	190.73959
899.904	320.30903
900.074	267.5487
900.244	131.07845
900.413	474.50111
900.583	125.39969
900.752	186.90841
900.922	290.20678
901.091	48.07847
901.261	258.54858
901.43	245.44976
901.599	241.00987
901.769	523.28158
901.938	283.5539
902.108	270.86957
902.277	344.80053
902.446	109.79953
902.616	125.69631
902.785	164.07581
902.954	275.48431
903.124	182.06203
903.293	148.71528
903.462	90.11537
903.631	116.73514
903.801	88.97361
903.97	55.43455
904.139	84.4699
904.308	65.86001
904.477	53.93451
904.646	35.96366
904.816	52.6854
904.985	71.52491
905.154	103.97308
