Data from WindowProjectSample_Transmission__15__00015.txt Node

Date: Sat May 03 15:09:29 EDT 2025
User: jessi
Spectrometer: SR400872
Trigger mode: 0
Integration Time (sec): 5.000010E-1
Scans to average: 6
Electric dark correction enabled: true
Nonlinearity correction enabled: true
Boxcar width: 0
XAxis mode: Wavelengths
Number of Pixels in Spectrum: 3648
>>>>>Begin Spectral Data<<<<<
184.909	18058.98662
185.132	2575.46201
185.355	23552.52666
185.578	-8310.43566
185.801	377.53259
186.024	-1450.00338
186.247	899.80551
186.47	1858.22644
186.693	-452.26392
186.916	-3067.29541
187.139	-2623.33326
187.362	1429.79266
187.585	3182.84812
187.808	-3658.75572
188.031	-210.44841
188.254	-1248.07254
188.476	-728.04734
188.699	2375.56894
188.922	-821.31376
189.145	-9703.55891
189.368	-253.19391
189.591	-1476.75842
189.813	-1674.34694
190.036	1260.85339
190.259	1607.9161
190.482	552.80187
190.705	10356.10459
190.927	-1043.29116
191.15	3460.1608
191.373	2275.9545
191.595	-2180.57564
191.818	2599.11576
192.041	-311.06531
192.263	2639.34446
192.486	1814.93244
192.709	-5531.28072
192.931	2673.5353
193.154	-6202.89334
193.377	186550.73797
193.599	1550.75914
193.822	1829.09308
194.044	-2052.04963
194.267	466.86971
194.489	-343.97986
194.712	1432.68971
194.934	3390.02692
195.157	-16982.86492
195.379	761.59113
195.602	1926.57137
195.824	1969.09734
196.047	2441.96204
196.269	2864.16929
196.492	2992.62996
196.714	2692.697
196.936	1116.65382
197.159	1349.48282
197.381	-2444.53847
197.604	-694.22649
197.826	6411.90312
198.048	3032.31415
198.271	4183.13586
198.493	2149.45208
198.715	-5918.23835
198.938	-653.76651
199.16	1759.00356
199.382	1408.03844
199.604	-631.67075
199.827	9011.1914
200.049	921.26202
200.271	-3113.30379
200.493	-53280.12261
200.715	2133.50793
200.938	6450.34156
201.16	-7079.20446
201.382	-3079.45475
201.604	-2039.92714
201.826	6936.94881
202.048	881.36397
202.27	-16996.1329
202.492	4795.26015
202.715	-1111.63996
202.937	4385.69015
203.159	-2283.7622
203.381	872.20984
203.603	-3732.55453
203.825	-2428.04453
204.047	3229.04777
204.269	-2203.85115
204.491	2069.22101
204.713	1757.70702
204.935	14683.38141
205.156	1576.7842
205.378	-7765.82117
205.6	-3952.91381
205.822	8673.55426
206.044	-582.92994
206.266	3999.16047
206.488	1100.82825
206.71	28483.84341
206.932	2390.8128
207.153	-4755.86734
207.375	-1835.17893
207.597	8783.96922
207.819	4190.54981
208.041	2161.29748
208.262	-2661.757
208.484	-1156.90078
208.706	-2659.51656
208.927	26871.00688
209.149	918.31284
209.371	-6254.42326
209.593	1198.44036
209.814	4654.75675
210.036	-2994.80043
210.258	-5584.28616
210.479	-1271.62997
210.701	890.01852
210.922	6726.06729
211.144	-1168.17828
211.366	-5436.28964
211.587	-573.6654
211.809	9292.54588
212.03	-1188.49176
212.252	-1997.86504
212.473	773.4095
212.695	-2132.60933
212.916	2813.79256
213.138	3495.36355
213.359	-1820.28097
213.581	6650.20953
213.802	-1473.05615
214.024	17333.49084
214.245	-3054.85501
214.466	-690.06308
214.688	1548.47003
214.909	927.59349
215.131	-93684.13729
215.352	1466.81017
215.573	2405.43759
215.795	2838.11214
216.016	4147.93009
216.237	-556.52722
216.459	6689.22606
216.68	105083.15789
216.901	-85642.96383
217.122	1639.7636
217.344	5925.97526
217.565	-55706.9144
217.786	1510.80775
218.007	1952.5163
218.228	-1096.62862
218.45	-1177.97924
218.671	-1236.78245
218.892	1117.27047
219.113	-20169.5905
219.334	-313.47791
219.555	-5148.88295
219.776	1528.43957
219.997	3359.54014
220.219	1079.08943
220.44	2499.37425
220.661	-2928.22474
220.882	3546.45868
221.103	-1228.81527
221.324	934.08205
221.545	2186.58445
221.766	-5971.87572
221.987	4189.49664
222.208	-1748.1996
222.429	3480.97513
222.65	-96.36733
222.87	-515.46216
223.091	8202.90022
223.312	2423.50091
223.533	5997.91471
223.754	1862.05769
223.975	1411.36741
224.196	-11118.93529
224.417	1020.26228
224.637	951.38762
224.858	-394.925
225.079	6153.06196
225.3	555.65788
225.521	2058.53422
225.741	1443.81998
225.962	722.30252
226.183	282.68991
226.404	685.19062
226.624	586.60033
226.845	367.9496
227.066	405.59345
227.286	190.96229
227.507	88.65165
227.728	78.93926
227.948	121.01272
228.169	37.08062
228.389	46.32706
228.61	23.54265
228.831	34.86951
229.051	3.02868
229.272	21.1743
229.492	29.96946
229.713	9.25228
229.933	23.16595
230.154	19.84749
230.374	30.90912
230.595	24.11784
230.815	15.89567
231.036	21.61759
231.256	-3.71338
231.477	41.26269
231.697	24.87386
231.917	25.49656
232.138	38.24512
232.358	71.623
232.579	64.99732
232.799	6.9969
233.019	66.00108
233.24	77.21674
233.46	21.72314
233.68	40.73974
233.901	28.38146
234.121	17.20202
234.341	7.65931
234.561	-1.59637
234.782	15.24595
235.002	45.55965
235.222	-1.6628
235.442	40.70063
235.662	20.29997
235.883	43.69159
236.103	35.53913
236.323	25.12206
236.543	18.99718
236.763	28.76288
236.983	28.24725
237.203	29.00997
237.423	43.46112
237.643	61.60455
237.864	51.98805
238.084	13.06828
238.304	21.26951
238.524	32.19782
238.744	29.21273
238.964	45.8248
239.184	43.20023
239.404	44.46856
239.624	22.09851
239.843	39.91966
240.063	21.95142
240.283	16.24622
240.503	16.53059
240.723	16.06106
240.943	7.91408
241.163	13.76332
241.383	10.28367
241.603	5.23492
241.822	6.01671
242.042	4.17607
242.262	5.7054
242.482	6.51726
242.702	8.32634
242.921	2.59882
243.141	5.65324
243.361	4.96459
243.581	7.14533
243.8	5.91911
244.02	3.80375
244.24	7.41745
244.459	7.80687
244.679	14.52702
244.899	8.78118
245.118	10.71361
245.338	8.85758
245.558	10.30963
245.777	6.76068
245.997	7.16284
246.216	7.54137
246.436	4.14488
246.655	3.17822
246.875	2.49027
247.094	4.86528
247.314	1.69815
247.533	2.7932
247.753	3.67958
247.972	2.81948
248.192	1.05759
248.411	1.64812
248.631	3.4719
248.85	3.75751
249.07	2.72716
249.289	5.15918
249.508	3.55223
249.728	6.2386
249.947	6.55355
250.166	6.14526
250.386	3.56385
250.605	5.31436
250.824	8.3167
251.044	5.26739
251.263	20.65134
251.482	10.39692
251.701	9.85203
251.921	-0.32255
252.14	2.87284
252.359	3.59563
252.578	7.78261
252.798	3.09207
253.017	7.28187
253.236	3.72882
253.455	4.57396
253.674	9.58309
253.893	4.03351
254.112	5.92708
254.331	9.61614
254.551	6.41834
254.77	3.8692
254.989	11.55364
255.208	9.95083
255.427	11.54728
255.646	10.87836
255.865	16.47113
256.084	6.55967
256.303	7.84142
256.522	11.28909
256.741	1.51541
256.96	2.88086
257.179	7.42766
257.397	8.53166
257.616	4.05934
257.835	5.20452
258.054	11.90379
258.273	6.81478
258.492	9.04657
258.711	5.20607
258.93	2.20106
259.148	3.24927
259.367	3.52306
259.586	4.42205
259.805	1.93051
260.023	4.03118
260.242	3.12027
260.461	2.2659
260.68	1.21083
260.898	3.73227
261.117	1.22805
261.336	0.94091
261.554	3.22593
261.773	3.37457
261.992	0.73819
262.21	3.07591
262.429	3.66326
262.648	6.24605
262.866	6.73742
263.085	4.71856
263.303	4.21521
263.522	7.28708
263.74	7.85598
263.959	12.2588
264.178	6.47689
264.396	6.04801
264.615	4.03801
264.833	9.71211
265.051	8.42941
265.27	7.79948
265.488	9.20574
265.707	5.68203
265.925	8.86688
266.144	4.49501
266.362	5.1628
266.58	5.53051
266.799	4.19865
267.017	5.16543
267.235	4.55747
267.454	2.64521
267.672	1.42018
267.89	3.54806
268.109	3.96906
268.327	3.63089
268.545	0.96732
268.763	3.78123
268.982	1.22787
269.2	4.25988
269.418	2.5622
269.636	1.73823
269.854	3.33826
270.073	2.82237
270.291	1.50415
270.509	1.65047
270.727	3.71057
270.945	6.00544
271.163	6.00901
271.381	1.15624
271.599	2.22291
271.817	4.48725
272.036	1.693
272.254	2.66034
272.472	1.84963
272.69	1.85935
272.908	2.13129
273.126	3.85681
273.344	4.4523
273.562	1.66863
273.779	2.44897
273.997	3.30521
274.215	3.59629
274.433	2.66251
274.651	3.69639
274.869	3.87968
275.087	2.51144
275.305	3.72482
275.523	1.6119
275.74	2.89691
275.958	4.94928
276.176	6.57913
276.394	2.08876
276.612	2.86669
276.829	2.60048
277.047	2.33143
277.265	2.54298
277.483	3.03794
277.7	3.83366
277.918	3.2767
278.136	5.50857
278.353	2.50239
278.571	1.21266
278.789	4.30473
279.006	0.76311
279.224	2.74271
279.442	4.39629
279.659	2.8054
279.877	1.7562
280.094	4.40249
280.312	0.92828
280.529	2.92652
280.747	0.67012
280.964	2.24906
281.182	5.37687
281.399	2.32198
281.617	3.35398
281.834	2.31585
282.052	2.03053
282.269	2.72606
282.487	2.07135
282.704	1.58668
282.921	2.07897
283.139	2.79279
283.356	3.72189
283.574	2.90315
283.791	1.71396
284.008	4.65776
284.226	2.48078
284.443	2.88164
284.66	3.51976
284.877	2.9883
285.095	2.04841
285.312	1.31261
285.529	0.85163
285.746	0.69657
285.964	1.78816
286.181	1.10238
286.398	1.84235
286.615	2.41435
286.832	2.35527
287.05	0.71082
287.267	1.62946
287.484	2.48522
287.701	2.51194
287.918	2.23874
288.135	2.53982
288.352	1.21505
288.569	1.42507
288.786	1.9313
289.003	1.62413
289.22	2.52091
289.437	1.56883
289.654	2.5208
289.871	2.79851
290.088	2.58721
290.305	2.14025
290.522	1.66634
290.739	1.94501
290.956	2.85014
291.173	3.39633
291.39	3.11012
291.607	2.30319
291.824	1.53216
292.04	0.79361
292.257	2.64375
292.474	2.98248
292.691	1.76726
292.908	0.89962
293.125	1.84123
293.341	0.8442
293.558	4.52525
293.775	1.84591
293.992	1.86689
294.208	0.89004
294.425	1.14513
294.642	1.4859
294.858	2.30717
295.075	0.71586
295.292	1.66868
295.508	2.12463
295.725	3.50567
295.942	1.68766
296.158	1.13781
296.375	1.98207
296.591	1.44108
296.808	1.6482
297.024	1.80405
297.241	2.00695
297.458	2.24543
297.674	0.2349
297.891	1.69389
298.107	1.41501
298.323	0.99716
298.54	2.60907
298.756	1.192
298.973	0.56776
299.189	2.73034
299.406	1.13424
299.622	2.73154
299.838	2.5607
300.055	2.4641
300.271	0.82156
300.487	0.94527
300.704	1.12253
300.92	0.80887
301.136	3.75798
301.353	2.55529
301.569	1.88511
301.785	2.13708
302.001	2.5098
302.218	2.28146
302.434	2.20031
302.65	0.7011
302.866	1.47667
303.083	3.54869
303.299	3.40779
303.515	1.87123
303.731	2.16207
303.947	0.80936
304.163	1.24205
304.379	2.20536
304.595	2.42151
304.812	1.4818
305.028	1.19575
305.244	1.56254
305.46	2.47265
305.676	2.63968
305.892	3.34321
306.108	2.13641
306.324	1.45904
306.54	3.62177
306.756	2.5434
306.972	2.34038
307.187	1.795
307.403	3.13586
307.619	1.28348
307.835	2.82211
308.051	3.20818
308.267	0.8178
308.483	2.78623
308.699	2.33486
308.914	2.1205
309.13	1.77886
309.346	0.69204
309.562	1.16973
309.778	0.75731
309.993	2.41108
310.209	1.93364
310.425	0.89645
310.641	1.73758
310.856	1.06447
311.072	1.07822
311.288	1.80973
311.503	2.18642
311.719	0.56358
311.935	0.45154
312.15	2.24749
312.366	2.05449
312.581	2.55081
312.797	2.0907
313.013	2.60065
313.228	1.57509
313.444	1.9519
313.659	1.42822
313.875	2.33241
314.09	1.72662
314.306	2.86138
314.521	2.53196
314.737	2.58697
314.952	2.23202
315.168	1.87843
315.383	2.53308
315.599	1.69395
315.814	1.69782
316.029	2.38648
316.245	1.08489
316.46	0.73893
316.675	3.01467
316.891	3.79369
317.106	4.53003
317.321	2.76346
317.537	2.56852
317.752	2.83474
317.967	2.91998
318.183	1.33985
318.398	1.7271
318.613	2.91868
318.828	3.40133
319.043	2.67356
319.259	1.5246
319.474	2.29441
319.689	2.99833
319.904	0.61091
320.119	3.05003
320.334	2.32471
320.549	1.79294
320.765	3.02567
320.98	2.38895
321.195	2.92823
321.41	2.07512
321.625	2.69083
321.84	3.77248
322.055	3.85824
322.27	1.65123
322.485	1.13442
322.7	2.21356
322.915	2.99651
323.13	1.52365
323.345	3.46226
323.56	2.44318
323.775	2.78807
323.989	2.55562
324.204	2.30901
324.419	2.82548
324.634	1.25782
324.849	1.96896
325.064	4.4392
325.279	3.15496
325.493	2.76833
325.708	3.0277
325.923	1.48082
326.138	1.64744
326.352	3.49875
326.567	2.92358
326.782	1.81497
326.997	1.62986
327.211	2.47896
327.426	2.4753
327.641	2.03896
327.855	0.78927
328.07	2.75054
328.285	3.80606
328.499	1.92029
328.714	2.77015
328.928	2.91522
329.143	2.29125
329.358	3.24223
329.572	3.08717
329.787	3.44328
330.001	4.38788
330.216	0.88463
330.43	3.77528
330.645	3.53357
330.859	2.96272
331.074	1.5872
331.288	2.34182
331.503	3.63537
331.717	1.44296
331.931	2.27935
332.146	2.42971
332.36	3.80952
332.575	2.75012
332.789	2.46491
333.003	2.40031
333.218	2.89526
333.432	2.00362
333.646	2.92044
333.86	3.77038
334.075	3.7002
334.289	2.04442
334.503	1.50099
334.717	3.03673
334.932	2.69313
335.146	3.44731
335.36	1.7851
335.574	2.85203
335.788	2.64237
336.003	3.37713
336.217	3.07728
336.431	2.85697
336.645	1.7302
336.859	1.35827
337.073	2.18991
337.287	2.67279
337.501	1.34846
337.715	2.75509
337.929	2.9523
338.143	1.63084
338.357	2.38896
338.571	1.82752
338.785	3.17542
338.999	1.95547
339.213	2.16819
339.427	1.34086
339.641	3.38733
339.855	2.18673
340.069	1.88005
340.283	3.44567
340.497	3.91495
340.711	2.70311
340.924	2.45112
341.138	1.6382
341.352	1.2865
341.566	2.70713
341.78	1.32633
341.993	1.98863
342.207	1.65603
342.421	2.80102
342.635	2.50297
342.848	2.20327
343.062	0.60577
343.276	2.04743
343.49	4.29098
343.703	2.09356
343.917	3.1466
344.131	3.32328
344.344	1.79972
344.558	2.0009
344.771	1.65099
344.985	3.67796
345.199	4.04881
345.412	2.68182
345.626	2.81611
345.839	1.20074
346.053	1.54724
346.266	1.584
346.48	3.01797
346.693	2.76149
346.907	3.13486
347.12	1.75972
347.334	2.79687
347.547	2.82232
347.76	2.56628
347.974	3.58319
348.187	2.6715
348.401	2.27416
348.614	1.91712
348.827	2.25584
349.041	3.03074
349.254	1.08845
349.467	2.31035
349.681	1.51491
349.894	1.90291
350.107	3.60259
350.32	3.93672
350.534	1.24266
350.747	2.17119
350.96	1.75659
351.173	1.98974
351.386	2.34031
351.6	2.10375
351.813	2.19124
352.026	2.46614
352.239	1.69986
352.452	2.14906
352.665	3.21838
352.878	2.26758
353.092	4.53131
353.305	3.03961
353.518	2.87539
353.731	1.86214
353.944	3.50559
354.157	2.00537
354.37	1.97677
354.583	1.6442
354.796	1.39075
355.009	3.41339
355.222	2.56404
355.435	2.70215
355.647	3.49219
355.86	1.89842
356.073	2.52965
356.286	2.11144
356.499	3.31579
356.712	3.16413
356.925	3.02558
357.138	3.38051
357.35	1.9222
357.563	2.44812
357.776	2.89334
357.989	2.71466
358.201	3.13074
358.414	2.86676
358.627	3.7617
358.84	2.53745
359.052	1.82808
359.265	1.99218
359.478	3.5826
359.69	0.64006
359.903	3.18075
360.116	3.4598
360.328	1.50436
360.541	3.39994
360.753	2.07043
360.966	2.3429
361.179	2.61122
361.391	2.5294
361.604	2.18036
361.816	2.53071
362.029	2.40696
362.241	2.38043
362.454	2.6461
362.666	2.27239
362.879	3.05965
363.091	2.69838
363.304	2.39566
363.516	2.72482
363.728	2.12828
363.941	3.23128
364.153	2.76069
364.366	1.39991
364.578	2.02922
364.79	3.22227
365.003	3.00829
365.215	2.59044
365.427	3.23297
365.639	3.62099
365.852	3.15828
366.064	4.33089
366.276	2.50003
366.488	3.24323
366.701	2.69529
366.913	2.78969
367.125	2.90624
367.337	2.44402
367.549	2.64177
367.762	2.90212
367.974	2.93547
368.186	2.64592
368.398	3.71857
368.61	3.28731
368.822	3.43255
369.034	3.01224
369.246	3.6886
369.458	5.11311
369.67	2.36161
369.882	4.37771
370.094	1.58171
370.306	4.21681
370.518	2.82918
370.73	2.47958
370.942	2.5317
371.154	2.97271
371.366	2.69691
371.578	3.49291
371.79	2.78074
372.002	4.03393
372.214	4.75115
372.425	3.16309
372.637	4.29905
372.849	3.38886
373.061	1.65284
373.273	3.65374
373.484	3.53859
373.696	4.02567
373.908	1.65528
374.12	3.94808
374.331	3.78639
374.543	2.77816
374.755	2.53636
374.967	3.37539
375.178	4.10325
375.39	3.27677
375.602	3.4427
375.813	2.53914
376.025	2.55452
376.236	3.43473
376.448	3.55246
376.66	3.24745
376.871	3.24696
377.083	4.26996
377.294	4.78928
377.506	3.38068
377.717	4.50275
377.929	3.93654
378.14	3.37585
378.352	3.99471
378.563	4.12577
378.775	4.80045
378.986	3.12579
379.197	4.00244
379.409	3.32211
379.62	4.1091
379.832	3.9441
380.043	3.68259
380.254	3.81766
380.466	2.9223
380.677	5.86193
380.888	5.38649
381.1	5.77096
381.311	5.60353
381.522	4.12613
381.733	6.13755
381.945	3.89295
382.156	3.80099
382.367	3.90309
382.578	5.94191
382.789	6.24071
383.001	3.65731
383.212	5.2115
383.423	5.26884
383.634	4.76334
383.845	4.45733
384.056	3.70006
384.267	4.21331
384.478	4.20125
384.69	3.39371
384.901	4.6335
385.112	4.28266
385.323	5.43154
385.534	4.80814
385.745	4.90396
385.956	4.56356
386.167	3.79453
386.378	4.656
386.588	3.94751
386.799	3.79249
387.01	3.32232
387.221	5.12581
387.432	4.54814
387.643	5.87311
387.854	4.36303
388.065	4.3583
388.275	4.40101
388.486	4.27428
388.697	4.59197
388.908	4.35127
389.119	5.47226
389.329	5.81414
389.54	4.70186
389.751	5.10151
389.962	5.70047
390.172	4.78582
390.383	4.59344
390.594	4.31759
390.804	4.21294
391.015	4.27336
391.226	4.99779
391.436	5.41773
391.647	5.33722
391.858	5.42252
392.068	4.04821
392.279	4.32551
392.489	5.3614
392.7	5.78195
392.91	4.76939
393.121	4.62814
393.331	5.46479
393.542	5.96463
393.752	5.72577
393.963	5.42281
394.173	5.40591
394.384	5.68914
394.594	5.27933
394.804	4.52357
395.015	5.27145
395.225	5.68005
395.436	4.83752
395.646	5.75966
395.856	5.13395
396.067	4.29619
396.277	6.01094
396.487	5.66075
396.697	5.747
396.908	6.02413
397.118	5.90176
397.328	5.40793
397.538	6.20551
397.749	4.91865
397.959	6.09586
398.169	5.81973
398.379	4.54692
398.589	5.80338
398.8	5.82259
399.01	5.57292
399.22	5.46328
399.43	6.9909
399.64	5.43107
399.85	6.17021
400.06	5.64493
400.27	5.2596
400.48	5.65313
400.69	6.45833
400.9	5.43735
401.11	5.0593
401.32	6.19901
401.53	5.26633
401.74	6.55857
401.95	6.06938
402.16	5.35068
402.37	5.89556
402.58	5.3257
402.79	6.29514
403	6.35156
403.209	5.31541
403.419	6.42999
403.629	5.37268
403.839	6.45089
404.049	6.41033
404.258	5.51903
404.468	5.62778
404.678	6.56647
404.888	6.84966
405.097	5.94994
405.307	6.13637
405.517	6.55512
405.727	6.31357
405.936	5.96384
406.146	6.35601
406.356	7.07213
406.565	6.22821
406.775	5.79658
406.984	5.99192
407.194	7.70303
407.404	6.30621
407.613	6.65909
407.823	6.6498
408.032	7.01912
408.242	6.70278
408.451	6.08576
408.661	6.19939
408.87	7.34597
409.08	5.67498
409.289	6.59856
409.499	6.4181
409.708	6.33334
409.918	4.99747
410.127	6.43405
410.336	7.30094
410.546	6.98213
410.755	5.99774
410.964	6.33313
411.174	5.75306
411.383	6.73627
411.592	6.76324
411.802	5.96468
412.011	6.94183
412.22	6.47673
412.429	7.47834
412.639	7.68791
412.848	7.28524
413.057	7.79173
413.266	7.07538
413.475	6.55232
413.685	7.02107
413.894	7.01224
414.103	7.18204
414.312	7.15837
414.521	6.56334
414.73	6.78342
414.939	7.9052
415.148	6.95637
415.357	6.88565
415.566	6.51792
415.776	6.47951
415.985	6.64377
416.194	7.25867
416.403	8.02
416.611	6.14746
416.82	6.47813
417.029	7.16171
417.238	6.64758
417.447	6.57787
417.656	6.99092
417.865	6.69314
418.074	7.16673
418.283	7.85608
418.492	8.71818
418.7	8.70631
418.909	9.94291
419.118	8.98016
419.327	9.47089
419.536	9.22398
419.744	9.38932
419.953	10.62106
420.162	10.97465
420.371	10.13542
420.579	10.65519
420.788	11.60038
420.997	11.80679
421.205	12.14137
421.414	12.01416
421.623	12.11606
421.831	11.53532
422.04	12.29692
422.249	11.4368
422.457	11.71275
422.666	10.75578
422.874	11.85611
423.083	11.79407
423.291	11.59303
423.5	11.5766
423.708	11.96605
423.917	12.64357
424.125	11.85088
424.334	11.83989
424.542	13.69775
424.751	13.0731
424.959	12.66
425.167	12.91987
425.376	12.66129
425.584	11.56446
425.793	11.44596
426.001	10.35164
426.209	10.60847
426.418	9.37455
426.626	8.70587
426.834	8.41722
427.042	8.33027
427.251	7.93161
427.459	8.59488
427.667	8.23745
427.875	7.30869
428.084	7.80263
428.292	8.64868
428.5	8.32842
428.708	7.40414
428.916	7.38098
429.124	7.97137
429.333	7.73358
429.541	7.72745
429.749	7.97589
429.957	7.75543
430.165	9.49131
430.373	7.20668
430.581	7.95226
430.789	8.76809
430.997	7.75953
431.205	7.42463
431.413	8.06045
431.621	7.67132
431.829	8.3132
432.037	7.57498
432.245	8.48389
432.453	8.15405
432.661	7.89749
432.869	9.27255
433.076	8.10228
433.284	8.68408
433.492	9.27028
433.7	9.6787
433.908	8.86995
434.116	9.16632
434.323	8.85859
434.531	8.79613
434.739	8.79314
434.947	9.01326
435.154	9.01521
435.362	8.47808
435.57	8.29673
435.778	8.07364
435.985	8.44905
436.193	8.03672
436.401	8.98431
436.608	8.21267
436.816	7.97989
437.023	9.11702
437.231	9.23876
437.439	8.47679
437.646	8.55872
437.854	8.44654
438.061	8.80263
438.269	8.34821
438.476	8.71796
438.684	8.62754
438.891	8.86033
439.099	8.72611
439.306	8.65716
439.514	8.87395
439.721	10.11817
439.929	9.88063
440.136	10.91002
440.343	10.97215
440.551	10.68511
440.758	12.62242
440.965	11.34494
441.173	10.91049
441.38	10.71278
441.587	10.64796
441.795	10.32695
442.002	9.88099
442.209	9.82
442.416	9.69948
442.624	9.52125
442.831	9.20936
443.038	8.55196
443.245	8.20695
443.452	8.43986
443.66	9.05414
443.867	8.29388
444.074	8.22281
444.281	8.60641
444.488	8.87254
444.695	9.3404
444.902	9.46657
445.109	10.78801
445.316	10.58758
445.523	10.88907
445.73	11.00825
445.937	12.18183
446.144	12.66617
446.351	13.06132
446.558	11.93107
446.765	13.99988
446.972	13.28512
447.179	12.77284
447.386	13.60305
447.593	11.79789
447.8	12.86
448.007	11.37434
448.214	10.75256
448.42	10.08576
448.627	10.40951
448.834	9.57781
449.041	9.30467
449.248	9.18819
449.454	9.30867
449.661	10.1833
449.868	8.68215
450.075	8.61999
450.281	7.84251
450.488	8.23644
450.695	8.2669
450.901	8.13884
451.108	8.4114
451.315	9.3559
451.521	8.388
451.728	9.32262
451.935	8.36322
452.141	8.52852
452.348	8.76752
452.554	8.76715
452.761	8.42444
452.967	9.76688
453.174	8.86734
453.38	9.08579
453.587	8.32822
453.793	9.01832
454	9.37412
454.206	10.09238
454.413	9.62577
454.619	9.21054
454.825	8.41871
455.032	9.16594
455.238	9.45197
455.445	8.23449
455.651	8.97228
455.857	8.02559
456.064	8.71514
456.27	8.58722
456.476	8.65064
456.682	8.13648
456.889	8.96491
457.095	9.18132
457.301	9.81974
457.507	8.91231
457.714	8.68369
457.92	8.6511
458.126	8.29897
458.332	8.68357
458.538	8.62577
458.744	9.02469
458.951	9.68743
459.157	11.90537
459.363	11.17984
459.569	11.8607
459.775	12.45554
459.981	12.1461
460.187	12.78303
460.393	12.83291
460.599	13.34152
460.805	12.16737
461.011	11.29288
461.217	11.41539
461.423	10.50651
461.629	9.70372
461.835	9.93315
462.041	9.27825
462.247	10.3155
462.453	9.08434
462.658	9.16124
462.864	9.77036
463.07	9.28828
463.276	9.31019
463.482	9.14134
463.688	9.87258
463.893	8.65313
464.099	8.97872
464.305	9.94063
464.511	8.90576
464.716	8.99837
464.922	9.60683
465.128	8.64299
465.333	10.30166
465.539	9.48808
465.745	9.32073
465.95	9.11732
466.156	10.96588
466.362	9.9305
466.567	9.16148
466.773	8.77864
466.978	10.31287
467.184	8.67868
467.389	8.24469
467.595	9.4671
467.8	8.82435
468.006	10.15493
468.211	10.05447
468.417	8.90507
468.622	9.83452
468.828	9.8156
469.033	9.6487
469.239	11.01396
469.444	9.14415
469.649	9.79283
469.855	9.2323
470.06	9.40597
470.266	8.76894
470.471	9.63345
470.676	9.63296
470.881	8.40586
471.087	10.2282
471.292	10.56063
471.497	8.73132
471.703	9.24232
471.908	9.10209
472.113	9.51799
472.318	9.95082
472.523	8.69109
472.729	9.60181
472.934	9.67954
473.139	9.27203
473.344	9.87659
473.549	10.22694
473.754	9.16742
473.959	11.16888
474.164	9.01172
474.369	9.37608
474.575	9.74516
474.78	9.61897
474.985	8.89873
475.19	8.41794
475.395	8.81159
475.6	9.42019
475.804	10.29682
476.009	9.33335
476.214	9.38517
476.419	9.19177
476.624	8.43744
476.829	8.97098
477.034	9.74389
477.239	9.24275
477.444	9.80493
477.648	10.00894
477.853	9.97047
478.058	9.48202
478.263	9.11941
478.468	9.15257
478.672	9.03806
478.877	10.60889
479.082	10.77587
479.287	9.87584
479.491	9.60715
479.696	8.92776
479.901	10.15144
480.105	9.96251
480.31	9.24819
480.515	9.40735
480.719	10.98387
480.924	9.18454
481.128	9.16851
481.333	10.36371
481.538	10.43852
481.742	10.91319
481.947	12.2342
482.151	13.19121
482.356	13.9799
482.56	16.34485
482.765	18.12964
482.969	21.45612
483.174	24.22921
483.378	28.23645
483.582	29.86843
483.787	32.50863
483.991	33.58693
484.196	34.01642
484.4	33.65759
484.604	34.27544
484.809	31.58282
485.013	29.80008
485.217	27.2359
485.422	24.43127
485.626	21.90542
485.83	20.40879
486.034	19.35746
486.239	19.36446
486.443	19.62343
486.647	20.18254
486.851	21.49062
487.055	23.26125
487.26	23.15726
487.464	24.56713
487.668	24.29911
487.872	25.08159
488.076	25.40622
488.28	24.64405
488.484	23.30297
488.688	22.65211
488.892	21.63737
489.096	19.96751
489.3	18.3458
489.504	16.78783
489.708	15.89866
489.912	15.53065
490.116	15.04836
490.32	14.52456
490.524	15.70833
490.728	16.60237
490.932	17.56361
491.136	18.58272
491.34	20.23797
491.544	21.04822
491.748	20.8987
491.951	21.16116
492.155	20.57591
492.359	20.31362
492.563	18.56577
492.767	17.50413
492.97	15.85394
493.174	14.15531
493.378	12.92535
493.582	11.2866
493.785	10.63268
493.989	10.47865
494.193	9.9663
494.396	9.41198
494.6	9.84831
494.804	9.38432
495.007	9.68209
495.211	9.59657
495.414	9.65862
495.618	9.97398
495.822	10.4288
496.025	9.76398
496.229	10.38718
496.432	9.96692
496.636	10.53706
496.839	10.76448
497.043	11.60607
497.246	10.96507
497.45	10.59975
497.653	10.86505
497.856	10.74026
498.06	10.11606
498.263	10.38249
498.467	10.09917
498.67	10.90394
498.873	10.50122
499.077	10.18895
499.28	10.25746
499.483	10.51786
499.686	10.87263
499.89	10.57333
500.093	10.81493
500.296	9.74613
500.499	11.05532
500.703	10.10656
500.906	10.23805
501.109	11.29793
501.312	10.23747
501.515	9.94871
501.719	10.48737
501.922	11.00361
502.125	10.28407
502.328	10.05781
502.531	9.43035
502.734	9.96964
502.937	9.07214
503.14	10.12342
503.343	9.49325
503.546	9.71256
503.749	9.83654
503.952	10.31308
504.155	9.55683
504.358	10.43016
504.561	10.45239
504.764	9.42888
504.967	10.15763
505.17	10.07613
505.373	11.17505
505.576	10.28816
505.778	10.67292
505.981	9.65266
506.184	10.85413
506.387	9.18359
506.59	11.24126
506.793	10.62495
506.995	10.4223
507.198	8.88996
507.401	10.27292
507.604	10.35454
507.806	9.4792
508.009	9.56796
508.212	10.61105
508.414	9.80254
508.617	9.75779
508.82	10.13547
509.022	11.07001
509.225	10.38302
509.427	9.44041
509.63	11.01524
509.833	10.38043
510.035	10.16297
510.238	9.50144
510.44	11.17806
510.643	9.25229
510.845	11.61786
511.048	10.53798
511.25	9.94026
511.453	10.15491
511.655	10.53748
511.858	10.07005
512.06	10.82475
512.262	10.59044
512.465	10.82275
512.667	10.20192
512.869	9.85529
513.072	10.69139
513.274	10.85259
513.476	10.94115
513.679	11.00493
513.881	9.9783
514.083	11.1454
514.286	9.98794
514.488	9.87723
514.69	9.78125
514.892	9.57776
515.094	10.60721
515.297	9.84186
515.499	10.34844
515.701	9.50411
515.903	11.20444
516.105	11.16199
516.307	10.60155
516.509	8.91439
516.711	9.39139
516.913	9.97958
517.116	10.01991
517.318	9.66497
517.52	10.56721
517.722	10.46258
517.924	9.95835
518.126	11.08776
518.328	10.797
518.529	11.70773
518.731	12.63657
518.933	11.2064
519.135	11.54196
519.337	12.00191
519.539	11.46622
519.741	9.98254
519.943	10.72275
520.145	10.61119
520.346	11.1935
520.548	10.50323
520.75	10.85408
520.952	10.38141
521.153	10.68898
521.355	10.76924
521.557	9.98483
521.759	10.47967
521.96	10.24032
522.162	9.86065
522.364	10.88412
522.565	9.72591
522.767	10.82954
522.969	10.97943
523.17	10.44947
523.372	10.37799
523.573	9.98255
523.775	10.0155
523.977	9.67622
524.178	11.32687
524.38	9.76904
524.581	10.32176
524.783	9.77343
524.984	11.03676
525.186	11.10254
525.387	12.0349
525.589	11.94066
525.79	12.15354
525.991	12.14366
526.193	12.92859
526.394	12.42463
526.596	13.29015
526.797	13.55619
526.998	13.36153
527.2	13.71415
527.401	16.01298
527.602	17.19438
527.803	20.07785
528.005	21.55917
528.206	23.60597
528.407	24.88558
528.608	25.43648
528.81	26.02371
529.011	25.39944
529.212	26.46207
529.413	24.84245
529.614	23.44318
529.815	22.19811
530.017	20.43265
530.218	17.75559
530.419	16.14479
530.62	15.06699
530.821	14.15878
531.022	12.42702
531.223	13.32616
531.424	13.05096
531.625	12.86005
531.826	12.77362
532.027	13.22391
532.228	14.87878
532.429	14.90043
532.63	15.54284
532.831	16.70584
533.032	17.02643
533.233	17.98261
533.433	17.76814
533.634	18.08273
533.835	17.32884
534.036	16.6133
534.237	16.06653
534.438	15.03058
534.638	13.22964
534.839	12.69285
535.04	12.29894
535.241	11.46576
535.441	12.33841
535.642	11.70699
535.843	10.99527
536.043	11.55264
536.244	11.92238
536.445	12.36216
536.645	13.21089
536.846	12.82266
537.047	13.3621
537.247	11.91823
537.448	11.81734
537.648	11.74815
537.849	10.99296
538.049	11.25967
538.25	11.26042
538.451	11.2151
538.651	10.35526
538.851	11.05521
539.052	11.31624
539.252	11.00152
539.453	10.30778
539.653	10.28385
539.854	10.34162
540.054	11.17532
540.254	13.14159
540.455	14.41569
540.655	14.73793
540.855	16.85973
541.056	18.37965
541.256	18.69677
541.456	19.75548
541.657	19.0822
541.857	20.14652
542.057	18.33152
542.257	17.79559
542.458	17.98427
542.658	17.20559
542.858	15.21569
543.058	15.11279
543.258	14.03311
543.458	12.20739
543.659	11.723
543.859	12.17772
544.059	11.829
544.259	11.16271
544.459	11.50405
544.659	10.73377
544.859	11.26341
545.059	10.46896
545.259	11.16829
545.459	10.77166
545.659	11.10662
545.859	10.61213
546.059	10.67586
546.259	10.04065
546.459	9.86723
546.659	10.10053
546.859	11.19843
547.059	10.95069
547.258	11.36136
547.458	11.11839
547.658	10.49992
547.858	10.47014
548.058	11.29358
548.258	10.85669
548.457	10.40426
548.657	12.43773
548.857	10.69104
549.057	11.243
549.256	11.25085
549.456	10.19693
549.656	9.32781
549.855	11.89617
550.055	10.36266
550.255	11.63333
550.454	10.67738
550.654	10.88997
550.853	11.39622
551.053	10.84977
551.253	10.60252
551.452	10.64157
551.652	9.76761
551.851	9.08654
552.051	10.16164
552.25	9.9373
552.45	10.00693
552.649	10.08826
552.849	9.98025
553.048	10.4442
553.248	10.8202
553.447	9.78795
553.646	11.245
553.846	12.21362
554.045	11.51412
554.244	9.87438
554.444	11.93125
554.643	9.78763
554.842	11.7361
555.042	12.30806
555.241	10.31712
555.44	9.62402
555.64	10.84465
555.839	11.73859
556.038	10.64351
556.237	9.82846
556.436	10.40831
556.636	10.68964
556.835	9.6841
557.034	11.55443
557.233	10.27914
557.432	9.34089
557.631	11.02192
557.83	9.99591
558.029	9.98299
558.228	9.86892
558.427	9.7034
558.626	10.43834
558.825	9.95101
559.024	10.38326
559.223	12.05724
559.422	10.11787
559.621	10.54725
559.82	8.38688
560.019	10.17866
560.218	10.08361
560.417	8.12041
560.616	9.87056
560.815	12.81829
561.014	9.12978
561.212	11.62954
561.411	10.39383
561.61	9.16152
561.809	10.08452
562.008	11.73488
562.206	10.54716
562.405	10.90572
562.604	10.34202
562.803	10.67516
563.001	10.19112
563.2	9.2571
563.399	10.59508
563.597	9.31996
563.796	10.23838
563.995	9.21705
564.193	10.61819
564.392	9.85035
564.59	11.93065
564.789	8.76774
564.988	9.79203
565.186	10.50878
565.385	9.84546
565.583	10.11872
565.782	10.18964
565.98	10.30082
566.179	10.30961
566.377	9.67682
566.575	9.7809
566.774	11.71421
566.972	11.37888
567.171	12.35448
567.369	11.66349
567.567	10.84698
567.766	11.05615
567.964	9.10103
568.162	10.96272
568.361	11.23421
568.559	10.16186
568.757	10.61844
568.956	10.69196
569.154	10.31446
569.352	10.92901
569.55	10.41381
569.748	10.1113
569.947	9.87158
570.145	9.78792
570.343	9.67083
570.541	11.25447
570.739	9.21638
570.937	10.11277
571.135	10.5535
571.333	11.73037
571.532	11.61436
571.73	10.58723
571.928	11.34944
572.126	11.06008
572.324	10.23898
572.522	11.71356
572.72	12.89269
572.918	10.9534
573.116	11.09881
573.313	10.88846
573.511	10.51311
573.709	10.28796
573.907	11.09407
574.105	9.96508
574.303	9.2633
574.501	9.15129
574.699	10.62671
574.896	10.73677
575.094	11.05184
575.292	9.42486
575.49	11.24868
575.688	10.3854
575.885	11.50769
576.083	12.33394
576.281	11.40082
576.478	9.77691
576.676	11.13789
576.874	9.4194
577.071	10.1989
577.269	12.72868
577.467	10.48963
577.664	10.44836
577.862	11.34331
578.059	9.68404
578.257	11.15697
578.455	10.32949
578.652	10.70145
578.85	8.39137
579.047	10.64788
579.245	10.10878
579.442	10.45317
579.64	10.25768
579.837	8.60093
580.034	12.8048
580.232	10.19378
580.429	8.79975
580.627	10.50892
580.824	11.48649
581.021	10.9487
581.219	9.95909
581.416	9.38186
581.613	11.71275
581.811	11.44004
582.008	9.6187
582.205	10.8166
582.402	10.4983
582.6	12.3119
582.797	10.25411
582.994	10.57894
583.191	10.76214
583.388	10.12758
583.586	10.86785
583.783	11.42926
583.98	9.44184
584.177	10.62799
584.374	7.19472
584.571	10.0681
584.768	9.9657
584.965	9.54477
585.162	10.91058
585.359	12.04856
585.556	9.95721
585.753	10.38722
585.95	8.49888
586.147	9.75444
586.344	10.92884
586.541	9.77695
586.738	8.70926
586.935	10.12685
587.132	9.38872
587.329	11.33125
587.526	10.03336
587.722	15.03292
587.919	8.90543
588.116	10.31121
588.313	11.69363
588.51	12.44668
588.706	9.8018
588.903	10.59873
589.1	11.12147
589.297	12.9242
589.493	10.33243
589.69	10.88652
589.887	9.82982
590.083	9.26568
590.28	9.76378
590.477	11.26555
590.673	11.2167
590.87	12.01664
591.067	10.41187
591.263	11.10051
591.46	10.62214
591.656	10.24308
591.853	11.99635
592.049	9.60558
592.246	9.68568
592.442	11.8577
592.639	11.61001
592.835	9.11565
593.032	10.8871
593.228	8.73774
593.425	8.7575
593.621	8.46612
593.817	10.44971
594.014	9.44707
594.21	10.40956
594.406	11.32956
594.603	10.76573
594.799	9.73599
594.995	8.01133
595.192	11.517
595.388	9.70788
595.584	9.59247
595.78	8.8605
595.977	12.70457
596.173	11.99747
596.369	10.11367
596.565	9.57149
596.761	8.98484
596.957	11.81583
597.154	9.82116
597.35	10.0618
597.546	9.8812
597.742	11.45344
597.938	11.01328
598.134	10.01554
598.33	10.96623
598.526	12.49442
598.722	11.19404
598.918	12.67903
599.114	10.91519
599.31	9.88245
599.506	10.2326
599.702	9.59657
599.898	10.32581
600.094	11.28842
600.29	11.56868
600.485	11.33645
600.681	9.52903
600.877	12.23362
601.073	10.07442
601.269	12.60662
601.465	11.945
601.66	8.83781
601.856	8.21226
602.052	12.27709
602.248	9.44102
602.443	7.83847
602.639	9.08401
602.835	9.36299
603.03	8.98482
603.226	11.07622
603.422	9.01553
603.617	9.94342
603.813	9.56288
604.009	9.81408
604.204	11.55566
604.4	9.0698
604.595	11.62689
604.791	9.70738
604.986	10.8019
605.182	10.04973
605.377	10.38148
605.573	10.42827
605.768	11.10616
605.964	11.61329
606.159	11.66691
606.355	12.53305
606.55	10.40286
606.746	12.07323
606.941	10.73188
607.136	13.13671
607.332	14.14946
607.527	8.6802
607.722	10.91606
607.918	9.95074
608.113	9.27983
608.308	11.36821
608.503	10.74722
608.699	10.86766
608.894	10.95281
609.089	9.46153
609.284	10.86213
609.479	10.13012
609.675	11.25431
609.87	10.57378
610.065	11.53042
610.26	12.0741
610.455	11.83818
610.65	10.76146
610.845	11.20159
611.04	12.27979
611.235	10.9727
611.43	10.57188
611.625	9.49753
611.82	12.46075
612.015	9.79281
612.21	12.83398
612.405	8.61745
612.6	12.97798
612.795	12.36659
612.99	11.6277
613.185	9.25941
613.38	8.93422
613.575	10.74722
613.77	14.35165
613.965	8.36394
614.159	9.06408
614.354	12.34836
614.549	12.17359
614.744	11.32499
614.938	8.9653
615.133	9.40119
615.328	12.80402
615.523	12.03283
615.717	14.54634
615.912	9.76064
616.107	10.85868
616.301	9.94241
616.496	9.2352
616.691	12.62206
616.885	11.6607
617.08	14.47803
617.274	12.53676
617.469	13.68169
617.664	11.49048
617.858	9.92574
618.053	11.26322
618.247	10.20023
618.442	7.53735
618.636	13.00994
618.831	9.86599
619.025	10.08632
619.219	14.49969
619.414	6.63627
619.608	10.9586
619.803	9.80161
619.997	13.85227
620.191	12.5588
620.386	11.50121
620.58	10.88501
620.774	8.44181
620.969	8.26338
621.163	10.93841
621.357	8.9699
621.551	10.48548
621.746	11.06314
621.94	10.61699
622.134	16.0817
622.328	14.24868
622.522	8.49244
622.716	12.21414
622.911	12.33775
623.105	11.87494
623.299	11.33511
623.493	15.78448
623.687	9.30225
623.881	10.02861
624.075	11.3762
624.269	12.61555
624.463	7.97905
624.657	8.41194
624.851	11.49112
625.045	11.94676
625.239	12.1541
625.433	10.11184
625.627	13.21062
625.821	9.55007
626.015	9.48276
626.209	10.86818
626.403	8.33962
626.596	11.21636
626.79	12.16475
626.984	9.30574
627.178	12.27599
627.372	11.57186
627.565	12.38574
627.759	9.39448
627.953	9.64015
628.147	12.05597
628.34	12.38696
628.534	14.22649
628.728	11.29814
628.921	12.34486
629.115	12.73732
629.309	12.23387
629.502	13.02542
629.696	11.43321
629.89	11.022
630.083	11.42512
630.277	11.80414
630.47	14.04365
630.664	10.77865
630.857	8.94314
631.051	12.43013
631.244	13.24108
631.438	12.58194
631.631	9.52638
631.825	13.42622
632.018	12.50629
632.212	13.75569
632.405	13.06391
632.598	10.26384
632.792	10.72439
632.985	7.60962
633.178	10.63475
633.372	11.01228
633.565	11.01628
633.758	13.42558
633.952	9.60474
634.145	10.11189
634.338	11.35959
634.531	9.98105
634.724	10.30587
634.918	11.41571
635.111	10.80918
635.304	9.98931
635.497	15.5673
635.69	11.92944
635.883	12.94797
636.077	9.09779
636.27	11.92348
636.463	11.81986
636.656	12.28758
636.849	10.37673
637.042	12.45034
637.235	14.59278
637.428	12.93724
637.621	13.16223
637.814	13.98347
638.007	14.60458
638.2	14.34685
638.393	14.8441
638.586	9.86585
638.778	11.10013
638.971	12.01659
639.164	14.99442
639.357	12.57408
639.55	14.18117
639.743	13.27126
639.935	12.99682
640.128	15.85296
640.321	13.07171
640.514	11.61457
640.707	16.2799
640.899	13.22083
641.092	8.66839
641.285	27.76402
641.477	7.72993
641.67	16.04833
641.863	14.03288
642.055	12.24091
642.248	11.57653
642.441	10.83201
642.633	12.73578
642.826	13.99664
643.018	14.69243
643.211	16.09024
643.403	15.10893
643.596	16.34374
643.788	16.45447
643.981	11.21595
644.173	13.82033
644.366	12.22673
644.558	8.19213
644.751	14.15334
644.943	9.80396
645.135	16.49164
645.328	16.33972
645.52	13.89756
645.712	14.38309
645.905	20.05503
646.097	10.59016
646.289	13.1975
646.482	17.06003
646.674	10.87841
646.866	14.11819
647.058	13.42765
647.251	9.75355
647.443	11.29462
647.635	11.85717
647.827	9.80899
648.019	11.4309
648.211	12.93379
648.404	12.31759
648.596	16.6922
648.788	13.09247
648.98	12.55842
649.172	13.65505
649.364	13.32469
649.556	8.48161
649.748	17.41369
649.94	10.68103
650.132	14.40562
650.324	10.83018
650.516	11.6096
650.708	15.25246
650.9	9.7928
651.092	11.45049
651.284	9.8902
651.476	9.93887
651.667	14.35518
651.859	15.27464
652.051	12.565
652.243	12.81229
652.435	11.24795
652.627	13.81137
652.818	13.44378
653.01	9.48454
653.202	10.68237
653.394	12.10858
653.585	13.35059
653.777	23.7332
653.969	16.2083
654.16	15.47828
654.352	10.94695
654.544	11.75219
654.735	15.79531
654.927	12.36272
655.118	16.55089
655.31	14.25346
655.502	15.32421
655.693	11.32863
655.885	14.58975
656.076	15.94649
656.268	13.10413
656.459	16.41602
656.651	16.07914
656.842	11.29838
657.034	11.6851
657.225	14.35503
657.416	15.77693
657.608	16.28781
657.799	12.91981
657.99	15.38062
658.182	11.37913
658.373	11.28567
658.564	15.01092
658.756	12.73676
658.947	12.52606
659.138	11.08366
659.33	11.80093
659.521	11.43215
659.712	12.97417
659.903	12.88821
660.094	11.89945
660.286	10.18631
660.477	16.95345
660.668	14.98203
660.859	13.5615
661.05	10.37976
661.241	15.28149
661.432	15.08563
661.623	13.16333
661.814	12.62293
662.006	9.43608
662.197	14.778
662.388	15.85579
662.579	14.67774
662.77	16.71688
662.96	21.58471
663.151	16.14983
663.342	9.62638
663.533	15.11031
663.724	13.47382
663.915	18.77903
664.106	13.08097
664.297	18.33612
664.488	15.55778
664.678	13.12115
664.869	15.59189
665.06	16.15904
665.251	14.80742
665.442	15.17904
665.632	11.52003
665.823	19.40823
666.014	7.38733
666.204	16.26406
666.395	18.03046
666.586	22.43374
666.776	16.07998
666.967	18.41993
667.158	14.89958
667.348	18.07236
667.539	10.68993
667.729	17.06316
667.92	11.92417
668.111	16.96967
668.301	15.57782
668.492	13.41068
668.682	14.39057
668.873	12.95006
669.063	10.89242
669.253	14.09886
669.444	16.79794
669.634	13.78501
669.825	19.81537
670.015	17.13685
670.206	12.33701
670.396	20.60573
670.586	14.23118
670.777	15.20289
670.967	8.18885
671.157	14.07174
671.347	12.30546
671.538	18.9651
671.728	16.47271
671.918	20.3981
672.108	16.9278
672.299	14.71241
672.489	15.10275
672.679	14.05644
672.869	15.85199
673.059	20.00209
673.249	15.8415
673.44	12.32338
673.63	14.08656
673.82	17.48996
674.01	12.44447
674.2	16.1942
674.39	23.50592
674.58	16.46886
674.77	15.2953
674.96	14.86793
675.15	28.71195
675.34	19.30663
675.53	15.83651
675.72	14.51612
675.91	10.48684
676.099	21.39006
676.289	22.70221
676.479	17.91436
676.669	14.32524
676.859	16.31513
677.049	12.24884
677.238	15.8017
677.428	20.49651
677.618	16.89218
677.808	20.41227
677.997	15.79078
678.187	11.54575
678.377	13.98613
678.567	13.41105
678.756	14.21575
678.946	13.93924
679.136	11.37036
679.325	12.24613
679.515	11.73132
679.704	10.93813
679.894	16.696
680.084	16.24272
680.273	18.1441
680.463	12.4323
680.652	12.85952
680.842	14.7497
681.031	17.7378
681.221	12.88234
681.41	16.86286
681.6	14.86386
681.789	17.98465
681.978	18.96888
682.168	17.32095
682.357	16.13296
682.547	18.03649
682.736	17.19445
682.925	19.8171
683.115	19.08046
683.304	18.96734
683.493	17.43815
683.682	17.98816
683.872	17.52691
684.061	20.72115
684.25	18.05948
684.439	23.09083
684.629	19.30469
684.818	28.09998
685.007	16.67001
685.196	15.24331
685.385	22.68836
685.574	17.51149
685.763	17.41135
685.952	17.50594
686.142	12.96323
686.331	20.63084
686.52	10.87735
686.709	23.16213
686.898	22.32056
687.087	19.6535
687.276	23.03093
687.465	20.68182
687.654	16.32177
687.842	23.22806
688.031	13.14163
688.22	22.52962
688.409	18.34906
688.598	18.09817
688.787	26.86029
688.976	17.98834
689.165	24.42847
689.353	15.56447
689.542	19.68633
689.731	21.02889
689.92	25.36727
690.108	21.1247
690.297	16.34108
690.486	18.57318
690.675	21.21328
690.863	24.41291
691.052	23.7294
691.241	18.74156
691.429	18.2309
691.618	24.69622
691.806	13.26082
691.995	16.86653
692.184	18.26702
692.372	16.30947
692.561	18.60906
692.749	18.83853
692.938	29.07601
693.126	21.87767
693.315	18.18266
693.503	21.79828
693.692	21.95161
693.88	23.83974
694.068	27.91966
694.257	19.71051
694.445	21.42919
694.634	11.73422
694.822	23.67742
695.01	23.7514
695.199	25.58579
695.387	25.47663
695.575	23.83291
695.763	18.73729
695.952	16.72725
696.14	13.04194
696.328	16.75643
696.516	19.78786
696.705	19.63512
696.893	19.69231
697.081	12.26288
697.269	20.94771
697.457	14.85749
697.645	13.73064
697.833	20.49501
698.021	15.41457
698.21	16.46191
698.398	17.47675
698.586	13.8274
698.774	13.65945
698.962	17.33412
699.15	15.03042
699.338	13.05552
699.526	19.62957
699.714	16.09265
699.901	16.18456
700.089	22.0575
700.277	16.23743
700.465	17.81215
700.653	22.35767
700.841	21.02253
701.029	16.10005
701.217	24.74122
701.404	19.86678
701.592	25.83028
701.78	29.1873
701.968	17.71161
702.155	20.25243
702.343	12.80532
702.531	26.1768
702.718	22.26555
702.906	19.81975
703.094	16.9509
703.281	25.80998
703.469	19.76653
703.657	25.75291
703.844	35.93454
704.032	27.62682
704.219	17.51498
704.407	21.55463
704.595	25.8173
704.782	21.08836
704.97	18.05089
705.157	17.70438
705.345	27.56736
705.532	32.94762
705.719	23.55157
705.907	26.9438
706.094	22.22174
706.282	28.90327
706.469	20.04211
706.656	22.17442
706.844	19.54247
707.031	25.49196
707.218	22.89462
707.406	28.49503
707.593	25.26076
707.78	25.35742
707.968	21.23208
708.155	17.47586
708.342	24.68395
708.529	24.47658
708.716	23.21451
708.904	30.07581
709.091	24.6802
709.278	15.92831
709.465	29.9864
709.652	29.48664
709.839	28.88402
710.026	24.18511
710.213	14.77877
710.4	23.67516
710.587	27.09186
710.774	28.19109
710.961	28.88687
711.148	22.13265
711.335	28.3262
711.522	22.34694
711.709	25.60865
711.896	34.51084
712.083	27.97178
712.27	18.35032
712.457	24.14138
712.644	16.30807
712.831	34.71379
713.017	23.37532
713.204	26.86138
713.391	20.19158
713.578	29.10519
713.765	32.2609
713.951	26.99073
714.138	40.85981
714.325	26.74746
714.512	24.20733
714.698	20.54509
714.885	31.76288
715.072	26.51805
715.258	25.35583
715.445	22.02721
715.631	30.61712
715.818	11.95436
716.005	21.00892
716.191	28.64842
716.378	21.90346
716.564	28.64224
716.751	21.56563
716.937	21.51934
717.124	31.79438
717.31	21.4776
717.497	34.94747
717.683	22.38971
717.869	38.86728
718.056	23.22435
718.242	29.13775
718.429	24.1929
718.615	19.39258
718.801	25.33698
718.988	30.89722
719.174	29.42103
719.36	25.0906
719.547	32.37594
719.733	28.48252
719.919	28.43039
720.105	31.51355
720.291	25.9951
720.478	28.57225
720.664	26.00211
720.85	23.52195
721.036	45.2061
721.222	37.14571
721.408	25.78685
721.595	38.32668
721.781	37.61101
721.967	34.42678
722.153	38.86094
722.339	31.55159
722.525	29.7578
722.711	21.62803
722.897	18.37829
723.083	23.90271
723.269	34.30711
723.455	45.33811
723.641	48.76961
723.827	29.20475
724.012	29.67757
724.198	26.45627
724.384	36.17392
724.57	30.31465
724.756	17.93659
724.942	16.10477
725.127	35.60373
725.313	37.99102
725.499	37.04105
725.685	41.50999
725.87	29.71927
726.056	23.83089
726.242	36.58872
726.428	18.26703
726.613	34.90655
726.799	26.93771
726.985	22.07566
727.17	19.18911
727.356	40.81195
727.541	22.84131
727.727	26.66127
727.913	33.15488
728.098	25.22418
728.284	34.07565
728.469	20.76585
728.655	23.38314
728.84	34.33945
729.026	32.39722
729.211	34.30532
729.397	32.12628
729.582	32.99625
729.767	28.61605
729.953	30.46165
730.138	35.51073
730.323	14.84541
730.509	21.38879
730.694	39.42498
730.879	31.49004
731.065	29.55252
731.25	44.97676
731.435	33.20183
731.621	18.80607
731.806	25.50416
731.991	30.22052
732.176	17.86636
732.361	38.56351
732.547	32.91878
732.732	17.32475
732.917	45.93061
733.102	20.84055
733.287	23.85353
733.472	28.194
733.657	29.7531
733.842	19.03861
734.027	26.63952
734.212	25.82091
734.397	24.68955
734.582	29.70389
734.767	35.27654
734.952	39.76788
735.137	13.85217
735.322	40.04128
735.507	30.79137
735.692	31.00116
735.877	46.42419
736.062	43.28177
736.247	34.13486
736.431	28.50564
736.616	37.64975
736.801	32.33505
736.986	31.13161
737.171	23.60926
737.355	20.01683
737.54	39.47185
737.725	31.54749
737.909	51.36408
738.094	26.41241
738.279	35.69733
738.463	29.17785
738.648	36.81013
738.833	34.07647
739.017	46.39274
739.202	28.87877
739.386	30.15096
739.571	24.89805
739.756	39.76451
739.94	29.76527
740.125	38.40409
740.309	25.6376
740.494	35.50254
740.678	31.90423
740.863	37.87626
741.047	35.37721
741.231	44.2637
741.416	28.09077
741.6	43.71318
741.785	23.771
741.969	39.70526
742.153	41.34812
742.338	15.64642
742.522	32.77783
742.706	37.13349
742.89	23.10496
743.075	33.97003
743.259	43.3463
743.443	41.70072
743.627	44.15237
743.812	52.58559
743.996	18.28326
744.18	32.14196
744.364	29.53813
744.548	53.92542
744.732	32.69562
744.916	39.47813
745.1	38.30586
745.285	31.25339
745.469	36.83083
745.653	50.11248
745.837	22.62655
746.021	54.54631
746.205	42.628
746.389	35.45381
746.573	28.68271
746.757	45.92866
746.94	30.46736
747.124	49.17777
747.308	23.47611
747.492	42.63349
747.676	30.30986
747.86	54.14165
748.044	29.55719
748.227	17.08468
748.411	71.30079
748.595	39.86428
748.779	26.71424
748.963	39.43659
749.146	34.98605
749.33	27.90913
749.514	24.34256
749.697	43.04677
749.881	27.07091
750.065	24.22276
750.248	34.99308
750.432	57.47291
750.616	37.55952
750.799	21.09424
750.983	55.49733
751.166	59.70756
751.35	19.097
751.533	39.29117
751.717	50.10821
751.9	47.72724
752.084	29.50053
752.267	22.13132
752.451	27.98723
752.634	34.57777
752.818	40.20381
753.001	43.10658
753.184	45.11612
753.368	37.26458
753.551	6.53396
753.734	28.26101
753.918	56.14754
754.101	30.56431
754.284	41.9427
754.467	29.38136
754.651	31.64375
754.834	29.42592
755.017	46.45343
755.2	45.4044
755.384	25.13185
755.567	43.90801
755.75	45.64512
755.933	29.66471
756.116	36.35757
756.299	28.64316
756.482	25.7425
756.665	41.32698
756.848	38.11618
757.032	41.55562
757.215	21.60158
757.398	26.30036
757.581	25.38162
757.764	60.95619
757.947	34.80108
758.129	48.48832
758.312	9.10651
758.495	31.5525
758.678	34.81263
758.861	35.13506
759.044	56.92085
759.227	28.1744
759.41	27.35192
759.592	39.9183
759.775	35.17251
759.958	45.48296
760.141	23.43159
760.324	56.85821
760.506	52.10941
760.689	42.78539
760.872	61.069
761.054	41.42008
761.237	30.81983
761.42	41.08954
761.602	44.57012
761.785	38.62455
761.968	47.28419
762.15	53.5087
762.333	33.87076
762.515	38.38499
762.698	29.91831
762.88	39.55576
763.063	34.82773
763.245	43.91255
763.428	25.36013
763.61	26.10155
763.793	24.03275
763.975	36.99894
764.158	29.96645
764.34	28.23433
764.522	24.71163
764.705	30.72362
764.887	48.69215
765.069	21.45844
765.252	42.31068
765.434	43.67338
765.616	36.00913
765.799	28.87437
765.981	43.82888
766.163	27.19906
766.345	45.62252
766.528	29.66676
766.71	11.71303
766.892	36.88442
767.074	49.11307
767.256	32.56826
767.438	55.5566
767.62	39.58484
767.802	62.8875
767.985	44.66906
768.167	61.16682
768.349	33.02404
768.531	39.40132
768.713	40.23626
768.895	47.54251
769.077	42.93258
769.259	69.2452
769.441	99.67215
769.623	49.31552
769.804	62.97009
769.986	55.88969
770.168	75.67501
770.35	83.10462
770.532	70.30362
770.714	66.38763
770.896	75.47372
771.077	28.28123
771.259	75.19266
771.441	61.7706
771.623	75.00881
771.804	95.91444
771.986	26.17975
772.168	46.79814
772.35	68.43841
772.531	96.99336
772.713	60.6916
772.894	81.82971
773.076	53.7175
773.258	45.16242
773.439	81.84413
773.621	87.88969
773.802	37.10187
773.984	55.61848
774.166	63.11372
774.347	92.65587
774.529	76.72416
774.71	23.64623
774.891	54.82084
775.073	51.42126
775.254	89.29046
775.436	41.71666
775.617	94.93996
775.799	52.66252
775.98	87.51558
776.161	94.54872
776.343	90.93279
776.524	62.23495
776.705	51.24089
776.886	28.28953
777.068	63.17774
777.249	118.25134
777.43	99.6978
777.611	33.92502
777.793	58.67268
777.974	91.62821
778.155	52.3393
778.336	45.19322
778.517	100.15765
778.698	47.81741
778.879	22.19818
779.061	7.24992
779.242	65.95286
779.423	66.40879
779.604	49.1723
779.785	54.93364
779.966	66.79461
780.147	75.91905
780.328	79.36111
780.509	108.95063
780.69	77.60193
780.871	48.77176
781.051	28.60096
781.232	61.69639
781.413	66.97771
781.594	52.86141
781.775	53.09475
781.956	45.74721
782.137	22.75288
782.317	46.12851
782.498	68.84154
782.679	68.14935
782.86	60.53501
783.04	44.99279
783.221	70.35411
783.402	97.96509
783.583	62.16204
783.763	77.73008
783.944	52.86382
784.124	30.20372
784.305	97.83029
784.486	73.88632
784.666	60.87533
784.847	26.67753
785.027	122.03432
785.208	45.97425
785.388	48.3951
785.569	47.10472
785.749	51.36603
785.93	49.95214
786.11	31.56984
786.291	62.78697
786.471	65.20493
786.652	73.11267
786.832	59.95645
787.012	68.6481
787.193	35.52777
787.373	61.08977
787.553	51.92982
787.734	63.57435
787.914	46.58259
788.094	69.78023
788.275	66.44629
788.455	50.80681
788.635	34.77206
788.815	62.97161
788.995	35.7117
789.176	34.47039
789.356	41.97267
789.536	51.89744
789.716	64.97239
789.896	45.4156
790.076	48.7955
790.256	68.48482
790.436	18.94274
790.616	38.82845
790.796	65.70428
790.976	52.28753
791.156	46.82286
791.336	68.12342
791.516	64.39956
791.696	56.01675
791.876	25.63336
792.056	59.78966
792.236	84.16885
792.416	72.85084
792.596	70.0253
792.776	63.90195
792.956	71.5679
793.135	93.15783
793.315	36.23453
793.495	86.51192
793.675	74.54423
793.854	79.92473
794.034	78.03669
794.214	32.41829
794.394	75.06086
794.573	82.80081
794.753	60.14702
794.933	44.97712
795.112	60.88879
795.292	75.31611
795.472	97.67185
795.651	37.47464
795.831	64.75226
796.01	52.1115
796.19	52.33133
796.369	56.59427
796.549	68.64588
796.728	54.59994
796.908	33.61475
797.087	37.72424
797.267	55.28786
797.446	39.46343
797.626	64.44478
797.805	68.12048
797.984	46.74602
798.164	71.60244
798.343	40.61886
798.522	66.07973
798.702	59.22801
798.881	37.51345
799.06	49.53682
799.239	23.48755
799.419	38.44074
799.598	91.48438
799.777	72.01162
799.956	80.66414
800.136	53.8288
800.315	43.54897
800.494	64.80521
800.673	78.73274
800.852	74.03883
801.031	82.08671
801.21	72.06769
801.389	49.87723
801.568	61.6753
801.747	98.3006
801.926	56.54354
802.105	96.78506
802.284	50.79191
802.463	93.12306
802.642	69.22633
802.821	63.27597
803	81.57598
803.179	77.07915
803.358	84.9858
803.537	52.43243
803.716	67.53062
803.895	43.12973
804.073	56.78807
804.252	48.1339
804.431	68.49592
804.61	62.31119
804.789	89.98127
804.967	51.15532
805.146	51.74613
805.325	107.68674
805.503	70.97052
805.682	31.81617
805.861	124.78822
806.039	92.90762
806.218	45.58787
806.397	66.85565
806.575	64.61747
806.754	65.52083
806.932	37.89479
807.111	94.79968
807.289	85.73138
807.468	68.46971
807.646	87.61329
807.825	67.93447
808.003	70.47051
808.182	81.76211
808.36	61.71682
808.539	42.63422
808.717	94.87221
808.895	46.88715
809.074	61.30748
809.252	60.63511
809.43	86.06433
809.609	96.08368
809.787	102.476
809.965	56.96496
810.144	68.83138
810.322	60.95768
810.5	78.64519
810.678	60.46557
810.856	109.89919
811.035	92.19756
811.213	88.02627
811.391	87.16469
811.569	71.40924
811.747	148.44267
811.925	98.79614
812.103	48.33563
812.281	51.73384
812.459	120.54594
812.637	113.24569
812.816	90.93259
812.994	119.33618
813.171	96.79686
813.349	90.36545
813.527	108.33056
813.705	102.6342
813.883	116.7084
814.061	98.60416
814.239	119.32127
814.417	132.82903
814.595	85.28533
814.773	73.08135
814.95	78.39221
815.128	86.06903
815.306	66.61045
815.484	65.44678
815.662	51.25046
815.839	50.99751
816.017	57.33925
816.195	97.28027
816.372	65.03346
816.55	94.56634
816.728	107.85067
816.905	61.97437
817.083	108.62626
817.261	67.63593
817.438	144.55797
817.616	119.93588
817.793	51.51221
817.971	86.9416
818.148	87.18592
818.326	110.18526
818.503	76.40198
818.681	105.05746
818.858	59.33206
819.036	73.17606
819.213	73.68646
819.391	58.31291
819.568	48.86691
819.745	44.47669
819.923	82.48847
820.1	58.9325
820.277	51.06065
820.455	56.88292
820.632	59.67465
820.809	63.77729
820.986	36.84311
821.164	31.46124
821.341	25.68239
821.518	39.29619
821.695	29.12602
821.872	26.14829
822.05	21.77828
822.227	18.57754
822.404	19.13973
822.581	23.11874
822.758	19.87007
822.935	20.57307
823.112	23.55581
823.289	19.75452
823.466	24.13465
823.643	24.14463
823.82	28.88493
823.997	26.33547
824.174	31.94981
824.351	40.59362
824.528	38.81122
824.705	35.4976
824.882	38.51229
825.059	49.48527
825.236	37.00435
825.412	36.31424
825.589	44.80605
825.766	61.74832
825.943	40.00842
826.12	43.45215
826.296	30.17876
826.473	39.44231
826.65	38.3274
826.827	47.36631
827.003	31.92236
827.18	34.62065
827.357	40.10145
827.533	32.06842
827.71	19.73578
827.887	29.23343
828.063	35.56408
828.24	30.97533
828.416	42.97601
828.593	36.33088
828.769	51.38958
828.946	53.66488
829.122	53.72557
829.299	60.1505
829.475	30.26238
829.652	56.69458
829.828	86.54413
830.005	55.10853
830.181	74.97071
830.357	51.98981
830.534	77.87332
830.71	65.91909
830.886	82.93526
831.063	74.39464
831.239	94.58298
831.415	43.00618
831.592	107.83835
831.768	64.08206
831.944	50.41298
832.12	105.70322
832.296	101.78687
832.473	77.71717
832.649	54.03933
832.825	77.56404
833.001	43.41849
833.177	65.05032
833.353	58.74408
833.529	32.37254
833.705	48.84965
833.881	34.29765
834.058	33.06488
834.234	34.93599
834.41	36.99675
834.586	27.40548
834.761	34.28496
834.937	39.75879
835.113	41.35333
835.289	37.95589
835.465	45.80099
835.641	40.652
835.817	46.56936
835.993	77.60453
836.169	42.77492
836.344	58.25959
836.52	71.71109
836.696	76.01154
836.872	50.28346
837.048	153.73195
837.223	58.13065
837.399	136.42903
837.575	100.81794
837.75	96.64822
837.926	130.78675
838.102	204.78693
838.277	164.77939
838.453	215.77002
838.628	209.59342
838.804	74.49105
838.98	203.16211
839.155	99.30919
839.331	133.25142
839.506	101.05457
839.682	88.38823
839.857	109.14768
840.033	131.46113
840.208	59.12776
840.384	35.59737
840.559	67.72128
840.734	102.08189
840.91	141.19635
841.085	83.01341
841.26	88.45523
841.436	82.23706
841.611	80.61127
841.786	109.63693
841.962	167.39938
842.137	115.37268
842.312	68.22661
842.487	102.11712
842.663	77.39698
842.838	97.89556
843.013	298.2843
843.188	179.49423
843.363	142.78642
843.538	311.77949
843.714	340.01076
843.889	309.3221
844.064	321.71509
844.239	232.66378
844.414	452.93868
844.589	239.62365
844.764	391.96654
844.939	364.4827
845.114	409.8766
845.289	406.43368
845.464	490.09689
845.639	355.81505
845.814	180.53712
845.989	300.86045
846.163	241.67317
846.338	340.26581
846.513	400.8279
846.688	255.35734
846.863	297.74547
847.038	246.34547
847.212	283.98934
847.387	334.98509
847.562	267.37156
847.737	464.83946
847.911	160.72667
848.086	166.4401
848.261	369.96157
848.435	276.59039
848.61	352.77304
848.785	188.65554
848.959	398.31876
849.134	456.95786
849.308	651.68701
849.483	314.50733
849.658	531.18897
849.832	267.46723
850.007	210.20951
850.181	650.39869
850.356	263.50129
850.53	757.55572
850.705	312.17232
850.879	129.40841
851.053	291.0279
851.228	273.56471
851.402	512.76924
851.577	455.74606
851.751	600.95515
851.925	356.63464
852.099	113.85278
852.274	217.42805
852.448	312.12416
852.622	474.17135
852.797	321.76638
852.971	339.02184
853.145	383.08819
853.319	748.51511
853.493	636.85661
853.668	460.20041
853.842	730.66709
854.016	481.1928
854.19	674.08638
854.364	353.03757
854.538	335.44553
854.712	736.34431
854.886	384.11145
855.06	297.87607
855.234	105.20715
855.408	625.72822
855.582	398.59522
855.756	651.20388
855.93	513.25819
856.104	621.19325
856.278	536.84068
856.452	377.12474
856.626	404.36914
856.8	918.86537
856.973	365.11089
857.147	433.76369
857.321	467.01643
857.495	496.26455
857.669	336.02573
857.842	392.6202
858.016	593.43714
858.19	214.892
858.364	744.33539
858.537	364.42959
858.711	490.93462
858.885	383.7807
859.058	253.54597
859.232	160.62338
859.405	153.16248
859.579	470.95146
859.753	477.6451
859.926	224.38644
860.1	170.74754
860.273	343.10526
860.447	490.30025
860.62	361.67623
860.794	575.27176
860.967	321.10478
861.141	488.65047
861.314	799.88711
861.487	463.12237
861.661	443.59295
861.834	533.05952
862.008	655.18758
862.181	448.57388
862.354	517.04058
862.528	490.81905
862.701	283.41636
862.874	178.21794
863.047	308.77007
863.221	296.61528
863.394	160.66468
863.567	416.0781
863.74	129.07597
863.913	505.04295
864.087	504.65387
864.26	438.39211
864.433	340.56827
864.606	591.59648
864.779	348.37573
864.952	139.62655
865.125	384.83155
865.298	288.08638
865.471	344.38827
865.644	758.94073
865.817	488.49158
865.99	457.39029
866.163	446.26103
866.336	237.10964
866.509	321.72589
866.682	537.48337
866.855	702.75515
867.028	186.85924
867.2	382.35364
867.373	107.7098
867.546	354.57434
867.719	674.05284
867.892	437.34285
868.064	252.2838
868.237	316.92001
868.41	366.69154
868.583	164.21128
868.755	244.40848
868.928	405.40049
869.101	814.98388
869.273	529.15147
869.446	525.82668
869.619	567.95742
869.791	379.10362
869.964	485.21887
870.136	773.92216
870.309	345.593
870.481	399.41806
870.654	182.04072
870.826	319.58772
870.999	218.89962
871.171	404.75786
871.344	235.14231
871.516	296.01329
871.689	256.48074
871.861	359.14608
872.033	267.38572
872.206	249.59072
872.378	333.27253
872.55	343.15698
872.723	177.36946
872.895	311.46893
873.067	448.0758
873.24	361.20556
873.412	325.49882
873.584	366.79406
873.756	333.67747
873.928	471.75778
874.101	356.32785
874.273	401.53759
874.445	134.0958
874.617	229.82741
874.789	322.56885
874.961	312.37661
875.133	354.44012
875.305	383.8883
875.477	250.70129
875.649	148.06202
875.821	179.2685
875.993	600.25229
876.165	303.32184
876.337	375.0165
876.509	297.3351
876.681	396.61241
876.853	355.0318
877.025	348.0933
877.197	227.88914
877.369	155.63814
877.541	308.9229
877.712	104.56122
877.884	182.18256
878.056	338.4008
878.228	190.64089
878.4	373.39672
878.571	164.14476
878.743	116.30716
878.915	275.85298
879.086	132.59912
879.258	178.64394
879.43	172.38361
879.601	142.68576
879.773	134.67168
879.945	26.17771
880.116	53.70363
880.288	31.69435
880.459	34.38449
880.631	25.41326
880.802	32.2033
880.974	29.4894
881.145	19.94508
881.317	28.59825
881.488	21.95632
881.66	23.6437
881.831	22.86745
882.002	30.97805
882.174	23.48755
882.345	29.73229
882.517	18.11701
882.688	37.32188
882.859	29.75126
883.03	49.3507
883.202	45.56025
883.373	39.58336
883.544	40.40719
883.715	66.98145
883.887	59.76645
884.058	46.66194
884.229	71.88963
884.4	75.70334
884.571	89.86835
884.742	75.77336
884.914	81.17437
885.085	113.04823
885.256	161.20329
885.427	135.9591
885.598	168.90571
885.769	158.26576
885.94	154.50716
886.111	106.28449
886.282	179.7553
886.453	172.56036
886.624	121.11692
886.795	214.26531
886.966	167.31792
887.136	214.31419
887.307	158.08421
887.478	309.99107
887.649	277.23985
887.82	260.92011
887.991	220.35147
888.161	348.24483
888.332	345.59498
888.503	167.07493
888.674	372.95596
888.844	534.42986
889.015	336.69675
889.186	239.51506
889.356	488.79595
889.527	178.19314
889.698	644.62707
889.868	234.42131
890.039	399.88747
890.209	284.33304
890.38	382.30043
890.551	358.87653
890.721	415.26883
890.892	434.55337
891.062	397.42125
891.233	505.48779
891.403	478.59741
891.574	280.97956
891.744	243.83554
891.914	316.14135
892.085	360.7791
892.255	120.0482
892.425	423.58281
892.596	299.48661
892.766	377.3822
892.936	383.7784
893.107	386.93039
893.277	157.69747
893.447	156.59597
893.618	123.13618
893.788	188.67324
893.958	111.57614
894.128	97.46967
894.298	109.82913
894.468	148.4795
894.639	64.43543
894.809	42.312
894.979	70.71157
895.149	84.20511
895.319	68.8548
895.489	107.87553
895.659	143.00543
895.829	88.70037
895.999	86.08885
896.169	75.44213
896.339	94.58807
896.509	202.46646
896.679	209.92973
896.849	229.25441
897.019	270.22198
897.189	236.80945
897.358	211.16025
897.528	348.60126
897.698	195.17059
897.868	324.02035
898.038	663.59325
898.208	602.44871
898.377	187.25592
898.547	959.8392
898.717	1407.45827
898.886	430.76099
899.056	648.58144
899.226	1422.02161
899.395	732.86628
899.565	1231.64742
899.735	817.95207
899.904	859.8348
900.074	1013.49476
900.244	282.28838
900.413	1264.02973
900.583	379.31444
900.752	1268.10666
900.922	1011.28042
901.091	184.5168
901.261	1647.28222
901.43	524.18248
901.599	2240.85224
901.769	1449.53722
901.938	1119.35335
902.108	1688.51114
902.277	801.40064
902.446	358.49419
902.616	401.84579
902.785	512.05198
902.954	680.99683
903.124	509.35715
903.293	280.18228
903.462	131.92549
903.631	196.60544
903.801	141.74263
903.97	69.0714
904.139	114.10692
904.308	87.47851
904.477	73.56438
904.646	36.86627
904.816	62.97176
904.985	102.74592
905.154	142.66208
