Data from WindowProjectSample_Transmission__89__00089.txt Node

Date: Sat May 03 18:15:29 EDT 2025
User: jessi
Spectrometer: SR400872
Trigger mode: 0
Integration Time (sec): 5.000010E-1
Scans to average: 6
Electric dark correction enabled: true
Nonlinearity correction enabled: true
Boxcar width: 0
XAxis mode: Wavelengths
Number of Pixels in Spectrum: 3648
>>>>>Begin Spectral Data<<<<<
184.909	3366.18681
185.132	4239.46203
185.355	-4222.85171
185.578	4325.38482
185.801	-452.0108
186.024	-5177.08841
186.247	1714.48802
186.47	506.50709
186.693	-102.62893
186.916	987.04951
187.139	3192.9172
187.362	-1911.88855
187.585	5061.88665
187.808	30230.81
188.031	-51.16686
188.254	-4125.26013
188.476	720.21358
188.699	3389.40379
188.922	-306.00347
189.145	-6953.13314
189.368	-393.81477
189.591	-747.23235
189.813	-2527.8376
190.036	949.14986
190.259	-8915.76418
190.482	1275.1799
190.705	4007.85284
190.927	-1952.45126
191.15	-6884.50226
191.373	6335.32174
191.595	-1224.56671
191.818	2106.43032
192.041	-678.79506
192.263	1978.60315
192.486	-2361.49768
192.709	-24213.34254
192.931	1875.18123
193.154	-3826.51427
193.377	-2452.11132
193.599	4772.69813
193.822	1897.21624
194.044	6210.94296
194.267	847.93387
194.489	-347.44237
194.712	2506.77758
194.934	8835.33701
195.157	-23864.07617
195.379	2101.33437
195.602	1688.88364
195.824	1492.28423
196.047	40671.72891
196.269	3375.08834
196.492	-1975.22406
196.714	-1293.25257
196.936	1807.2865
197.159	-11677.94396
197.381	-406.23203
197.604	-4663.87085
197.826	-18384.76015
198.048	10369.42963
198.271	-7896.15585
198.493	4372.16282
198.715	3574.50298
198.938	-752.16838
199.16	-18439.57079
199.382	1175.12419
199.604	-1819.88343
199.827	-3520.08024
200.049	2298.42232
200.271	-6942.64064
200.493	-44472.06705
200.715	3739.87111
200.938	-3079.85866
201.16	-2689.8836
201.382	-1448.1779
201.604	-3272.06789
201.826	3471.87985
202.048	3307.23983
202.27	-1114.79063
202.492	-3447.80184
202.715	-1301.09453
202.937	-16832.19634
203.159	2463.70011
203.381	2275.1568
203.603	-2910.22343
203.825	-966.28585
204.047	56220.34373
204.269	-1421.18548
204.491	-1346.45633
204.713	69601.59395
204.935	-3280.65735
205.156	-1017.45094
205.378	-4479.39816
205.6	-1278.54603
205.822	2307.14529
206.044	-434.66345
206.266	6413.49113
206.488	877.57198
206.71	3410.0295
206.932	1687.28706
207.153	-1609.44072
207.375	-2756.88706
207.597	3759.64471
207.819	29696.37153
208.041	3978.53729
208.262	-1538.7052
208.484	-1118.71621
208.706	-1623.17046
208.927	3023.13677
209.149	5637.78748
209.371	-5053.97752
209.593	430.8859
209.814	-28992.90392
210.036	2416.49268
210.258	-808.35013
210.479	4279.94144
210.701	-3519.97966
210.922	-11090.80013
211.144	-989.89696
211.366	4923.66254
211.587	-2215.70809
211.809	-4713.68942
212.03	-786.73045
212.252	-625.30715
212.473	3585.13635
212.695	-740.36588
212.916	-874.15275
213.138	680.12934
213.359	-1504.42042
213.581	12802.18463
213.802	-2487.30009
214.024	-2478.42923
214.245	-6006.42402
214.466	-206.90507
214.688	-3051.80044
214.909	-20609.45946
215.131	-4700.32494
215.352	-2401.63284
215.573	11552.354
215.795	1600.36755
216.016	6907.37403
216.237	-575.76057
216.459	6690.248
216.68	-3666.65792
216.901	-2880.06378
217.122	-2284.16005
217.344	-7367.66198
217.565	-2873.23162
217.786	2277.77327
218.007	1730.71561
218.228	-658.29038
218.45	-4254.41402
218.671	1452.4569
218.892	3720.9007
219.113	1533.55925
219.334	113.27596
219.555	-6904.72178
219.776	12200.32998
219.997	4047.77177
220.219	1879.11594
220.44	1090.30767
220.661	996.95478
220.882	-2828.28465
221.103	-1085.18686
221.324	2429.24593
221.545	3136.04449
221.766	-3451.51253
221.987	-592.46536
222.208	-10480.02966
222.429	173087.34143
222.65	-394.03634
222.87	-9796.90558
223.091	2657.76414
223.312	-1276.89566
223.533	2404.43036
223.754	2164.97428
223.975	2884.17357
224.196	-6406.48668
224.417	-2962.3497
224.637	8594.08712
224.858	1265.62174
225.079	1309.44961
225.3	1124.46138
225.521	4845.95661
225.741	920.21773
225.962	1180.58939
226.183	-497.79621
226.404	1457.98437
226.624	1111.92216
226.845	1698.9057
227.066	903.14159
227.286	545.24747
227.507	246.28078
227.728	183.49968
227.948	280.05346
228.169	91.78156
228.389	91.76197
228.61	48.28047
228.831	64.04621
229.051	6.57225
229.272	37.47391
229.492	50.05072
229.713	15.18502
229.933	37.78137
230.154	34.78769
230.374	52.2195
230.595	43.40049
230.815	28.03439
231.036	38.04617
231.256	-6.04385
231.477	81.33166
231.697	41.79585
231.917	50.81689
232.138	63.51246
232.358	133.85509
232.579	130.58268
232.799	18.19322
233.019	111.79356
233.24	145.73442
233.46	39.81875
233.68	72.39983
233.901	55.20918
234.121	32.78223
234.341	7.39339
234.561	-6.18355
234.782	27.32353
235.002	80.57854
235.222	-4.47329
235.442	71.74404
235.662	34.25821
235.883	77.71375
236.103	64.78994
236.323	50.46367
236.543	35.72274
236.763	50.21809
236.983	49.86701
237.203	51.5596
237.423	78.52752
237.643	102.47552
237.864	88.09894
238.084	24.23462
238.304	34.53078
238.524	58.94471
238.744	47.68756
238.964	73.80193
239.184	69.10228
239.404	74.6472
239.624	37.54498
239.843	68.78432
240.063	38.35731
240.283	25.8694
240.503	27.86589
240.723	28.27859
240.943	15.21883
241.163	19.89008
241.383	15.23196
241.603	7.75752
241.822	9.06194
242.042	7.04953
242.262	8.73057
242.482	9.67877
242.702	11.2923
242.921	3.93001
243.141	8.28916
243.361	6.62911
243.581	10.24564
243.8	8.92972
244.02	6.25202
244.24	10.85737
244.459	10.09353
244.679	19.59428
244.899	13.86822
245.118	14.95369
245.338	13.37918
245.558	17.79142
245.777	10.56715
245.997	10.83294
246.216	10.61363
246.436	6.22108
246.655	4.16388
246.875	3.58948
247.094	6.79162
247.314	2.38444
247.533	3.78256
247.753	4.8451
247.972	3.77428
248.192	1.50681
248.411	2.3614
248.631	4.24377
248.85	5.36344
249.07	3.94655
249.289	7.54452
249.508	4.81124
249.728	8.12909
249.947	8.75181
250.166	9.40434
250.386	5.39752
250.605	8.18027
250.824	12.54054
251.044	9.17368
251.263	26.74083
251.482	15.22109
251.701	13.28384
251.921	0.40479
252.14	4.8624
252.359	4.48324
252.578	10.64581
252.798	3.71767
253.017	10.42537
253.236	5.55025
253.455	6.55456
253.674	13.01173
253.893	6.1219
254.112	9.4929
254.331	12.86341
254.551	10.11697
254.77	5.35651
254.989	16.43873
255.208	13.03505
255.427	17.23083
255.646	16.70693
255.865	24.68936
256.084	10.00867
256.303	11.7432
256.522	15.31453
256.741	3.31924
256.96	4.92612
257.179	10.18155
257.397	11.92258
257.616	6.25779
257.835	7.72499
258.054	17.10805
258.273	10.30588
258.492	12.41095
258.711	7.24139
258.93	3.37259
259.148	4.39544
259.367	4.61631
259.586	5.86103
259.805	2.71035
260.023	5.09594
260.242	4.36466
260.461	2.9672
260.68	1.94393
260.898	4.82318
261.117	1.74231
261.336	1.45325
261.554	4.02751
261.773	4.28413
261.992	0.58571
262.21	4.29292
262.429	4.96558
262.648	8.06863
262.866	9.55344
263.085	6.34681
263.303	5.5898
263.522	9.77739
263.74	10.66905
263.959	16.07042
264.178	8.91166
264.396	7.88251
264.615	5.43158
264.833	12.39222
265.051	11.17762
265.27	11.13936
265.488	12.41012
265.707	7.33433
265.925	12.29916
266.144	5.61795
266.362	6.76325
266.58	6.93128
266.799	5.21468
267.017	6.89965
267.235	5.92638
267.454	3.55204
267.672	2.20812
267.89	5.14615
268.109	5.27678
268.327	5.02529
268.545	1.29678
268.763	4.72185
268.982	2.20753
269.2	6.05719
269.418	3.47291
269.636	2.4106
269.854	4.93975
270.073	4.25778
270.291	1.90557
270.509	2.32085
270.727	4.94861
270.945	8.33011
271.163	8.04195
271.381	1.83176
271.599	3.50445
271.817	5.72257
272.036	1.97702
272.254	3.42477
272.472	2.76696
272.69	2.84054
272.908	2.93586
273.126	4.62722
273.344	6.07419
273.562	2.40903
273.779	2.93303
273.997	4.08179
274.215	4.87251
274.433	3.54568
274.651	5.0733
274.869	5.57453
275.087	3.14728
275.305	4.86496
275.523	3.12902
275.74	3.69847
275.958	6.01493
276.176	8.75946
276.394	2.71729
276.612	3.73318
276.829	3.56513
277.047	2.98287
277.265	3.57084
277.483	4.19817
277.7	4.86685
277.918	3.89523
278.136	7.16227
278.353	4.22072
278.571	1.91816
278.789	5.53169
279.006	1.11924
279.224	3.19411
279.442	5.64961
279.659	4.03922
279.877	3.02
280.094	6.20985
280.312	1.37179
280.529	4.02545
280.747	1.09704
280.964	3.07256
281.182	6.66226
281.399	2.96866
281.617	4.32705
281.834	2.96567
282.052	2.53441
282.269	3.6991
282.487	2.9864
282.704	2.28226
282.921	2.81905
283.139	3.66488
283.356	4.89157
283.574	4.09831
283.791	2.06552
284.008	5.86438
284.226	3.3197
284.443	3.68575
284.66	4.69455
284.877	3.6691
285.095	2.65198
285.312	1.77584
285.529	1.34397
285.746	0.98669
285.964	2.49394
286.181	1.49593
286.398	2.30944
286.615	2.96259
286.832	2.93329
287.05	0.88716
287.267	2.10857
287.484	2.33416
287.701	3.14588
287.918	2.90411
288.135	3.16612
288.352	1.19526
288.569	1.6776
288.786	2.52182
289.003	2.1482
289.22	3.2469
289.437	1.99857
289.654	3.50281
289.871	3.55087
290.088	3.39142
290.305	2.58872
290.522	2.11393
290.739	2.50547
290.956	3.67703
291.173	4.16278
291.39	3.84189
291.607	2.72919
291.824	2.19385
292.04	1.5083
292.257	3.19272
292.474	3.76194
292.691	2.55308
292.908	1.19451
293.125	2.16697
293.341	1.29437
293.558	5.70206
293.775	2.27014
293.992	2.54286
294.208	1.07979
294.425	1.39699
294.642	1.92331
294.858	3.0148
295.075	0.85002
295.292	2.22734
295.508	2.75336
295.725	4.14231
295.942	2.12024
296.158	1.59966
296.375	2.49447
296.591	1.8449
296.808	1.98549
297.024	2.14402
297.241	2.57485
297.458	2.52912
297.674	0.17973
297.891	2.11238
298.107	1.60314
298.323	1.24421
298.54	2.96274
298.756	1.50827
298.973	0.70601
299.189	3.16287
299.406	1.43947
299.622	3.30964
299.838	3.14748
300.055	2.89395
300.271	0.8818
300.487	0.9892
300.704	1.53209
300.92	1.0143
301.136	4.44189
301.353	3.14035
301.569	2.27732
301.785	2.72695
302.001	3.1787
302.218	2.57397
302.434	2.47413
302.65	0.67736
302.866	1.85724
303.083	4.48587
303.299	4.01058
303.515	2.03096
303.731	2.35825
303.947	1.09396
304.163	1.42974
304.379	2.43856
304.595	2.71739
304.812	1.64404
305.028	1.40397
305.244	2.04858
305.46	3.07054
305.676	3.36458
305.892	3.82443
306.108	2.38273
306.324	1.7858
306.54	4.30843
306.756	2.90609
306.972	2.77438
307.187	2.2397
307.403	3.85116
307.619	1.52832
307.835	3.40766
308.051	3.88608
308.267	0.84086
308.483	3.11763
308.699	2.83693
308.914	2.31697
309.13	2.04352
309.346	0.54577
309.562	1.24749
309.778	0.79267
309.993	2.90775
310.209	2.11138
310.425	0.99047
310.641	1.83475
310.856	1.12327
311.072	0.9839
311.288	1.88698
311.503	2.13619
311.719	0.45142
311.935	0.34926
312.15	2.40153
312.366	2.14024
312.581	2.63602
312.797	2.12982
313.013	2.73958
313.228	1.80204
313.444	2.34705
313.659	1.54725
313.875	2.64214
314.09	2.18606
314.306	3.31874
314.521	3.05724
314.737	2.89033
314.952	2.47205
315.168	2.04361
315.383	2.77559
315.599	1.99354
315.814	1.87469
316.029	2.86608
316.245	0.9135
316.46	0.74995
316.675	3.4798
316.891	4.44123
317.106	5.05417
317.321	3.01352
317.537	2.72727
317.752	2.90716
317.967	3.13072
318.183	1.69475
318.398	1.94973
318.613	3.29667
318.828	3.67813
319.043	3.09245
319.259	1.86596
319.474	2.65685
319.689	3.39295
319.904	0.59908
320.119	3.01395
320.334	2.6575
320.549	2.20271
320.765	3.40493
320.98	2.41918
321.195	3.40252
321.41	1.93615
321.625	3.23764
321.84	4.15089
322.055	4.34703
322.27	1.78343
322.485	1.07957
322.7	2.63846
322.915	3.60488
323.13	1.43522
323.345	3.79095
323.56	3.11177
323.775	2.94912
323.989	2.97699
324.204	2.3803
324.419	3.18161
324.634	0.89671
324.849	2.17661
325.064	4.3922
325.279	3.32606
325.493	2.88722
325.708	3.42135
325.923	1.43585
326.138	1.42793
326.352	3.90187
326.567	3.04926
326.782	1.80713
326.997	1.48845
327.211	2.92718
327.426	2.59775
327.641	1.92569
327.855	0.75275
328.07	2.87098
328.285	3.96805
328.499	2.03262
328.714	2.83566
328.928	3.34558
329.143	2.28759
329.358	3.30239
329.572	3.43186
329.787	3.56112
330.001	4.9113
330.216	0.96766
330.43	4.07306
330.645	4.29977
330.859	3.15664
331.074	1.88035
331.288	2.52156
331.503	3.67871
331.717	1.29062
331.931	2.31239
332.146	2.42205
332.36	4.15219
332.575	2.75974
332.789	2.50996
333.003	2.14951
333.218	2.96392
333.432	2.16588
333.646	2.9581
333.86	3.75255
334.075	4.16894
334.289	2.07406
334.503	1.58206
334.717	3.03672
334.932	2.884
335.146	3.75154
335.36	2.34452
335.574	2.97075
335.788	2.92587
336.003	3.57841
336.217	3.109
336.431	3.09897
336.645	1.70448
336.859	1.22185
337.073	2.01083
337.287	2.66039
337.501	1.35085
337.715	2.51569
337.929	3.06333
338.143	1.31944
338.357	2.27844
338.571	1.42064
338.785	2.68212
338.999	1.77317
339.213	1.95714
339.427	0.76703
339.641	3.32321
339.855	2.31059
340.069	1.7736
340.283	3.58706
340.497	3.97085
340.711	2.75267
340.924	1.84325
341.138	1.30279
341.352	1.01261
341.566	2.50775
341.78	0.74767
341.993	1.79171
342.207	1.0958
342.421	2.39602
342.635	2.4644
342.848	1.78643
343.062	0.20141
343.276	1.66705
343.49	4.35778
343.703	1.5968
343.917	3.01683
344.131	3.08339
344.344	1.56315
344.558	1.83613
344.771	1.36825
344.985	3.51419
345.199	3.72475
345.412	2.35408
345.626	2.33079
345.839	0.78732
346.053	1.10701
346.266	1.11463
346.48	3.02631
346.693	2.27408
346.907	2.72808
347.12	1.34976
347.334	2.43288
347.547	2.50682
347.76	2.16893
347.974	3.28328
348.187	2.36352
348.401	1.95208
348.614	1.651
348.827	1.92107
349.041	2.73348
349.254	0.78745
349.467	2.11385
349.681	1.00035
349.894	1.48896
350.107	3.51822
350.32	3.50918
350.534	0.54599
350.747	1.85507
350.96	1.30641
351.173	1.52442
351.386	1.97714
351.6	1.67959
351.813	1.57548
352.026	2.19865
352.239	0.88301
352.452	1.51684
352.665	2.78008
352.878	1.75236
353.092	4.11727
353.305	2.63717
353.518	2.36915
353.731	1.45899
353.944	3.29798
354.157	1.34
354.37	1.33439
354.583	1.17146
354.796	0.72907
355.009	3.03483
355.222	2.03176
355.435	2.17313
355.647	3.07604
355.86	1.1145
356.073	1.87158
356.286	1.38481
356.499	2.63036
356.712	2.22997
356.925	2.21693
357.138	2.87578
357.35	1.04691
357.563	1.57669
357.776	2.11952
357.989	1.50829
358.201	2.35934
358.414	1.88442
358.627	2.94517
358.84	1.57376
359.052	1.06557
359.265	1.00842
359.478	2.77025
359.69	-0.43049
359.903	2.44157
360.116	2.53123
360.328	0.51078
360.541	2.63073
360.753	0.98163
360.966	1.2518
361.179	1.41342
361.391	1.31794
361.604	0.87994
361.816	1.31387
362.029	1.09108
362.241	1.00021
362.454	1.26572
362.666	0.94131
362.879	1.6042
363.091	1.45617
363.304	1.09477
363.516	1.62559
363.728	0.72853
363.941	1.99979
364.153	1.15622
364.366	-0.02043
364.578	0.93034
364.79	2.17928
365.003	1.6855
365.215	1.4211
365.427	2.09239
365.639	2.70129
365.852	1.83942
366.064	3.32414
366.276	1.19215
366.488	1.90463
366.701	1.36816
366.913	1.53252
367.125	1.61379
367.337	1.26693
367.549	1.39691
367.762	1.68454
367.974	1.81561
368.186	1.09957
368.398	2.52656
368.61	2.11112
368.822	2.15133
369.034	1.72127
369.246	2.34721
369.458	3.63899
369.67	1.08687
369.882	3.20662
370.094	0.18933
370.306	3.02492
370.518	1.37834
370.73	1.01769
370.942	1.00899
371.154	1.42895
371.366	1.18325
371.578	1.90064
371.79	0.94129
372.002	2.83161
372.214	3.09098
372.425	1.86171
372.637	2.69713
372.849	1.7383
373.061	-0.08765
373.273	2.07083
373.484	2.14519
373.696	2.44583
373.908	0.15167
374.12	2.44064
374.331	2.08583
374.543	1.17015
374.755	0.83526
374.967	1.76419
375.178	2.45055
375.39	1.52379
375.602	1.88948
375.813	0.71892
376.025	0.64649
376.236	1.64792
376.448	1.71918
376.66	1.22456
376.871	1.2802
377.083	2.36996
377.294	2.59435
377.506	1.11133
377.717	2.63598
377.929	1.81105
378.14	1.0217
378.352	2.11871
378.563	2.05017
378.775	2.88736
378.986	1.14891
379.197	1.77479
379.409	1.3933
379.62	2.36031
379.832	1.93527
380.043	1.46396
380.254	1.77538
380.466	0.73353
380.677	3.87727
380.888	3.39447
381.1	3.74247
381.311	3.45847
381.522	1.81768
381.733	3.95557
381.945	1.49799
382.156	1.87767
382.367	1.58196
382.578	4.01143
382.789	4.08534
383.001	1.43721
383.212	2.93795
383.423	3.08363
383.634	2.71827
383.845	2.20195
384.056	1.522
384.267	1.74705
384.478	1.61063
384.69	0.97718
384.901	2.26465
385.112	2.05088
385.323	3.10244
385.534	2.18376
385.745	2.08035
385.956	2.12697
386.167	1.0715
386.378	2.26255
386.588	1.28581
386.799	1.25596
387.01	0.69572
387.221	2.72569
387.432	1.92297
387.643	3.3702
387.854	1.78184
388.065	1.62627
388.275	1.72283
388.486	1.51256
388.697	2.06362
388.908	1.75628
389.119	2.86898
389.329	3.38362
389.54	2.01814
389.751	2.45693
389.962	2.85931
390.172	2.08441
390.383	1.79999
390.594	1.52389
390.804	1.50586
391.015	1.68146
391.226	2.15527
391.436	2.54128
391.647	2.4182
391.858	2.5752
392.068	0.84943
392.279	1.27753
392.489	2.2698
392.7	2.82606
392.91	1.58952
393.121	1.67969
393.331	2.58872
393.542	3.00317
393.752	2.79644
393.963	2.46731
394.173	2.41017
394.384	2.83136
394.594	2.36241
394.804	1.53262
395.015	2.35516
395.225	2.84997
395.436	1.64736
395.646	2.77538
395.856	2.11618
396.067	1.37553
396.277	3.07803
396.487	2.5964
396.697	2.68941
396.908	3.16118
397.118	3.01831
397.328	2.69431
397.538	3.12507
397.749	2.09123
397.959	3.1005
398.169	3.01548
398.379	1.55118
398.589	2.82179
398.8	2.80775
399.01	2.64497
399.22	2.60862
399.43	4.2165
399.64	2.53136
399.85	3.03535
400.06	2.64193
400.27	2.26732
400.48	2.56991
400.69	3.56032
400.9	2.35243
401.11	2.06262
401.32	3.32731
401.53	2.31838
401.74	3.7467
401.95	3.11959
402.16	2.52498
402.37	3.11942
402.58	2.48811
402.79	3.18115
403	3.31686
403.209	2.36962
403.419	3.45617
403.629	2.35783
403.839	3.56023
404.049	3.60561
404.258	2.60407
404.468	2.50748
404.678	3.53586
404.888	3.86024
405.097	2.87733
405.307	3.02164
405.517	3.36877
405.727	3.341
405.936	2.84565
406.146	3.43666
406.356	4.06742
406.565	3.13048
406.775	2.73174
406.984	2.74092
407.194	4.69985
407.404	3.23801
407.613	3.4715
407.823	4.02988
408.032	4.1272
408.242	3.95
408.451	2.93563
408.661	3.37764
408.87	4.61033
409.08	2.89045
409.289	3.7064
409.499	3.60111
409.708	3.44421
409.918	2.1102
410.127	3.65288
410.336	4.57663
410.546	4.0776
410.755	3.02431
410.964	3.1765
411.174	2.82388
411.383	3.85324
411.592	3.70466
411.802	2.8785
412.011	4.11665
412.22	3.3043
412.429	4.47912
412.639	4.46655
412.848	4.24663
413.057	4.90906
413.266	4.27282
413.475	3.69652
413.685	4.2524
413.894	4.27311
414.103	4.41812
414.312	4.17417
414.521	3.46746
414.73	3.85637
414.939	5.10917
415.148	3.97627
415.357	3.87673
415.566	3.75498
415.776	3.71484
415.985	3.4802
416.194	4.33929
416.403	5.20433
416.611	2.93971
416.82	3.57778
417.029	4.03729
417.238	3.52264
417.447	3.48189
417.656	3.89024
417.865	3.6264
418.074	4.10805
418.283	4.50573
418.492	5.43973
418.7	5.10447
418.909	6.46947
419.118	5.13552
419.327	5.57586
419.536	5.32942
419.744	5.28378
419.953	6.7088
420.162	6.65728
420.371	5.74631
420.579	5.95517
420.788	6.97904
420.997	7.14138
421.205	7.22187
421.414	7.02457
421.623	7.05525
421.831	6.59281
422.04	7.2377
422.249	6.32811
422.457	6.84249
422.666	6.23384
422.874	7.24839
423.083	7.16511
423.291	7.17935
423.5	6.93368
423.708	7.12741
423.917	7.79949
424.125	7.1216
424.334	6.9525
424.542	8.70448
424.751	7.96594
424.959	7.64702
425.167	8.10482
425.376	7.9042
425.584	6.84406
425.793	6.93538
426.001	5.77246
426.209	6.48461
426.418	5.25426
426.626	4.99074
426.834	4.69573
427.042	4.89261
427.251	4.44623
427.459	5.28308
427.667	4.78127
427.875	3.90878
428.084	4.51257
428.292	5.36479
428.5	5.16772
428.708	4.02506
428.916	4.10317
429.124	4.71764
429.333	4.45948
429.541	4.61484
429.749	4.80854
429.957	4.70971
430.165	6.16515
430.373	3.75555
430.581	4.65194
430.789	5.46647
430.997	4.53661
431.205	4.18123
431.413	4.98815
431.621	4.5993
431.829	5.09185
432.037	4.57678
432.245	5.07307
432.453	5.14549
432.661	4.70931
432.869	6.26478
433.076	4.69106
433.284	5.24893
433.492	5.96384
433.7	6.2234
433.908	5.36599
434.116	5.68597
434.323	5.5293
434.531	5.22407
434.739	5.51078
434.947	5.46363
435.154	5.60597
435.362	4.93854
435.57	4.71584
435.778	4.50959
435.985	5.17216
436.193	4.55162
436.401	5.72072
436.608	4.94306
436.816	4.79146
437.023	5.91925
437.231	6.18365
437.439	5.11408
437.646	5.33675
437.854	5.35756
438.061	5.58141
438.269	5.22166
438.476	5.58669
438.684	5.46778
438.891	5.52023
439.099	5.47627
439.306	5.06932
439.514	5.28716
439.721	6.691
439.929	5.93256
440.136	6.90825
440.343	6.95995
440.551	6.62479
440.758	8.41687
440.965	7.21668
441.173	6.86219
441.38	6.43223
441.587	6.72646
441.795	6.1303
442.002	6.19008
442.209	6.12442
442.416	5.94952
442.624	5.82044
442.831	5.66785
443.038	5.08547
443.245	4.77558
443.452	5.06813
443.66	5.71737
443.867	4.97787
444.074	4.91376
444.281	5.34988
444.488	5.48329
444.695	5.91388
444.902	5.76492
445.109	7.03565
445.316	6.67589
445.523	6.93006
445.73	6.58882
445.937	7.59844
446.144	8.1086
446.351	8.38509
446.558	7.28966
446.765	8.97643
446.972	8.71438
447.179	7.84227
447.386	8.72265
447.593	7.21888
447.8	8.20164
448.007	6.87188
448.214	6.60986
448.42	6.02635
448.627	6.82504
448.834	5.87346
449.041	5.61638
449.248	5.48042
449.454	5.77935
449.661	6.49653
449.868	5.14599
450.075	4.97848
450.281	4.27241
450.488	4.83301
450.695	4.65582
450.901	4.87466
451.108	4.91825
451.315	5.91551
451.521	5.09545
451.728	5.95005
451.935	4.96191
452.141	5.1609
452.348	5.21463
452.554	5.32245
452.761	5.05069
452.967	6.34881
453.174	5.5099
453.38	5.54008
453.587	4.62419
453.793	5.40474
454	5.55316
454.206	6.54005
454.413	5.98223
454.619	5.63998
454.825	5.007
455.032	5.72391
455.238	5.87083
455.445	4.65059
455.651	5.39329
455.857	4.14299
456.064	5.36276
456.27	5.28112
456.476	5.02367
456.682	4.52031
456.889	5.56609
457.095	5.60128
457.301	6.66853
457.507	5.5006
457.714	5.50751
457.92	5.3935
458.126	4.88116
458.332	5.50362
458.538	5.4275
458.744	5.86153
458.951	6.27886
459.157	8.18178
459.363	7.35664
459.569	7.44602
459.775	8.20047
459.981	7.59036
460.187	8.15272
460.393	8.40375
460.599	8.70296
460.805	7.61769
461.011	6.92141
461.217	7.29695
461.423	6.59867
461.629	5.77732
461.835	5.97922
462.041	5.56153
462.247	6.67748
462.453	5.43887
462.658	5.34156
462.864	5.97275
463.07	5.66982
463.276	5.5045
463.482	5.64067
463.688	6.65138
463.893	5.13174
464.099	5.3814
464.305	6.56476
464.511	5.31019
464.716	5.44304
464.922	6.22588
465.128	4.9529
465.333	6.49166
465.539	6.17339
465.745	5.86133
465.95	5.59082
466.156	7.58075
466.362	6.3904
466.567	5.67446
466.773	5.37881
466.978	6.52318
467.184	5.07549
467.389	4.63705
467.595	5.85524
467.8	5.28362
468.006	6.56275
468.211	6.40126
468.417	5.04145
468.622	6.01865
468.828	6.12021
469.033	5.84716
469.239	7.53766
469.444	5.45733
469.649	6.11169
469.855	5.71687
470.06	5.83494
470.266	5.23102
470.471	6.11177
470.676	5.9792
470.881	4.50036
471.087	6.7429
471.292	6.95214
471.497	4.97
471.703	5.695
471.908	5.57062
472.113	5.70802
472.318	6.34977
472.523	5.13016
472.729	5.9794
472.934	6.07398
473.139	5.57897
473.344	6.14038
473.549	6.6888
473.754	5.52599
473.959	7.22098
474.164	5.36578
474.369	5.57981
474.575	6.23889
474.78	5.88128
474.985	5.55377
475.19	4.65677
475.395	5.37483
475.6	5.82527
475.804	6.65218
476.009	5.96244
476.214	5.78361
476.419	5.57328
476.624	4.91607
476.829	5.43103
477.034	6.231
477.239	5.50702
477.444	6.06779
477.648	6.30456
477.853	6.27945
478.058	5.66605
478.263	5.43471
478.468	5.4438
478.672	5.4499
478.877	6.89313
479.082	7.08658
479.287	6.29827
479.491	6.0266
479.696	5.31694
479.901	6.43657
480.105	6.46674
480.31	5.59033
480.515	6.05369
480.719	7.41049
480.924	5.97626
481.128	5.80889
481.333	6.95396
481.538	7.0785
481.742	7.21506
481.947	8.39945
482.151	9.01267
482.356	9.49419
482.56	11.45693
482.765	12.66196
482.969	15.45985
483.174	17.33564
483.378	20.11953
483.582	20.68661
483.787	22.18756
483.991	22.36308
484.196	22.67839
484.4	22.21314
484.604	22.55198
484.809	19.91768
485.013	19.13562
485.217	16.96419
485.422	14.93482
485.626	13.80563
485.83	12.96577
486.034	12.4847
486.239	12.94522
486.443	13.17469
486.647	13.2967
486.851	14.79047
487.055	15.85545
487.26	15.3833
487.464	16.41133
487.668	15.87953
487.872	16.03546
488.076	16.70755
488.28	15.85379
488.484	14.66573
488.688	14.6032
488.892	13.71599
489.096	12.63601
489.3	11.6389
489.504	10.84583
489.708	10.51481
489.912	10.45667
490.116	9.9668
490.32	9.6052
490.524	10.77749
490.728	11.4964
490.932	11.76269
491.136	12.75979
491.34	13.92499
491.544	14.38476
491.748	13.79931
491.951	13.9093
492.155	13.62178
492.359	13.30852
492.563	11.50683
492.767	11.13485
492.97	9.93337
493.174	8.78418
493.378	8.13801
493.582	6.98162
493.785	6.88641
493.989	6.87416
494.193	6.4882
494.396	5.84781
494.6	6.23527
494.804	5.74803
495.007	5.45794
495.211	5.83094
495.414	5.8249
495.618	6.35122
495.822	7.16422
496.025	6.55086
496.229	7.09268
496.432	6.583
496.636	7.02389
496.839	7.08043
497.043	7.95994
497.246	7.30555
497.45	6.93229
497.653	7.20811
497.856	7.15242
498.06	6.45535
498.263	6.55736
498.467	6.48575
498.67	6.95002
498.873	6.52874
499.077	6.17383
499.28	6.28511
499.483	6.5083
499.686	6.81495
499.89	6.3204
500.093	6.72909
500.296	5.76218
500.499	7.42678
500.703	6.03025
500.906	6.55527
501.109	7.25053
501.312	6.282
501.515	6.23911
501.719	6.50769
501.922	6.96257
502.125	6.45752
502.328	6.293
502.531	5.83194
502.734	6.31019
502.937	5.25019
503.14	6.42001
503.343	5.90586
503.546	6.30312
503.749	5.80254
503.952	6.56784
504.155	5.88667
504.358	6.74649
504.561	6.49531
504.764	5.63063
504.967	6.34658
505.17	6.45803
505.373	7.32327
505.576	6.28392
505.778	6.76821
505.981	5.81503
506.184	7.10239
506.387	5.4205
506.59	7.45385
506.793	7.16173
506.995	6.52651
507.198	5.17391
507.401	6.73208
507.604	6.55152
507.806	5.69842
508.009	5.9167
508.212	6.85723
508.414	5.90469
508.617	6.08625
508.82	6.36345
509.022	7.15065
509.225	6.63958
509.427	5.38633
509.63	7.09585
509.833	6.41645
510.035	6.11479
510.238	5.44849
510.44	7.26472
510.643	5.37664
510.845	7.48707
511.048	6.55544
511.25	6.01691
511.453	6.31195
511.655	6.61804
511.858	6.33047
512.06	6.87359
512.262	6.4562
512.465	7.13639
512.667	6.29673
512.869	5.78572
513.072	6.70704
513.274	6.81001
513.476	6.94203
513.679	6.8831
513.881	5.87154
514.083	7.33167
514.286	6.0198
514.488	6.01191
514.69	5.8729
514.892	5.5729
515.094	7.05979
515.297	6.09616
515.499	6.496
515.701	5.99851
515.903	7.5513
516.105	7.57547
516.307	6.90525
516.509	5.39773
516.711	5.90748
516.913	6.44767
517.116	6.2535
517.318	6.28538
517.52	7.24268
517.722	7.39433
517.924	6.72286
518.126	7.82631
518.328	7.34173
518.529	8.11708
518.731	8.89403
518.933	7.35782
519.135	7.65241
519.337	8.33709
519.539	7.692
519.741	6.01084
519.943	6.4848
520.145	6.24193
520.346	7.05857
520.548	6.40635
520.75	6.63778
520.952	6.38655
521.153	6.83963
521.355	6.82006
521.557	5.90834
521.759	6.52883
521.96	6.41698
522.162	5.77216
522.364	7.11491
522.565	6.04807
522.767	7.0063
522.969	7.21841
523.17	6.78269
523.372	6.52576
523.573	6.39008
523.775	6.5368
523.977	5.8883
524.178	7.40985
524.38	6.20216
524.581	7.09394
524.783	6.70378
524.984	7.81292
525.186	7.73846
525.387	8.32073
525.589	8.29219
525.79	8.2081
525.991	8.01039
526.193	9.04406
526.394	8.01635
526.596	9.11875
526.797	9.4943
526.998	8.92398
527.2	9.25971
527.401	11.40032
527.602	12.33317
527.803	14.85676
528.005	15.51942
528.206	16.74987
528.407	17.64195
528.608	17.661
528.81	18.05511
529.011	17.04773
529.212	18.09753
529.413	16.71222
529.614	15.4892
529.815	14.70506
530.017	13.29031
530.218	11.71383
530.419	10.35654
530.62	10.01181
530.821	9.36268
531.022	8.03854
531.223	9.1726
531.424	8.93506
531.625	8.98674
531.826	8.82771
532.027	9.38235
532.228	10.71601
532.429	10.66937
532.63	11.01621
532.831	11.91379
533.032	11.68286
533.233	12.67152
533.433	12.31987
533.634	12.55026
533.835	11.77473
534.036	11.07055
534.237	10.49394
534.438	9.82742
534.638	8.44369
534.839	8.28156
535.04	8.29362
535.241	7.60864
535.441	8.98219
535.642	8.34368
535.843	7.4786
536.043	7.92395
536.244	8.06678
536.445	8.53325
536.645	9.46164
536.846	8.8547
537.047	9.38867
537.247	7.99823
537.448	7.82513
537.648	7.74752
537.849	7.23305
538.049	6.91509
538.25	7.02613
538.451	7.2125
538.651	6.34688
538.851	6.98223
539.052	7.62187
539.252	7.3339
539.453	6.74032
539.653	7.06444
539.854	7.46636
540.054	8.32594
540.254	9.88222
540.455	10.98299
540.655	10.745
540.855	12.04197
541.056	13.25949
541.256	12.76657
541.456	14.02779
541.657	13.2841
541.857	14.30399
542.057	12.46998
542.257	11.86501
542.458	12.36916
542.658	11.76137
542.858	9.76699
543.058	10.38827
543.258	9.58057
543.458	8.10867
543.659	7.54693
543.859	8.54674
544.059	8.44458
544.259	7.43643
544.459	7.67813
544.659	6.73447
544.859	7.21294
545.059	6.55821
545.259	7.30147
545.459	6.94054
545.659	7.54212
545.859	7.01306
546.059	7.20313
546.259	6.71919
546.459	6.57991
546.659	6.49489
546.859	7.55592
547.059	7.12218
547.258	7.1332
547.458	7.27386
547.658	6.26712
547.858	6.14331
548.058	7.00721
548.258	6.68062
548.457	6.15773
548.657	8.41044
548.857	6.62404
549.057	7.32117
549.256	7.28525
549.456	6.41361
549.656	5.37261
549.855	7.82048
550.055	6.52831
550.255	8.16411
550.454	7.22308
550.654	7.24222
550.853	7.85647
551.053	7.47425
551.253	6.93986
551.452	7.09074
551.652	6.0671
551.851	5.83042
552.051	6.62658
552.25	6.47252
552.45	6.18981
552.649	6.48975
552.849	6.23186
553.048	6.65932
553.248	7.18975
553.447	6.15384
553.646	7.39889
553.846	7.99622
554.045	7.44965
554.244	5.87362
554.444	8.08
554.643	6.40886
554.842	7.9351
555.042	8.4975
555.241	6.25013
555.44	6.01058
555.64	7.42149
555.839	8.30683
556.038	7.17315
556.237	6.20451
556.436	6.7684
556.636	7.20017
556.835	6.21424
557.034	8.21652
557.233	6.8019
557.432	5.66946
557.631	7.86171
557.83	6.83073
558.029	6.53773
558.228	6.22938
558.427	5.88487
558.626	7.24555
558.825	6.09117
559.024	6.92008
559.223	8.46172
559.422	6.57923
559.621	7.06215
559.82	4.92052
560.019	6.81127
560.218	6.74323
560.417	4.77438
560.616	6.32625
560.815	9.5036
561.014	5.60058
561.212	8.17057
561.411	6.93734
561.61	5.55799
561.809	6.61811
562.008	7.86772
562.206	6.39037
562.405	7.2809
562.604	6.4894
562.803	7.00063
563.001	6.56494
563.2	5.4911
563.399	7.14356
563.597	5.68924
563.796	6.74091
563.995	5.65757
564.193	7.36463
564.392	6.36781
564.59	8.50045
564.789	5.23071
564.988	6.36272
565.186	6.95073
565.385	6.73031
565.583	6.4648
565.782	6.70359
565.98	6.43502
566.179	6.68996
566.377	5.84501
566.575	6.17653
566.774	7.68697
566.972	7.49966
567.171	8.3109
567.369	7.69727
567.567	7.01769
567.766	6.983
567.964	5.17526
568.162	7.18625
568.361	7.41051
568.559	6.52084
568.757	7.06429
568.956	6.79751
569.154	6.92892
569.352	7.40575
569.55	6.73305
569.748	6.71716
569.947	6.13775
570.145	5.92794
570.343	6.08413
570.541	7.47398
570.739	5.70134
570.937	6.83646
571.135	7.26426
571.333	8.1828
571.532	7.90568
571.73	6.80112
571.928	7.61351
572.126	6.9971
572.324	6.29428
572.522	7.86877
572.72	8.95651
572.918	6.83272
573.116	7.13478
573.313	6.68542
573.511	6.78565
573.709	6.18787
573.907	7.19073
574.105	6.67667
574.303	5.30251
574.501	5.58001
574.699	7.10508
574.896	7.12953
575.094	7.30722
575.292	5.47164
575.49	7.42833
575.688	6.53765
575.885	7.65496
576.083	8.301
576.281	7.26395
576.478	6.06397
576.676	7.12785
576.874	5.48808
577.071	6.63107
577.269	8.74706
577.467	6.58872
577.664	6.69444
577.862	7.54693
578.059	6.06222
578.257	7.63277
578.455	6.33737
578.652	6.75934
578.85	4.88074
579.047	6.94135
579.245	6.45739
579.442	6.66916
579.64	6.67604
579.837	4.9394
580.034	9.21147
580.232	6.56642
580.429	5.4362
580.627	7.23506
580.824	8.06806
581.021	7.18532
581.219	6.34403
581.416	5.92446
581.613	7.89955
581.811	7.97241
582.008	5.91832
582.205	7.77497
582.402	7.08296
582.6	8.87697
582.797	7.01695
582.994	6.98244
583.191	7.3597
583.388	6.74185
583.586	7.66004
583.783	7.76979
583.98	6.30908
584.177	7.09206
584.374	3.80598
584.571	6.53247
584.768	6.74399
584.965	6.21363
585.162	7.45731
585.359	8.59571
585.556	7.08205
585.753	7.33674
585.95	5.49774
586.147	5.93867
586.344	7.35208
586.541	6.51392
586.738	5.37381
586.935	6.834
587.132	5.93793
587.329	7.72449
587.526	6.66552
587.722	11.6444
587.919	5.25515
588.116	7.24636
588.313	8.1282
588.51	9.04706
588.706	6.36112
588.903	7.41529
589.1	7.63927
589.297	9.41544
589.493	6.77506
589.69	7.58315
589.887	6.23077
590.083	5.91134
590.28	6.11272
590.477	7.69391
590.673	7.88553
590.87	8.26827
591.067	6.72911
591.263	7.18457
591.46	7.1907
591.656	6.50136
591.853	8.38108
592.049	5.70683
592.246	6.27508
592.442	8.06129
592.639	7.95169
592.835	6.00413
593.032	7.23978
593.228	5.29817
593.425	5.31411
593.621	5.07781
593.817	7.12887
594.014	6.16414
594.21	6.6983
594.406	7.82923
594.603	7.33707
594.799	6.24097
594.995	4.50802
595.192	7.79594
595.388	6.38708
595.584	6.53493
595.78	5.42873
595.977	8.9069
596.173	8.52362
596.369	6.50263
596.565	5.91332
596.761	5.23383
596.957	8.03423
597.154	6.16992
597.35	6.38194
597.546	5.87105
597.742	7.53736
597.938	6.73525
598.134	6.01384
598.33	7.11383
598.526	8.35531
598.722	7.24247
598.918	8.78306
599.114	7.34974
599.31	6.03806
599.506	6.94024
599.702	5.91237
599.898	6.66589
600.094	7.88364
600.29	7.64613
600.485	7.60654
600.681	6.40477
600.877	8.95275
601.073	6.96442
601.269	8.85234
601.465	8.21247
601.66	5.88056
601.856	4.95355
602.052	8.65157
602.248	6.53716
602.443	4.81859
602.639	5.61906
602.835	6.01698
603.03	5.76137
603.226	7.73833
603.422	5.60204
603.617	6.37714
603.813	6.40241
604.009	6.33993
604.204	7.81325
604.4	5.46062
604.595	7.62481
604.791	5.70929
604.986	7.14401
605.182	6.09053
605.377	6.45656
605.573	6.08713
605.768	6.97956
605.964	7.59865
606.159	7.36153
606.355	8.18297
606.55	6.42993
606.746	8.15467
606.941	6.63253
607.136	9.15675
607.332	10.15369
607.527	5.45279
607.722	7.22136
607.918	6.52874
608.113	6.26371
608.308	7.59765
608.503	7.65502
608.699	7.42876
608.894	7.60483
609.089	5.87726
609.284	7.11154
609.479	6.40739
609.675	7.62814
609.87	6.36297
610.065	7.68287
610.26	7.91427
610.455	7.57745
610.65	6.74916
610.845	6.98225
611.04	7.85618
611.235	6.79327
611.43	6.31946
611.625	5.75481
611.82	8.52873
612.015	6.49515
612.21	8.89311
612.405	5.25617
612.6	9.17145
612.795	8.61323
612.99	7.69806
613.185	5.8293
613.38	6.09116
613.575	7.5713
613.77	10.44464
613.965	5.20078
614.159	6.1034
614.354	8.73836
614.549	8.59547
614.744	7.942
614.938	6.145
615.133	5.22528
615.328	9.06058
615.523	8.63183
615.717	10.77675
615.912	6.15243
616.107	7.33515
616.301	6.81243
616.496	6.31252
616.691	9.12588
616.885	8.26283
617.08	11.16696
617.274	8.69516
617.469	9.94867
617.664	8.13754
617.858	6.92271
618.053	7.73085
618.247	7.08943
618.442	4.22585
618.636	8.90836
618.831	6.45999
619.025	6.39308
619.219	10.65909
619.414	3.40557
619.608	7.33785
619.803	6.37372
619.997	10.31634
620.191	8.66599
620.386	7.73805
620.58	7.43171
620.774	5.25696
620.969	5.30741
621.163	7.41828
621.357	5.86944
621.551	6.96321
621.746	7.59447
621.94	7.24933
622.134	11.97938
622.328	10.29012
622.522	5.53615
622.716	8.88436
622.911	8.79965
623.105	8.94791
623.299	8.12572
623.493	12.24226
623.687	5.93537
623.881	7.03689
624.075	7.8981
624.269	9.24119
624.463	4.56116
624.657	5.34236
624.851	8.07723
625.045	8.60109
625.239	9.09821
625.433	7.13263
625.627	9.42232
625.821	6.364
626.015	6.42696
626.209	7.62376
626.403	5.22092
626.596	8.12991
626.79	8.26308
626.984	5.62177
627.178	7.86483
627.372	8.36197
627.565	8.26494
627.759	5.48498
627.953	5.73943
628.147	8.20189
628.34	8.11776
628.534	10.14049
628.728	7.03793
628.921	8.66399
629.115	8.29126
629.309	8.75957
629.502	9.1054
629.696	7.49733
629.89	7.54537
630.083	8.10006
630.277	7.92757
630.47	10.22449
630.664	7.03896
630.857	5.42387
631.051	8.58042
631.244	9.51694
631.438	8.997
631.631	6.15598
631.825	10.10648
632.018	8.94642
632.212	10.54209
632.405	9.36815
632.598	6.57623
632.792	7.48728
632.985	4.22891
633.178	7.44442
633.372	7.3949
633.565	7.30757
633.758	9.8098
633.952	5.96119
634.145	5.78054
634.338	7.06186
634.531	6.59499
634.724	6.61644
634.918	7.4147
635.111	7.34661
635.304	6.71013
635.497	11.24106
635.69	8.20354
635.883	9.65705
636.077	6.21335
636.27	8.59151
636.463	8.3514
636.656	8.23672
636.849	7.28344
637.042	8.57737
637.235	10.18304
637.428	9.38676
637.621	9.31796
637.814	10.10822
638.007	10.49242
638.2	10.40795
638.393	11.05514
638.586	5.64084
638.778	7.03032
638.971	8.17164
639.164	10.7127
639.357	8.9921
639.55	10.6555
639.743	9.65271
639.935	9.08863
640.128	11.80672
640.321	8.80812
640.514	8.47028
640.707	12.73392
640.899	9.17257
641.092	5.33597
641.285	21.71029
641.477	4.65213
641.67	13.12157
641.863	10.9905
642.055	8.79106
642.248	8.34282
642.441	7.59059
642.633	9.17036
642.826	10.23049
643.018	10.96582
643.211	12.51348
643.403	11.51118
643.596	13.29984
643.788	12.88951
643.981	8.0839
644.173	10.31329
644.366	8.45763
644.558	5.52918
644.751	10.75129
644.943	6.10808
645.135	11.76528
645.328	11.83444
645.52	10.043
645.712	10.68148
645.905	14.86075
646.097	6.89659
646.289	8.90546
646.482	12.92702
646.674	7.41675
646.866	11.24787
647.058	9.91045
647.251	6.79496
647.443	8.03418
647.635	9.41599
647.827	6.40534
648.019	7.76361
648.211	8.70365
648.404	9.1854
648.596	12.70975
648.788	9.64997
648.98	9.4774
649.172	9.84875
649.364	9.70399
649.556	6.16576
649.748	14.30625
649.94	7.24763
650.132	9.78923
650.324	6.93163
650.516	8.08356
650.708	11.47139
650.9	5.8627
651.092	8.08899
651.284	6.06432
651.476	6.66125
651.667	9.91634
651.859	11.33834
652.051	9.14238
652.243	8.60799
652.435	7.74841
652.627	9.87382
652.818	9.91574
653.01	6.34213
653.202	6.89597
653.394	8.2586
653.585	10.27399
653.777	18.29268
653.969	11.80331
654.16	11.3963
654.352	6.93313
654.544	8.32363
654.735	11.46745
654.927	9.54362
655.118	12.36825
655.31	10.52267
655.502	11.62006
655.693	8.39444
655.885	10.65238
656.076	12.1843
656.268	9.90282
656.459	12.6116
656.651	12.27368
656.842	8.18214
657.034	8.03727
657.225	11.39488
657.416	12.41517
657.608	12.32232
657.799	9.13349
657.99	11.54197
658.182	8.22737
658.373	7.9937
658.564	10.86381
658.756	9.22786
658.947	9.07277
659.138	6.99257
659.33	8.06028
659.521	7.56756
659.712	8.5251
659.903	8.50853
660.094	8.21562
660.286	5.89474
660.477	13.21247
660.668	10.63695
660.859	9.38558
661.05	6.23119
661.241	10.95141
661.432	10.3594
661.623	8.80803
661.814	8.10425
662.006	6.08574
662.197	10.18502
662.388	12.18693
662.579	9.90577
662.77	12.39447
662.96	16.74536
663.151	11.81228
663.342	5.95771
663.533	10.93809
663.724	9.61439
663.915	14.08739
664.106	9.22698
664.297	13.77272
664.488	12.06833
664.678	8.72442
664.869	11.9376
665.06	12.80829
665.251	10.98629
665.442	10.83442
665.632	7.9447
665.823	14.79281
666.014	3.46846
666.204	11.95749
666.395	13.28768
666.586	17.57006
666.776	12.10294
666.967	13.96254
667.158	10.77374
667.348	13.59241
667.539	7.57172
667.729	12.31442
667.92	8.18526
668.111	12.78487
668.301	12.22906
668.492	9.90022
668.682	10.99241
668.873	9.54689
669.063	7.88037
669.253	10.47255
669.444	12.48577
669.634	10.08253
669.825	15.86625
670.015	12.86722
670.206	8.47304
670.396	15.55946
670.586	9.99794
670.777	11.84419
670.967	4.65833
671.157	9.8031
671.347	8.22077
671.538	14.47453
671.728	12.36422
671.918	15.74141
672.108	13.23278
672.299	9.69985
672.489	11.91861
672.679	9.14362
672.869	12.03727
673.059	15.84415
673.249	12.4474
673.44	7.99499
673.63	10.36126
673.82	13.40952
674.01	8.22695
674.2	12.37865
674.39	19.30331
674.58	13.4722
674.77	11.08887
674.96	10.05712
675.15	22.45011
675.34	14.00041
675.53	11.00032
675.72	10.19381
675.91	6.99613
676.099	16.72569
676.289	17.47604
676.479	14.18973
676.669	9.65844
676.859	12.1106
677.049	8.84246
677.238	11.40356
677.428	16.53726
677.618	12.62754
677.808	14.60509
677.997	12.9695
678.187	8.1781
678.377	11.15144
678.567	9.86324
678.756	9.68477
678.946	10.57282
679.136	7.36912
679.325	8.6422
679.515	8.40915
679.704	7.35336
679.894	11.9834
680.084	11.37558
680.273	13.65163
680.463	9.19036
680.652	8.55495
680.842	10.96511
681.031	13.58953
681.221	8.31653
681.41	12.40244
681.6	10.1307
681.789	13.20554
681.978	14.764
682.168	11.69278
682.357	11.5918
682.547	12.84825
682.736	11.79669
682.925	14.87339
683.115	14.47372
683.304	13.96224
683.493	13.196
683.682	12.77246
683.872	13.1706
684.061	15.29443
684.25	13.48231
684.439	17.16143
684.629	14.11555
684.818	23.32381
685.007	11.70861
685.196	10.88632
685.385	16.77304
685.574	12.92693
685.763	13.61198
685.952	12.69169
686.142	9.68045
686.331	16.12071
686.52	6.5403
686.709	17.45622
686.898	16.82081
687.087	14.11552
687.276	17.64542
687.465	15.7417
687.654	11.37258
687.842	17.54225
688.031	9.12665
688.22	16.53483
688.409	13.6823
688.598	13.01455
688.787	20.43874
688.976	13.15157
689.165	18.59798
689.353	11.42268
689.542	14.31751
689.731	14.9367
689.92	18.89895
690.108	16.00613
690.297	11.63837
690.486	13.40562
690.675	15.67711
690.863	19.39238
691.052	18.04545
691.241	14.89248
691.429	14.4905
691.618	18.24543
691.806	9.41234
691.995	13.23387
692.184	12.93754
692.372	11.3235
692.561	14.75587
692.749	13.85331
692.938	22.1322
693.126	16.6342
693.315	13.77111
693.503	15.59227
693.692	16.13824
693.88	17.79668
694.068	21.88211
694.257	13.53025
694.445	16.18753
694.634	6.28494
694.822	18.23486
695.01	19.10811
695.199	19.19884
695.387	19.69844
695.575	18.13359
695.763	14.17682
695.952	12.23348
696.14	9.44871
696.328	12.28995
696.516	14.32186
696.705	15.13962
696.893	14.66022
697.081	8.01007
697.269	15.98863
697.457	10.81351
697.645	10.30309
697.833	16.30363
698.021	11.25038
698.21	11.6896
698.398	13.09448
698.586	9.61577
698.774	9.62725
698.962	12.25113
699.15	10.0321
699.338	8.20146
699.526	14.04518
699.714	11.50601
699.901	10.7454
700.089	16.05265
700.277	10.7163
700.465	12.54921
700.653	15.80219
700.841	15.17318
701.029	10.99246
701.217	18.19705
701.404	14.70241
701.592	19.78457
701.78	21.12038
701.968	13.63188
702.155	13.18928
702.343	8.36021
702.531	19.2061
702.718	16.42096
702.906	13.69424
703.094	12.54927
703.281	19.98256
703.469	14.75599
703.657	19.4828
703.844	27.33078
704.032	21.44671
704.219	13.36416
704.407	17.46376
704.595	20.65478
704.782	15.73219
704.97	13.51797
705.157	13.48392
705.345	21.45117
705.532	26.41888
705.719	17.54786
705.907	21.2051
706.094	16.76759
706.282	23.16127
706.469	14.53318
706.656	17.27184
706.844	14.41856
707.031	20.42667
707.218	17.17018
707.406	22.85947
707.593	19.09927
707.78	18.60056
707.968	15.51036
708.155	12.6682
708.342	18.94884
708.529	18.45079
708.716	17.88934
708.904	24.18925
709.091	20.59401
709.278	12.15197
709.465	23.39366
709.652	24.51962
709.839	22.1216
710.026	18.81244
710.213	10.74659
710.4	18.86649
710.587	20.4485
710.774	21.02894
710.961	21.13167
711.148	17.48687
711.335	21.42633
711.522	15.80024
711.709	19.1823
711.896	26.18529
712.083	20.76618
712.27	13.91638
712.457	17.30665
712.644	11.46809
712.831	26.3728
713.017	18.02515
713.204	20.72273
713.391	15.44562
713.578	23.20159
713.765	23.51716
713.951	19.60759
714.138	32.20792
714.325	21.72085
714.512	18.33506
714.698	14.96724
714.885	25.25973
715.072	19.93233
715.258	18.59461
715.445	15.49109
715.631	24.88521
715.818	7.30884
716.005	15.43733
716.191	21.58289
716.378	16.24041
716.564	22.77144
716.751	15.13194
716.937	17.30959
717.124	24.87377
717.31	13.95584
717.497	26.33493
717.683	15.96847
717.869	30.6449
718.056	17.0631
718.242	21.33028
718.429	18.56795
718.615	13.01805
718.801	20.51348
718.988	23.13535
719.174	21.96944
719.36	19.87116
719.547	25.42625
719.733	21.76341
719.919	22.57839
720.105	24.32137
720.291	19.84702
720.478	22.22073
720.664	20.15065
720.85	17.58298
721.036	34.47765
721.222	27.95759
721.408	19.52078
721.595	30.82155
721.781	29.94096
721.967	26.19529
722.153	29.09309
722.339	24.06382
722.525	22.44089
722.711	17.09751
722.897	14.4674
723.083	17.75869
723.269	26.15629
723.455	35.06324
723.641	37.90649
723.827	22.55229
724.012	24.45236
724.198	19.64033
724.384	28.6824
724.57	24.04651
724.756	12.93323
724.942	9.91092
725.127	26.60612
725.313	27.50889
725.499	28.91056
725.685	31.26242
725.87	22.91714
726.056	16.0953
726.242	29.39091
726.428	13.6965
726.613	27.18852
726.799	19.45189
726.985	15.67728
727.17	13.51768
727.356	31.96769
727.541	15.28048
727.727	20.53388
727.913	26.67348
728.098	19.82462
728.284	26.20142
728.469	14.96173
728.655	16.60083
728.84	26.76753
729.026	25.50678
729.211	26.33978
729.397	24.24905
729.582	25.68726
729.767	21.98305
729.953	24.0516
730.138	27.2578
730.323	9.88912
730.509	15.80696
730.694	30.84473
730.879	25.87726
731.065	22.07842
731.25	36.54778
731.435	25.95009
731.621	12.63568
731.806	18.56432
731.991	24.7266
732.176	13.14293
732.361	29.99872
732.547	24.57994
732.732	12.61985
732.917	36.31248
733.102	15.20374
733.287	17.99825
733.472	22.42295
733.657	21.67201
733.842	13.23648
734.027	18.88626
734.212	21.04159
734.397	17.13439
734.582	22.78833
734.767	27.28149
734.952	30.44633
735.137	7.84991
735.322	30.9561
735.507	23.80147
735.692	23.55118
735.877	36.04092
736.062	34.6775
736.247	24.23861
736.431	19.3839
736.616	29.99575
736.801	24.39827
736.986	21.76487
737.171	17.48218
737.355	13.60753
737.54	31.14972
737.725	24.75781
737.909	41.83222
738.094	20.06102
738.279	27.78668
738.463	21.33156
738.648	27.21421
738.833	25.78399
739.017	35.92806
739.202	21.06694
739.386	21.89703
739.571	16.74485
739.756	28.57064
739.94	23.39818
740.125	29.37812
740.309	18.58259
740.494	29.17236
740.678	22.75689
740.863	27.54439
741.047	24.68835
741.231	32.16299
741.416	18.35707
741.6	35.69087
741.785	17.44721
741.969	31.11537
742.153	31.38478
742.338	9.12747
742.522	22.32924
742.706	30.10507
742.89	15.00621
743.075	27.41016
743.259	34.19355
743.443	30.69841
743.627	32.28044
743.812	40.53309
743.996	8.11925
744.18	24.60685
744.364	22.73483
744.548	43.4149
744.732	24.12341
744.916	29.13955
745.1	29.26281
745.285	22.51538
745.469	29.57722
745.653	38.22131
745.837	13.70837
746.021	41.9184
746.205	34.81252
746.389	25.88695
746.573	22.87829
746.757	37.08019
746.94	23.98288
747.124	33.72595
747.308	16.5226
747.492	34.89288
747.676	21.29407
747.86	44.51326
748.044	22.95001
748.227	14.01023
748.411	52.35804
748.595	28.3612
748.779	19.6762
748.963	29.9281
749.146	27.0151
749.33	19.53578
749.514	17.67014
749.697	34.88447
749.881	21.7032
750.065	17.39603
750.248	25.67444
750.432	44.99589
750.616	27.64294
750.799	12.88448
750.983	41.25688
751.166	48.15259
751.35	13.93658
751.533	34.54796
751.717	35.07278
751.9	38.48518
752.084	22.00244
752.267	16.50326
752.451	21.05833
752.634	27.26418
752.818	30.74628
753.001	31.78995
753.184	33.56026
753.368	28.53889
753.551	1.4059
753.734	19.3526
753.918	42.78074
754.101	19.19157
754.284	33.09931
754.467	22.87121
754.651	22.37883
754.834	19.40871
755.017	36.13353
755.2	35.97095
755.384	15.76886
755.567	34.24539
755.75	35.20352
755.933	24.73422
756.116	28.61493
756.299	21.18512
756.482	21.15769
756.665	30.89894
756.848	28.17315
757.032	28.46106
757.215	14.95749
757.398	20.26596
757.581	19.31095
757.764	51.11694
757.947	24.18355
758.129	37.683
758.312	5.01838
758.495	25.29081
758.678	25.05903
758.861	25.44508
759.044	43.48726
759.227	20.94016
759.41	20.8119
759.592	30.78269
759.775	26.10212
759.958	36.4044
760.141	15.51591
760.324	45.07861
760.506	38.70115
760.689	33.19233
760.872	50.5766
761.054	30.51788
761.237	22.13044
761.42	31.67979
761.602	33.59955
761.785	30.50647
761.968	35.77314
762.15	41.03271
762.333	25.58403
762.515	29.49405
762.698	22.2085
762.88	32.72159
763.063	28.82551
763.245	32.02624
763.428	18.41056
763.61	19.38401
763.793	15.78785
763.975	27.87567
764.158	22.6629
764.34	20.64249
764.522	18.23263
764.705	24.36219
764.887	36.53143
765.069	14.55682
765.252	30.11202
765.434	31.40018
765.616	25.27991
765.799	19.34867
765.981	31.37792
766.163	17.46255
766.345	34.478
766.528	19.83603
766.71	6.75364
766.892	27.37181
767.074	34.89104
767.256	26.26305
767.438	44.26421
767.62	29.91436
767.802	47.79563
767.985	33.0485
768.167	44.12714
768.349	24.76175
768.531	33.40968
768.713	30.41171
768.895	36.21219
769.077	31.62788
769.259	54.19411
769.441	80.40399
769.623	38.12542
769.804	44.83282
769.986	47.93408
770.168	55.64798
770.35	64.60747
770.532	50.9079
770.714	49.56051
770.896	56.26793
771.077	20.94553
771.259	56.66706
771.441	49.21041
771.623	58.7242
771.804	79.16831
771.986	18.28743
772.168	36.98756
772.35	59.77923
772.531	77.04143
772.713	49.46562
772.894	61.12783
773.076	46.31435
773.258	33.68278
773.439	59.85574
773.621	64.91292
773.802	30.68454
773.984	39.6084
774.166	50.00221
774.347	67.98855
774.529	58.88082
774.71	15.91402
774.891	44.26223
775.073	42.51866
775.254	70.07684
775.436	34.87743
775.617	71.27648
775.799	38.14688
775.98	71.97718
776.161	75.51383
776.343	68.77203
776.524	47.06224
776.705	36.87771
776.886	18.85673
777.068	48.49316
777.249	84.01818
777.43	77.7424
777.611	29.47319
777.793	45.58573
777.974	75.15081
778.155	41.56128
778.336	34.91377
778.517	79.39066
778.698	34.91524
778.879	16.55737
779.061	4.28671
779.242	53.50764
779.423	52.3626
779.604	36.11886
779.785	41.61216
779.966	52.75425
780.147	62.50181
780.328	63.4829
780.509	89.20825
780.69	55.5919
780.871	37.10842
781.051	21.81478
781.232	46.88621
781.413	50.71436
781.594	38.3514
781.775	38.67559
781.956	35.47128
782.137	16.85922
782.317	32.87762
782.498	51.04659
782.679	46.83635
782.86	48.95949
783.04	32.61817
783.221	51.2632
783.402	80.52467
783.583	44.84777
783.763	59.95902
783.944	38.60437
784.124	23.62242
784.305	74.6123
784.486	54.68218
784.666	43.38886
784.847	19.04222
785.027	92.23653
785.208	32.94954
785.388	36.58929
785.569	37.10545
785.749	41.63862
785.93	36.45214
786.11	22.75199
786.291	51.65153
786.471	49.68982
786.652	59.01508
786.832	41.13614
787.012	53.87941
787.193	26.48083
787.373	46.23786
787.553	38.32119
787.734	47.75397
787.914	38.4553
788.094	53.74022
788.275	49.51232
788.455	40.25967
788.635	26.6823
788.815	47.26599
788.995	28.24124
789.176	23.04459
789.356	30.86092
789.536	40.57679
789.716	52.39239
789.896	32.74159
790.076	36.31588
790.256	47.62116
790.436	13.62729
790.616	29.56958
790.796	50.6604
790.976	38.16323
791.156	38.06951
791.336	57.09634
791.516	48.01382
791.696	45.9557
791.876	23.42256
792.056	47.32765
792.236	57.25329
792.416	55.41358
792.596	55.20803
792.776	51.73054
792.956	51.12496
793.135	69.8221
793.315	27.66347
793.495	62.80988
793.675	52.80837
793.854	60.90367
794.034	60.97463
794.214	25.28345
794.394	56.40985
794.573	62.48787
794.753	44.88435
794.933	32.29973
795.112	46.2348
795.292	58.84928
795.472	76.35762
795.651	26.19358
795.831	45.80647
796.01	39.06947
796.19	39.67529
796.369	42.18777
796.549	53.43227
796.728	37.604
796.908	25.49484
797.087	27.96276
797.267	42.00748
797.446	27.98036
797.626	50.69231
797.805	51.86913
797.984	32.96562
798.164	54.53823
798.343	28.9534
798.522	49.54856
798.702	49.53702
798.881	27.95549
799.06	40.68125
799.239	16.78879
799.419	26.14224
799.598	69.98712
799.777	54.8175
799.956	60.23821
800.136	41.48326
800.315	32.38364
800.494	49.75116
800.673	56.84128
800.852	56.64586
801.031	65.95845
801.21	53.68344
801.389	35.05343
801.568	50.66106
801.747	75.00041
801.926	42.71437
802.105	70.22126
802.284	39.68775
802.463	66.96585
802.642	49.58958
802.821	52.66427
803	66.27337
803.179	55.31415
803.358	65.2267
803.537	36.4682
803.716	57.71073
803.895	32.46303
804.073	47.44908
804.252	34.79268
804.431	53.58453
804.61	47.37282
804.789	65.9072
804.967	37.26811
805.146	34.57136
805.325	81.32755
805.503	53.5343
805.682	24.99182
805.861	89.63662
806.039	69.64285
806.218	34.35826
806.397	46.71025
806.575	45.44044
806.754	53.16971
806.932	32.20571
807.111	73.59981
807.289	59.09742
807.468	48.19142
807.646	65.16423
807.825	52.075
808.003	48.60604
808.182	63.22491
808.36	46.49773
808.539	31.41336
808.717	70.94524
808.895	34.87176
809.074	53.83702
809.252	44.44806
809.43	62.88327
809.609	73.6862
809.787	78.08596
809.965	42.14225
810.144	50.20559
810.322	43.52729
810.5	58.52291
810.678	47.66311
810.856	91.46673
811.035	68.25766
811.213	65.50758
811.391	67.08736
811.569	52.71738
811.747	110.96001
811.925	68.34712
812.103	37.24753
812.281	44.0295
812.459	90.78124
812.637	88.896
812.816	71.89366
812.994	90.88612
813.171	73.832
813.349	65.56186
813.527	75.07428
813.705	70.74549
813.883	95.17536
814.061	72.47181
814.239	88.52796
814.417	93.04944
814.595	65.22329
814.773	61.61611
814.95	56.63471
815.128	65.6592
815.306	54.14583
815.484	53.14939
815.662	40.2407
815.839	31.69341
816.017	41.41271
816.195	77.68934
816.372	50.25949
816.55	68.78324
816.728	81.6769
816.905	54.79381
817.083	86.06624
817.261	54.03757
817.438	106.11647
817.616	93.46773
817.793	38.52863
817.971	70.62141
818.148	66.28489
818.326	78.12366
818.503	64.12703
818.681	74.17811
818.858	44.72001
819.036	54.14205
819.213	56.82524
819.391	41.63499
819.568	35.70673
819.745	32.11339
819.923	60.46464
820.1	40.01369
820.277	36.45276
820.455	43.12055
820.632	45.95385
820.809	47.52245
820.986	28.51172
821.164	22.31332
821.341	19.95158
821.518	28.27153
821.695	21.56695
821.872	20.98829
822.05	16.80769
822.227	13.38697
822.404	14.35768
822.581	16.00314
822.758	14.13702
822.935	14.57519
823.112	17.08668
823.289	13.79012
823.466	16.75982
823.643	15.82229
823.82	18.73707
823.997	16.79663
824.174	20.26132
824.351	26.37
824.528	25.15482
824.705	22.59323
824.882	25.50552
825.059	34.38197
825.236	22.44788
825.412	23.26675
825.589	30.73778
825.766	43.68903
825.943	24.91653
826.12	31.03821
826.296	20.39797
826.473	28.07138
826.65	28.09528
826.827	34.34937
827.003	22.54639
827.18	25.32121
827.357	29.19982
827.533	24.67168
827.71	12.25749
827.887	21.25356
828.063	25.15648
828.24	22.45144
828.416	31.51364
828.593	23.46616
828.769	35.07954
828.946	38.21893
829.122	41.95925
829.299	41.81241
829.475	17.02102
829.652	37.36557
829.828	65.4677
830.005	39.77263
830.181	47.77812
830.357	35.89321
830.534	61.43664
830.71	43.65627
830.886	61.25826
831.063	53.0621
831.239	71.41813
831.415	29.61052
831.592	82.2398
831.768	43.23801
831.944	35.1209
832.12	76.70301
832.296	66.86439
832.473	58.98589
832.649	40.93801
832.825	56.37671
833.001	30.93511
833.177	46.94883
833.353	43.44928
833.529	23.51813
833.705	35.50308
833.881	24.62839
834.058	23.79142
834.234	26.7167
834.41	28.0501
834.586	19.36361
834.761	23.24354
834.937	28.42749
835.113	29.80212
835.289	24.88504
835.465	31.70912
835.641	25.53091
835.817	32.32473
835.993	60.89844
836.169	26.19881
836.344	39.91385
836.52	53.27593
836.696	53.0298
836.872	31.84012
837.048	109.70134
837.223	38.8314
837.399	94.9771
837.575	70.52504
837.75	67.10594
837.926	98.27491
838.102	149.11182
838.277	113.71929
838.453	162.06823
838.628	146.15856
838.804	54.06148
838.98	156.41223
839.155	70.30981
839.331	96.72061
839.506	65.76027
839.682	66.68205
839.857	80.02813
840.033	98.64584
840.208	45.37935
840.384	23.32556
840.559	46.88657
840.734	69.59589
840.91	104.76859
841.085	60.84584
841.26	62.85307
841.436	59.40957
841.611	54.89838
841.786	90.38293
841.962	128.54712
842.137	86.17294
842.312	37.42842
842.487	68.54626
842.663	57.91942
842.838	80.47633
843.013	251.10438
843.188	127.04743
843.363	145.2451
843.538	229.57262
843.714	239.52567
843.889	232.44373
844.064	193.18061
844.239	157.76826
844.414	234.98696
844.589	163.66621
844.764	270.98743
844.939	278.06633
845.114	261.23082
845.289	327.44518
845.464	360.99218
845.639	261.31156
845.814	140.64439
845.989	191.16734
846.163	195.95682
846.338	251.4082
846.513	314.66091
846.688	217.34575
846.863	223.49342
847.038	151.39438
847.212	195.92807
847.387	239.6569
847.562	225.69527
847.737	291.76537
847.911	119.98739
848.086	138.83059
848.261	357.6075
848.435	177.46374
848.61	283.36447
848.785	168.63967
848.959	321.30119
849.134	306.6359
849.308	625.69108
849.483	236.51333
849.658	367.68624
849.832	200.401
850.007	117.50987
850.181	508.59621
850.356	243.97311
850.53	424.77353
850.705	143.93259
850.879	87.64262
851.053	166.77152
851.228	204.0437
851.402	331.33777
851.577	289.14992
851.751	408.24861
851.925	198.43982
852.099	89.27523
852.274	181.95484
852.448	226.98782
852.622	287.26143
852.797	226.88362
852.971	240.56169
853.145	279.59469
853.319	462.91607
853.493	432.93229
853.668	250.94161
853.842	513.47804
854.016	357.4522
854.19	480.81318
854.364	238.22268
854.538	313.33259
854.712	320.24984
854.886	201.78381
855.06	219.87928
855.234	80.35503
855.408	367.23171
855.582	338.40783
855.756	517.54322
855.93	366.35696
856.104	299.33808
856.278	346.55479
856.452	221.2443
856.626	245.34669
856.8	448.37294
856.973	345.50534
857.147	357.60423
857.321	313.36355
857.495	334.07364
857.669	279.17461
857.842	284.46182
858.016	422.98073
858.19	153.52708
858.364	494.90703
858.537	220.30661
858.711	359.92008
858.885	239.35109
859.058	150.04702
859.232	144.56752
859.405	127.85422
859.579	339.68035
859.753	425.51768
859.926	187.54434
860.1	166.5918
860.273	279.48363
860.447	403.66701
860.62	219.40695
860.794	512.45463
860.967	250.61038
861.141	299.61124
861.314	479.01142
861.487	283.34563
861.661	373.50249
861.834	550.39579
862.008	343.97119
862.181	363.15137
862.354	266.35869
862.528	435.97172
862.701	233.84044
862.874	141.733
863.047	206.63308
863.221	185.90643
863.394	96.06452
863.567	294.21353
863.74	88.60856
863.913	353.02628
864.087	307.08279
864.26	345.97006
864.433	243.66754
864.606	500.41004
864.779	325.90693
864.952	105.56999
865.125	281.71918
865.298	303.92424
865.471	288.96765
865.644	449.36895
865.817	345.51196
865.99	390.01461
866.163	415.30453
866.336	167.2221
866.509	271.78245
866.682	255.50845
866.855	426.84127
867.028	121.6642
867.2	266.4965
867.373	61.12246
867.546	248.1202
867.719	478.84421
867.892	346.73565
868.064	174.68103
868.237	266.14561
868.41	284.60236
868.583	198.45866
868.755	170.95691
868.928	220.51035
869.101	543.80472
869.273	395.62798
869.446	279.92209
869.619	415.13342
869.791	335.73191
869.964	408.53512
870.136	448.26205
870.309	203.7591
870.481	267.47218
870.654	119.78521
870.826	241.13275
870.999	184.05666
871.171	373.2806
871.344	182.13361
871.516	208.43993
871.689	165.84374
871.861	262.47538
872.033	170.78759
872.206	227.9639
872.378	282.10765
872.55	252.55181
872.723	141.23774
872.895	210.69332
873.067	340.3806
873.24	285.02074
873.412	197.12299
873.584	230.9891
873.756	225.14264
873.928	265.88437
874.101	240.43422
874.273	267.02162
874.445	108.29525
874.617	128.2552
874.789	202.78441
874.961	214.05965
875.133	277.84612
875.305	260.89734
875.477	142.7262
875.649	111.26014
875.821	139.01237
875.993	347.80471
876.165	214.08232
876.337	251.63077
876.509	228.48128
876.681	234.25936
876.853	221.81286
877.025	271.25089
877.197	162.647
877.369	145.73866
877.541	263.85131
877.712	61.10214
877.884	132.74825
878.056	245.2512
878.228	126.97546
878.4	260.94545
878.571	132.99654
878.743	85.31577
878.915	185.28634
879.086	103.48644
879.258	132.35176
879.43	112.40887
879.601	102.22111
879.773	102.78043
879.945	20.04267
880.116	37.79179
880.288	23.29737
880.459	26.35376
880.631	19.53269
880.802	23.74574
880.974	22.66843
881.145	14.74126
881.317	21.5487
881.488	16.13219
881.66	17.42335
881.831	16.0371
882.002	22.806
882.174	16.63058
882.345	21.13398
882.517	10.49981
882.688	25.57088
882.859	18.80945
883.03	34.94947
883.202	33.30301
883.373	26.72796
883.544	24.89561
883.715	48.81673
883.887	39.29853
884.058	33.77965
884.229	48.03931
884.4	48.88298
884.571	59.66925
884.742	49.76698
884.914	51.70515
885.085	81.17209
885.256	116.61974
885.427	95.42193
885.598	113.98405
885.769	109.12706
885.94	116.28437
886.111	64.59688
886.282	127.52613
886.453	110.99699
886.624	88.08325
886.795	155.74602
886.966	113.66825
887.136	152.43115
887.307	111.02678
887.478	200.48291
887.649	183.72412
887.82	197.55402
887.991	153.50467
888.161	239.05429
888.332	210.27121
888.503	111.14082
888.674	285.05055
888.844	335.95393
889.015	341.24003
889.186	162.00263
889.356	323.80925
889.527	144.83683
889.698	522.50349
889.868	212.72981
890.039	328.97625
890.209	209.7424
890.38	265.61263
890.551	273.67111
890.721	375.57124
890.892	329.7929
891.062	318.31284
891.233	340.61327
891.403	260.77751
891.574	178.77769
891.744	196.93947
891.914	245.0892
892.085	350.76463
892.255	65.75856
892.425	330.82287
892.596	210.01835
892.766	266.48967
892.936	390.34699
893.107	250.03555
893.277	125.53781
893.447	111.62525
893.618	69.1154
893.788	157.62113
893.958	88.53481
894.128	72.79957
894.298	85.6
894.468	106.68379
894.639	49.22112
894.809	25.87367
894.979	53.02207
895.149	61.42629
895.319	44.87712
895.489	73.84548
895.659	99.62175
895.829	65.06269
895.999	62.24538
896.169	59.26925
896.339	67.22016
896.509	127.97506
896.679	149.15871
896.849	175.63729
897.019	244.61604
897.189	243.44515
897.358	170.91589
897.528	269.12564
897.698	112.19523
897.868	267.0296
898.038	539.9329
898.208	463.85643
898.377	139.30187
898.547	783.34482
898.717	815.2877
898.886	352.67434
899.056	577.15217
899.226	883.53982
899.395	671.35732
899.565	759.83165
899.735	444.90183
899.904	638.01098
900.074	840.22986
900.244	288.91981
900.413	1732.31793
900.583	278.92311
900.752	3127.75493
900.922	648.06626
901.091	72.00232
901.261	694.20476
901.43	560.31479
901.599	678.68382
901.769	1412.09409
901.938	704.39777
902.108	631.56391
902.277	706.84383
902.446	266.17824
902.616	294.5057
902.785	448.4122
902.954	552.22888
903.124	296.18885
903.293	219.38753
903.462	87.30739
903.631	153.91596
903.801	102.45415
903.97	43.43603
904.139	82.03702
904.308	63.99847
904.477	54.15113
904.646	32.49414
904.816	45.26546
904.985	69.64281
905.154	102.96281
