Data from WindowProjectSample_Transmission__28__00028__006823462453926021.txt Node

Date: Mon May 05 17:30:08 EDT 2025
User: jessi
Spectrometer: SR400872
Trigger mode: 0
Integration Time (sec): 5.000010E-1
Scans to average: 20
Electric dark correction enabled: true
Nonlinearity correction enabled: true
Boxcar width: 0
XAxis mode: Wavelengths
Number of Pixels in Spectrum: 3648
>>>>>Begin Spectral Data<<<<<
184.909	20713.03212
185.132	-4967.09121
185.355	-3015.40523
185.578	-17082.46201
185.801	2190.89791
186.024	10025.53405
186.247	-1865.82225
186.47	1264.77999
186.693	335.22773
186.916	282.44847
187.139	-3649.83056
187.362	3127.69869
187.585	3780.62465
187.808	3486.7029
188.031	-22.6966
188.254	-52979.75065
188.476	-676.98857
188.699	6103.7566
188.922	473.07853
189.145	-14961.95505
189.368	-612.08703
189.591	-1135.14493
189.813	3152.12752
190.036	-50357.00934
190.259	-846.91076
190.482	-4231.22704
190.705	6882.00175
190.927	-2349.45915
191.15	12575.35397
191.373	3034.646
191.595	-8317.09905
191.818	-3993.2231
192.041	-5696.10787
192.263	-3328.99372
192.486	-710.91137
192.709	-3874.59727
192.931	7569.67919
193.154	-28134.43479
193.377	-2714.47556
193.599	-2412.91028
193.822	-7873.83832
194.044	-1880.3282
194.267	1142.31189
194.489	310.94848
194.712	-41964.94466
194.934	-30335.94871
195.157	1160.74513
195.379	1383.56316
195.602	-6499.81398
195.824	-1211.22478
196.047	-8317.6797
196.269	2667.63919
196.492	-6007.28041
196.714	28750.26604
196.936	-8453.16645
197.159	-1113.85506
197.381	1086.40685
197.604	407.92341
197.826	11899.55949
198.048	-9847.76176
198.271	-2591.39465
198.493	7544.66625
198.715	2032.63512
198.938	-475.98542
199.16	6790.1346
199.382	-96005.93402
199.604	2469.37908
199.827	-990.28168
200.049	-2836.07242
200.271	13636.08887
200.493	1174.72422
200.715	-35931.14331
200.938	-5780.75777
201.16	-4153.12221
201.382	18781.66049
201.604	2199.98746
201.826	2197.0605
202.048	-1979.95699
202.27	-1694.00387
202.492	-35361.9344
202.715	2863.30195
202.937	-4268.66997
203.159	-6238.88263
203.381	1496.02075
203.603	6748.19984
203.825	6124.53397
204.047	2238.79279
204.269	-2749.64393
204.491	1951.55341
204.713	5865.10678
204.935	-474600.98697
205.156	1132.0193
205.378	-2672.74464
205.6	1596.44424
205.822	148216.73775
206.044	-880.68267
206.266	1622.75619
206.488	4305.14083
206.71	-4979.56689
206.932	1061.87532
207.153	11576.76621
207.375	-6898.29536
207.597	-36565.00468
207.819	-2682.22667
208.041	2313.07197
208.262	457.21404
208.484	673.90646
208.706	-718.21816
208.927	-793.11268
209.149	499.69039
209.371	-2742.63014
209.593	-212.74156
209.814	-788.63913
210.036	486.82234
210.258	-710.51676
210.479	1637.29335
210.701	1515.39959
210.922	3337.83402
211.144	-3322.24242
211.366	2028.38969
211.587	7694.28632
211.809	-7790.23436
212.03	2337.41343
212.252	423.72505
212.473	1971.03054
212.695	-6362.1485
212.916	2719.10747
213.138	-633.79589
213.359	3554.94698
213.581	4939.68437
213.802	-875.94169
214.024	1099.42144
214.245	2057.50501
214.466	2196.84847
214.688	-2957.56247
214.909	-1110.01202
215.131	-1613.9069
215.352	-3027.25178
215.573	14226.65082
215.795	4909.46451
216.016	5159.84773
216.237	728.00195
216.459	3330.79768
216.68	1667.58394
216.901	5030.0721
217.122	-3149.6349
217.344	-10852.471
217.565	3271.16714
217.786	8777.26063
218.007	14465.63134
218.228	-739.47153
218.45	5765.92279
218.671	654.81675
218.892	36127.10819
219.113	1440.10546
219.334	-423.35147
219.555	9394.10303
219.776	3037.06718
219.997	21635.17404
220.219	2725.20481
220.44	-10786.84068
220.661	473.33723
220.882	1451.96862
221.103	-1038.99868
221.324	2090.18463
221.545	2229.69542
221.766	-8476.09185
221.987	775.92515
222.208	1701.13957
222.429	4153.84703
222.65	141.84167
222.87	16734.44209
223.091	668.37626
223.312	539.52577
223.533	1251.53902
223.754	1431.56893
223.975	1264.78928
224.196	1913.74365
224.417	1276.13199
224.637	609.27316
224.858	109.22158
225.079	1077.99664
225.3	695.79707
225.521	3655.53578
225.741	449.42547
225.962	488.8347
226.183	133.76038
226.404	638.33522
226.624	407.19583
226.845	582.82638
227.066	384.35746
227.286	244.54306
227.507	121.98082
227.728	108.07407
227.948	225.56515
228.169	71.77292
228.389	78.23863
228.61	42.63661
228.831	60.49967
229.051	2.17053
229.272	35.49129
229.492	52.32809
229.713	13.08137
229.933	34.18812
230.154	29.86807
230.374	52.00148
230.595	37.21131
230.815	22.65727
231.036	39.08357
231.256	-9.3846
231.477	66.6635
231.697	36.77924
231.917	41.26141
232.138	55.9903
232.358	111.39959
232.579	102.06404
232.799	15.49707
233.019	95.99611
233.24	110.12906
233.46	38.83592
233.68	58.58752
233.901	39.21682
234.121	25.24783
234.341	9.19525
234.561	-4.97513
234.782	20.72285
235.002	63.32637
235.222	-4.61622
235.442	63.46493
235.662	31.69019
235.883	57.60647
236.103	48.90588
236.323	35.21341
236.543	25.39513
236.763	38.16189
236.983	40.58161
237.203	40.40983
237.423	54.36843
237.643	85.22438
237.864	70.69651
238.084	16.17375
238.304	23.26032
238.524	42.52114
238.744	37.37977
238.964	70.80517
239.184	59.3408
239.404	61.02861
239.624	31.99373
239.843	56.4987
240.063	33.59512
240.283	21.24662
240.503	24.20248
240.723	24.07516
240.943	13.83959
241.163	19.25394
241.383	12.05723
241.603	6.71765
241.822	9.21541
242.042	5.79859
242.262	7.94357
242.482	8.94682
242.702	10.29639
242.921	2.43211
243.141	6.30667
243.361	5.73791
243.581	8.98166
243.8	6.99927
244.02	4.71407
244.24	8.9409
244.459	8.61648
244.679	17.55175
244.899	10.66719
245.118	11.78147
245.338	10.41539
245.558	12.61925
245.777	7.93024
245.997	10.04572
246.216	10.30601
246.436	5.72728
246.655	4.33752
246.875	2.933
247.094	6.04529
247.314	1.97495
247.533	3.55026
247.753	3.99322
247.972	3.21009
248.192	0.93184
248.411	1.76351
248.631	3.29046
248.85	4.31538
249.07	3.42165
249.289	5.46546
249.508	4.60522
249.728	6.46507
249.947	6.70185
250.166	7.98519
250.386	4.07779
250.605	5.83369
250.824	10.29752
251.044	7.04719
251.263	27.52425
251.482	14.23511
251.701	11.95738
251.921	-0.41134
252.14	3.18872
252.359	3.25226
252.578	9.57303
252.798	3.32521
253.017	8.76469
253.236	4.30749
253.455	5.36136
253.674	10.08836
253.893	4.86726
254.112	7.16188
254.331	10.53365
254.551	7.75026
254.77	3.42969
254.989	12.12152
255.208	9.77572
255.427	14.3055
255.646	10.91765
255.865	21.35473
256.084	8.15778
256.303	10.51967
256.522	13.07286
256.741	2.4729
256.96	3.19599
257.179	7.88175
257.397	9.93539
257.616	5.13335
257.835	5.41126
258.054	14.70333
258.273	9.79099
258.492	10.4846
258.711	6.67139
258.93	2.61424
259.148	4.41536
259.367	4.3309
259.586	5.28076
259.805	2.23553
260.023	5.19752
260.242	3.81992
260.461	2.68099
260.68	1.22114
260.898	4.3658
261.117	1.24175
261.336	0.90128
261.554	3.28647
261.773	3.31397
261.992	0.80814
262.21	3.26623
262.429	3.36176
262.648	7.29266
262.866	7.72179
263.085	5.13618
263.303	4.42298
263.522	8.35879
263.74	8.61352
263.959	15.00076
264.178	6.71598
264.396	6.57909
264.615	4.14987
264.833	10.23197
265.051	8.08004
265.27	10.44673
265.488	10.64911
265.707	5.68799
265.925	10.76072
266.144	4.33987
266.362	5.22456
266.58	5.46611
266.799	4.82493
267.017	5.66747
267.235	5.02971
267.454	3.24535
267.672	1.77395
267.89	3.85418
268.109	4.20454
268.327	3.95457
268.545	0.99946
268.763	3.51423
268.982	1.44512
269.2	3.80125
269.418	2.77116
269.636	1.50322
269.854	4.62028
270.073	2.91052
270.291	1.80641
270.509	1.52378
270.727	4.00836
270.945	6.63516
271.163	6.92731
271.381	1.36659
271.599	3.10596
271.817	5.35422
272.036	1.83629
272.254	2.99273
272.472	2.22974
272.69	2.46831
272.908	2.20993
273.126	4.38119
273.344	5.3664
273.562	1.65716
273.779	2.30181
273.997	3.49703
274.215	3.86592
274.433	2.68316
274.651	4.40757
274.869	4.3912
275.087	2.71149
275.305	3.87708
275.523	2.19053
275.74	2.77533
275.958	5.19609
276.176	7.78136
276.394	2.52663
276.612	2.8906
276.829	3.06355
277.047	2.55245
277.265	2.83087
277.483	3.20605
277.7	4.10049
277.918	3.37675
278.136	5.9305
278.353	2.75663
278.571	1.62953
278.789	4.12264
279.006	0.86055
279.224	2.7883
279.442	4.89678
279.659	3.43352
279.877	2.09933
280.094	5.7642
280.312	0.89543
280.529	3.20055
280.747	0.84954
280.964	2.5626
281.182	5.75137
281.399	2.55829
281.617	3.76395
281.834	2.33066
282.052	1.78962
282.269	3.07984
282.487	2.25193
282.704	1.84299
282.921	2.17153
283.139	3.20246
283.356	3.90317
283.574	3.61711
283.791	1.80622
284.008	5.42113
284.226	2.8879
284.443	3.08418
284.66	4.27084
284.877	3.29739
285.095	1.97244
285.312	1.58309
285.529	0.77836
285.746	0.71287
285.964	1.89059
286.181	1.23393
286.398	1.85768
286.615	2.56839
286.832	2.5217
287.05	0.48429
287.267	1.73099
287.484	1.63925
287.701	2.53868
287.918	2.46219
288.135	2.66705
288.352	1.16333
288.569	1.36912
288.786	2.33037
289.003	1.93095
289.22	2.8942
289.437	1.53396
289.654	2.72956
289.871	3.04907
290.088	2.80038
290.305	2.18904
290.522	1.68942
290.739	1.9555
290.956	3.07394
291.173	3.38545
291.39	3.29424
291.607	2.32043
291.824	1.44343
292.04	1.1652
292.257	2.85332
292.474	3.08733
292.691	1.80739
292.908	0.7143
293.125	1.6215
293.341	1.06204
293.558	4.77985
293.775	1.76574
293.992	1.85827
294.208	0.77335
294.425	1.38805
294.642	1.83192
294.858	2.53273
295.075	0.54117
295.292	1.89587
295.508	2.20754
295.725	4.04202
295.942	1.62921
296.158	1.22986
296.375	1.95922
296.591	1.51093
296.808	1.72979
297.024	2.03638
297.241	2.30822
297.458	2.43682
297.674	0.26484
297.891	1.87791
298.107	1.59486
298.323	1.17364
298.54	3.17338
298.756	1.44205
298.973	0.73379
299.189	3.34869
299.406	1.38275
299.622	2.8002
299.838	2.84704
300.055	2.71154
300.271	0.86439
300.487	1.17903
300.704	1.51612
300.92	0.98107
301.136	4.41227
301.353	2.72716
301.569	1.99285
301.785	2.40998
302.001	2.79294
302.218	2.3586
302.434	2.62931
302.65	1.0172
302.866	1.812
303.083	4.03771
303.299	4.01592
303.515	2.29635
303.731	2.44387
303.947	0.9996
304.163	1.64442
304.379	2.39619
304.595	2.57665
304.812	1.63751
305.028	1.58816
305.244	2.04998
305.46	2.97489
305.676	2.99831
305.892	3.47684
306.108	2.74009
306.324	1.85554
306.54	4.06594
306.756	2.78202
306.972	2.65836
307.187	2.27956
307.403	3.57294
307.619	1.9412
307.835	3.45465
308.051	3.676
308.267	1.40897
308.483	3.18466
308.699	2.83048
308.914	2.27052
309.13	2.22562
309.346	1.08906
309.562	1.49421
309.778	1.12659
309.993	2.78652
310.209	2.44417
310.425	1.29499
310.641	2.12972
310.856	1.49064
311.072	1.46735
311.288	2.19181
311.503	2.49923
311.719	0.82638
311.935	0.81019
312.15	2.77135
312.366	2.35233
312.581	2.68814
312.797	2.36945
313.013	3.05122
313.228	1.78143
313.444	2.1624
313.659	1.87835
313.875	2.84537
314.09	2.24758
314.306	3.52861
314.521	3.0269
314.737	2.96791
314.952	2.32206
315.168	2.36096
315.383	2.75756
315.599	2.06182
315.814	1.99022
316.029	2.90645
316.245	1.36485
316.46	0.90963
316.675	3.46407
316.891	4.00167
317.106	5.00872
317.321	2.63179
317.537	3.07362
317.752	3.14851
317.967	3.1192
318.183	1.52701
318.398	2.00263
318.613	3.20148
318.828	3.71398
319.043	3.00537
319.259	2.18338
319.474	2.57193
319.689	3.42217
319.904	0.9636
320.119	3.14097
320.334	2.68183
320.549	2.16543
320.765	3.35564
320.98	2.62054
321.195	3.07763
321.41	2.30212
321.625	3.16727
321.84	3.97681
322.055	3.87715
322.27	1.73147
322.485	1.42421
322.7	2.74735
322.915	3.21745
323.13	1.66302
323.345	3.80751
323.56	3.40475
323.775	3.01838
323.989	2.78309
324.204	2.66308
324.419	3.39041
324.634	1.47985
324.849	2.35391
325.064	5.55041
325.279	3.26835
325.493	2.84202
325.708	3.14053
325.923	1.80077
326.138	1.91839
326.352	3.89608
326.567	3.30681
326.782	2.01253
326.997	1.97973
327.211	2.9606
327.426	2.61528
327.641	2.16249
327.855	1.13634
328.07	2.87533
328.285	4.09462
328.499	1.99218
328.714	2.69247
328.928	3.03199
329.143	2.23802
329.358	3.26791
329.572	3.3641
329.787	3.48119
330.001	4.66553
330.216	1.30733
330.43	4.23345
330.645	3.84251
330.859	3.17265
331.074	1.78415
331.288	2.72096
331.503	3.79833
331.717	1.55418
331.931	2.69816
332.146	2.63377
332.36	4.14649
332.575	2.79551
332.789	2.76945
333.003	2.62877
333.218	2.99549
333.432	2.03455
333.646	3.29239
333.86	3.99375
334.075	3.84484
334.289	2.00169
334.503	1.49509
334.717	2.88511
334.932	2.90503
335.146	3.51059
335.36	2.04336
335.574	2.97642
335.788	2.93156
336.003	3.41721
336.217	3.05449
336.431	2.86783
336.645	1.95474
336.859	1.43326
337.073	2.29981
337.287	2.77458
337.501	1.56848
337.715	2.84788
337.929	3.16883
338.143	1.51894
338.357	2.29411
338.571	1.77146
338.785	2.86549
338.999	2.11254
339.213	1.998
339.427	1.31901
339.641	3.6494
339.855	2.26153
340.069	1.93096
340.283	3.29092
340.497	4.07366
340.711	2.84235
340.924	2.2963
341.138	1.4608
341.352	1.4244
341.566	2.63527
341.78	1.11833
341.993	2.123
342.207	1.66675
342.421	2.65528
342.635	2.29343
342.848	2.15967
343.062	0.58867
343.276	1.87927
343.49	4.08022
343.703	1.79316
343.917	3.32922
344.131	3.33151
344.344	1.73837
344.558	2.08617
344.771	1.42252
344.985	3.75486
345.199	3.75372
345.412	2.65555
345.626	2.85505
345.839	1.08326
346.053	1.43108
346.266	1.54762
346.48	2.90901
346.693	2.73424
346.907	2.49411
347.12	1.51872
347.334	2.53749
347.547	2.64639
347.76	2.23569
347.974	3.39756
348.187	2.60789
348.401	2.05071
348.614	1.72619
348.827	1.9093
349.041	2.68118
349.254	1.1478
349.467	2.02297
349.681	1.4205
349.894	1.77872
350.107	3.26033
350.32	3.79272
350.534	1.17499
350.747	2.04169
350.96	1.62196
351.173	1.80909
351.386	2.05905
351.6	1.91073
351.813	1.81634
352.026	2.12894
352.239	1.32966
352.452	1.95164
352.665	2.961
352.878	2.20861
353.092	3.80533
353.305	2.97041
353.518	2.46367
353.731	1.65284
353.944	3.13558
354.157	1.84552
354.37	1.62389
354.583	1.5421
354.796	0.96745
355.009	2.96566
355.222	2.42104
355.435	2.2317
355.647	2.94837
355.86	1.59397
356.073	2.15034
356.286	1.82574
356.499	2.73985
356.712	2.56807
356.925	2.63953
357.138	2.77631
357.35	1.52277
357.563	1.92809
357.776	2.19319
357.989	1.9722
358.201	2.47839
358.414	2.27544
358.627	3.17566
358.84	2.03226
359.052	1.25313
359.265	1.54795
359.478	2.88601
359.69	0.33573
359.903	2.70043
360.116	2.83905
360.328	0.95923
360.541	2.78894
360.753	1.39798
360.966	1.71004
361.179	1.85838
361.391	1.71875
361.604	1.36605
361.816	1.72716
362.029	1.63329
362.241	1.45224
362.454	1.65182
362.666	1.36934
362.879	2.23685
363.091	1.7695
363.304	1.5263
363.516	1.88521
363.728	1.27444
363.941	2.39529
364.153	1.82198
364.366	0.59974
364.578	1.29355
364.79	2.20113
365.003	2.00172
365.215	1.58158
365.427	2.33654
365.639	2.72423
365.852	2.02169
366.064	3.69965
366.276	1.79808
366.488	2.35833
366.701	1.59006
366.913	1.86538
367.125	1.80872
367.337	1.3962
367.549	1.58227
367.762	2.03891
367.974	1.96946
368.186	1.46639
368.398	2.58657
368.61	2.4655
368.822	2.48186
369.034	2.01005
369.246	2.5229
369.458	4.16415
369.67	1.4362
369.882	3.28074
370.094	0.71569
370.306	3.176
370.518	1.79506
370.73	1.52405
370.942	1.55815
371.154	1.97673
371.366	1.59553
371.578	2.23402
371.79	1.4662
372.002	2.75063
372.214	3.34973
372.425	2.02443
372.637	2.89717
372.849	2.21499
373.061	0.6683
373.273	2.26932
373.484	2.23978
373.696	2.60665
373.908	0.61248
374.12	2.79609
374.331	2.16614
374.543	1.46244
374.755	1.28381
374.967	2.12894
375.178	2.47708
375.39	1.81179
375.602	2.04913
375.813	0.97495
376.025	1.18423
376.236	2.03138
376.448	2.13447
376.66	1.65894
376.871	1.68358
377.083	2.83688
377.294	3.01869
377.506	1.6012
377.717	2.88162
377.929	2.09571
378.14	1.50859
378.352	2.17061
378.563	2.17856
378.775	2.89787
378.986	1.26767
379.197	1.91094
379.409	1.42807
379.62	2.49095
379.832	2.21414
380.043	1.75251
380.254	1.96983
380.466	1.24148
380.677	3.93028
380.888	3.27634
381.1	3.65174
381.311	3.62283
381.522	1.99575
381.733	3.86946
381.945	1.87533
382.156	1.97593
382.367	1.57555
382.578	3.95296
382.789	3.74771
383.001	1.69353
383.212	2.96773
383.423	2.99493
383.634	2.832
383.845	2.42114
384.056	1.7377
384.267	2.08835
384.478	1.88832
384.69	1.26027
384.901	2.1979
385.112	2.26665
385.323	3.06134
385.534	2.31008
385.745	2.10303
385.956	2.21117
386.167	1.45968
386.378	2.3861
386.588	1.45181
386.799	1.50676
387.01	0.98472
387.221	2.50738
387.432	1.89678
387.643	3.19971
387.854	1.83764
388.065	1.78732
388.275	1.93873
388.486	1.71151
388.697	1.90886
388.908	1.74281
389.119	2.69217
389.329	3.05198
389.54	1.99836
389.751	2.22748
389.962	2.83874
390.172	2.09596
390.383	1.73509
390.594	1.5553
390.804	1.55671
391.015	1.68581
391.226	2.05923
391.436	2.24577
391.647	2.19239
391.858	2.34906
392.068	0.99772
392.279	1.27705
392.489	2.02104
392.7	2.72962
392.91	1.42349
393.121	1.46017
393.331	2.2438
393.542	2.73095
393.752	2.36547
393.963	2.0707
394.173	2.04168
394.384	2.26981
394.594	1.98379
394.804	1.29049
395.015	2.00556
395.225	2.27737
395.436	1.34794
395.646	2.38787
395.856	1.54366
396.067	1.14614
396.277	2.59
396.487	2.32135
396.697	2.12709
396.908	2.32486
397.118	2.37631
397.328	2.1935
397.538	2.6691
397.749	1.4163
397.959	2.52166
398.169	2.43675
398.379	1.19079
398.589	2.49727
398.8	2.04494
399.01	1.97662
399.22	1.78982
399.43	3.44967
399.64	1.79849
399.85	2.35433
400.06	2.00764
400.27	1.5512
400.48	1.98062
400.69	3.03059
400.9	1.69055
401.11	1.54257
401.32	2.52731
401.53	1.80135
401.74	3.05081
401.95	2.5162
402.16	1.38495
402.37	2.22181
402.58	1.67294
402.79	2.48218
403	2.72036
403.209	1.69503
403.419	2.70639
403.629	1.64702
403.839	2.61002
404.049	2.50942
404.258	1.69028
404.468	1.59783
404.678	2.21904
404.888	2.61089
405.097	1.5803
405.307	2.00171
405.517	2.38549
405.727	2.20618
405.936	1.82807
406.146	2.22682
406.356	2.88388
406.565	2.04784
406.775	1.76709
406.984	1.8007
407.194	3.14135
407.404	2.06964
407.613	2.41825
407.823	2.59756
408.032	2.69243
408.242	2.80747
408.451	1.84365
408.661	2.06788
408.87	3.30284
409.08	1.83477
409.289	2.384
409.499	2.30394
409.708	2.26224
409.918	1.0721
410.127	2.25162
410.336	3.10596
410.546	2.61696
410.755	2.017
410.964	2.07076
411.174	1.68818
411.383	2.49656
411.592	2.53584
411.802	1.57737
412.011	2.74367
412.22	2.21132
412.429	3.32414
412.639	3.17891
412.848	2.91055
413.057	3.05959
413.266	3.12987
413.475	2.30092
413.685	2.79731
413.894	2.84641
414.103	3.08629
414.312	2.79406
414.521	2.3094
414.73	2.39096
414.939	3.70728
415.148	2.65918
415.357	2.54212
415.566	2.18143
415.776	2.30193
415.985	2.19155
416.194	2.87253
416.403	3.41986
416.611	1.71085
416.82	2.09811
417.029	2.45085
417.238	2.04529
417.447	1.85834
417.656	2.23367
417.865	1.97419
418.074	2.17798
418.283	2.34665
418.492	2.91076
418.7	2.7007
418.909	3.38318
419.118	2.66166
419.327	2.86915
419.536	2.67211
419.744	2.4272
419.953	3.41477
420.162	3.40583
420.371	2.69055
420.579	2.71167
420.788	3.63711
420.997	3.50162
421.205	3.66423
421.414	3.4477
421.623	3.43834
421.831	3.18857
422.04	3.71281
422.249	3.00281
422.457	3.60171
422.666	2.98621
422.874	3.76391
423.083	3.77509
423.291	3.77876
423.5	3.4896
423.708	3.71497
423.917	4.01903
424.125	3.61704
424.334	3.42616
424.542	4.91106
424.751	4.37899
424.959	4.07734
425.167	4.43264
425.376	4.27151
425.584	3.56032
425.793	3.66789
426.001	3.0577
426.209	3.5219
426.418	2.81174
426.626	2.80092
426.834	2.6548
427.042	3.01013
427.251	2.69637
427.459	3.48511
427.667	3.08966
427.875	2.39267
428.084	2.71249
428.292	3.75292
428.5	3.31076
428.708	2.56542
428.916	2.47601
429.124	3.13091
429.333	2.86707
429.541	2.84026
429.749	3.03487
429.957	3.06435
430.165	4.50064
430.373	2.32342
430.581	3.19122
430.789	3.89385
430.997	2.87299
431.205	2.72445
431.413	3.18484
431.621	2.90462
431.829	3.50137
432.037	3.05368
432.245	3.15499
432.453	3.32875
432.661	3.04431
432.869	4.17247
433.076	2.73083
433.284	3.0961
433.492	3.5591
433.7	3.79059
433.908	3.04946
434.116	3.27203
434.323	3.34073
434.531	3.25926
434.739	3.53175
434.947	3.82739
435.154	3.68751
435.362	3.3683
435.57	3.1989
435.778	3.01984
435.985	3.53362
436.193	3.12806
436.401	3.98954
436.608	3.31319
436.816	3.14143
437.023	4.18004
437.231	4.25204
437.439	3.52902
437.646	3.68543
437.854	3.59393
438.061	3.78416
438.269	3.35964
438.476	3.80068
438.684	3.48798
438.891	3.37042
439.099	3.12271
439.306	2.93065
439.514	2.99338
439.721	3.78592
439.929	3.35262
440.136	4.05895
440.343	4.06418
440.551	3.84046
440.758	5.26817
440.965	4.26189
441.173	4.02673
441.38	3.77623
441.587	4.01008
441.795	3.6336
442.002	3.81852
442.209	3.7696
442.416	3.97475
442.624	3.95834
442.831	3.83287
443.038	3.37733
443.245	3.10435
443.452	3.48367
443.66	3.95622
443.867	3.29958
444.074	3.42139
444.281	3.31826
444.488	3.5324
444.695	3.6471
444.902	3.48913
445.109	4.14182
445.316	3.82842
445.523	3.94811
445.73	3.92223
445.937	4.5536
446.144	4.87753
446.351	5.05936
446.558	4.32724
446.765	5.47938
446.972	5.32977
447.179	4.84471
447.386	5.51551
447.593	4.43505
447.8	5.16036
448.007	4.25293
448.214	4.15913
448.42	3.79484
448.627	4.36053
448.834	3.82909
449.041	3.79747
449.248	3.67437
449.454	4.24856
449.661	4.72054
449.868	3.66382
450.075	3.56864
450.281	2.85958
450.488	3.31963
450.695	3.46745
450.901	3.52624
451.108	3.56136
451.315	4.35194
451.521	3.71955
451.728	4.42407
451.935	3.6526
452.141	3.79536
452.348	3.92336
452.554	3.82474
452.761	3.64352
452.967	4.731
453.174	3.99483
453.38	4.1927
453.587	3.40884
453.793	4.04642
454	4.53891
454.206	5.06118
454.413	4.52397
454.619	4.20892
454.825	3.76053
455.032	4.31954
455.238	4.50039
455.445	3.50337
455.651	4.129
455.857	3.16604
456.064	3.8928
456.27	3.90045
456.476	3.88722
456.682	3.41084
456.889	4.31739
457.095	4.33986
457.301	5.47169
457.507	4.13081
457.714	4.18832
457.92	4.16671
458.126	3.74989
458.332	4.00925
458.538	3.90981
458.744	4.01556
458.951	3.9938
459.157	5.67268
459.363	4.75966
459.569	4.91184
459.775	5.57931
459.981	4.96283
460.187	5.34556
460.393	5.67049
460.599	6.02532
460.805	5.14621
461.011	4.82216
461.217	5.15739
461.423	4.99755
461.629	4.3295
461.835	4.7794
462.041	4.37097
462.247	5.21607
462.453	4.31847
462.658	4.40693
462.864	4.73415
463.07	4.54363
463.276	4.51804
463.482	4.41948
463.688	5.09786
463.893	4.186
464.099	4.35415
464.305	5.27542
464.511	4.19512
464.716	4.44262
464.922	4.91693
465.128	4.10699
465.333	5.36762
465.539	4.87704
465.745	4.44692
465.95	4.50723
466.156	6.05801
466.362	5.11197
466.567	4.59917
466.773	4.31038
466.978	5.42827
467.184	4.13743
467.389	3.69719
467.595	4.88866
467.8	4.37819
468.006	5.50644
468.211	5.23755
468.417	4.07703
468.622	4.88254
468.828	5.07784
469.033	4.89487
469.239	6.07753
469.444	4.52436
469.649	5.28861
469.855	4.68348
470.06	4.70212
470.266	4.3199
470.471	5.05957
470.676	5.00137
470.881	3.9522
471.087	5.50744
471.292	6.19496
471.497	4.21465
471.703	4.70681
471.908	4.56574
472.113	4.86823
472.318	5.34349
472.523	4.33599
472.729	5.01179
472.934	5.20468
473.139	4.55747
473.344	5.11109
473.549	5.44376
473.754	4.58622
473.959	6.37491
474.164	4.46082
474.369	4.81387
474.575	5.3711
474.78	4.95013
474.985	4.61023
475.19	4.01242
475.395	4.56099
475.6	4.87502
475.804	5.68173
476.009	4.9198
476.214	5.01801
476.419	4.767
476.624	4.22399
476.829	4.49286
477.034	5.33837
477.239	4.62677
477.444	5.31667
477.648	5.42151
477.853	5.23844
478.058	4.93131
478.263	4.60098
478.468	4.5176
478.672	4.62376
478.877	5.76876
479.082	5.84068
479.287	5.34763
479.491	4.94634
479.696	4.68748
479.901	5.45933
480.105	5.51636
480.31	4.78672
480.515	5.10476
480.719	6.22802
480.924	4.93418
481.128	4.62214
481.333	5.30371
481.538	5.24075
481.742	5.30456
481.947	5.98321
482.151	6.61355
482.356	6.80213
482.56	8.11212
482.765	8.94716
482.969	10.67158
483.174	12.20014
483.378	14.218
483.582	14.90899
483.787	16.30894
483.991	16.62522
484.196	17.08214
484.4	16.92074
484.604	17.58084
484.809	15.89915
485.013	15.23661
485.217	13.89439
485.422	12.38977
485.626	11.2078
485.83	10.45594
486.034	9.8709
486.239	10.08068
486.443	10.19761
486.647	10.13607
486.851	10.96852
487.055	11.96132
487.26	11.70721
487.464	12.36203
487.668	12.02193
487.872	12.47775
488.076	12.88128
488.28	12.36823
488.484	11.63387
488.688	11.41796
488.892	11.05555
489.096	10.33302
489.3	9.42025
489.504	8.89006
489.708	8.48486
489.912	8.18757
490.116	7.98838
490.32	7.38885
490.524	8.17724
490.728	8.68499
490.932	9.02675
491.136	9.39851
491.34	10.44403
491.544	10.75478
491.748	10.64419
491.951	10.79532
492.155	10.55927
492.359	10.36148
492.563	9.43668
492.767	8.98678
492.97	8.25747
493.174	7.39256
493.378	6.74874
493.582	5.84777
493.785	5.75821
493.989	5.74053
494.193	5.68917
494.396	5.47828
494.6	6.01359
494.804	5.62266
495.007	5.25312
495.211	5.36659
495.414	5.40251
495.618	5.75793
495.822	6.23123
496.025	5.63892
496.229	6.00913
496.432	5.37785
496.636	5.73604
496.839	5.55786
497.043	6.34794
497.246	5.89495
497.45	5.54849
497.653	5.74387
497.856	5.78857
498.06	5.3396
498.263	5.65195
498.467	5.5293
498.67	6.05447
498.873	5.84841
499.077	5.62151
499.28	5.62976
499.483	5.84866
499.686	6.0415
499.89	5.84061
500.093	6.15722
500.296	5.44969
500.499	6.44104
500.703	5.63784
500.906	5.95652
501.109	6.56569
501.312	5.79826
501.515	5.59677
501.719	5.92927
501.922	6.36938
502.125	5.80078
502.328	5.71567
502.531	5.31469
502.734	5.64103
502.937	4.91367
503.14	5.8746
503.343	5.30833
503.546	5.5451
503.749	5.33177
503.952	6.1007
504.155	5.39272
504.358	5.96201
504.561	5.78248
504.764	5.16308
504.967	5.80059
505.17	5.75556
505.373	6.53222
505.576	5.78695
505.778	6.15839
505.981	5.3737
506.184	6.33024
506.387	4.98736
506.59	6.82082
506.793	6.32378
506.995	6.10589
507.198	4.90399
507.401	6.04207
507.604	6.02719
507.806	5.38553
508.009	5.51538
508.212	6.25058
508.414	5.58275
508.617	5.65999
508.82	5.83457
509.022	6.60867
509.225	5.99525
509.427	5.24937
509.63	6.54005
509.833	5.95685
510.035	5.6823
510.238	5.23359
510.44	6.55765
510.643	5.18081
510.845	6.8895
511.048	6.12038
511.25	5.6483
511.453	5.89446
511.655	6.09524
511.858	5.80185
512.06	6.36353
512.262	6.04064
512.465	6.40794
512.667	5.72358
512.869	5.44044
513.072	6.14416
513.274	6.32038
513.476	6.1713
513.679	6.40851
513.881	5.48155
514.083	6.69938
514.286	5.66115
514.488	5.63519
514.69	5.53663
514.892	5.39122
515.094	6.33447
515.297	5.59678
515.499	6.08986
515.701	5.4919
515.903	6.83176
516.105	6.8469
516.307	6.34668
516.509	5.11651
516.711	5.41921
516.913	6.06858
517.116	6.06324
517.318	5.78744
517.52	6.60312
517.722	6.35534
517.924	5.59638
518.126	6.27476
518.328	5.9113
518.529	6.58833
518.731	7.4074
518.933	6.09481
519.135	6.39809
519.337	6.95676
519.539	6.51029
519.741	5.40328
519.943	6.05053
520.145	6.06606
520.346	6.50442
520.548	5.93266
520.75	6.27845
520.952	5.98495
521.153	6.32922
521.355	6.20216
521.557	5.68428
521.759	6.2136
521.96	6.08904
522.162	5.6171
522.364	6.67528
522.565	5.8437
522.767	6.54458
522.969	6.60379
523.17	6.43986
523.372	6.42131
523.573	5.8926
523.775	5.97308
523.977	5.78667
524.178	7.16153
524.38	5.89935
524.581	6.50221
524.783	6.04735
524.984	6.51461
525.186	6.36647
525.387	6.78793
525.589	6.72363
525.79	6.76974
525.991	6.75938
526.193	7.36925
526.394	6.77227
526.596	7.52983
526.797	7.77101
526.998	7.36424
527.2	7.66637
527.401	9.17153
527.602	9.73046
527.803	11.39157
528.005	12.10589
528.206	13.1898
528.407	14.17928
528.608	14.23568
528.81	14.67449
529.011	14.29876
529.212	15.22418
529.413	14.26467
529.614	13.45105
529.815	12.9751
530.017	11.91351
530.218	10.52974
530.419	9.3143
530.62	8.96512
530.821	8.43808
531.022	7.31368
531.223	7.90494
531.424	7.77168
531.625	7.65177
531.826	7.40523
532.027	7.68099
532.228	8.68066
532.429	8.64213
532.63	8.88236
532.831	9.61866
533.032	9.86853
533.233	10.51163
533.433	10.27198
533.634	10.61759
533.835	9.95388
534.036	9.53587
534.237	9.31418
534.438	8.76533
534.638	7.83387
534.839	7.43399
535.04	7.31695
535.241	6.71042
535.441	7.50449
535.642	7.08758
535.843	6.5008
536.043	6.66842
536.244	6.85488
536.445	7.1821
536.645	7.83357
536.846	7.51795
537.047	7.99461
537.247	6.99168
537.448	6.93515
537.648	6.81418
537.849	6.61227
538.049	6.59329
538.25	6.88167
538.451	6.8027
538.651	6.15657
538.851	6.91619
539.052	7.17733
539.252	6.95658
539.453	6.59796
539.653	6.65359
539.854	6.56981
540.054	6.61713
540.254	7.88785
540.455	8.75306
540.655	8.63962
540.855	9.89049
541.056	10.87658
541.256	10.79012
541.456	11.64376
541.657	11.33916
541.857	12.03543
542.057	10.93902
542.257	10.59622
542.458	10.85226
542.658	10.73778
542.858	9.21119
543.058	9.26025
543.258	8.69777
543.458	7.49303
543.659	7.16829
543.859	7.64287
544.059	7.39053
544.259	6.88158
544.459	7.33456
544.659	6.65702
544.859	6.97868
545.059	6.57033
545.259	7.16065
545.459	6.89898
545.659	7.19802
545.859	6.7374
546.059	6.95096
546.259	6.44334
546.459	6.13782
546.659	6.33633
546.859	7.18346
547.059	6.81448
547.258	7.0448
547.458	7.00352
547.658	6.34329
547.858	6.19869
548.058	6.81151
548.258	6.60924
548.457	6.29311
548.657	8.00947
548.857	6.5444
549.057	7.17431
549.256	6.95486
549.456	6.39574
549.656	5.62939
549.855	7.76011
550.055	6.39903
550.255	7.66937
550.454	6.87799
550.654	7.18443
550.853	7.54956
551.053	7.10268
551.253	6.70655
551.452	7.04595
551.652	5.90289
551.851	5.81683
552.051	6.28699
552.25	6.24909
552.45	6.27243
552.649	6.42972
552.849	6.17131
553.048	6.73309
553.248	7.04452
553.447	6.0877
553.646	7.10031
553.846	8.21299
554.045	7.42251
554.244	6.00753
554.444	7.57326
554.643	6.21178
554.842	7.61408
555.042	7.80984
555.241	6.31883
555.44	6.11322
555.64	6.98109
555.839	7.53955
556.038	6.96668
556.237	6.21466
556.436	6.81938
556.636	6.90884
556.835	6.07799
557.034	7.53496
557.233	6.52464
557.432	5.78662
557.631	7.35809
557.83	6.47966
558.029	6.24295
558.228	6.26609
558.427	6.07917
558.626	6.86195
558.825	6.08398
559.024	6.48759
559.223	7.81273
559.422	6.49637
559.621	6.8444
559.82	5.30162
560.019	6.64266
560.218	6.33417
560.417	5.06285
560.616	6.28794
560.815	8.72188
561.014	5.68542
561.212	7.56171
561.411	6.65268
561.61	5.78971
561.809	6.45546
562.008	7.79965
562.206	6.5383
562.405	6.88907
562.604	6.51938
562.803	6.7818
563.001	6.61227
563.2	5.81295
563.399	7.08144
563.597	5.95422
563.796	6.65955
563.995	5.76087
564.193	7.12233
564.392	6.51743
564.59	8.02507
564.789	5.47711
564.988	6.45494
565.186	6.79155
565.385	6.56852
565.583	6.48513
565.782	6.64659
565.98	6.51491
566.179	6.50055
566.377	6.06171
566.575	6.14592
566.774	7.53729
566.972	7.2429
567.171	7.94044
567.369	7.63379
567.567	6.88275
567.766	6.83125
567.964	5.49155
568.162	7.055
568.361	7.53342
568.559	6.59211
568.757	6.75258
568.956	6.74039
569.154	6.70965
569.352	7.11819
569.55	6.53754
569.748	6.7302
569.947	6.13371
570.145	5.97503
570.343	6.06549
570.541	7.68407
570.739	5.91119
570.937	6.71689
571.135	6.98086
571.333	8.31234
571.532	8.02901
571.73	6.95448
571.928	7.35772
572.126	7.19769
572.324	6.58483
572.522	7.46154
572.72	8.42404
572.918	6.79775
573.116	7.08862
573.313	6.60385
573.511	6.72487
573.709	6.41289
573.907	7.2693
574.105	6.5695
574.303	5.87509
574.501	5.72706
574.699	7.11142
574.896	6.89011
575.094	7.23749
575.292	5.92514
575.49	7.27957
575.688	6.698
575.885	7.70176
576.083	8.35991
576.281	7.07596
576.478	6.33677
576.676	7.1734
576.874	5.87861
577.071	6.66549
577.269	8.29408
577.467	6.54236
577.664	6.65384
577.862	7.34839
578.059	6.19076
578.257	7.24749
578.455	6.62388
578.652	6.72521
578.85	5.27565
579.047	6.89792
579.245	6.51593
579.442	6.75219
579.64	6.48996
579.837	5.50444
580.034	8.60588
580.232	6.20738
580.429	6.0168
580.627	7.07431
580.824	7.61331
581.021	7.15201
581.219	6.32475
581.416	6.2142
581.613	7.89106
581.811	7.59498
582.008	6.12645
582.205	7.49896
582.402	7.07511
582.6	8.56947
582.797	6.91825
582.994	7.1998
583.191	7.43157
583.388	6.68891
583.586	7.50754
583.783	7.74455
583.98	6.09096
584.177	6.87404
584.374	4.55011
584.571	6.60505
584.768	6.82237
584.965	6.52399
585.162	7.41861
585.359	8.06428
585.556	6.84818
585.753	7.03818
585.95	5.92908
586.147	6.11995
586.344	7.31361
586.541	6.74912
586.738	5.92548
586.935	6.68365
587.132	6.32631
587.329	7.58609
587.526	6.76523
587.722	10.924
587.919	5.78362
588.116	7.06716
588.313	7.87468
588.51	8.5669
588.706	6.5669
588.903	7.24822
589.1	7.7216
589.297	9.09764
589.493	6.74278
589.69	7.35238
589.887	6.31602
590.083	6.09509
590.28	6.29647
590.477	7.63751
590.673	7.27208
590.87	7.84953
591.067	6.47433
591.263	7.2238
591.46	7.13451
591.656	6.59506
591.853	8.23012
592.049	6.21513
592.246	6.45458
592.442	7.83022
592.639	8.13528
592.835	6.21874
593.032	7.20925
593.228	5.75804
593.425	5.82408
593.621	5.62793
593.817	7.02357
594.014	6.20351
594.21	7.20384
594.406	7.82983
594.603	7.21619
594.799	6.32226
594.995	5.13415
595.192	7.74859
595.388	6.69351
595.584	6.76137
595.78	5.87256
595.977	9.20453
596.173	8.37054
596.369	6.70748
596.565	6.08593
596.761	5.90821
596.957	7.89739
597.154	6.38467
597.35	6.48083
597.546	6.34179
597.742	7.32687
597.938	7.10998
598.134	6.18681
598.33	6.99022
598.526	7.95997
598.722	7.2723
598.918	8.48574
599.114	7.40651
599.31	5.99752
599.506	6.88087
599.702	6.38465
599.898	7.16031
600.094	7.68314
600.29	7.67024
600.485	7.74059
600.681	6.60667
600.877	8.35186
601.073	7.17656
601.269	8.93643
601.465	8.353
601.66	6.11732
601.856	5.48498
602.052	9.05681
602.248	6.85857
602.443	5.34176
602.639	5.9833
602.835	6.37024
603.03	6.19595
603.226	7.76104
603.422	6.28742
603.617	6.79713
603.813	6.7072
604.009	6.49634
604.204	7.98806
604.4	5.90989
604.595	7.96848
604.791	6.29899
604.986	7.16885
605.182	6.27027
605.377	6.67595
605.573	6.63218
605.768	6.97883
605.964	7.33536
606.159	7.52861
606.355	7.99839
606.55	6.57844
606.746	7.79535
606.941	7.00594
607.136	8.65777
607.332	9.63148
607.527	6.12379
607.722	7.37092
607.918	6.88474
608.113	6.22738
608.308	7.85517
608.503	7.45724
608.699	7.40659
608.894	7.52991
609.089	6.50399
609.284	7.4075
609.479	6.74495
609.675	7.77727
609.87	6.91218
610.065	7.76225
610.26	7.86501
610.455	7.81662
610.65	7.08956
610.845	7.51574
611.04	7.94009
611.235	7.04572
611.43	7.04991
611.625	6.22736
611.82	8.49454
612.015	6.60734
612.21	8.99994
612.405	6.06101
612.6	9.02433
612.795	8.88433
612.99	8.26025
613.185	6.26313
613.38	6.46485
613.575	7.53605
613.77	10.22169
613.965	5.81335
614.159	6.65927
614.354	8.58849
614.549	8.37254
614.744	7.91581
614.938	6.3569
615.133	5.89225
615.328	8.81186
615.523	8.64278
615.717	10.27397
615.912	6.94384
616.107	7.51147
616.301	6.97292
616.496	6.63073
616.691	9.00357
616.885	8.17102
617.08	10.3408
617.274	8.48867
617.469	9.62763
617.664	8.22022
617.858	6.87362
618.053	7.77372
618.247	7.13961
618.442	5.08174
618.636	9.00467
618.831	6.70708
619.025	7.04074
619.219	10.49018
619.414	4.15875
619.608	7.12522
619.803	6.51326
619.997	9.77873
620.191	8.71004
620.386	7.87415
620.58	7.21924
620.774	5.52567
620.969	5.7505
621.163	7.54908
621.357	6.27258
621.551	7.19568
621.746	7.71023
621.94	7.1444
622.134	11.13217
622.328	9.78022
622.522	6.04874
622.716	8.57959
622.911	8.5451
623.105	8.4197
623.299	7.76834
623.493	10.821
623.687	6.65973
623.881	6.837
624.075	8.38827
624.269	8.88716
624.463	5.39157
624.657	5.54139
624.851	8.23472
625.045	8.27227
625.239	8.38686
625.433	6.86078
625.627	9.33064
625.821	6.90746
626.015	6.68278
626.209	7.46837
626.403	5.69363
626.596	7.82254
626.79	8.35728
626.984	6.219
627.178	8.01435
627.372	7.75398
627.565	8.35947
627.759	5.93215
627.953	6.35834
628.147	7.78316
628.34	8.49532
628.534	10.01464
628.728	7.16622
628.921	8.61138
629.115	8.44111
629.309	8.56065
629.502	9.01131
629.696	7.53743
629.89	7.50446
630.083	7.96373
630.277	7.84715
630.47	9.62676
630.664	7.13534
630.857	6.03784
631.051	8.48077
631.244	9.23283
631.438	8.81385
631.631	7.05552
631.825	9.40971
632.018	8.33637
632.212	9.85098
632.405	9.14409
632.598	6.89543
632.792	7.89542
632.985	5.13563
633.178	7.31655
633.372	7.62099
633.565	7.50645
633.758	9.2497
633.952	6.80679
634.145	6.6877
634.338	7.1332
634.531	7.26299
634.724	6.58879
634.918	7.82717
635.111	7.47158
635.304	7.5503
635.497	10.7664
635.69	8.32285
635.883	9.2027
636.077	6.62669
636.27	8.60805
636.463	8.21693
636.656	8.1503
636.849	7.52963
637.042	8.66624
637.235	10.50688
637.428	8.91146
637.621	8.74518
637.814	10.04466
638.007	9.84499
638.2	9.84874
638.393	10.48686
638.586	6.15352
638.778	7.4838
638.971	8.19559
639.164	10.20946
639.357	8.5554
639.55	10.32536
639.743	9.22083
639.935	8.77998
640.128	11.79537
640.321	9.57331
640.514	8.76589
640.707	11.54243
640.899	9.50682
641.092	6.14855
641.285	23.83111
641.477	5.36611
641.67	12.26412
641.863	10.06777
642.055	8.86006
642.248	8.57945
642.441	8.36909
642.633	9.50827
642.826	9.86625
643.018	10.41909
643.211	11.22045
643.403	11.59815
643.596	11.86199
643.788	10.91608
643.981	8.04738
644.173	9.73659
644.366	8.09243
644.558	5.88693
644.751	10.35445
644.943	6.8881
645.135	11.36899
645.328	11.44778
645.52	9.74908
645.712	10.66756
645.905	13.63161
646.097	7.12996
646.289	9.43635
646.482	12.34324
646.674	7.43843
646.866	10.53288
647.058	9.73588
647.251	7.48507
647.443	8.00456
647.635	8.44078
647.827	7.19728
648.019	7.15267
648.211	8.58432
648.404	9.30491
648.596	11.70243
648.788	9.62625
648.98	8.96052
649.172	9.88019
649.364	9.72147
649.556	6.57537
649.748	12.90969
649.94	7.92488
650.132	10.14731
650.324	7.79848
650.516	7.9177
650.708	10.6038
650.9	6.81835
651.092	6.74111
651.284	6.86677
651.476	7.25326
651.667	10.01111
651.859	11.50267
652.051	8.70019
652.243	9.26831
652.435	8.28046
652.627	9.72316
652.818	9.72594
653.01	6.81874
653.202	7.76566
653.394	8.38023
653.585	9.79956
653.777	16.31759
653.969	11.83107
654.16	11.16303
654.352	7.71499
654.544	9.20676
654.735	11.33106
654.927	9.2145
655.118	11.5653
655.31	10.88663
655.502	11.30959
655.693	8.58018
655.885	10.02943
656.076	11.78398
656.268	9.82079
656.459	11.75601
656.651	11.95718
656.842	8.54761
657.034	8.32779
657.225	10.95773
657.416	11.76592
657.608	11.78712
657.799	9.37049
657.99	11.71821
658.182	8.26194
658.373	8.31173
658.564	11.63189
658.756	9.60431
658.947	9.0095
659.138	7.80947
659.33	8.36095
659.521	8.09046
659.712	9.04862
659.903	8.77452
660.094	8.46992
660.286	6.90754
660.477	12.19529
660.668	10.36684
660.859	9.34249
661.05	6.99884
661.241	10.19903
661.432	10.12503
661.623	9.29707
661.814	8.67386
662.006	7.00525
662.197	10.20077
662.388	11.68807
662.579	10.14338
662.77	15.02982
662.96	14.7285
663.151	11.61862
663.342	6.7426
663.533	11.01267
663.724	9.58234
663.915	13.4063
664.106	9.89921
664.297	13.4649
664.488	11.10614
664.678	8.67551
664.869	11.76795
665.06	11.60189
665.251	10.04554
665.442	11.25716
665.632	8.02908
665.823	13.84146
666.014	5.10315
666.204	11.64861
666.395	12.73488
666.586	14.91317
666.776	11.61603
666.967	14.16648
667.158	10.2564
667.348	13.26918
667.539	8.46314
667.729	12.29607
667.92	9.11171
668.111	12.18161
668.301	11.68718
668.492	9.74411
668.682	10.69975
668.873	10.19676
669.063	7.84362
669.253	10.95067
669.444	13.6476
669.634	10.08656
669.825	13.69912
670.015	12.39589
670.206	8.96288
670.396	14.55078
670.586	9.82688
670.777	11.51024
670.967	6.95998
671.157	9.90832
671.347	9.18211
671.538	13.72258
671.728	11.79467
671.918	14.23622
672.108	12.4653
672.299	10.16496
672.489	11.04267
672.679	9.41894
672.869	11.75518
673.059	15.17612
673.249	11.78689
673.44	8.74251
673.63	10.13449
673.82	13.02473
674.01	8.97416
674.2	11.64754
674.39	16.73271
674.58	12.00954
674.77	10.91898
674.96	10.49756
675.15	19.77092
675.34	13.49367
675.53	10.88993
675.72	9.85861
675.91	7.83837
676.099	14.88215
676.289	16.31479
676.479	13.37193
676.669	10.39314
676.859	12.14088
677.049	9.62289
677.238	11.27942
677.428	14.55703
677.618	12.53526
677.808	15.54839
677.997	12.28163
678.187	9.20647
678.377	11.05098
678.567	9.80539
678.756	10.41803
678.946	10.84674
679.136	8.60021
679.325	9.84419
679.515	9.37785
679.704	8.34408
679.894	13.05453
680.084	11.65349
680.273	13.47144
680.463	9.25465
680.652	9.19047
680.842	10.79209
681.031	12.96658
681.221	9.24047
681.41	12.01784
681.6	10.88593
681.789	12.75801
681.978	13.74977
682.168	12.2158
682.357	11.76524
682.547	12.48536
682.736	11.9256
682.925	14.5268
683.115	14.03134
683.304	12.91797
683.493	11.22878
683.682	12.74228
683.872	12.77676
684.061	14.58142
684.25	13.20814
684.439	17.52363
684.629	13.76155
684.818	19.72773
685.007	12.14159
685.196	11.11136
685.385	16.73147
685.574	13.45027
685.763	12.98134
685.952	12.6427
686.142	9.42266
686.331	15.56615
686.52	9.07389
686.709	17.28024
686.898	17.0594
687.087	14.08436
687.276	16.45485
687.465	15.63279
687.654	11.81712
687.842	16.15902
688.031	9.41739
688.22	16.03737
688.409	13.29128
688.598	13.08227
688.787	19.028
688.976	12.7665
689.165	17.65456
689.353	11.41237
689.542	13.68117
689.731	15.70853
689.92	18.85105
690.108	15.20104
690.297	12.12644
690.486	13.96315
690.675	14.76385
690.863	17.51555
691.052	17.28865
691.241	14.02667
691.429	13.78717
691.618	17.06278
691.806	10.61558
691.995	13.34249
692.184	13.20311
692.372	12.58324
692.561	13.27387
692.749	14.4698
692.938	22.64311
693.126	15.19928
693.315	13.05368
693.503	15.66599
693.692	16.46551
693.88	15.82467
694.068	19.55179
694.257	14.23767
694.445	15.34855
694.634	9.314
694.822	15.88146
695.01	16.95062
695.199	20.00726
695.387	18.05388
695.575	17.63581
695.763	13.76547
695.952	13.50612
696.14	9.76601
696.328	12.33369
696.516	14.46504
696.705	14.98491
696.893	14.27896
697.081	9.64934
697.269	16.27063
697.457	11.01045
697.645	10.40498
697.833	15.62065
698.021	11.41644
698.21	12.02027
698.398	12.41254
698.586	10.2979
698.774	10.10293
698.962	12.92495
699.15	10.24298
699.338	9.05646
699.526	14.09569
699.714	11.31965
699.901	10.89345
700.089	14.91773
700.277	11.2003
700.465	12.39841
700.653	14.975
700.841	14.45646
701.029	11.10217
701.217	17.77429
701.404	13.6895
701.592	17.99685
701.78	21.1732
701.968	13.10913
702.155	14.09573
702.343	10.59589
702.531	18.32537
702.718	15.05556
702.906	12.85855
703.094	12.79672
703.281	18.23778
703.469	13.98457
703.657	17.85091
703.844	25.0811
704.032	21.1321
704.219	13.72321
704.407	16.32048
704.595	19.81873
704.782	16.91225
704.97	15.04526
705.157	14.53559
705.345	21.62214
705.532	26.89234
705.719	18.82509
705.907	21.99336
706.094	17.88688
706.282	24.5659
706.469	18.14177
706.656	18.81919
706.844	17.83877
707.031	23.31642
707.218	20.99102
707.406	25.1473
707.593	22.47661
707.78	22.26436
707.968	20.05266
708.155	17.83725
708.342	22.61399
708.529	22.39147
708.716	21.26805
708.904	25.65239
709.091	22.58355
709.278	17.47472
709.465	26.89542
709.652	25.11555
709.839	24.35546
710.026	20.7583
710.213	14.57216
710.4	20.17632
710.587	21.85838
710.774	22.5224
710.961	23.90255
711.148	20.64249
711.335	23.18243
711.522	19.33703
711.709	21.74691
711.896	27.2219
712.083	23.24157
712.27	17.4391
712.457	21.17145
712.644	14.98285
712.831	27.3034
713.017	20.99212
713.204	22.98047
713.391	17.42756
713.578	23.53558
713.765	25.13169
713.951	20.85438
714.138	30.52554
714.325	20.7019
714.512	18.84873
714.698	15.56681
714.885	23.5302
715.072	18.63274
715.258	18.3551
715.445	15.77126
715.631	22.30059
715.818	8.95474
716.005	15.70299
716.191	20.14768
716.378	16.60819
716.564	20.59968
716.751	14.32827
716.937	16.38705
717.124	21.23635
717.31	14.45831
717.497	25.40148
717.683	14.76802
717.869	25.91719
718.056	15.51481
718.242	19.8169
718.429	17.30939
718.615	13.2408
718.801	18.00527
718.988	22.62341
719.174	19.85495
719.36	16.27638
719.547	23.87728
719.733	19.24308
719.919	19.13967
720.105	20.93666
720.291	18.1203
720.478	19.37193
720.664	17.85213
720.85	16.23387
721.036	29.70244
721.222	25.1394
721.408	17.84774
721.595	26.1248
721.781	25.22182
721.967	23.68448
722.153	25.65024
722.339	21.96111
722.525	20.80189
722.711	14.24623
722.897	13.02125
723.083	17.4289
723.269	23.75198
723.455	30.67202
723.641	37.03164
723.827	19.207
724.012	21.9794
724.198	18.96957
724.384	24.32619
724.57	21.0951
724.756	13.68741
724.942	11.16293
725.127	24.90951
725.313	24.95043
725.499	25.09428
725.685	28.09362
725.87	20.87469
726.056	16.20358
726.242	25.1889
726.428	12.87265
726.613	23.51917
726.799	17.88065
726.985	15.1981
727.17	12.91554
727.356	29.06223
727.541	15.64893
727.727	19.10164
727.913	23.52003
728.098	17.51218
728.284	22.40299
728.469	14.85441
728.655	16.29862
728.84	24.9609
729.026	22.37078
729.211	22.74138
729.397	21.33892
729.582	23.33934
729.767	19.56036
729.953	21.31844
730.138	26.34633
730.323	10.08542
730.509	15.15548
730.694	27.32514
730.879	22.49472
731.065	20.70607
731.25	30.4499
731.435	23.05383
731.621	13.60818
731.806	17.22767
731.991	21.3462
732.176	13.97224
732.361	27.12487
732.547	21.25822
732.732	12.84113
732.917	30.85941
733.102	15.14842
733.287	17.42285
733.472	19.68291
733.657	19.57663
733.842	13.81181
734.027	17.66488
734.212	19.32295
734.397	16.02697
734.582	19.66899
734.767	23.90268
734.952	26.57582
735.137	9.40163
735.322	27.00068
735.507	21.66987
735.692	21.18681
735.877	30.21129
736.062	30.25875
736.247	22.65035
736.431	20.14183
736.616	25.3312
736.801	21.9447
736.986	20.76396
737.171	15.90997
737.355	14.82809
737.54	28.04038
737.725	20.85914
737.909	34.99044
738.094	17.95517
738.279	24.44407
738.463	20.02524
738.648	24.20649
738.833	22.46564
739.017	32.57264
739.202	19.87887
739.386	19.74268
739.571	17.38223
739.756	25.44076
739.94	21.26023
740.125	23.27049
740.309	18.52065
740.494	25.31781
740.678	22.71395
740.863	23.50265
741.047	21.20509
741.231	28.67331
741.416	17.68365
741.6	28.34761
741.785	18.24317
741.969	26.1906
742.153	28.71957
742.338	11.88266
742.522	20.13069
742.706	26.19833
742.89	14.3293
743.075	20.39086
743.259	28.46765
743.443	28.29997
743.627	27.95718
743.812	33.612
743.996	12.70345
744.18	20.55364
744.364	19.61264
744.548	35.67242
744.732	20.7858
744.916	26.91017
745.1	24.64909
745.285	20.05584
745.469	25.66424
745.653	30.45868
745.837	15.46047
746.021	34.82616
746.205	29.13527
746.389	21.80349
746.573	21.09159
746.757	30.73338
746.94	19.00632
747.124	29.80214
747.308	16.18222
747.492	27.84825
747.676	17.84149
747.86	37.60735
748.044	19.5942
748.227	13.91599
748.411	44.58147
748.595	23.28564
748.779	18.65933
748.963	24.57697
749.146	22.84432
749.33	17.59858
749.514	17.83222
749.697	29.61562
749.881	17.44959
750.065	16.60149
750.248	22.49931
750.432	36.75905
750.616	22.16041
750.799	16.6398
750.983	38.64475
751.166	37.30255
751.35	13.32656
751.533	27.48864
751.717	32.53745
751.9	31.60459
752.084	21.44865
752.267	18.31816
752.451	18.47226
752.634	22.46676
752.818	26.40125
753.001	26.89559
753.184	29.93684
753.368	24.6652
753.551	4.77472
753.734	17.98307
753.918	38.81408
754.101	20.3751
754.284	28.02113
754.467	20.75571
754.651	19.33605
754.834	18.82091
755.017	28.48575
755.2	30.4861
755.384	16.71717
755.567	27.59914
755.75	28.58319
755.933	20.93848
756.116	27.43044
756.299	19.43066
756.482	18.31333
756.665	26.53105
756.848	24.10513
757.032	23.84732
757.215	16.00361
757.398	19.1916
757.581	17.92608
757.764	41.1029
757.947	22.80169
758.129	28.66975
758.312	7.89339
758.495	22.63106
758.678	21.85137
758.861	20.42014
759.044	36.22009
759.227	17.7413
759.41	18.5756
759.592	28.59537
759.775	21.31936
759.958	28.73593
760.141	16.04439
760.324	38.30002
760.506	33.08442
760.689	27.93179
760.872	38.3066
761.054	26.42081
761.237	21.3784
761.42	24.61937
761.602	28.83389
761.785	26.18539
761.968	31.11185
762.15	35.66223
762.333	22.38293
762.515	25.80182
762.698	21.01813
762.88	28.73244
763.063	25.76053
763.245	31.32302
763.428	18.35945
763.61	20.93146
763.793	16.56507
763.975	25.3524
764.158	21.31162
764.34	19.56794
764.522	17.22538
764.705	21.04204
764.887	32.66782
765.069	14.32823
765.252	26.20368
765.434	27.22805
765.616	23.87723
765.799	17.94932
765.981	27.79165
766.163	17.76706
766.345	32.07569
766.528	19.56462
766.71	9.7794
766.892	24.46077
767.074	32.15841
767.256	22.14161
767.438	35.01977
767.62	23.71544
767.802	40.18449
767.985	28.83712
768.167	36.50627
768.349	19.84621
768.531	28.12169
768.713	26.3017
768.895	29.39822
769.077	26.27077
769.259	42.71155
769.441	59.36337
769.623	29.06628
769.804	36.21569
769.986	33.73357
770.168	41.51537
770.35	50.89586
770.532	38.54484
770.714	41.33221
770.896	41.23407
771.077	17.62878
771.259	43.86805
771.441	37.15573
771.623	43.72185
771.804	58.09379
771.986	18.64352
772.168	27.89954
772.35	43.47142
772.531	58.13284
772.713	36.26758
772.894	48.43289
773.076	34.21209
773.258	32.0656
773.439	49.88383
773.621	55.51329
773.802	25.02518
773.984	28.90214
774.166	38.9724
774.347	50.87976
774.529	45.49681
774.71	16.10657
774.891	32.14337
775.073	30.58648
775.254	49.76527
775.436	29.0447
775.617	60.13753
775.799	29.74782
775.98	49.95484
776.161	54.75985
776.343	56.46995
776.524	35.35011
776.705	31.30984
776.886	17.24543
777.068	38.22431
777.249	85.52099
777.43	58.55964
777.611	23.89279
777.793	31.65876
777.974	57.24828
778.155	30.74057
778.336	25.79581
778.517	65.07669
778.698	26.96221
778.879	16.10102
779.061	9.70555
779.242	41.21415
779.423	41.20916
779.604	28.63461
779.785	31.09262
779.966	37.5457
780.147	49.47007
780.328	47.60482
780.509	65.42896
780.69	47.84359
780.871	29.79644
781.051	20.93982
781.232	37.1897
781.413	37.18058
781.594	32.60202
781.775	30.5504
781.956	26.83911
782.137	16.41555
782.317	30.12142
782.498	37.96756
782.679	36.5756
782.86	39.44613
783.04	29.04509
783.221	38.25822
783.402	59.46364
783.583	36.41495
783.763	45.88451
783.944	30.60255
784.124	21.03191
784.305	58.53686
784.486	44.35295
784.666	34.05104
784.847	19.89072
785.027	79.0119
785.208	30.09584
785.388	27.03563
785.569	28.61773
785.749	32.97998
785.93	30.7813
786.11	21.12766
786.291	42.90656
786.471	38.57193
786.652	45.60378
786.832	35.20686
787.012	38.95788
787.193	22.84904
787.373	37.5956
787.553	31.30637
787.734	37.30168
787.914	31.91161
788.094	49.37009
788.275	39.59638
788.455	31.55529
788.635	22.34127
788.815	38.28527
788.995	24.4632
789.176	20.24454
789.356	27.04447
789.536	33.48424
789.716	40.98168
789.896	27.641
790.076	29.23507
790.256	40.33376
790.436	14.06383
790.616	24.99232
790.796	39.87602
790.976	31.84189
791.156	26.57046
791.336	41.70934
791.516	38.9086
791.696	33.10361
791.876	19.95033
792.056	37.83003
792.236	47.14219
792.416	45.30019
792.596	39.59465
792.776	40.64459
792.956	44.76626
793.135	57.74691
793.315	23.19599
793.495	48.80766
793.675	43.77428
793.854	43.26057
794.034	49.20711
794.214	24.59214
794.394	44.4245
794.573	51.98913
794.753	38.07413
794.933	26.86398
795.112	37.62866
795.292	48.1412
795.472	57.30192
795.651	21.72014
795.831	36.88933
796.01	31.87635
796.19	32.07879
796.369	35.36905
796.549	41.19334
796.728	33.14973
796.908	20.9978
797.087	23.94926
797.267	32.30126
797.446	24.47094
797.626	41.10362
797.805	40.9235
797.984	27.65091
798.164	44.94559
798.343	25.93315
798.522	36.8687
798.702	37.6949
798.881	22.45395
799.06	31.89175
799.239	16.42254
799.419	25.60021
799.598	56.43811
799.777	41.03479
799.956	48.92134
800.136	32.95198
800.315	26.40008
800.494	38.88925
800.673	46.26784
800.852	44.09286
801.031	51.33198
801.21	42.58973
801.389	30.19794
801.568	37.75928
801.747	59.89604
801.926	36.06606
802.105	54.16421
802.284	28.2759
802.463	55.50223
802.642	38.46324
802.821	38.89341
803	54.54391
803.179	47.1479
803.358	48.99241
803.537	28.79606
803.716	35.37497
803.895	29.34622
804.073	33.363
804.252	27.84836
804.431	39.40382
804.61	34.51952
804.789	44.44304
804.967	29.90509
805.146	29.74754
805.325	65.98102
805.503	40.89901
805.682	20.46968
805.861	79.87786
806.039	53.36144
806.218	29.57581
806.397	37.62946
806.575	35.46038
806.754	40.01193
806.932	25.83578
807.111	49.72369
807.289	46.44236
807.468	37.57293
807.646	47.36999
807.825	42.95524
808.003	38.27919
808.182	48.94324
808.36	38.17536
808.539	24.97041
808.717	56.31996
808.895	29.01021
809.074	39.61552
809.252	35.7004
809.43	44.17094
809.609	51.91168
809.787	61.67694
809.965	35.21806
810.144	37.11073
810.322	34.23879
810.5	42.09797
810.678	30.95229
810.856	67.0485
811.035	49.86704
811.213	46.35359
811.391	55.47583
811.569	39.90817
811.747	84.03891
811.925	52.86649
812.103	28.30146
812.281	36.63272
812.459	60.79217
812.637	63.2867
812.816	48.13618
812.994	68.33021
813.171	58.07089
813.349	43.90541
813.527	51.93917
813.705	56.57552
813.883	75.19333
814.061	48.04833
814.239	62.71663
814.417	69.42938
814.595	45.8382
814.773	43.64529
814.95	40.08773
815.128	44.48103
815.306	39.642
815.484	39.46981
815.662	26.0639
815.839	25.35105
816.017	32.23251
816.195	53.17093
816.372	34.30234
816.55	48.03539
816.728	61.89241
816.905	36.70188
817.083	63.59518
817.261	39.5671
817.438	84.03567
817.616	64.34358
817.793	33.37228
817.971	49.40764
818.148	49.3328
818.326	57.24418
818.503	43.06675
818.681	65.29842
818.858	35.97959
819.036	37.91437
819.213	43.57928
819.391	31.62857
819.568	31.83661
819.745	27.00738
819.923	50.5263
820.1	36.48052
820.277	29.91095
820.455	34.66737
820.632	38.16891
820.809	41.42021
820.986	25.77753
821.164	21.414
821.341	19.14766
821.518	30.05576
821.695	20.96021
821.872	19.00421
822.05	16.31496
822.227	13.17895
822.404	14.12899
822.581	16.41362
822.758	13.44395
822.935	13.81656
823.112	15.59248
823.289	12.98542
823.466	15.91965
823.643	14.79266
823.82	17.71135
823.997	15.56667
824.174	18.29752
824.351	25.27105
824.528	23.17028
824.705	20.4061
824.882	23.4602
825.059	29.70911
825.236	21.26681
825.412	22.44907
825.589	27.23843
825.766	40.23165
825.943	24.72595
826.12	27.9022
826.296	20.14659
826.473	26.20123
826.65	26.81923
826.827	31.53315
827.003	21.38046
827.18	23.69522
827.357	26.4318
827.533	22.41935
827.71	12.69628
827.887	19.77404
828.063	23.16339
828.24	18.95615
828.416	25.69213
828.593	20.8744
828.769	29.99694
828.946	31.04807
829.122	31.39614
829.299	31.15733
829.475	19.48636
829.652	29.61717
829.828	50.17974
830.005	30.64557
830.181	43.64694
830.357	31.74312
830.534	45.80214
830.71	36.33985
830.886	44.53879
831.063	42.894
831.239	57.21261
831.415	27.54259
831.592	58.20131
831.768	37.19488
831.944	28.77889
832.12	62.34535
832.296	59.10959
832.473	47.96514
832.649	31.51038
832.825	50.21435
833.001	29.70704
833.177	42.61492
833.353	38.39939
833.529	22.31247
833.705	35.69021
833.881	23.41102
834.058	22.1309
834.234	24.55492
834.41	24.45221
834.586	18.38684
834.761	22.67572
834.937	25.6767
835.113	26.37733
835.289	22.19891
835.465	26.29655
835.641	23.81249
835.817	26.34027
835.993	44.40162
836.169	21.7531
836.344	36.2157
836.52	41.18168
836.696	38.08661
836.872	28.19726
837.048	87.3402
837.223	32.34505
837.399	61.35302
837.575	49.53094
837.75	48.82336
837.926	68.22388
838.102	98.32664
838.277	78.92889
838.453	107.82347
838.628	107.33355
838.804	42.66056
838.98	95.6132
839.155	51.57639
839.331	68.28513
839.506	44.42374
839.682	49.40622
839.857	70.48048
840.033	79.52261
840.208	37.45644
840.384	18.55679
840.559	36.82561
840.734	57.66126
840.91	76.16615
841.085	46.42809
841.26	44.27096
841.436	39.80283
841.611	38.05401
841.786	61.59538
841.962	83.98803
842.137	49.28018
842.312	31.04117
842.487	43.50501
842.663	38.22725
842.838	44.28212
843.013	144.43435
843.188	68.61572
843.363	74.17642
843.538	124.58165
843.714	123.41263
843.889	124.80665
844.064	124.67784
844.239	106.52661
844.414	125.96188
844.589	86.763
844.764	158.21012
844.939	153.6026
845.114	168.02848
845.289	159.05257
845.464	218.3115
845.639	144.34386
845.814	72.80447
845.989	86.75683
846.163	104.41248
846.338	110.71388
846.513	153.41879
846.688	99.73838
846.863	102.63336
847.038	91.00736
847.212	106.1571
847.387	105.66858
847.562	111.16222
847.737	136.94239
847.911	51.75664
848.086	66.66297
848.261	232.89933
848.435	95.85205
848.61	146.45234
848.785	78.01673
848.959	151.21819
849.134	207.2248
849.308	214.16404
849.483	112.00677
849.658	179.22594
849.832	97.80054
850.007	81.78912
850.181	238.50845
850.356	89.77713
850.53	231.06075
850.705	71.00546
850.879	34.32848
851.053	103.77623
851.228	93.00663
851.402	122.26448
851.577	164.8272
851.751	177.8504
851.925	120.36481
852.099	50.42849
852.274	80.65976
852.448	107.75719
852.622	118.41466
852.797	105.96493
852.971	105.76296
853.145	117.44485
853.319	337.48728
853.493	167.81224
853.668	90.00745
853.842	208.31786
854.016	172.33824
854.19	201.43223
854.364	119.56342
854.538	129.89461
854.712	174.63349
854.886	108.38456
855.06	93.19483
855.234	40.33735
855.408	190.70534
855.582	158.2312
855.756	156.76787
855.93	204.95571
856.104	142.98211
856.278	159.09251
856.452	109.16331
856.626	162.62573
856.8	252.56159
856.973	146.08094
857.147	133.09059
857.321	141.36546
857.495	171.38142
857.669	108.19361
857.842	96.2274
858.016	170.43126
858.19	88.50095
858.364	276.21759
858.537	100.11488
858.711	119.0167
858.885	109.63842
859.058	97.34246
859.232	54.14176
859.405	61.92297
859.579	164.63077
859.753	135.34798
859.926	86.38668
860.1	57.01835
860.273	116.20723
860.447	194.97843
860.62	106.39297
860.794	239.4484
860.967	130.16123
861.141	178.05571
861.314	258.08131
861.487	151.33403
861.661	198.79317
861.834	189.59402
862.008	168.98716
862.181	118.03968
862.354	124.73278
862.528	154.90381
862.701	100.80304
862.874	67.81569
863.047	111.08456
863.221	100.51293
863.394	50.22553
863.567	197.33076
863.74	39.18959
863.913	158.57562
864.087	141.93267
864.26	170.71082
864.433	123.55654
864.606	221.45452
864.779	121.78504
864.952	56.08209
865.125	105.96527
865.298	114.06296
865.471	123.77283
865.644	252.78095
865.817	203.59215
865.99	165.89878
866.163	187.58928
866.336	102.3261
866.509	119.35383
866.682	103.60745
866.855	183.36848
867.028	77.85602
867.2	153.69964
867.373	48.26282
867.546	131.53832
867.719	259.19517
867.892	153.80666
868.064	91.27309
868.237	145.70465
868.41	122.31675
868.583	62.73652
868.755	77.77678
868.928	118.36177
869.101	263.07295
869.273	187.40807
869.446	155.3882
869.619	180.06139
869.791	119.52322
869.964	179.96809
870.136	164.04883
870.309	132.56819
870.481	135.84054
870.654	63.47594
870.826	138.26946
870.999	104.47782
871.171	163.52307
871.344	98.38774
871.516	121.48017
871.689	92.2187
871.861	120.46779
872.033	93.64181
872.206	106.65305
872.378	174.43278
872.55	105.24655
872.723	72.96885
872.895	112.71938
873.067	181.89028
873.24	192.97238
873.412	104.22669
873.584	112.7224
873.756	103.90108
873.928	140.32928
874.101	142.6187
874.273	159.28536
874.445	54.29135
874.617	69.09946
874.789	136.03073
874.961	104.76637
875.133	156.73407
875.305	126.42278
875.477	81.11878
875.649	68.61785
875.821	87.90028
875.993	216.614
876.165	81.77944
876.337	146.45654
876.509	110.87373
876.681	139.429
876.853	134.49057
877.025	141.38936
877.197	86.69262
877.369	79.4431
877.541	167.78148
877.712	42.83968
877.884	76.77156
878.056	156.97978
878.228	81.13777
878.4	150.39033
878.571	86.34668
878.743	56.60729
878.915	141.66071
879.086	79.62565
879.258	100.55987
879.43	93.31212
879.601	78.31795
879.773	84.57528
879.945	19.81276
880.116	36.16883
880.288	23.07367
880.459	25.31504
880.631	18.93881
880.802	23.81716
880.974	22.2117
881.145	15.41625
881.317	20.38059
881.488	15.66929
881.66	17.34778
881.831	15.32321
882.002	22.54807
882.174	16.02881
882.345	21.21078
882.517	11.53667
882.688	24.17976
882.859	20.79361
883.03	32.80791
883.202	30.64973
883.373	26.61552
883.544	26.56934
883.715	47.66953
883.887	38.42536
884.058	31.96983
884.229	47.58723
884.4	48.9676
884.571	54.06674
884.742	48.62291
884.914	52.72579
885.085	78.09473
885.256	94.07139
885.427	76.62937
885.598	92.746
885.769	98.25253
885.94	87.93477
886.111	62.20188
886.282	109.3531
886.453	87.08642
886.624	65.92616
886.795	108.94364
886.966	93.47255
887.136	116.59574
887.307	77.33055
887.478	147.88321
887.649	130.53599
887.82	134.46085
887.991	106.78984
888.161	148.03193
888.332	138.7886
888.503	73.00816
888.674	193.41258
888.844	206.32693
889.015	157.29366
889.186	73.86854
889.356	190.85093
889.527	72.1935
889.698	332.50635
889.868	106.86991
890.039	142.31127
890.209	120.40064
890.38	164.8575
890.551	140.19439
890.721	203.36803
890.892	166.08063
891.062	108.66357
891.233	143.01338
891.403	111.61108
891.574	85.90738
891.744	108.41592
891.914	146.6279
892.085	129.68625
892.255	34.2089
892.425	197.17731
892.596	158.78785
892.766	142.15201
892.936	194.32113
893.107	164.15366
893.277	90.05063
893.447	66.74722
893.618	52.64568
893.788	106.93409
893.958	58.26893
894.128	58.25431
894.298	66.36104
894.468	92.15351
894.639	39.24635
894.809	28.08262
894.979	47.67683
895.149	55.15459
895.319	43.76973
895.489	62.1286
895.659	77.90019
895.829	54.46957
895.999	53.92476
896.169	38.65214
896.339	49.2104
896.509	105.75052
896.679	120.80292
896.849	115.04004
897.019	162.28157
897.189	119.72172
897.358	104.69796
897.528	161.47339
897.698	56.88661
897.868	155.12696
898.038	265.36776
898.208	243.34273
898.377	74.49861
898.547	254.97431
898.717	394.26119
898.886	153.47852
899.056	245.19011
899.226	366.86488
899.395	221.3633
899.565	279.04369
899.735	183.70893
899.904	302.80165
900.074	264.17956
900.244	124.91319
900.413	473.14529
900.583	100.87237
900.752	168.34141
900.922	285.03959
901.091	25.98844
901.261	239.61005
901.43	231.14137
901.599	226.72924
901.769	529.46449
901.938	275.49249
902.108	265.09006
902.277	338.57094
902.446	94.11089
902.616	104.76857
902.785	156.49879
902.954	271.08649
903.124	173.64634
903.293	141.1648
903.462	77.31813
903.631	109.16705
903.801	80.26962
903.97	42.09603
904.139	73.4781
904.308	53.02401
904.477	45.88231
904.646	26.3672
904.816	41.21986
904.985	60.27496
905.154	93.11499
