Data from WindowProjectSample_Transmission__51__00051.txt Node

Date: Sat May 03 16:44:46 EDT 2025
User: jessi
Spectrometer: SR400872
Trigger mode: 0
Integration Time (sec): 5.000010E-1
Scans to average: 6
Electric dark correction enabled: true
Nonlinearity correction enabled: true
Boxcar width: 0
XAxis mode: Wavelengths
Number of Pixels in Spectrum: 3648
>>>>>Begin Spectral Data<<<<<
184.909	173305.36643
185.132	1677.20795
185.355	-2003.88283
185.578	3364.74101
185.801	-290.04104
186.024	6544.6947
186.247	1192.5064
186.47	944.54445
186.693	-295.25468
186.916	294.36322
187.139	10403.68119
187.362	3625.79252
187.585	2596.69746
187.808	-1229.27559
188.031	122.83011
188.254	7909.30007
188.476	494.89949
188.699	-4297.64767
188.922	-317.85824
189.145	-4303.61198
189.368	-590.71177
189.591	-937.90215
189.813	-2210.94165
190.036	4825.49665
190.259	3555.17022
190.482	2374.23005
190.705	8948.46888
190.927	-1723.3338
191.15	-1671.3327
191.373	5007.20727
191.595	-1827.92898
191.818	9169.73884
192.041	-213.92994
192.263	-2441.76417
192.486	-1005.42668
192.709	8867.4634
192.931	-2763.55516
193.154	-2059.78532
193.377	4474.79153
193.599	6711.59727
193.822	-1878.74165
194.044	-1884.44244
194.267	619.667
194.489	-222.06988
194.712	2135.97188
194.934	3481.61561
195.157	-7953.76089
195.379	2154.24867
195.602	5377.38721
195.824	6051.42397
196.047	-9558.24658
196.269	-10800.50497
196.492	-1134.93728
196.714	-4910.24867
196.936	4585.31673
197.159	-2490.95662
197.381	-622.33724
197.604	1549.87802
197.826	-3594.33026
198.048	-1444.4875
198.271	-11896.64704
198.493	10091.59242
198.715	-2563.92084
198.938	-808.21258
199.16	-3777.33342
199.382	1712.88098
199.604	-1385.01908
199.827	-1153.58741
200.049	-4372.91588
200.271	2579.76144
200.493	-25902.20425
200.715	4790.71783
200.938	12568.57323
201.16	-228771.63002
201.382	-5397.47219
201.604	-984.75408
201.826	-6870.10661
202.048	-7484.04286
202.27	-4604.69986
202.492	-3768.12406
202.715	-1277.25841
202.937	-3551.77028
203.159	1114.93906
203.381	-101390.68342
203.603	-1037.80334
203.825	-1497.90388
204.047	2212.40438
204.269	-903.87308
204.491	7185.03354
204.713	-8514.66934
204.935	38406.25956
205.156	2030.47437
205.378	-7604.79082
205.6	-1564.27057
205.822	6392.77265
206.044	-302.94228
206.266	-2050.61725
206.488	711.47608
206.71	-518077.2158
206.932	-16385.4358
207.153	11413.2225
207.375	-2439.09146
207.597	15998.15019
207.819	1756.82654
208.041	6274.28228
208.262	592.57169
208.484	-1017.86115
208.706	-892.18047
208.927	10646.58044
209.149	-7694.68272
209.371	-2853.49807
209.593	-2532.66305
209.814	-3742.99196
210.036	2663.44866
210.258	-741.13727
210.479	1928.15643
210.701	828.71832
210.922	4172.90968
211.144	-1391.98751
211.366	6064.76021
211.587	-753.347
211.809	-3873.26366
212.03	-2361.76321
212.252	-522.83815
212.473	3014.52365
212.695	-850.77156
212.916	-981.62088
213.138	757.5043
213.359	-1293.11831
213.581	-3380.95022
213.802	-1523.03627
214.024	10487.61112
214.245	-1081.81633
214.466	-207.75201
214.688	-3393.4347
214.909	-790.84194
215.131	9126.93736
215.352	-1248.10593
215.573	-245869.25582
215.795	4479.13931
216.016	-3830.74813
216.237	-568.80694
216.459	-10990.26351
216.68	-1585.82568
216.901	-1672.49318
217.122	1924.46674
217.344	-8810.921
217.565	-1614.68832
217.786	22147.00033
218.007	1018.10982
218.228	-3099.24489
218.45	-5676.04973
218.671	-1587.42803
218.892	898.35164
219.113	1748.98783
219.334	336.47524
219.555	-6013.37158
219.776	34647.97354
219.997	-6707.22939
220.219	-8442.34409
220.44	-4813.43687
220.661	-1354.01455
220.882	12761.95913
221.103	-849.79368
221.324	2359.66556
221.545	-6564.68696
221.766	-1520.95479
221.987	-379.43735
222.208	1941.26998
222.429	6633.04835
222.65	-138.60415
222.87	-660.17151
223.091	37568.20381
223.312	951.58902
223.533	-2016.01539
223.754	3580.97468
223.975	1692.64453
224.196	-769.65946
224.417	-30203.42436
224.637	-2378.19054
224.858	461.90488
225.079	3901.91592
225.3	1545.69949
225.521	3613.88071
225.741	-2352.16187
225.962	1518.60854
226.183	877.66209
226.404	1858.18863
226.624	1882.242
226.845	1419.02739
227.066	2530.17587
227.286	631.30875
227.507	434.28322
227.728	387.20916
227.948	537.96048
228.169	144.49938
228.389	133.68998
228.61	54.30599
228.831	83.01629
229.051	9.12911
229.272	47.7197
229.492	62.11448
229.713	23.30526
229.933	52.016
230.154	41.63182
230.374	68.28857
230.595	56.40576
230.815	36.45029
231.036	57.34573
231.256	-12.44275
231.477	102.40704
231.697	65.19931
231.917	62.86875
232.138	86.4523
232.358	172.1517
232.579	179.42969
232.799	33.42846
233.019	164.84208
233.24	236.98794
233.46	64.16557
233.68	109.93109
233.901	94.94571
234.121	46.71733
234.341	22.55388
234.561	-5.82138
234.782	37.4006
235.002	112.82828
235.222	-0.71567
235.442	98.16952
235.662	49.79397
235.883	107.27446
236.103	90.73387
236.323	69.67028
236.543	55.92662
236.763	77.20224
236.983	65.49973
237.203	81.65864
237.423	104.88976
237.643	149.6288
237.864	144.244
238.084	33.45672
238.304	52.19658
238.524	85.4157
238.744	70.71405
238.964	112.09323
239.184	106.56887
239.404	101.47254
239.624	51.87893
239.843	100.37549
240.063	50.62699
240.283	35.39952
240.503	38.23421
240.723	34.80368
240.943	19.46281
241.163	27.6008
241.383	18.48
241.603	9.64138
241.822	10.27618
242.042	9.45055
242.262	11.27326
242.482	12.16399
242.702	14.08308
242.921	5.17952
243.141	9.9247
243.361	8.55848
243.581	13.15644
243.8	9.93764
244.02	7.39592
244.24	13.53294
244.459	13.82402
244.679	26.012
244.899	16.24045
245.118	20.01436
245.338	16.79258
245.558	19.16722
245.777	13.53017
245.997	14.44234
246.216	12.83886
246.436	7.12728
246.655	5.39708
246.875	4.24316
247.094	7.98329
247.314	3.04089
247.533	4.38773
247.753	6.02798
247.972	4.76832
248.192	1.85589
248.411	2.86547
248.631	5.44418
248.85	6.87658
249.07	4.80592
249.289	9.08291
249.508	6.68781
249.728	10.74429
249.947	11.82174
250.166	11.42902
250.386	6.54894
250.605	10.63719
250.824	15.27567
251.044	10.97694
251.263	36.64354
251.482	19.06558
251.701	16.45613
251.921	0.60824
252.14	4.92711
252.359	5.71899
252.578	14.10806
252.798	4.09613
253.017	12.58983
253.236	6.57568
253.455	8.31898
253.674	16.34097
253.893	8.79894
254.112	10.55682
254.331	16.7649
254.551	13.66651
254.77	7.46801
254.989	21.18975
255.208	17.2136
255.427	23.00586
255.646	19.84326
255.865	33.26184
256.084	12.339
256.303	15.11023
256.522	23.24002
256.741	5.2422
256.96	5.4734
257.179	12.22291
257.397	15.96723
257.616	7.57273
257.835	9.66045
258.054	21.61129
258.273	13.37568
258.492	15.67484
258.711	9.52288
258.93	4.01858
259.148	4.91974
259.367	5.58131
259.586	7.32441
259.805	3.48888
260.023	6.61875
260.242	5.06829
260.461	3.73526
260.68	2.00913
260.898	6.02004
261.117	1.99023
261.336	1.7495
261.554	5.15306
261.773	5.0614
261.992	1.35421
262.21	5.7046
262.429	6.47809
262.648	10.75014
262.866	11.80661
263.085	7.60152
263.303	6.93304
263.522	11.60855
263.74	12.5407
263.959	21.35296
264.178	10.63042
264.396	9.61223
264.615	7.90774
264.833	16.51862
265.051	14.25834
265.27	12.88401
265.488	15.934
265.707	10.04531
265.925	15.60759
266.144	6.62565
266.362	8.70452
266.58	8.38018
266.799	7.03045
267.017	8.69263
267.235	7.77843
267.454	4.90224
267.672	2.87288
267.89	6.0153
268.109	6.89136
268.327	6.51185
268.545	1.94921
268.763	6.27767
268.982	2.29147
269.2	7.43389
269.418	4.43133
269.636	3.54727
269.854	6.06582
270.073	5.56956
270.291	2.63887
270.509	3.0524
270.727	6.40042
270.945	9.77366
271.163	10.18386
271.381	2.58894
271.599	4.04174
271.817	7.25613
272.036	2.63228
272.254	4.39718
272.472	3.36519
272.69	3.55869
272.908	3.65789
273.126	5.84879
273.344	7.60077
273.562	2.60981
273.779	3.58931
273.997	5.59284
274.215	6.0146
274.433	4.56178
274.651	6.45685
274.869	6.3878
275.087	4.01536
275.305	6.00913
275.523	3.5215
275.74	4.92089
275.958	7.93862
276.176	10.98854
276.394	3.4699
276.612	4.88522
276.829	4.67994
277.047	3.91903
277.265	4.57583
277.483	5.41344
277.7	6.09411
277.918	4.77893
278.136	8.65588
278.353	4.34383
278.571	2.42368
278.789	7.098
279.006	1.60299
279.224	4.04922
279.442	7.0363
279.659	4.98288
279.877	3.72716
280.094	7.60284
280.312	1.41327
280.529	4.90118
280.747	1.203
280.964	3.88704
281.182	8.6773
281.399	4.29718
281.617	5.53639
281.834	3.89389
282.052	3.16758
282.269	4.41848
282.487	3.51195
282.704	2.88067
282.921	3.12799
283.139	4.62569
283.356	5.75875
283.574	5.24102
283.791	2.75884
284.008	7.45481
284.226	4.03094
284.443	4.72735
284.66	5.60893
284.877	4.79526
285.095	3.27571
285.312	2.15976
285.529	1.3451
285.746	1.4511
285.964	2.92007
286.181	1.99604
286.398	2.78105
286.615	3.959
286.832	3.79358
287.05	0.96036
287.267	2.65113
287.484	2.85319
287.701	3.77893
287.918	3.58102
288.135	3.91894
288.352	2.18528
288.569	2.2571
288.786	3.60605
289.003	2.57775
289.22	3.90949
289.437	2.2803
289.654	4.19888
289.871	4.31822
290.088	3.95166
290.305	3.12081
290.522	2.57537
290.739	3.25932
290.956	4.35576
291.173	5.17688
291.39	4.8363
291.607	3.40212
291.824	2.59538
292.04	1.7511
292.257	3.92409
292.474	4.58009
292.691	3.12228
292.908	1.47148
293.125	2.78482
293.341	1.59261
293.558	7.1098
293.775	3.01339
293.992	3.09859
294.208	1.43566
294.425	2.00512
294.642	2.58524
294.858	4.85204
295.075	1.46934
295.292	3.06366
295.508	4.21935
295.725	5.87959
295.942	4.0409
296.158	3.61595
296.375	4.85586
296.591	4.12547
296.808	5.03032
297.024	5.80868
297.241	6.13211
297.458	6.8037
297.674	4.15659
297.891	6.00259
298.107	6.43663
298.323	5.47501
298.54	8.69206
298.756	6.51554
298.973	5.79789
299.189	9.14831
299.406	7.21293
299.622	8.65359
299.838	9.76018
300.055	8.94593
300.271	7.00887
300.487	7.0276
300.704	7.95726
300.92	7.53207
301.136	11.99714
301.353	9.95155
301.569	8.97838
301.785	9.42376
302.001	10.49298
302.218	10.06344
302.434	10.55764
302.65	8.49498
302.866	9.39811
303.083	13.19633
303.299	13.58233
303.515	10.61606
303.731	11.60588
303.947	9.48007
304.163	10.46686
304.379	11.25619
304.595	11.68518
304.812	10.24482
305.028	10.20617
305.244	10.64671
305.46	11.80333
305.676	12.58177
305.892	13.27533
306.108	12.49639
306.324	11.2596
306.54	13.74413
306.756	12.32459
306.972	11.95342
307.187	12.40319
307.403	13.03613
307.619	11.1684
307.835	12.98938
308.051	13.78683
308.267	10.93299
308.483	14.47735
308.699	12.9619
308.914	12.94515
309.13	12.51272
309.346	11.66724
309.562	12.11981
309.778	11.69451
309.993	13.44013
310.209	13.95953
310.425	12.0092
310.641	13.8226
310.856	12.60184
311.072	12.33563
311.288	13.59664
311.503	14.77942
311.719	11.83323
311.935	12.40658
312.15	14.76077
312.366	14.66604
312.581	14.7316
312.797	14.47442
313.013	15.10642
313.228	13.40488
313.444	13.16469
313.659	12.65181
313.875	13.94329
314.09	13.37905
314.306	14.6563
314.521	14.72332
314.737	14.30127
314.952	14.00425
315.168	13.89914
315.383	14.35729
315.599	12.80671
315.814	14.02091
316.029	14.3304
316.245	12.9072
316.46	10.9825
316.675	14.63793
316.891	15.84506
317.106	17.13212
317.321	14.0361
317.537	14.56827
317.752	14.84504
317.967	14.98668
318.183	12.45238
318.398	13.88429
318.613	14.86789
318.828	15.4166
319.043	14.18046
319.259	13.33509
319.474	14.34276
319.689	15.13423
319.904	11.6026
320.119	15.41194
320.334	14.09246
320.549	13.98805
320.765	15.27403
320.98	14.18549
321.195	13.97168
321.41	14.00894
321.625	14.67499
321.84	16.13719
322.055	15.49392
322.27	13.38969
322.485	12.25388
322.7	14.55893
322.915	15.30529
323.13	14.17148
323.345	16.84489
323.56	15.84857
323.775	15.44748
323.989	15.46992
324.204	14.37798
324.419	15.84353
324.634	13.42303
324.849	14.94336
325.064	18.34381
325.279	16.6879
325.493	15.44715
325.708	16.06223
325.923	13.78018
326.138	14.96427
326.352	16.82992
326.567	15.68
326.782	14.00614
326.997	14.73076
327.211	15.27095
327.426	15.2183
327.641	14.9366
327.855	13.31017
328.07	15.82898
328.285	17.76065
328.499	14.47714
328.714	14.96615
328.928	15.05901
329.143	15.20493
329.358	16.44591
329.572	15.92639
329.787	17.00928
330.001	18.41971
330.216	12.45928
330.43	17.78062
330.645	16.09961
330.859	15.66102
331.074	13.1282
331.288	14.73222
331.503	17.53078
331.717	13.24227
331.931	15.02684
332.146	15.87302
332.36	17.57676
332.575	15.79694
332.789	14.94065
333.003	15.92568
333.218	16.02665
333.432	15.20144
333.646	16.58498
333.86	17.53184
334.075	17.15438
334.289	14.67704
334.503	12.88157
334.717	16.70438
334.932	15.58696
335.146	16.22301
335.36	14.31886
335.574	16.5074
335.788	15.57944
336.003	16.69379
336.217	16.98932
336.431	15.87866
336.645	15.11764
336.859	14.28075
337.073	15.46173
337.287	16.11171
337.501	13.57259
337.715	16.06316
337.929	15.88297
338.143	14.44639
338.357	15.38175
338.571	15.64115
338.785	17.49948
338.999	15.30138
339.213	15.28328
339.427	14.6173
339.641	17.44672
339.855	14.84613
340.069	14.64241
340.283	16.87006
340.497	17.61557
340.711	16.81238
340.924	15.86493
341.138	14.80746
341.352	14.31618
341.566	16.05305
341.78	14.26232
341.993	15.28669
342.207	15.15893
342.421	16.60104
342.635	15.82573
342.848	15.74164
343.062	13.11304
343.276	15.25975
343.49	18.25421
343.703	15.18403
343.917	16.95976
344.131	17.47911
344.344	15.06387
344.558	15.77857
344.771	14.60025
344.985	17.26618
345.199	18.12468
345.412	16.42017
345.626	16.82008
345.839	14.59814
346.053	14.72415
346.266	15.08652
346.48	16.87254
346.693	16.73596
346.907	16.60944
347.12	14.82534
347.334	15.82221
347.547	16.69619
347.76	16.20085
347.974	16.92504
348.187	16.40928
348.401	16.03994
348.614	14.41714
348.827	15.59081
349.041	16.54143
349.254	14.16097
349.467	15.20248
349.681	14.89541
349.894	14.45013
350.107	17.72026
350.32	18.33022
350.534	14.86144
350.747	15.88098
350.96	15.30302
351.173	15.53828
351.386	15.86093
351.6	15.30652
351.813	15.55521
352.026	15.99129
352.239	15.30356
352.452	15.33412
352.665	17.65013
352.878	15.7564
353.092	18.6861
353.305	17.08421
353.518	15.9569
353.731	14.88046
353.944	17.16692
354.157	15.72251
354.37	15.94402
354.583	14.33029
354.796	15.32746
355.009	17.5948
355.222	16.51711
355.435	16.3893
355.647	18.07048
355.86	15.80773
356.073	16.69992
356.286	16.26535
356.499	17.76622
356.712	17.65849
356.925	17.32772
357.138	17.71574
357.35	15.77899
357.563	16.43791
357.776	17.05119
357.989	17.15647
358.201	17.67717
358.414	17.15652
358.627	18.57097
358.84	16.8116
359.052	15.48408
359.265	16.17125
359.478	17.65772
359.69	14.21701
359.903	17.70986
360.116	18.13888
360.328	15.45106
360.541	17.95869
360.753	17.13341
360.966	16.98958
361.179	17.30529
361.391	17.18751
361.604	16.8064
361.816	17.36817
362.029	17.39991
362.241	16.92791
362.454	17.66656
362.666	16.73065
362.879	18.24193
363.091	17.40507
363.304	17.26971
363.516	17.35828
363.728	16.33009
363.941	17.55582
364.153	17.95006
364.366	15.51956
364.578	16.25883
364.79	17.5996
365.003	17.68361
365.215	16.67215
365.427	17.81289
365.639	18.35793
365.852	17.50556
366.064	18.92084
366.276	16.82447
366.488	17.33213
366.701	16.90712
366.913	16.76935
367.125	16.77437
367.337	16.76117
367.549	16.46926
367.762	16.8716
367.974	17.11652
368.186	17.15802
368.398	18.19794
368.61	17.45471
368.822	17.96345
369.034	16.73124
369.246	17.86921
369.458	20.09298
369.67	16.70136
369.882	18.65288
370.094	15.21334
370.306	18.48167
370.518	16.81575
370.73	16.9556
370.942	16.77552
371.154	17.4047
371.366	17.1214
371.578	17.89599
371.79	17.42111
372.002	18.4433
372.214	19.42125
372.425	17.0323
372.637	19.5537
372.849	17.73957
373.061	15.32872
373.273	17.85588
373.484	18.16075
373.696	18.53983
373.908	15.21633
374.12	18.4199
374.331	18.34692
374.543	16.58425
374.755	16.56031
374.967	17.41077
375.178	18.90602
375.39	17.17881
375.602	17.8917
375.813	16.16377
376.025	16.50489
376.236	17.52949
376.448	18.023
376.66	17.96174
376.871	18.09126
377.083	18.76876
377.294	19.91306
377.506	17.64466
377.717	19.38276
377.929	18.36719
378.14	17.87465
378.352	18.47243
378.563	18.95005
378.775	19.55477
378.986	17.20416
379.197	17.97127
379.409	17.48433
379.62	18.85036
379.832	18.24484
380.043	18.04362
380.254	18.3365
380.466	16.97571
380.677	20.82709
380.888	20.28096
381.1	20.76247
381.311	20.7872
381.522	18.86719
381.733	20.75471
381.945	18.29346
382.156	17.96711
382.367	18.02468
382.578	21.08874
382.789	21.49875
383.001	17.53568
383.212	20.17096
383.423	20.23245
383.634	19.5422
383.845	19.23994
384.056	18.26852
384.267	18.67647
384.478	18.91669
384.69	17.66998
384.901	19.51793
385.112	19.17202
385.323	20.60501
385.534	19.05283
385.745	19.31606
385.956	19.24396
386.167	18.29939
386.378	19.47961
386.588	18.31478
386.799	17.88187
387.01	17.80755
387.221	19.73058
387.432	19.12868
387.643	20.63857
387.854	18.60141
388.065	18.81008
388.275	18.70361
388.486	18.2823
388.697	19.58101
388.908	18.62163
389.119	20.12938
389.329	20.44735
389.54	19.39194
389.751	19.66893
389.962	20.50025
390.172	19.12598
390.383	19.19686
390.594	18.50117
390.804	18.68662
391.015	18.80734
391.226	19.65658
391.436	20.20846
391.647	20.09397
391.858	20.18949
392.068	18.28455
392.279	18.92826
392.489	20.33367
392.7	20.37502
392.91	19.10642
393.121	18.8547
393.331	20.22506
393.542	21.14912
393.752	20.65797
393.963	20.4499
394.173	20.21269
394.384	20.61282
394.594	20.19957
394.804	19.13268
395.015	19.901
395.225	20.54151
395.436	19.40364
395.646	20.62097
395.856	20.05544
396.067	18.69638
396.277	20.76531
396.487	20.55761
396.697	20.78441
396.908	20.95404
397.118	20.39566
397.328	20.21055
397.538	21.03921
397.749	19.52793
397.959	21.0624
398.169	20.81031
398.379	19.19206
398.589	20.48089
398.8	20.98708
399.01	20.88433
399.22	20.22278
399.43	22.14809
399.64	20.68362
399.85	21.11248
400.06	20.84681
400.27	20.20508
400.48	20.35981
400.69	21.63647
400.9	20.47421
401.11	19.55374
401.32	21.3951
401.53	20.27188
401.74	22.02352
401.95	20.97101
402.16	20.71124
402.37	21.20975
402.58	20.85389
402.79	21.51083
403	21.84536
403.209	20.51186
403.419	22.10514
403.629	20.58069
403.839	22.49286
404.049	22.37333
404.258	21.31764
404.468	21.05454
404.678	22.29995
404.888	22.84708
405.097	21.79983
405.307	21.77147
405.517	22.38102
405.727	22.33234
405.936	21.3236
406.146	22.11116
406.356	23.12141
406.565	21.9047
406.775	21.55671
406.984	21.7579
407.194	23.89467
407.404	22.04538
407.613	22.39982
407.823	22.84864
408.032	23.16097
408.242	23.07447
408.451	21.70651
408.661	22.27589
408.87	23.66155
409.08	21.66291
409.289	22.61041
409.499	22.92017
409.708	22.45703
409.918	20.95751
410.127	22.88201
410.336	23.70742
410.546	23.39879
410.755	22.52105
410.964	22.30631
411.174	21.88691
411.383	23.31984
411.592	23.2571
411.802	22.57218
412.011	23.74548
412.22	22.97438
412.429	23.88863
412.639	24.66524
412.848	23.89525
413.057	24.79136
413.266	24.15791
413.475	23.32907
413.685	24.23421
413.894	24.22564
414.103	24.44683
414.312	23.92236
414.521	23.62466
414.73	24.07964
414.939	25.4332
415.148	24.74215
415.357	24.15528
415.566	24.17715
415.776	23.92713
415.985	24.16233
416.194	25.06231
416.403	26.32882
416.611	23.54455
416.82	24.03786
417.029	25.0051
417.238	24.17508
417.447	24.40462
417.656	24.73062
417.865	24.50889
418.074	24.92807
418.283	25.1949
418.492	26.01757
418.7	25.89077
418.909	26.93494
419.118	25.67278
419.327	26.3234
419.536	26.00041
419.744	25.79786
419.953	27.80405
420.162	28.25183
420.371	27.98804
420.579	29.61848
420.788	30.70718
420.997	30.79508
421.205	31.7976
421.414	31.32429
421.623	31.67188
421.831	30.92118
422.04	31.39095
422.249	30.12745
422.457	30.19396
422.666	28.69115
422.874	29.93312
423.083	30.26425
423.291	30.44995
423.5	30.86129
423.708	31.69356
423.917	32.5329
424.125	31.9541
424.334	31.77379
424.542	34.02265
424.751	33.22854
424.959	32.38506
425.167	32.22202
425.376	31.83345
425.584	29.49296
425.793	29.1303
426.001	27.66068
426.209	28.35024
426.418	27.43639
426.626	27.20686
426.834	27.37048
427.042	27.98539
427.251	27.40796
427.459	28.48712
427.667	28.22126
427.875	26.79402
428.084	27.64631
428.292	28.85587
428.5	28.46764
428.708	27.11252
428.916	27.41388
429.124	28.10313
429.333	27.76116
429.541	27.73837
429.749	27.84558
429.957	28.0083
430.165	30.30111
430.373	26.88917
430.581	28.20207
430.789	29.33491
430.997	28.03852
431.205	27.42207
431.413	28.50772
431.621	28.20769
431.829	28.84517
432.037	28.33479
432.245	28.88269
432.453	29.13565
432.661	28.3848
432.869	30.31754
433.076	28.06988
433.284	28.38588
433.492	29.44842
433.7	29.95179
433.908	28.7213
434.116	29.22728
434.323	29.35123
434.531	29.25238
434.739	29.48653
434.947	29.91009
435.154	29.96042
435.362	29.2979
435.57	29.21492
435.778	28.85698
435.985	29.66596
436.193	29.02231
436.401	30.43026
436.608	29.62058
436.816	28.91017
437.023	30.71163
437.231	31.03073
437.439	29.70968
437.646	30.43018
437.854	30.08528
438.061	30.44512
438.269	29.80544
438.476	30.50078
438.684	29.85277
438.891	29.70023
439.099	29.69884
439.306	29.01812
439.514	29.34957
439.721	30.53513
439.929	29.62798
440.136	30.63059
440.343	30.60758
440.551	30.43212
440.758	32.27885
440.965	31.03214
441.173	30.6743
441.38	30.36173
441.587	30.75143
441.795	30.17447
442.002	30.54003
442.209	30.79202
442.416	31.15478
442.624	31.02029
442.831	31.00706
443.038	30.28594
443.245	30.01322
443.452	30.44428
443.66	31.25174
443.867	30.29902
444.074	30.14991
444.281	30.08636
444.488	30.44917
444.695	30.72152
444.902	30.40481
445.109	31.26521
445.316	30.66931
445.523	31.7746
445.73	32.62921
445.937	34.08844
446.144	35.18093
446.351	36.21991
446.558	34.36962
446.765	37.75255
446.972	35.8835
447.179	35.47094
447.386	35.38771
447.593	32.512
447.8	33.81452
448.007	31.39008
448.214	31.48317
448.42	31.33364
448.627	32.53938
448.834	31.51327
449.041	31.408
449.248	31.52303
449.454	32.46151
449.661	32.90944
449.868	31.50112
450.075	31.37706
450.281	30.5922
450.488	30.90006
450.695	30.91112
450.901	30.88957
451.108	31.34835
451.315	32.32093
451.521	31.62543
451.728	32.3797
451.935	31.31911
452.141	31.10011
452.348	31.75478
452.554	31.74877
452.761	31.65137
452.967	33.3647
453.174	32.21409
453.38	32.15485
453.587	31.17866
453.793	32.52868
454	32.62241
454.206	33.88429
454.413	33.09805
454.619	32.9109
454.825	31.85115
455.032	32.58598
455.238	32.72894
455.445	31.32571
455.651	32.3923
455.857	30.91465
456.064	32.37765
456.27	32.40406
456.476	32.1588
456.682	31.45963
456.889	32.6227
457.095	32.9514
457.301	33.99803
457.507	32.36624
457.714	32.50255
457.92	32.6401
458.126	31.87901
458.332	32.74574
458.538	32.19509
458.744	32.24768
458.951	32.15456
459.157	33.85452
459.363	34.02757
459.569	34.77765
459.775	35.25793
459.981	36.11092
460.187	36.6112
460.393	36.0241
460.599	35.52744
460.805	33.99702
461.011	33.32771
461.217	34.30588
461.423	34.57028
461.629	33.52931
461.835	34.08152
462.041	33.75795
462.247	34.87099
462.453	33.48283
462.658	32.95418
462.864	33.75817
463.07	33.78675
463.276	33.54252
463.482	33.56418
463.688	34.88266
463.893	33.07482
464.099	33.19743
464.305	34.60768
464.511	33.43598
464.716	33.12187
464.922	34.28391
465.128	32.72022
465.333	35.04537
465.539	34.39452
465.745	33.82731
465.95	33.79434
466.156	35.89555
466.362	34.68987
466.567	33.82852
466.773	33.6647
466.978	34.86442
467.184	33.42548
467.389	32.83531
467.595	34.14089
467.8	33.30194
468.006	35.23205
468.211	35.17849
468.417	33.50774
468.622	34.63061
468.828	34.89398
469.033	34.71714
469.239	36.76705
469.444	33.97346
469.649	34.96529
469.855	34.39858
470.06	34.25983
470.266	33.75409
470.471	35.13202
470.676	34.81424
470.881	32.84337
471.087	35.96192
471.292	36.35532
471.497	33.77091
471.703	34.26121
471.908	34.28154
472.113	34.71835
472.318	35.38394
472.523	33.92228
472.729	35.12068
472.934	34.96958
473.139	34.5587
473.344	35.01464
473.549	35.80825
473.754	34.13611
473.959	36.58846
474.164	34.42532
474.369	34.89616
474.575	35.77876
474.78	35.1809
474.985	34.52907
475.19	33.57281
475.395	34.92727
475.6	35.21933
475.804	36.44654
476.009	35.43275
476.214	35.18815
476.419	34.779
476.624	33.99324
476.829	34.69356
477.034	35.94944
477.239	34.65188
477.444	36.09585
477.648	35.90121
477.853	35.90829
478.058	35.23467
478.263	35.00404
478.468	34.84147
478.672	34.99282
478.877	36.79264
479.082	37.06584
479.287	36.17873
479.491	35.77731
479.696	35.00928
479.901	36.53678
480.105	36.2688
480.31	35.16628
480.515	35.70858
480.719	37.74264
480.924	35.38005
481.128	35.02929
481.333	36.19721
481.538	36.15999
481.742	35.60205
481.947	37.49501
482.151	40.47573
482.356	44.22218
482.56	51.52572
482.765	58.07986
482.969	67.87779
483.174	76.6814
483.378	87.28405
483.582	91.2537
483.787	95.65315
483.991	97.42801
484.196	97.33412
484.4	95.74762
484.604	93.74271
484.809	87.01166
485.013	80.67925
485.217	72.70844
485.422	64.91519
485.626	58.99556
485.83	55.9585
486.034	54.79708
486.239	56.15909
486.443	58.54565
486.647	60.89626
486.851	64.43735
487.055	68.93638
487.26	70.69056
487.464	73.53895
487.668	72.98522
487.872	74.36806
488.076	73.45535
488.28	70.76357
488.484	65.74687
488.688	63.2272
488.892	59.13092
489.096	54.59394
489.3	50.61469
489.504	47.10476
489.708	44.44461
489.912	43.58092
490.116	43.32464
490.32	44.31479
490.524	47.60526
490.728	50.90626
490.932	54.73428
491.136	58.26144
491.34	61.20163
491.544	62.54073
491.748	63.09466
491.951	62.02651
492.155	60.14292
492.359	58.01391
492.563	53.17576
492.767	49.36713
492.97	43.94886
493.174	39.26465
493.378	37.46761
493.582	36.96332
493.785	37.57173
493.989	37.55992
494.193	37.56437
494.396	37.04614
494.6	37.93366
494.804	37.24433
495.007	36.97083
495.211	37.22659
495.414	37.04821
495.618	37.43904
495.822	38.2008
496.025	37.22492
496.229	38.0413
496.432	36.91628
496.636	37.45411
496.839	37.56104
497.043	38.41947
497.246	37.57819
497.45	37.48822
497.653	37.92337
497.856	37.98006
498.06	37.22571
498.263	37.57509
498.467	37.79533
498.67	38.42923
498.873	38.05967
499.077	37.76934
499.28	38.03429
499.483	38.15304
499.686	38.69066
499.89	37.88921
500.093	38.4388
500.296	37.34653
500.499	39.05657
500.703	37.68494
500.906	38.15268
501.109	39.04016
501.312	38.0936
501.515	38.15794
501.719	38.42036
501.922	38.88636
502.125	37.85688
502.328	38.23157
502.531	37.1261
502.734	38.1364
502.937	36.91713
503.14	38.38106
503.343	37.6211
503.546	37.96038
503.749	37.74501
503.952	38.55333
504.155	37.52644
504.358	38.50658
504.561	38.32916
504.764	37.4887
504.967	38.77412
505.17	38.36396
505.373	39.40203
505.576	38.29205
505.778	38.9286
505.981	37.91171
506.184	39.50592
506.387	37.20552
506.59	39.75771
506.793	39.43028
506.995	38.43701
507.198	37.29173
507.401	38.8386
507.604	38.85137
507.806	37.68841
508.009	38.24267
508.212	39.11152
508.414	38.6317
508.617	38.2444
508.82	38.91466
509.022	39.75799
509.225	38.91608
509.427	37.77202
509.63	39.75532
509.833	38.7727
510.035	38.51539
510.238	37.8393
510.44	39.83284
510.643	37.72512
510.845	40.45892
511.048	39.45633
511.25	38.67342
511.453	38.67714
511.655	39.19139
511.858	38.91021
512.06	39.69128
512.262	38.96492
512.465	39.65172
512.667	39.01708
512.869	38.3989
513.072	39.53984
513.274	39.83785
513.476	39.91372
513.679	40.11422
513.881	38.39239
514.083	40.38916
514.286	39.03979
514.488	38.89475
514.69	38.31332
514.892	38.20524
515.094	40.06583
515.297	38.64113
515.499	39.19099
515.701	38.77991
515.903	40.55249
516.105	40.70361
516.307	39.57801
516.509	38.23948
516.711	38.59136
516.913	39.45671
517.116	39.60777
517.318	38.96526
517.52	40.16298
517.722	39.87547
517.924	38.6532
518.126	39.76891
518.328	39.01837
518.529	40.049
518.731	40.84404
518.933	39.3302
519.135	39.63786
519.337	40.67603
519.539	39.99914
519.741	38.83607
519.943	39.67519
520.145	40.01119
520.346	40.61797
520.548	39.87043
520.75	40.19026
520.952	39.75767
521.153	40.4609
521.355	40.51906
521.557	39.46259
521.759	40.22068
521.96	39.96456
522.162	39.42681
522.364	40.83478
522.565	39.63584
522.767	40.48839
522.969	40.78533
523.17	40.40812
523.372	40.35263
523.573	39.74005
523.775	40.05114
523.977	39.3587
524.178	41.34335
524.38	39.50783
524.581	40.61034
524.783	39.74024
524.984	40.40784
525.186	40.15542
525.387	40.39062
525.589	40.12766
525.79	39.91629
525.991	40.03684
526.193	41.17434
526.394	40.51242
526.596	41.9494
526.797	43.20727
526.998	43.32378
527.2	46.64265
527.401	52.33592
527.602	57.41177
527.803	65.24987
528.005	71.11451
528.206	76.18411
528.407	79.82005
528.608	81.12104
528.81	81.77139
529.011	80.03264
529.212	79.69961
529.413	74.80751
529.614	69.30064
529.815	63.66465
530.017	57.65617
530.218	51.33362
530.419	46.42305
530.62	43.78774
530.821	41.96231
531.022	39.95187
531.223	40.94281
531.424	41.10893
531.625	41.14208
531.826	41.00817
532.027	42.67135
532.228	46.19955
532.429	48.89133
532.63	51.2588
532.831	54.44396
533.032	55.12056
533.233	57.02935
533.433	55.94018
533.634	56.00708
533.835	53.7257
534.036	51.63941
534.237	48.3756
534.438	45.35545
534.638	41.1482
534.839	41.20558
535.04	41.79035
535.241	40.86498
535.441	42.29744
535.642	41.4611
535.843	39.96815
536.043	40.40752
536.244	40.34468
536.445	40.79479
536.645	41.73758
536.846	41.31443
537.047	41.92997
537.247	40.57024
537.448	41.04575
537.648	41.47396
537.849	41.10279
538.049	41.27335
538.25	41.90879
538.451	41.82536
538.651	40.68125
538.851	41.38355
539.052	42.26879
539.252	41.71026
539.453	41.21976
539.653	41.48698
539.854	40.88898
540.054	41.10269
540.254	43.78527
540.455	48.52428
540.655	51.55208
540.855	56.86926
541.056	59.88154
541.256	60.86947
541.456	62.06355
541.657	61.81708
541.857	61.76823
542.057	58.54347
542.257	56.43118
542.458	54.61064
542.658	50.78897
542.858	46.54964
543.058	44.7312
543.258	42.93972
543.458	41.13201
543.659	40.7515
543.859	41.88989
544.059	41.99833
544.259	41.35086
544.459	42.31687
544.659	41.15847
544.859	41.73706
545.059	41.16527
545.259	42.28957
545.459	41.82125
545.659	42.29106
545.859	41.77601
546.059	41.39004
546.259	40.87251
546.459	40.61204
546.659	40.80527
546.859	42.08966
547.059	41.65165
547.258	42.08961
547.458	42.02504
547.658	41.35465
547.858	41.27507
548.058	42.15212
548.258	41.84929
548.457	41.00183
548.657	44.17331
548.857	41.43917
549.057	42.269
549.256	42.60701
549.456	41.42612
549.656	40.44326
549.855	43.7966
550.055	41.6167
550.255	43.3641
550.454	42.36639
550.654	42.36296
550.853	43.057
551.053	42.09467
551.253	41.70794
551.452	42.23486
551.652	40.5204
551.851	40.21318
552.051	41.22319
552.25	40.92383
552.45	41.26578
552.649	41.5032
552.849	41.2799
553.048	41.87755
553.248	42.61215
553.447	41.2167
553.646	42.83306
553.846	43.77171
554.045	43.18789
554.244	41.00415
554.444	43.42071
554.643	41.49461
554.842	43.47048
555.042	44.70635
555.241	41.31379
555.44	40.61523
555.64	42.77702
555.839	44.34446
556.038	42.86657
556.237	41.65602
556.436	42.62582
556.636	42.39575
556.835	41.20879
557.034	43.77015
557.233	42.35397
557.432	40.68728
557.631	42.97855
557.83	41.9306
558.029	41.60084
558.228	41.56483
558.427	41.50028
558.626	42.92117
558.825	41.87928
559.024	42.26619
559.223	43.65565
559.422	41.82211
559.621	42.89012
559.82	39.66225
560.019	42.32232
560.218	41.87486
560.417	39.70409
560.616	41.3982
560.815	45.79477
561.014	41.20072
561.212	44.29498
561.411	42.57083
561.61	40.81934
561.809	42.33548
562.008	43.89682
562.206	42.22429
562.405	43.22273
562.604	42.56486
562.803	42.7091
563.001	42.58758
563.2	41.12039
563.399	43.00505
563.597	41.33928
563.796	42.59677
563.995	41.41511
564.193	43.5532
564.392	42.32265
564.59	44.88417
564.789	41.30781
564.988	41.99731
565.186	42.42967
565.385	42.22057
565.583	42.23444
565.782	42.16815
565.98	42.27851
566.179	42.58833
566.377	41.81622
566.575	41.95463
566.774	44.23131
566.972	43.56281
567.171	45.02545
567.369	44.83288
567.567	43.53031
567.766	43.62479
567.964	41.72165
568.162	43.48381
568.361	43.89413
568.559	42.78375
568.757	43.63347
568.956	43.25468
569.154	43.04881
569.352	44.05604
569.55	42.81535
569.748	42.72469
569.947	42.4379
570.145	42.40353
570.343	42.57024
570.541	44.32085
570.739	41.8536
570.937	42.85738
571.135	43.11092
571.333	44.64402
571.532	44.55321
571.73	43.13076
571.928	43.78546
572.126	43.37447
572.324	42.43562
572.522	43.87546
572.72	46.04255
572.918	43.14276
573.116	43.66796
573.313	43.36742
573.511	43.06218
573.709	42.43549
573.907	44.19916
574.105	42.79137
574.303	41.88757
574.501	41.65936
574.699	43.54784
574.896	43.70701
575.094	43.72722
575.292	42.20382
575.49	43.87911
575.688	43.2986
575.885	44.49636
576.083	45.45377
576.281	44.12246
576.478	42.61109
576.676	43.76394
576.874	41.89751
577.071	43.46497
577.269	46.17901
577.467	43.78996
577.664	43.51168
577.862	45.34305
578.059	42.41927
578.257	44.54025
578.455	43.16283
578.652	43.7222
578.85	41.49361
579.047	43.93603
579.245	43.41334
579.442	43.44373
579.64	43.60426
579.837	41.6543
580.034	47.00737
580.232	43.49366
580.429	41.64813
580.627	43.92358
580.824	45.38351
581.021	43.99491
581.219	42.84748
581.416	42.37845
581.613	45.44615
581.811	45.15006
582.008	42.7642
582.205	44.31261
582.402	43.78577
582.6	45.54636
582.797	43.14404
582.994	44.09171
583.191	44.36804
583.388	43.38284
583.586	44.94935
583.783	44.79298
583.98	43.13963
584.177	43.48054
584.374	39.87387
584.571	43.74791
584.768	43.29338
584.965	42.58527
585.162	43.84324
585.359	45.55405
585.556	43.60827
585.753	44.25276
585.95	42.15288
586.147	42.3769
586.344	43.85145
586.541	43.4544
586.738	42.26475
586.935	43.32912
587.132	42.68511
587.329	44.98695
587.526	43.13973
587.722	50.17062
587.919	42.37524
588.116	45.15636
588.313	45.6027
588.51	46.84853
588.706	43.49585
588.903	44.68888
589.1	44.84372
589.297	46.15827
589.493	43.95869
589.69	44.83797
589.887	42.93766
590.083	42.92129
590.28	43.3036
590.477	45.24754
590.673	45.3489
590.87	46.04008
591.067	43.93924
591.263	44.50089
591.46	45.06529
591.656	43.32848
591.853	45.65994
592.049	42.43911
592.246	43.11335
592.442	45.48816
592.639	45.02319
592.835	43.21739
593.032	44.48593
593.228	42.24116
593.425	42.04598
593.621	41.67892
593.817	44.39871
594.014	43.01975
594.21	44.30994
594.406	45.59704
594.603	44.79735
594.799	43.45992
594.995	41.6723
595.192	45.75292
595.388	43.52602
595.584	43.7474
595.78	42.03137
595.977	46.86871
596.173	46.18698
596.369	43.85671
596.565	42.68241
596.761	42.44149
596.957	45.47091
597.154	43.41521
597.35	43.71241
597.546	43.50423
597.742	45.1572
597.938	44.54847
598.134	43.63822
598.33	45.04224
598.526	46.51831
598.722	44.87366
598.918	46.39175
599.114	45.09603
599.31	42.85197
599.506	44.18618
599.702	43.13487
599.898	44.15521
600.094	44.90682
600.29	45.09485
600.485	46.27823
600.681	42.94702
600.877	46.77377
601.073	44.16317
601.269	46.82761
601.465	46.16406
601.66	43.63719
601.856	41.55801
602.052	46.59931
602.248	43.8365
602.443	42.20178
602.639	42.28867
602.835	43.49899
603.03	42.71768
603.226	45.5247
603.422	43.3789
603.617	43.63321
603.813	44.25135
604.009	43.47
604.204	45.70042
604.4	42.86232
604.595	45.63461
604.791	43.48084
604.986	45.07792
605.182	43.48399
605.377	44.6511
605.573	44.05855
605.768	44.86429
605.964	45.68709
606.159	45.71057
606.355	46.69199
606.55	43.87004
606.746	46.04489
606.941	44.57979
607.136	47.18562
607.332	49.2875
607.527	42.3591
607.722	44.81928
607.918	44.48519
608.113	43.71891
608.308	45.72443
608.503	45.04709
608.699	44.96322
608.894	45.38899
609.089	43.43002
609.284	44.64117
609.479	44.19043
609.675	45.50517
609.87	43.96539
610.065	46.10269
610.26	45.97975
610.455	45.84774
610.65	44.56219
610.845	45.11725
611.04	46.39594
611.235	44.80302
611.43	44.5736
611.625	43.51333
611.82	47.20999
612.015	43.83628
612.21	46.95377
612.405	42.53517
612.6	47.38254
612.795	46.73932
612.99	45.5057
613.185	43.37765
613.38	43.5703
613.575	44.92216
613.77	49.89047
613.965	42.46866
614.159	43.10755
614.354	47.16054
614.549	46.5573
614.744	46.47213
614.938	43.08127
615.133	43.12822
615.328	47.19797
615.523	46.52091
615.717	50.23114
615.912	44.26458
616.107	45.27171
616.301	44.18102
616.496	44.3432
616.691	47.32997
616.885	46.35913
617.08	50.26802
617.274	46.44015
617.469	48.55955
617.664	46.33356
617.858	44.65536
618.053	46.02583
618.247	44.54437
618.442	41.09484
618.636	47.56833
618.831	44.48753
619.025	44.10755
619.219	49.58445
619.414	40.03661
619.608	45.45688
619.803	44.21168
619.997	48.32498
620.191	47.31416
620.386	45.45422
620.58	44.9797
620.774	42.30887
620.969	43.08778
621.163	46.08604
621.357	43.5154
621.551	44.49453
621.746	45.51918
621.94	44.97
622.134	51.23319
622.328	49.52091
622.522	43.27322
622.716	47.39428
622.911	47.44013
623.105	47.40112
623.299	46.78287
623.493	50.7716
623.687	43.94831
623.881	44.84727
624.075	46.62609
624.269	48.24574
624.463	41.88605
624.657	42.92518
624.851	46.30842
625.045	46.98897
625.239	47.67373
625.433	46.06644
625.627	48.12092
625.821	44.56291
626.015	44.66943
626.209	46.46547
626.403	43.81789
626.596	46.76372
626.79	47.09493
626.984	44.29211
627.178	46.85106
627.372	46.93246
627.565	47.0271
627.759	43.18928
627.953	44.36537
628.147	47.16037
628.34	47.56136
628.534	49.93589
628.728	45.52776
628.921	46.84186
629.115	46.26069
629.309	47.43414
629.502	48.38437
629.696	46.66137
629.89	46.12165
630.083	46.02033
630.277	46.78428
630.47	49.65065
630.664	45.92082
630.857	43.09231
631.051	47.31333
631.244	48.79329
631.438	47.4652
631.631	43.8642
631.825	48.91954
632.018	48.04157
632.212	49.4551
632.405	47.82992
632.598	45.15511
632.792	46.76331
632.985	42.21133
633.178	46.1577
633.372	45.61185
633.565	45.92054
633.758	48.73543
633.952	44.26993
634.145	44.31059
634.338	45.81788
634.531	44.69914
634.724	45.51037
634.918	46.67258
635.111	45.54095
635.304	45.26812
635.497	51.02681
635.69	47.71477
635.883	49.16649
636.077	44.11253
636.27	46.80957
636.463	46.98095
636.656	46.832
636.849	46.61763
637.042	48.28409
637.235	49.69644
637.428	49.14904
637.621	49.07189
637.814	49.57623
638.007	49.91533
638.2	49.32548
638.393	50.96537
638.586	43.82348
638.778	45.32165
638.971	46.87041
639.164	49.83235
639.357	47.35747
639.55	50.20011
639.743	48.82152
639.935	48.54426
640.128	51.31267
640.321	48.75964
640.514	46.57535
640.707	53.30345
640.899	48.60564
641.092	43.19984
641.285	65.59498
641.477	42.3685
641.67	52.97133
641.863	50.51252
642.055	47.92516
642.248	46.6837
642.441	44.97637
642.633	48.82645
642.826	49.84604
643.018	51.24508
643.211	52.44131
643.403	51.81908
643.596	52.81785
643.788	52.0462
643.981	46.76684
644.173	49.91722
644.366	47.98806
644.558	41.59151
644.751	49.80956
644.943	43.95629
645.135	51.87408
645.328	52.11644
645.52	48.75085
645.712	50.75119
645.905	54.88626
646.097	45.34878
646.289	48.5331
646.482	53.71463
646.674	46.08775
646.866	51.33564
647.058	49.51218
647.251	45.63015
647.443	46.83181
647.635	47.56128
647.827	44.3415
648.019	45.73059
648.211	47.37814
648.404	48.1629
648.596	51.4732
648.788	48.63559
648.98	48.58685
649.172	49.32362
649.364	49.63676
649.556	43.67529
649.748	56.29757
649.94	46.79011
650.132	49.6107
650.324	46.03146
650.516	47.01238
650.708	51.04543
650.9	45.22307
651.092	44.68694
651.284	44.89349
651.476	45.79398
651.667	49.93662
651.859	52.58041
652.051	47.15387
652.243	47.43927
652.435	46.85049
652.627	50.15908
652.818	50.09182
653.01	44.95415
653.202	45.41094
653.394	46.80043
653.585	49.05281
653.777	60.80878
653.969	52.27786
654.16	51.98563
654.352	45.79116
654.544	48.32251
654.735	51.24849
654.927	49.45747
655.118	53.2256
655.31	49.7619
655.502	52.66755
655.693	47.50087
655.885	50.83925
656.076	51.96533
656.268	49.69969
656.459	52.95684
656.651	52.63815
656.842	47.57587
657.034	46.52006
657.225	51.12481
657.416	52.75687
657.608	52.51497
657.799	48.99152
657.99	53.21175
658.182	48.43025
658.373	47.85603
658.564	51.80452
658.756	49.65868
658.947	48.9307
659.138	46.50292
659.33	48.26005
659.521	47.51813
659.712	49.21702
659.903	48.80624
660.094	48.27079
660.286	46.15167
660.477	55.03837
660.668	51.91542
660.859	49.9462
661.05	45.81139
661.241	51.93819
661.432	51.20215
661.623	49.25689
661.814	48.57741
662.006	44.75042
662.197	50.27839
662.388	54.69622
662.579	50.28813
662.77	54.03781
662.96	58.06782
663.151	52.56883
663.342	45.67176
663.533	52.29466
663.724	50.33435
663.915	55.9955
664.106	49.63861
664.297	55.82647
664.488	52.4747
664.678	48.29628
664.869	52.10403
665.06	53.30958
665.251	51.69016
665.442	52.89981
665.632	47.14934
665.823	56.91031
666.014	41.64779
666.204	52.27375
666.395	54.29366
666.586	59.00337
666.776	52.81919
666.967	55.68716
667.158	49.91556
667.348	54.41642
667.539	46.56849
667.729	53.6866
667.92	47.36741
668.111	54.49424
668.301	52.45482
668.492	50.251
668.682	51.03292
668.873	51.53906
669.063	47.14423
669.253	51.50055
669.444	54.08889
669.634	50.32673
669.825	57.80422
670.015	54.30761
670.206	48.78786
670.396	57.7338
670.586	51.26063
670.777	53.31691
670.967	44.85767
671.157	50.05688
671.347	49.45633
671.538	55.98608
671.728	54.11737
671.918	58.00135
672.108	54.001
672.299	50.41606
672.489	53.46759
672.679	49.23749
672.869	53.39035
673.059	59.17431
673.249	53.50875
673.44	47.11069
673.63	50.14955
673.82	56.03014
674.01	49.58198
674.2	52.41202
674.39	63.31235
674.58	55.36993
674.77	52.27391
674.96	51.39376
675.15	66.66032
675.34	57.3058
675.53	51.70309
675.72	51.03687
675.91	47.17828
676.099	60.39515
676.289	60.45222
676.479	56.61587
676.669	51.20528
676.859	54.99771
677.049	49.44996
677.238	52.28116
677.428	59.48073
677.618	55.34348
677.808	57.8348
677.997	54.33983
678.187	48.86216
678.377	53.77954
678.567	50.95631
678.756	51.42772
678.946	51.87119
679.136	48.30787
679.325	50.00572
679.515	49.32498
679.704	48.51859
679.894	55.37955
680.084	52.91972
680.273	56.79298
680.463	51.99581
680.652	50.7646
680.842	53.01387
681.031	56.21365
681.221	51.44047
681.41	55.81307
681.6	52.2846
681.789	56.39457
681.978	58.57857
682.168	55.2479
682.357	53.86612
682.547	56.17816
682.736	54.18471
682.925	59.15364
683.115	57.85412
683.304	56.77402
683.493	56.20625
683.682	55.80971
683.872	56.62002
684.061	59.11476
684.25	57.02362
684.439	63.13292
684.629	56.10907
684.818	66.93843
685.007	54.10757
685.196	53.123
685.385	61.55209
685.574	55.41489
685.763	56.65832
685.952	55.2902
686.142	51.58684
686.331	59.65328
686.52	47.74518
686.709	62.03654
686.898	61.42628
687.087	57.69392
687.276	60.59048
687.465	59.87178
687.654	54.46633
687.842	62.26243
688.031	50.55865
688.22	59.63946
688.409	56.88977
688.598	56.58933
688.787	66.63904
688.976	57.14743
689.165	65.12289
689.353	53.09321
689.542	58.60829
689.731	59.4104
689.92	63.80261
690.108	59.09966
690.297	54.49332
690.486	55.66765
690.675	60.49097
690.863	64.52988
691.052	62.79931
691.241	56.3273
691.429	57.84818
691.618	63.9524
691.806	51.86431
691.995	54.40973
692.184	58.1602
692.372	54.57313
692.561	60.08113
692.749	57.87975
692.938	68.986
693.126	59.52901
693.315	55.90145
693.503	59.78529
693.692	60.59631
693.88	62.17128
694.068	68.75502
694.257	58.60997
694.445	59.57927
694.634	48.72867
694.822	62.32104
695.01	63.42856
695.199	65.59812
695.387	65.63939
695.575	62.49604
695.763	56.34896
695.952	55.20718
696.14	52.22321
696.328	55.80224
696.516	58.14548
696.705	59.41812
696.893	58.14791
697.081	50.13847
697.269	62.07147
697.457	52.34886
697.645	51.61332
697.833	59.71515
698.021	52.58888
698.21	54.59161
698.398	55.28501
698.586	51.66428
698.774	51.98021
698.962	54.93698
699.15	52.52406
699.338	50.68794
699.526	58.65795
699.714	55.36133
699.901	55.81181
700.089	62.42022
700.277	56.09263
700.465	58.68133
700.653	62.28593
700.841	60.73663
701.029	56.93785
701.217	65.36021
701.404	60.18776
701.592	68.11107
701.78	69.60986
701.968	58.5892
702.155	58.73057
702.343	51.35325
702.531	66.77056
702.718	61.12611
702.906	59.26293
703.094	56.93784
703.281	65.95429
703.469	61.81487
703.657	64.91161
703.844	76.76271
704.032	69.63301
704.219	58.01376
704.407	62.73925
704.595	67.51
704.782	60.36847
704.97	58.60098
705.157	57.38749
705.345	68.5213
705.532	76.67004
705.719	64.28258
705.907	70.25714
706.094	62.32549
706.282	70.884
706.469	60.53355
706.656	60.85879
706.844	61.00608
707.031	68.44585
707.218	62.18834
707.406	72.017
707.593	66.35475
707.78	63.65694
707.968	62.2308
708.155	58.12175
708.342	66.50828
708.529	65.6994
708.716	63.86839
708.904	72.06661
709.091	67.52388
709.278	56.16672
709.465	76.96473
709.652	72.26736
709.839	69.67429
710.026	63.41101
710.213	52.83967
710.4	65.61448
710.587	66.26935
710.774	70.9546
710.961	68.17566
711.148	62.39922
711.335	68.26089
711.522	61.23178
711.709	64.31686
711.896	74.22434
712.083	68.58028
712.27	59.52813
712.457	63.47152
712.644	56.05855
712.831	76.92481
713.017	64.90704
713.204	69.62413
713.391	61.37916
713.578	72.09627
713.765	73.5048
713.951	66.98214
714.138	83.96536
714.325	68.40035
714.512	66.83053
714.698	60.44707
714.885	74.73577
715.072	67.55828
715.258	65.80866
715.445	61.96326
715.631	73.85313
715.818	51.95173
716.005	61.68139
716.191	69.49485
716.378	63.36725
716.564	73.37513
716.751	60.61297
716.937	64.27962
717.124	73.11951
717.31	60.65371
717.497	79.10799
717.683	63.74623
717.869	83.43707
718.056	64.11552
718.242	69.58921
718.429	67.6097
718.615	61.27322
718.801	69.29179
718.988	74.05545
719.174	73.01921
719.36	67.89604
719.547	72.83507
719.733	70.75718
719.919	70.00511
720.105	74.65528
720.291	68.23296
720.478	67.90624
720.664	67.44556
720.85	62.02998
721.036	87.06553
721.222	78.57908
721.408	69.58411
721.595	83.27193
721.781	80.62686
721.967	78.71794
722.153	81.22082
722.339	75.70117
722.525	72.64543
722.711	61.96879
722.897	61.35075
723.083	65.02111
723.269	77.03941
723.455	90.4751
723.641	96.89589
723.827	72.43897
724.012	73.56044
724.198	67.89653
724.384	80.61991
724.57	73.36058
724.756	59.24433
724.942	56.41789
725.127	76.51694
725.313	80.06562
725.499	78.74645
725.685	84.72281
725.87	70.29076
726.056	62.31403
726.242	79.56083
726.428	58.70376
726.613	77.65502
726.799	66.60065
726.985	59.33485
727.17	56.43718
727.356	81.32823
727.541	60.90824
727.727	66.57922
727.913	76.48659
728.098	65.68495
728.284	72.87181
728.469	60.21617
728.655	64.6644
728.84	76.67147
729.026	77.71838
729.211	76.75532
729.397	73.46003
729.582	74.70078
729.767	71.65203
729.953	73.9415
730.138	75.93631
730.323	54.56772
730.509	63.2028
730.694	86.62158
730.879	76.66221
731.065	71.83707
731.25	88.6869
731.435	77.89173
731.621	59.76436
731.806	66.09354
731.991	72.65623
732.176	62.71524
732.361	83.10335
732.547	77.11092
732.732	61.37785
732.917	89.18039
733.102	64.68397
733.287	64.89949
733.472	70.60985
733.657	73.49946
733.842	59.5335
734.027	70.03077
734.212	71.64699
734.397	65.6953
734.582	74.11341
734.767	83.57902
734.952	85.25641
735.137	55.3593
735.322	84.93404
735.507	76.85307
735.692	73.69432
735.877	95.76617
736.062	91.33432
736.247	77.18249
736.431	73.37473
736.616	85.48514
736.801	76.08113
736.986	73.39248
737.171	65.62808
737.355	61.76037
737.54	86.18677
737.725	73.26707
737.909	99.1886
738.094	66.01695
738.279	82.20975
738.463	69.45269
738.648	81.25362
738.833	77.8571
739.017	89.61127
739.202	70.3565
739.386	72.18261
739.571	65.83887
739.756	79.41183
739.94	75.97759
740.125	80.17984
740.309	67.75331
740.494	79.18286
740.678	74.86572
740.863	79.42109
741.047	76.7201
741.231	86.45437
741.416	66.1397
741.6	91.12994
741.785	69.73101
741.969	83.12116
742.153	83.15024
742.338	58.87819
742.522	77.55154
742.706	84.1514
742.89	61.48296
743.075	79.49215
743.259	88.30879
743.443	84.89284
743.627	92.85537
743.812	100.59253
743.996	50.76833
744.18	71.21647
744.364	73.29846
744.548	103.53664
744.732	75.03154
744.916	86.61317
745.1	88.07415
745.285	75.18244
745.469	82.66263
745.653	99.73506
745.837	63.91514
746.021	105.29556
746.205	89.33571
746.389	80.06069
746.573	77.00522
746.757	93.43625
746.94	74.95664
747.124	93.03544
747.308	67.21493
747.492	87.77314
747.676	74.01817
747.86	107.14557
748.044	72.72641
748.227	58.36909
748.411	121.40884
748.595	83.94265
748.779	67.92858
748.963	83.97101
749.146	77.56107
749.33	73.56715
749.514	71.19599
749.697	91.4575
749.881	74.53769
750.065	65.48963
750.248	77.65697
750.432	105.29927
750.616	76.77179
750.799	65.57231
750.983	103.89878
751.166	106.18629
751.35	62.64069
751.533	82.38931
751.717	95.80203
751.9	96.94524
752.084	76.43261
752.267	68.32255
752.451	71.86602
752.634	81.65789
752.818	87.94636
753.001	87.9108
753.184	91.14569
753.368	86.04121
753.551	42.20936
753.734	75.83813
753.918	106.69003
754.101	71.07756
754.284	85.77487
754.467	76.23139
754.651	72.58556
754.834	70.64603
755.017	94.24536
755.2	94.57252
755.384	70.76713
755.567	94.9817
755.75	95.71107
755.933	76.78321
756.116	88.07945
756.299	74.58293
756.482	71.18296
756.665	87.79195
756.848	78.75523
757.032	89.42933
757.215	65.70974
757.398	72.86133
757.581	68.35636
757.764	117.36329
757.947	75.65485
758.129	98.78724
758.312	51.58071
758.495	78.45164
758.678	75.44502
758.861	76.28516
759.044	103.9071
759.227	67.87481
759.41	73.43244
759.592	92.44126
759.775	83.22441
759.958	92.63788
760.141	69.24546
760.324	108.50847
760.506	102.18728
760.689	92.33226
760.872	109.14792
761.054	87.03346
761.237	79.10552
761.42	87.81113
761.602	94.74546
761.785	81.94403
761.968	95.03289
762.15	105.29749
762.333	76.69503
762.515	84.77313
762.698	72.82601
762.88	91.09142
763.063	76.05561
763.245	85.80095
763.428	66.39326
763.61	67.81706
763.793	66.19423
763.975	78.44763
764.158	71.88187
764.34	71.0823
764.522	68.32464
764.705	78.5315
764.887	96.16384
765.069	67.40426
765.252	90.60517
765.434	87.37147
765.616	82.76652
765.799	78.38417
765.981	89.75289
766.163	77.60283
766.345	98.36993
766.528	75.82421
766.71	59.23683
766.892	85.37654
767.074	100.11057
767.256	82.55955
767.438	107.63699
767.62	85.83916
767.802	115.75848
767.985	93.74612
768.167	110.42704
768.349	81.03146
768.531	97.86969
768.713	93.54191
768.895	102.67077
769.077	89.62554
769.259	125.57618
769.441	157.54376
769.623	102.43011
769.804	116.7641
769.986	112.8865
770.168	130.23215
770.35	154.50626
770.532	121.9726
770.714	120.02538
770.896	130.92346
771.077	72.02437
771.259	135.77622
771.441	120.22628
771.623	143.12755
771.804	157.54831
771.986	70.83453
772.168	94.8574
772.35	132.00496
772.531	168.8919
772.713	104.87129
772.894	137.95423
773.076	100.57336
773.258	101.5118
773.439	142.61699
773.621	154.00948
773.802	84.40899
773.984	101.17187
774.166	114.85389
774.347	156.46411
774.529	140.98592
774.71	65.71198
774.891	112.52398
775.073	106.75836
775.254	148.40473
775.436	92.66692
775.617	167.06669
775.799	103.18878
775.98	150.27942
776.161	166.0531
776.343	151.94407
776.524	112.57969
776.705	105.1113
776.886	70.29054
777.068	127.0061
777.249	179.25406
777.43	163.1406
777.611	85.56774
777.793	113.99687
777.974	148.39548
778.155	98.53059
778.336	87.22625
778.517	161.90923
778.698	90.33607
778.879	73.76353
779.061	51.01596
779.242	128.726
779.423	130.46434
779.604	104.22085
779.785	112.33075
779.966	124.50066
780.147	140.76904
780.328	144.49231
780.509	179.25127
780.69	146.24391
780.871	99.02069
781.051	75.08849
781.232	123.11318
781.413	119.0073
781.594	106.06779
781.775	105.15148
781.956	95.73918
782.137	76.48105
782.317	102.25035
782.498	118.11695
782.679	128.66856
782.86	117.73135
783.04	109.59066
783.221	132.56688
783.402	162.45458
783.583	118.02983
783.763	135.89394
783.944	108.65852
784.124	87.30722
784.305	160.09967
784.486	128.76928
784.666	117.39038
784.847	83.74149
785.027	209.66159
785.208	103.78694
785.388	99.63292
785.569	104.24995
785.749	110.04351
785.93	99.37609
786.11	79.3523
786.291	131.97598
786.471	120.77795
786.652	143.34231
786.832	111.44061
787.012	118.73792
787.193	86.45191
787.373	122.41661
787.553	102.41538
787.734	123.64446
787.914	100.63795
788.094	121.04344
788.275	123.87876
788.455	105.25926
788.635	80.85874
788.815	115.50936
788.995	85.60693
789.176	78.255
789.356	95.10186
789.536	104.4094
789.716	122.58322
789.896	95.3285
790.076	98.66556
790.256	113.80203
790.436	64.60387
790.616	97.82353
790.796	118.97553
790.976	102.26874
791.156	96.20885
791.336	131.0409
791.516	117.99535
791.696	106.73672
791.876	81.20979
792.056	118.02844
792.236	132.29825
792.416	134.40618
792.596	123.72923
792.776	132.64743
792.956	130.97697
793.135	157.9805
793.315	93.25125
793.495	143.48179
793.675	140.14331
793.854	130.50706
794.034	136.56496
794.214	87.64706
794.394	134.55884
794.573	149.55593
794.753	117.12212
794.933	95.55214
795.112	114.13833
795.292	127.76341
795.472	157.46845
795.651	81.29343
795.831	111.34735
796.01	98.9357
796.19	100.04792
796.369	111.07922
796.549	133.49924
796.728	106.98806
796.908	82.9118
797.087	90.43057
797.267	113.26522
797.446	87.81631
797.626	126.56808
797.805	122.34947
797.984	95.94553
798.164	128.16839
798.343	88.27252
798.522	118.32799
798.702	116.15767
798.881	86.13195
799.06	114.94054
799.239	75.09543
799.419	88.68878
799.598	154.17246
799.777	127.1646
799.956	149.27857
800.136	98.21563
800.315	107.65807
800.494	122.8255
800.673	142.77564
800.852	137.16502
801.031	148.04547
801.21	132.75012
801.389	103.36202
801.568	129.22031
801.747	173.53409
801.926	115.52464
802.105	152.87839
802.284	106.13331
802.463	155.60974
802.642	131.75081
802.821	124.53827
803	152.37432
803.179	140.80178
803.358	153.95743
803.537	105.13943
803.716	133.34347
803.895	95.27181
804.073	121.27781
804.252	106.81587
804.431	131.55275
804.61	117.66196
804.789	140.62417
804.967	104.21173
805.146	107.81277
805.325	179.97807
805.503	136.21968
805.682	78.45356
805.861	195.79367
806.039	154.92757
806.218	108.75568
806.397	126.30465
806.575	126.96171
806.754	117.68973
806.932	98.48719
807.111	166.06488
807.289	142.35627
807.468	127.70491
807.646	140.79332
807.825	132.02999
808.003	136.4067
808.182	144.40286
808.36	127.27267
808.539	96.32043
808.717	160.78591
808.895	95.78799
809.074	131.57292
809.252	118.48925
809.43	144.08792
809.609	158.79366
809.787	173.11866
809.965	124.68484
810.144	119.04709
810.322	124.6462
810.5	143.94907
810.678	123.86026
810.856	187.92407
811.035	160.47015
811.213	153.17203
811.391	166.38663
811.569	128.41181
811.747	240.80716
811.925	183.85532
812.103	111.75947
812.281	120.20243
812.459	205.3434
812.637	170.95646
812.816	154.57582
812.994	193.52443
813.171	162.98986
813.349	143.60073
813.527	173.84556
813.705	179.20227
813.883	193.50721
814.061	166.94308
814.239	187.24244
814.417	207.7839
814.595	144.21208
814.773	149.95745
814.95	142.99488
815.128	148.4976
815.306	131.96488
815.484	125.2831
815.662	108.5894
815.839	98.37855
816.017	110.76845
816.195	156.83912
816.372	125.71869
816.55	173.01398
816.728	182.70258
816.905	125.17396
817.083	165.46543
817.261	136.91217
817.438	234.75338
817.616	195.21082
817.793	124.52888
817.971	158.01683
818.148	160.31116
818.326	171.58073
818.503	144.95354
818.681	182.97894
818.858	119.09321
819.036	130.12991
819.213	138.74635
819.391	105.96408
819.568	105.02263
819.745	97.90191
819.923	137.59645
820.1	106.40565
820.277	94.60416
820.455	110.00967
820.632	109.55923
820.809	114.17588
820.986	82.71637
821.164	75.78141
821.341	70.2226
821.518	84.25232
821.695	70.84797
821.872	68.96954
822.05	65.04004
822.227	59.77836
822.404	62.08895
822.581	64.8408
822.758	62.27737
822.935	62.56774
823.112	65.65006
823.289	63.00147
823.466	68.20283
823.643	67.65512
823.82	73.91517
823.997	72.76296
824.174	78.92469
824.351	91.04681
824.528	91.74556
824.705	89.74194
824.882	97.08815
825.059	110.35557
825.236	91.15557
825.412	96.15506
825.589	106.61364
825.766	122.00171
825.943	94.93262
826.12	106.14746
826.296	87.37168
826.473	90.86925
826.65	88.77547
826.827	95.83942
827.003	76.7544
827.18	81.23914
827.357	85.61161
827.533	79.50119
827.71	64.90482
827.887	77.35659
828.063	83.74421
828.24	77.06426
828.416	92.73275
828.593	84.34056
828.769	105.62271
828.946	110.65344
829.122	114.44126
829.299	123.43471
829.475	92.23176
829.652	117.93118
829.828	163.66139
830.005	116.52207
830.181	156.18463
830.357	129.66623
830.534	138.25527
830.71	134.17008
830.886	153.40049
831.063	144.5213
831.239	181.97244
831.415	112.06292
831.592	168.52401
831.768	123.95068
831.944	113.38869
832.12	166.12639
832.296	162.54314
832.473	146.10532
832.649	104.43327
832.825	129.52439
833.001	89.70986
833.177	115.90615
833.353	102.68093
833.529	76.74232
833.705	91.7983
833.881	78.91526
834.058	79.99232
834.234	82.10088
834.41	81.11047
834.586	74.09311
834.761	79.96369
834.937	85.70885
835.113	88.74874
835.289	87.50577
835.465	99.32493
835.641	96.06139
835.817	103.53091
835.993	153.26678
836.169	97.65643
836.344	135.27696
836.52	146.4254
836.696	156.44404
836.872	123.71507
837.048	250.69079
837.223	140.78096
837.399	220.5064
837.575	188.40529
837.75	183.45608
837.926	228.43683
838.102	325.868
838.277	253.57041
838.453	342.62189
838.628	335.53986
838.804	158.81896
838.98	319.38358
839.155	189.2158
839.331	217.43826
839.506	156.71931
839.682	147.35548
839.857	201.9373
840.033	203.52679
840.208	130.63563
840.384	81.05232
840.559	129.89521
840.734	175.02787
840.91	216.22208
841.085	163.62902
841.26	148.50446
841.436	169.98208
841.611	140.56932
841.786	205.36317
841.962	280.03464
842.137	211.28786
842.312	144.85828
842.487	179.94412
842.663	168.26095
842.838	184.60863
843.013	618.40317
843.188	388.87064
843.363	264.30294
843.538	552.58355
843.714	569.67707
843.889	503.26218
844.064	566.56802
844.239	336.43869
844.414	610.44323
844.589	370.28597
844.764	775.63044
844.939	528.62446
845.114	505.40215
845.289	758.68922
845.464	873.85907
845.639	792.71069
845.814	318.24092
845.989	558.30037
846.163	480.01343
846.338	792.68228
846.513	682.95135
846.688	390.66301
846.863	779.13804
847.038	478.34702
847.212	388.69956
847.387	822.49596
847.562	480.69301
847.737	654.52244
847.911	306.28772
848.086	312.40039
848.261	517.59778
848.435	392.46354
848.61	634.75649
848.785	359.19933
848.959	591.08487
849.134	728.28654
849.308	1128.25932
849.483	692.73434
849.658	746.23709
849.832	436.83056
850.007	326.95667
850.181	1124.2245
850.356	742.5842
850.53	1001.10066
850.705	417.56134
850.879	279.33666
851.053	587.42748
851.228	480.9733
851.402	932.02562
851.577	728.75137
851.751	865.02015
851.925	467.69535
852.099	371.07252
852.274	336.36451
852.448	467.47389
852.622	1052.44928
852.797	421.0778
852.971	499.06522
853.145	950.52806
853.319	1072.22126
853.493	1258.47701
853.668	520.40198
853.842	1559.40791
854.016	1150.64188
854.19	1703.34617
854.364	708.0021
854.538	625.63273
854.712	800.85557
854.886	448.89316
855.06	414.38875
855.234	261.22781
855.408	889.10592
855.582	616.844
855.756	1015.73774
855.93	651.60187
856.104	774.78854
856.278	854.3572
856.452	430.20984
856.626	696.91025
856.8	1140.16419
856.973	1239.01924
857.147	1181.80801
857.321	1630.63408
857.495	606.19683
857.669	835.05636
857.842	705.21849
858.016	542.80526
858.19	510.93181
858.364	1396.39648
858.537	642.73218
858.711	1174.25388
858.885	980.5209
859.058	367.27695
859.232	386.56934
859.405	559.53442
859.579	825.09028
859.753	734.14711
859.926	930.74049
860.1	657.56717
860.273	1126.14542
860.447	936.78704
860.62	656.25206
860.794	908.58063
860.967	716.71116
861.141	614.52845
861.314	773.89414
861.487	719.82576
861.661	572.26579
861.834	868.20474
862.008	1159.55026
862.181	842.91652
862.354	1473.27645
862.528	711.58101
862.701	447.0598
862.874	416.02852
863.047	570.84416
863.221	593.76206
863.394	395.95128
863.567	529.11796
863.74	251.6682
863.913	1069.31135
864.087	696.10726
864.26	707.35387
864.433	742.26634
864.606	1023.943
864.779	1716.43546
864.952	385.43639
865.125	1038.70813
865.298	649.76632
865.471	669.74938
865.644	1018.94774
865.817	681.87731
865.99	998.92307
866.163	854.93565
866.336	501.99039
866.509	513.60411
866.682	690.65249
866.855	1394.42977
867.028	257.60273
867.2	697.20195
867.373	179.8545
867.546	554.69172
867.719	1302.65965
867.892	720.25094
868.064	472.02802
868.237	529.1452
868.41	556.71618
868.583	372.51354
868.755	328.87152
868.928	753.94006
869.101	963.91161
869.273	1797.14225
869.446	532.38961
869.619	1000.28164
869.791	519.43398
869.964	756.00787
870.136	1096.73324
870.309	460.41274
870.481	438.76653
870.654	424.52337
870.826	474.34342
870.999	358.36351
871.171	566.59868
871.344	330.79642
871.516	494.15981
871.689	463.65659
871.861	564.35292
872.033	407.95313
872.206	369.84642
872.378	597.33761
872.55	510.30633
872.723	467.22409
872.895	719.77407
873.067	613.41196
873.24	570.11815
873.412	536.05984
873.584	424.28346
873.756	669.96976
873.928	853.58305
874.101	427.96905
874.273	520.35675
874.445	195.38314
874.617	333.67305
874.789	425.17139
874.961	453.6859
875.133	488.00177
875.305	610.15637
875.477	441.80971
875.649	308.08346
875.821	384.85705
875.993	779.03027
876.165	431.24212
876.337	603.01584
876.509	581.16306
876.681	517.49503
876.853	526.36222
877.025	781.00734
877.197	311.42253
877.369	324.04644
877.541	454.85323
877.712	192.84028
877.884	259.53591
878.056	579.83297
878.228	270.64907
878.4	542.82215
878.571	307.01531
878.743	210.91014
878.915	357.97472
879.086	222.23058
879.258	247.58889
879.43	221.87485
879.601	208.32474
879.773	183.57795
879.945	82.38229
880.116	95.80782
880.288	71.58345
880.459	76.85439
880.631	67.7345
880.802	72.31181
880.974	72.42212
881.145	61.32978
881.317	70.23778
881.488	63.17862
881.66	66.39277
881.831	64.55462
882.002	75.08003
882.174	66.89903
882.345	75.44564
882.517	62.89211
882.688	85.53906
882.859	78.82062
883.03	102.66931
883.202	103.22589
883.373	102.49707
883.544	104.63891
883.715	139.7039
883.887	135.95945
884.058	135.27773
884.229	159.34299
884.4	158.57292
884.571	191.17836
884.742	160.47222
884.914	173.25243
885.085	231.87743
885.256	270.4918
885.427	242.24937
885.598	262.20995
885.769	275.60302
885.94	295.38746
886.111	213.71069
886.282	277.0486
886.453	309.62087
886.624	267.42023
886.795	328.38382
886.966	316.38369
887.136	373.13924
887.307	280.53386
887.478	488.1681
887.649	414.52117
887.82	444.50606
887.991	328.6533
888.161	516.42801
888.332	489.43746
888.503	277.53091
888.674	546.17091
888.844	778.46726
889.015	819.42753
889.186	420.54107
889.356	718.72202
889.527	451.90107
889.698	1123.23335
889.868	362.4354
890.039	589.05508
890.209	414.56057
890.38	720.1039
890.551	507.5193
890.721	886.01723
890.892	568.76829
891.062	1368.94887
891.233	571.82166
891.403	861.16581
891.574	678.27962
891.744	439.84471
891.914	406.97583
892.085	579.30813
892.255	179.28347
892.425	601.84365
892.596	465.92777
892.766	593.53979
892.936	837.90881
893.107	490.71403
893.277	288.28674
893.447	256.16927
893.618	192.9286
893.788	296.34178
893.958	170.2515
894.128	143.63893
894.298	165.17635
894.468	200.75611
894.639	117.29993
894.809	94.20381
894.979	111.09732
895.149	143.49471
895.319	126.52703
895.489	150.42641
895.659	189.74298
895.829	136.31436
895.999	154.25446
896.169	137.39739
896.339	165.06916
896.509	310.05754
896.679	306.20987
896.849	361.46678
897.019	415.28527
897.189	405.68823
897.358	381.9294
897.528	637.08557
897.698	266.88754
897.868	448.53475
898.038	983.81128
898.208	1107.4375
898.377	369.94933
898.547	2057.87756
898.717	3659.15158
898.886	979.53407
899.056	903.9618
899.226	2158.31772
899.395	2413.50865
899.565	2736.3489
899.735	5022.54275
899.904	1824.23975
900.074	5876.60346
900.244	787.48826
900.413	3573.50655
900.583	987.12831
900.752	-2143.02879
900.922	1208.55584
901.091	509.96625
901.261	2298.42808
901.43	1297.51871
901.599	3366.28864
901.769	2839.3944
901.938	2970.06438
902.108	1075.80921
902.277	1519.2073
902.446	617.08229
902.616	728.82355
902.785	664.9557
902.954	887.00063
903.124	537.40014
903.293	402.75345
903.462	189.85179
903.631	249.30228
903.801	186.97957
903.97	122.68519
904.139	156.59331
904.308	127.50303
904.477	123.77228
904.646	84.70203
904.816	103.10965
904.985	154.82742
905.154	214.59789
