Data from WindowProjectSample_Transmission__7__00007.txt Node

Date: Sat May 03 14:58:56 EDT 2025
User: jessi
Spectrometer: SR400872
Trigger mode: 0
Integration Time (sec): 5.000010E-1
Scans to average: 6
Electric dark correction enabled: true
Nonlinearity correction enabled: true
Boxcar width: 0
XAxis mode: Wavelengths
Number of Pixels in Spectrum: 3648
>>>>>Begin Spectral Data<<<<<
184.909	18321.75102
185.132	2642.87152
185.355	24799.97618
185.578	-7713.6585
185.801	348.57698
186.024	-1478.37498
186.247	773.43955
186.47	2054.52643
186.693	-294.01735
186.916	-3409.36657
187.139	-2579.72769
187.362	1581.24479
187.585	3292.95
187.808	-3171.3304
188.031	199.12632
188.254	-1166.19407
188.476	-670.48578
188.699	2499.38638
188.922	-654.81276
189.145	-9685.66929
189.368	-416.83296
189.591	-1206.22158
189.813	-1743.48149
190.036	1245.81961
190.259	1832.36328
190.482	566.64079
190.705	10533.85883
190.927	-1029.92847
191.15	3498.30389
191.373	2032.86322
191.595	-2248.09509
191.818	2497.82591
192.041	-237.6786
192.263	2818.44071
192.486	1790.22102
192.709	-5198.89463
192.931	2833.52944
193.154	-6161.89138
193.377	167715.41321
193.599	1457.4487
193.822	1699.73946
194.044	-2126.17408
194.267	436.43264
194.489	-123.23502
194.712	1352.5264
194.934	3234.13406
195.157	-18272.02411
195.379	787.10448
195.602	2063.02202
195.824	2048.93055
196.047	2303.95909
196.269	2917.20959
196.492	2944.03756
196.714	2711.6138
196.936	1205.70831
197.159	1296.08109
197.381	-1941.95116
197.604	-1298.41673
197.826	6112.91583
198.048	2860.25871
198.271	4032.04303
198.493	2096.66253
198.715	-5712.13239
198.938	-492.6903
199.16	1720.78206
199.382	1388.76851
199.604	-622.64052
199.827	9526.14141
200.049	932.17391
200.271	-2983.40222
200.493	-51879.96549
200.715	2168.03005
200.938	6697.21074
201.16	-7389.05512
201.382	-2730.89767
201.604	-1767.67726
201.826	6868.05736
202.048	817.04926
202.27	-16079.4478
202.492	4535.80089
202.715	-987.88083
202.937	4466.06785
203.159	-2156.23847
203.381	836.88521
203.603	-3591.62691
203.825	-2795.30095
204.047	2891.26494
204.269	-2117.78522
204.491	1982.76252
204.713	1905.19624
204.935	15073.40464
205.156	1625.18234
205.378	-6924.24149
205.6	-3953.92245
205.822	8653.4812
206.044	-502.39508
206.266	3926.3941
206.488	1041.45634
206.71	27163.7417
206.932	2231.28093
207.153	-4750.06664
207.375	-1763.9684
207.597	8437.3057
207.819	4141.98929
208.041	2296.49303
208.262	-1772.20224
208.484	-1175.67281
208.706	-2696.84774
208.927	23394.44234
209.149	762.216
209.371	-6255.49637
209.593	959.17872
209.814	4630.22588
210.036	-2695.07056
210.258	-4962.06448
210.479	-1159.27409
210.701	941.49566
210.922	6900.02596
211.144	-1193.24051
211.366	-5792.09365
211.587	-490.26259
211.809	9240.76247
212.03	-1275.70299
212.252	-1622.95969
212.473	699.24751
212.695	-2174.02801
212.916	2715.68683
213.138	2142.8191
213.359	-1847.84895
213.581	5945.41514
213.802	-1697.03076
214.024	17931.4093
214.245	-2944.81099
214.466	-390.39476
214.688	1588.75848
214.909	954.31445
215.131	-86026.66555
215.352	1601.63643
215.573	2523.24674
215.795	3079.56715
216.016	3827.19896
216.237	-613.88475
216.459	5900.64319
216.68	95425.29967
216.901	-78806.94445
217.122	1571.80167
217.344	5863.40733
217.565	-55459.95306
217.786	1544.48214
218.007	1738.46174
218.228	-1065.72981
218.45	-1234.76783
218.671	-1024.20498
218.892	1089.49102
219.113	-17479.24579
219.334	-437.34812
219.555	-5466.5106
219.776	1619.55971
219.997	3292.0572
220.219	1039.83771
220.44	2211.85115
220.661	-2511.02137
220.882	3446.6453
221.103	-1193.25996
221.324	1000.66497
221.545	2145.23459
221.766	-5592.0742
221.987	3658.32117
222.208	-1662.60054
222.429	3420.32385
222.65	-151.80152
222.87	-596.12716
223.091	7540.49513
223.312	2450.50046
223.533	6516.42458
223.754	1872.62027
223.975	1413.81374
224.196	-10220.31678
224.417	954.28494
224.637	956.77987
224.858	-662.49508
225.079	6366.45655
225.3	559.43485
225.521	2040.68171
225.741	1407.26685
225.962	721.64465
226.183	207.91072
226.404	643.68492
226.624	557.12268
226.845	359.37927
227.066	389.31538
227.286	170.84164
227.507	85.64681
227.728	72.7282
227.948	121.52633
228.169	40.36426
228.389	46.86045
228.61	22.14662
228.831	33.12159
229.051	2.91823
229.272	19.3613
229.492	29.22898
229.713	7.45413
229.933	21.1971
230.154	19.47914
230.374	33.05671
230.595	23.19437
230.815	15.84708
231.036	20.18337
231.256	-4.5469
231.477	40.06025
231.697	24.20101
231.917	22.38378
232.138	34.3398
232.358	78.27827
232.579	58.77892
232.799	9.29571
233.019	63.47133
233.24	72.66183
233.46	22.06518
233.68	41.16418
233.901	27.62342
234.121	16.01026
234.341	7.18402
234.561	-4.44257
234.782	14.1157
235.002	45.3497
235.222	-0.47214
235.442	39.01317
235.662	18.76116
235.883	41.85234
236.103	38.61832
236.323	23.07468
236.543	18.65763
236.763	28.63351
236.983	27.04918
237.203	31.32413
237.423	43.36194
237.643	62.30271
237.864	50.64721
238.084	12.13542
238.304	20.52053
238.524	32.65511
238.744	29.2979
238.964	45.36345
239.184	43.05363
239.404	43.17685
239.624	24.03566
239.843	38.18646
240.063	24.33403
240.283	16.12934
240.503	17.43718
240.723	16.85857
240.943	8.22109
241.163	13.25385
241.383	10.13402
241.603	4.14483
241.822	6.39659
242.042	4.59676
242.262	5.50177
242.482	6.29802
242.702	8.17303
242.921	2.62127
243.141	5.2974
243.361	4.37409
243.581	7.19717
243.8	5.67256
244.02	4.10365
244.24	7.52855
244.459	7.25241
244.679	14.32338
244.899	9.2652
245.118	9.94815
245.338	8.8343
245.558	10.75465
245.777	5.51384
245.997	7.57439
246.216	7.22731
246.436	3.97864
246.655	3.23007
246.875	2.36222
247.094	4.67696
247.314	1.64836
247.533	2.46091
247.753	3.38432
247.972	2.44003
248.192	0.94386
248.411	1.55753
248.631	3.01545
248.85	3.88359
249.07	2.94519
249.289	5.16275
249.508	3.846
249.728	5.87308
249.947	5.99757
250.166	6.80848
250.386	3.83541
250.605	5.22186
250.824	7.82944
251.044	6.08915
251.263	20.05692
251.482	10.26224
251.701	9.55051
251.921	0.09163
252.14	3.59022
252.359	3.63227
252.578	8.05785
252.798	2.39367
253.017	7.38865
253.236	3.66957
253.455	4.83337
253.674	9.6222
253.893	3.9772
254.112	5.49856
254.331	8.3831
254.551	7.40618
254.77	4.07984
254.989	11.07086
255.208	8.3498
255.427	12.28725
255.646	9.73388
255.865	16.96509
256.084	7.0063
256.303	8.42078
256.522	11.00558
256.741	2.0765
256.96	2.64663
257.179	6.74467
257.397	8.96303
257.616	4.35836
257.835	4.98958
258.054	11.60587
258.273	7.06881
258.492	8.69891
258.711	4.94479
258.93	1.94502
259.148	3.16346
259.367	3.26378
259.586	4.32338
259.805	2.1655
260.023	4.2635
260.242	3.04743
260.461	2.13636
260.68	1.18176
260.898	3.79385
261.117	1.27282
261.336	1.02772
261.554	3.05988
261.773	3.14507
261.992	0.55728
262.21	2.964
262.429	3.67316
262.648	5.84545
262.866	7.0493
263.085	4.73163
263.303	4.30541
263.522	7.20291
263.74	7.6573
263.959	12.44246
264.178	6.2228
264.396	5.6627
264.615	3.76554
264.833	9.56183
265.051	8.40487
265.27	8.06291
265.488	9.41743
265.707	5.22702
265.925	8.83384
266.144	4.07135
266.362	5.32477
266.58	4.94839
266.799	4.06851
267.017	4.96919
267.235	4.51951
267.454	2.78759
267.672	1.59467
267.89	3.86434
268.109	3.92449
268.327	3.60976
268.545	0.63568
268.763	3.75339
268.982	1.45015
269.2	4.23938
269.418	2.47495
269.636	1.90052
269.854	3.67367
270.073	2.96209
270.291	1.44333
270.509	1.56382
270.727	3.75948
270.945	5.71468
271.163	5.94188
271.381	1.48525
271.599	2.47989
271.817	4.45542
272.036	1.46973
272.254	2.60911
272.472	1.9853
272.69	2.20452
272.908	2.17246
273.126	3.72971
273.344	4.79203
273.562	1.92746
273.779	2.16596
273.997	3.33249
274.215	3.80155
274.433	2.79199
274.651	3.89257
274.869	3.72155
275.087	2.35066
275.305	3.80745
275.523	2.03494
275.74	2.55046
275.958	4.93694
276.176	6.74427
276.394	2.16244
276.612	2.60476
276.829	2.68136
277.047	2.02241
277.265	2.38409
277.483	3.23053
277.7	3.8105
277.918	2.90902
278.136	5.40232
278.353	2.64952
278.571	1.19597
278.789	4.2569
279.006	0.72052
279.224	2.57252
279.442	4.23261
279.659	2.60204
279.877	2.23468
280.094	4.71576
280.312	1.08182
280.529	2.83937
280.747	0.82465
280.964	2.21077
281.182	5.1756
281.399	2.16687
281.617	3.50965
281.834	2.09436
282.052	1.66885
282.269	2.53156
282.487	2.27465
282.704	1.70625
282.921	1.89292
283.139	2.81536
283.356	3.71751
283.574	2.94809
283.791	1.88663
284.008	4.63151
284.226	2.32904
284.443	2.69952
284.66	3.65773
284.877	2.83314
285.095	1.91572
285.312	1.41775
285.529	0.89222
285.746	0.68578
285.964	1.79307
286.181	1.05044
286.398	1.79871
286.615	2.24673
286.832	2.33602
287.05	0.77292
287.267	1.46001
287.484	1.84968
287.701	2.3586
287.918	2.30303
288.135	2.50338
288.352	1.25327
288.569	1.15487
288.786	2.1553
289.003	1.73831
289.22	2.4411
289.437	1.43787
289.654	2.57749
289.871	2.64632
290.088	2.61418
290.305	1.95379
290.522	1.55605
290.739	1.87055
290.956	2.7164
291.173	3.42298
291.39	3.102
291.607	2.08841
291.824	1.5912
292.04	1.03983
292.257	2.56432
292.474	2.80338
292.691	1.76452
292.908	0.94544
293.125	1.77377
293.341	1.02113
293.558	4.59727
293.775	1.7498
293.992	1.90062
294.208	0.68942
294.425	1.1986
294.642	1.57456
294.858	2.81484
295.075	0.62666
295.292	1.80804
295.508	2.32901
295.725	3.45182
295.942	1.61954
296.158	1.06249
296.375	1.96583
296.591	1.39714
296.808	1.59803
297.024	1.80101
297.241	2.17351
297.458	2.17696
297.674	0.23726
297.891	1.74283
298.107	1.41923
298.323	1.0382
298.54	2.59585
298.756	1.30035
298.973	0.56299
299.189	2.69388
299.406	1.29895
299.622	2.84917
299.838	2.77768
300.055	2.67826
300.271	1.02168
300.487	1.16418
300.704	1.38704
300.92	1.10902
301.136	3.95339
301.353	2.8352
301.569	2.13908
301.785	2.33409
302.001	2.72859
302.218	2.3939
302.434	2.5628
302.65	1.17709
302.866	1.83853
303.083	3.96772
303.299	4.09099
303.515	2.22285
303.731	2.55043
303.947	1.22638
304.163	1.9516
304.379	2.70895
304.595	2.80797
304.812	1.80457
305.028	1.67882
305.244	2.18712
305.46	3.15174
305.676	3.14266
305.892	3.64665
306.108	2.65017
306.324	2.14007
306.54	4.071
306.756	2.70557
306.972	2.79586
307.187	2.37482
307.403	3.55941
307.619	1.84328
307.835	3.35788
308.051	3.80709
308.267	1.46616
308.483	3.66711
308.699	3.06453
308.914	2.73977
309.13	2.4386
309.346	1.46219
309.562	1.95663
309.778	1.68019
309.993	3.22028
310.209	3.03954
310.425	1.82523
310.641	2.84417
310.856	2.13557
311.072	1.95292
311.288	2.90195
311.503	3.13649
311.719	1.57118
311.935	1.62865
312.15	3.48498
312.366	3.19439
312.581	3.47987
312.797	3.03712
313.013	3.76394
313.228	2.5893
313.444	2.78419
313.659	2.22674
313.875	3.23741
314.09	2.67729
314.306	3.80498
314.521	3.46494
314.737	3.60662
314.952	3.21347
315.168	2.98561
315.383	3.4957
315.599	2.58888
315.814	2.76937
316.029	3.59198
316.245	2.21404
316.46	1.58264
316.675	4.04187
316.891	4.59887
317.106	5.39903
317.321	3.48307
317.537	3.56322
317.752	3.6319
317.967	3.70215
318.183	2.28334
318.398	2.8558
318.613	3.75648
318.828	4.15966
319.043	3.64824
319.259	2.81168
319.474	3.27653
319.689	4.12323
319.904	1.66932
320.119	4.21861
320.334	3.44097
320.549	3.07855
320.765	4.12626
320.98	3.56909
321.195	3.59209
321.41	3.21039
321.625	3.90582
321.84	4.7228
322.055	4.52922
322.27	2.52337
322.485	2.19891
322.7	3.48353
322.915	4.28147
323.13	2.90121
323.345	4.82007
323.56	4.30228
323.775	4.17243
323.989	3.89457
324.204	3.52537
324.419	4.44219
324.634	2.42622
324.849	3.52079
325.064	5.96167
325.279	4.6705
325.493	4.06542
325.708	4.46084
325.923	3.01056
326.138	3.39679
326.352	4.89651
326.567	4.48818
326.782	3.33861
326.997	3.20204
327.211	4.0077
327.426	4.10917
327.641	3.62842
327.855	2.34491
328.07	4.44415
328.285	5.32535
328.499	3.35218
328.714	4.45585
328.928	4.23327
329.143	3.78858
329.358	4.69162
329.572	4.59073
329.787	5.14957
330.001	6.11149
330.216	2.40468
330.43	5.84106
330.645	5.11904
330.859	4.64651
331.074	3.00478
331.288	4.07832
331.503	5.60647
331.717	3.05446
331.931	4.01448
332.146	4.2266
332.36	5.78466
332.575	4.41604
332.789	4.35895
333.003	4.30721
333.218	4.80656
333.432	4.16363
333.646	4.95992
333.86	5.86444
334.075	5.7827
334.289	3.91977
334.503	3.42463
334.717	5.12286
334.932	4.6214
335.146	5.11001
335.36	3.85075
335.574	5.01767
335.788	4.75582
336.003	5.01651
336.217	5.22473
336.431	4.7166
336.645	3.84274
336.859	3.67412
337.073	4.52923
337.287	4.87306
337.501	3.67028
337.715	5.27003
337.929	5.3873
338.143	4.02366
338.357	4.89746
338.571	4.56335
338.785	5.76729
338.999	4.502
339.213	4.60307
339.427	3.95276
339.641	6.05551
339.855	4.72169
340.069	4.14132
340.283	5.90985
340.497	6.39877
340.711	5.57666
340.924	5.06043
341.138	4.2905
341.352	3.98515
341.566	5.45678
341.78	4.02381
341.993	4.6659
342.207	4.72662
342.421	5.69438
342.635	5.35645
342.848	4.95753
343.062	3.40168
343.276	4.98361
343.49	7.18966
343.703	4.93807
343.917	6.19491
344.131	6.47099
344.344	4.81001
344.558	5.20461
344.771	4.76307
344.985	6.73003
345.199	7.24975
345.412	6.04841
345.626	6.16773
345.839	4.49988
346.053	4.79687
346.266	5.11818
346.48	6.30868
346.693	6.04111
346.907	6.09406
347.12	5.21579
347.334	5.89239
347.547	6.00952
347.76	5.68064
347.974	6.7439
348.187	6.06151
348.401	5.75034
348.614	5.07686
348.827	5.61849
349.041	6.58667
349.254	4.68063
349.467	5.48942
349.681	5.59423
349.894	5.48777
350.107	7.18435
350.32	7.79296
350.534	5.04299
350.747	5.92574
350.96	5.68532
351.173	5.6635
351.386	5.9402
351.6	5.70214
351.813	5.93243
352.026	6.143
352.239	5.49239
352.452	6.09295
352.665	7.30955
352.878	5.90452
353.092	8.41941
353.305	7.03878
353.518	6.86203
353.731	5.91949
353.944	7.74704
354.157	6.35083
354.37	6.60358
354.583	5.7421
354.796	5.99551
355.009	7.66959
355.222	7.07035
355.435	7.13555
355.647	8.16816
355.86	6.51631
356.073	7.34117
356.286	6.80367
356.499	8.06639
356.712	7.9973
356.925	7.89449
357.138	8.27919
357.35	6.91714
357.563	7.05705
357.776	7.81706
357.989	7.65087
358.201	8.07728
358.414	7.70795
358.627	8.99565
358.84	7.46106
359.052	6.89758
359.265	7.21006
359.478	8.58687
359.69	5.90594
359.903	8.43065
360.116	8.82007
360.328	7.07972
360.541	8.88855
360.753	7.96626
360.966	8.00155
361.179	8.35495
361.391	8.19169
361.604	8.01807
361.816	8.35765
362.029	8.41671
362.241	8.11985
362.454	8.63155
362.666	8.0287
362.879	9.08244
363.091	8.30507
363.304	8.14908
363.516	8.38898
363.728	7.83358
363.941	8.73456
364.153	8.60388
364.366	7.07224
364.578	7.92323
364.79	8.88167
365.003	8.90331
365.215	8.20237
365.427	9.07445
365.639	9.40726
365.852	8.85292
366.064	10.06207
366.276	8.52149
366.488	9.00821
366.701	8.54009
366.913	8.57255
367.125	8.72943
367.337	8.33551
367.549	8.6926
367.762	8.75704
367.974	9.07971
368.186	8.73711
368.398	9.84286
368.61	9.27056
368.822	9.63254
369.034	8.88723
369.246	9.66827
369.458	11.02606
369.67	8.73623
369.882	10.28798
370.094	7.8517
370.306	10.25047
370.518	9.27033
370.73	8.95444
370.942	9.22184
371.154	9.52398
371.366	9.3573
371.578	9.94996
371.79	9.57156
372.002	10.52094
372.214	11.36653
372.425	9.6191
372.637	10.94868
372.849	10.02537
373.061	8.31686
373.273	9.87667
373.484	10.31771
373.696	10.64729
373.908	8.4189
374.12	10.46717
374.331	10.27623
374.543	9.48852
374.755	9.34638
374.967	10.09947
375.178	11.07202
375.39	9.97388
375.602	10.49267
375.813	9.37014
376.025	9.77005
376.236	10.51853
376.448	10.84782
376.66	10.63932
376.871	10.71839
377.083	11.46303
377.294	12.18053
377.506	10.59185
377.717	11.94219
377.929	11.06943
378.14	10.69606
378.352	11.32825
378.563	11.51152
378.775	12.0271
378.986	10.2776
379.197	11.19619
379.409	10.47861
379.62	11.58524
379.832	11.39978
380.043	10.92166
380.254	11.45433
380.466	10.38423
380.677	13.40024
380.888	12.78095
381.1	13.38759
381.311	13.28947
381.522	11.80397
381.733	13.42621
381.945	11.587
382.156	11.28871
382.367	11.51563
382.578	13.75716
382.789	13.98277
383.001	11.43409
383.212	13.40209
383.423	13.1572
383.634	12.79804
383.845	12.55206
384.056	11.71673
384.267	12.18713
384.478	12.17659
384.69	11.64764
384.901	12.7643
385.112	12.50605
385.323	13.88024
385.534	12.82439
385.745	13.02134
385.956	12.65416
386.167	11.94435
386.378	13.03791
386.588	12.31586
386.799	12.23682
387.01	11.80738
387.221	13.43977
387.432	12.96204
387.643	14.05544
387.854	12.98969
388.065	12.65976
388.275	13.04472
388.486	12.84204
388.697	13.3763
388.908	12.63807
389.119	14.06658
389.329	14.12856
389.54	13.26883
389.751	13.72205
389.962	14.23649
390.172	13.49233
390.383	13.54266
390.594	13.21508
390.804	13.23284
391.015	13.19848
391.226	14.00812
391.436	14.17275
391.647	14.08728
391.858	14.12674
392.068	12.9825
392.279	13.3573
392.489	14.26179
392.7	14.75001
392.91	13.5404
393.121	13.44509
393.331	14.59956
393.542	14.91375
393.752	14.89309
393.963	14.63314
394.173	14.45646
394.384	14.63118
394.594	14.46286
394.804	13.51801
395.015	14.45427
395.225	14.79671
395.436	13.66992
395.646	14.5497
395.856	14.0829
396.067	13.16366
396.277	15.11731
396.487	14.58952
396.697	14.91032
396.908	15.31819
397.118	14.96238
397.328	14.58425
397.538	15.26596
397.749	14.18256
397.959	15.19565
398.169	15.04255
398.379	14.00237
398.589	14.92999
398.8	15.25904
399.01	14.9467
399.22	14.73041
399.43	16.11484
399.64	14.998
399.85	15.1205
400.06	15.07325
400.27	14.23825
400.48	14.9566
400.69	15.66982
400.9	14.80604
401.11	14.37243
401.32	15.53416
401.53	14.71951
401.74	16.03204
401.95	15.55759
402.16	14.82957
402.37	15.33342
402.58	15.01862
402.79	15.79478
403	16.0019
403.209	15.02971
403.419	16.48899
403.629	15.23667
403.839	16.42053
404.049	16.29974
404.258	15.37157
404.468	15.301
404.678	16.35784
404.888	16.45863
405.097	15.74797
405.307	15.78366
405.517	16.24038
405.727	15.98946
405.936	15.62604
406.146	15.99238
406.356	16.81614
406.565	15.58116
406.775	15.40686
406.984	15.37814
407.194	17.00192
407.404	15.77661
407.613	16.31008
407.823	16.33217
408.032	16.698
408.242	16.36359
408.451	15.61684
408.661	15.61101
408.87	17.4115
409.08	15.57139
409.289	16.6915
409.499	16.2608
409.708	16.32958
409.918	14.93055
410.127	16.69855
410.336	17.47393
410.546	16.96062
410.755	16.11122
410.964	16.10763
411.174	15.65533
411.383	16.75725
411.592	16.60649
411.802	15.48884
412.011	16.65499
412.22	16.48892
412.429	17.35989
412.639	17.1614
412.848	16.83184
413.057	17.69155
413.266	17.08964
413.475	16.54933
413.685	16.75319
413.894	16.98265
414.103	17.00445
414.312	17.13398
414.521	16.60107
414.73	16.97998
414.939	17.9221
415.148	17.31652
415.357	17.09536
415.566	17.02943
415.776	16.82724
415.985	16.99285
416.194	17.32072
416.403	18.39438
416.611	16.34668
416.82	16.98305
417.029	17.30626
417.238	17.19492
417.447	17.00842
417.656	17.37142
417.865	17.61804
418.074	17.97382
418.283	19.17502
418.492	20.42135
418.7	20.17577
418.909	22.5671
419.118	21.47945
419.327	22.37267
419.536	22.09488
419.744	22.90659
419.953	24.60357
420.162	25.15851
420.371	24.86785
420.579	26.33994
420.788	26.86235
420.997	27.2762
421.205	27.80334
421.414	27.28475
421.623	27.35906
421.831	26.82319
422.04	27.23958
422.249	25.70797
422.457	25.98157
422.666	25.00513
422.874	25.88131
423.083	26.56243
423.291	26.53975
423.5	26.86849
423.708	27.51938
423.917	28.16342
424.125	27.45518
424.334	27.63246
424.542	29.40234
424.751	28.5397
424.959	27.50011
425.167	27.40654
425.376	26.86048
425.584	24.8103
425.793	24.05643
426.001	22.64811
426.209	22.04292
426.418	20.61
426.626	19.48225
426.834	18.71053
427.042	18.36665
427.251	17.70429
427.459	18.52299
427.667	18.40818
427.875	17.58055
428.084	17.90915
428.292	18.94879
428.5	18.43313
428.708	17.54256
428.916	17.80858
429.124	18.18131
429.333	18.13249
429.541	18.17927
429.749	18.35129
429.957	18.36066
430.165	19.79951
430.373	17.66389
430.581	18.4822
430.789	19.14198
430.997	18.21521
431.205	18.02645
431.413	18.7427
431.621	18.47648
431.829	19.17905
432.037	18.40885
432.245	19.01615
432.453	19.20251
432.661	18.85792
432.869	20.65556
433.076	19.42271
433.284	19.98037
433.492	20.70793
433.7	21.18199
433.908	19.99798
434.116	20.53125
434.323	19.81087
434.531	19.67715
434.739	19.19007
434.947	19.18608
435.154	18.96395
435.362	18.58868
435.57	18.6853
435.778	18.44337
435.985	18.98707
436.193	18.70022
436.401	19.49674
436.608	18.87095
436.816	18.65379
437.023	19.67457
437.231	20.00432
437.439	19.01382
437.646	19.45994
437.854	19.17014
438.061	19.47314
438.269	19.37021
438.476	19.92673
438.684	19.87466
438.891	20.55018
439.099	20.31907
439.306	20.75837
439.514	21.04689
439.721	23.06318
439.929	23.00228
440.136	24.30885
440.343	24.63993
440.551	24.56466
440.758	26.12982
440.965	24.26401
441.173	24.03484
441.38	23.46074
441.587	22.41825
441.795	22.08312
442.002	21.36641
442.209	20.88082
442.416	20.47584
442.624	19.9341
442.831	19.22778
443.038	18.92725
443.245	18.71351
443.452	19.12617
443.66	19.89597
443.867	19.12047
444.074	19.29955
444.281	20.18433
444.488	20.60862
444.695	21.52706
444.902	22.06969
445.109	24.10963
445.316	24.54424
445.523	25.72739
445.73	26.26933
445.937	27.1734
446.144	28.27502
446.351	28.77191
446.558	27.13636
446.765	29.92916
446.972	28.16788
447.179	27.81574
447.386	27.90413
447.593	25.28997
447.8	26.30828
448.007	23.83673
448.214	22.42109
448.42	21.69325
448.627	21.4602
448.834	20.5528
449.041	20.07188
449.248	19.32764
449.454	19.75475
449.661	20.12282
449.868	19.09968
450.075	19.06283
450.281	18.32507
450.488	18.74579
450.695	19.09582
450.901	19.15067
451.108	18.99362
451.315	20.08515
451.521	19.31407
451.728	20.19776
451.935	19.42133
452.141	19.496
452.348	19.53433
452.554	19.66395
452.761	19.08112
452.967	20.55028
453.174	19.68116
453.38	19.56635
453.587	18.81858
453.793	19.6324
454	20.11262
454.206	20.68383
454.413	20.06428
454.619	19.802
454.825	19.19808
455.032	19.95473
455.238	20.18212
455.445	18.82268
455.651	19.51402
455.857	18.63656
456.064	19.39593
456.27	19.3393
456.476	19.39495
456.682	18.99264
456.889	19.897
457.095	20.14722
457.301	20.96918
457.507	20.01855
457.714	19.83806
457.92	19.91957
458.126	19.67053
458.332	19.94134
458.538	20.28763
458.744	21.63546
458.951	23.11592
459.157	25.98959
459.363	26.00636
459.569	26.72815
459.775	26.84414
459.981	27.32937
460.187	27.50193
460.393	27.03842
460.599	26.44814
460.805	24.99739
461.011	23.10662
461.217	22.14305
461.423	20.57752
461.629	19.62655
461.835	20.12925
462.041	19.65662
462.247	20.73134
462.453	19.66925
462.658	19.54907
462.864	20.25261
463.07	19.97259
463.276	20.04411
463.482	19.81126
463.688	20.95782
463.893	19.61994
464.099	20.02679
464.305	20.9545
464.511	19.74945
464.716	19.98675
464.922	20.57486
465.128	19.57407
465.333	20.94144
465.539	20.42714
465.745	20.24924
465.95	20.13702
466.156	21.84727
466.362	20.89368
466.567	20.18316
466.773	20.17718
466.978	21.24996
467.184	19.56496
467.389	18.97519
467.595	20.61371
467.8	19.7945
468.006	20.92363
468.211	20.93184
468.417	19.44634
468.622	20.46249
468.828	20.58164
469.033	20.59146
469.239	21.87556
469.444	19.94329
469.649	20.60491
469.855	20.12844
470.06	20.40131
470.266	19.70555
470.471	20.70837
470.676	20.49246
470.881	19.16501
471.087	21.42944
471.292	21.6072
471.497	19.57488
471.703	20.05811
471.908	20.16233
472.113	20.60385
472.318	21.22233
472.523	19.67529
472.729	20.63705
472.934	20.65983
473.139	20.4012
473.344	20.6212
473.549	21.11355
473.754	19.89541
473.959	21.81059
474.164	19.90919
474.369	20.35569
474.575	20.82988
474.78	20.42321
474.985	19.98819
475.19	19.46756
475.395	20.17693
475.6	20.49996
475.804	21.39957
476.009	20.54946
476.214	20.50854
476.419	20.21799
476.624	19.57349
476.829	20.36991
477.034	20.99151
477.239	20.2747
477.444	20.68603
477.648	21.12257
477.853	21.03394
478.058	20.47974
478.263	20.35311
478.468	20.0734
478.672	19.99726
478.877	21.5576
479.082	21.60244
479.287	20.964
479.491	20.73088
479.696	20.19308
479.901	21.24617
480.105	20.97264
480.31	20.41782
480.515	20.65078
480.719	22.17865
480.924	20.8918
481.128	21.02564
481.333	22.68275
481.538	23.21777
481.742	24.66469
481.947	27.10049
482.151	29.73895
482.356	32.57878
482.56	38.66488
482.765	44.04241
482.969	51.47753
483.174	57.61577
483.378	64.91785
483.582	67.43128
483.787	70.26061
483.991	70.79973
484.196	70.07329
484.4	67.76871
484.604	66.40486
484.809	60.24106
485.013	55.62077
485.217	49.32417
485.422	44.33782
485.626	40.82985
485.83	39.27843
486.034	38.98921
486.239	40.43115
486.443	42.36573
486.647	44.23746
486.851	46.92925
487.055	50.17119
487.26	50.75913
487.464	52.74134
487.668	51.60831
487.872	52.50298
488.076	51.61008
488.28	49.22128
488.484	45.77893
488.688	43.3535
488.892	40.75635
489.096	37.59207
489.3	34.56323
489.504	32.36067
489.708	30.82126
489.912	30.32531
490.116	30.43986
490.32	31.19861
490.524	34.49377
490.728	36.69096
490.932	39.38336
491.136	41.8204
491.34	43.79731
491.544	44.00571
491.748	43.8934
491.951	43.20808
492.155	41.56117
492.359	39.39843
492.563	35.91432
492.767	32.94132
492.97	29.12219
493.174	25.9223
493.378	23.81089
493.582	21.44112
493.785	20.89858
493.989	20.46663
494.193	19.49561
494.396	19.22605
494.6	19.44429
494.804	19.54273
495.007	20.4079
495.211	20.55472
495.414	20.95087
495.618	21.17807
495.822	21.9017
496.025	21.27205
496.229	21.99499
496.432	21.81215
496.636	22.30963
496.839	22.5212
497.043	23.68025
497.246	22.825
497.45	22.19023
497.653	22.49606
497.856	21.74997
498.06	21.18655
498.263	20.93262
498.467	20.96769
498.67	21.76036
498.873	21.36812
499.077	21.08667
499.28	21.04522
499.483	21.31532
499.686	21.4371
499.89	21.36604
500.093	21.62576
500.296	20.41967
500.499	22.03519
500.703	21.19201
500.906	21.28513
501.109	22.34479
501.312	21.0994
501.515	20.95941
501.719	21.44249
501.922	21.83713
502.125	21.30838
502.328	21.01808
502.531	20.57242
502.734	21.13371
502.937	20.34695
503.14	21.31723
503.343	20.80543
503.546	21.15955
503.749	21.21181
503.952	21.43761
504.155	20.96305
504.358	21.56024
504.561	21.49455
504.764	20.40856
504.967	21.4085
505.17	21.1422
505.373	22.2963
505.576	21.17864
505.778	21.71786
505.981	20.81637
506.184	21.9754
506.387	20.35793
506.59	22.58036
506.793	22.12816
506.995	21.65215
507.198	20.47866
507.401	21.67226
507.604	21.91512
507.806	20.98232
508.009	21.10813
508.212	22.14528
508.414	21.25294
508.617	21.2312
508.82	21.64138
509.022	22.47591
509.225	21.62237
509.427	20.67845
509.63	22.12853
509.833	21.52618
510.035	21.22206
510.238	20.7616
510.44	22.177
510.643	20.42438
510.845	22.58011
511.048	21.68528
511.25	21.36088
511.453	21.59144
511.655	21.79292
511.858	21.54212
512.06	22.15876
512.262	21.58375
512.465	21.9674
512.667	21.29653
512.869	20.9761
513.072	21.74491
513.274	21.96543
513.476	21.80688
513.679	21.99763
513.881	20.86187
514.083	22.39517
514.286	21.13486
514.488	21.14665
514.69	21.01479
514.892	20.76504
515.094	21.6098
515.297	21.05637
515.499	21.51138
515.701	20.98425
515.903	22.40925
516.105	22.45167
516.307	22.04937
516.509	20.4622
516.711	20.96458
516.913	21.72788
517.116	21.84763
517.318	21.58415
517.52	22.58715
517.722	22.48266
517.924	22.28655
518.126	23.81522
518.328	23.73662
518.529	24.45598
518.731	25.24822
518.933	23.19566
519.135	23.43117
519.337	23.61057
519.539	22.38635
519.741	20.94052
519.943	21.41148
520.145	21.29022
520.346	21.97174
520.548	21.35826
520.75	21.76405
520.952	21.49064
521.153	21.84315
521.355	21.83919
521.557	21.25279
521.759	21.78943
521.96	21.63504
522.162	21.06134
522.364	22.31437
522.565	21.25781
522.767	22.14157
522.969	22.5786
523.17	22.20935
523.372	21.9119
523.573	21.625
523.775	21.60421
523.977	21.32138
524.178	23.08822
524.38	21.93104
524.581	22.60013
524.783	22.16215
524.984	23.84916
525.186	24.40384
525.387	25.66901
525.589	25.6958
525.79	25.77802
525.991	26.1511
526.193	26.85458
526.394	26.14627
526.596	27.38499
526.797	28.37622
526.998	28.6404
527.2	31.13258
527.401	35.62134
527.602	39.5247
527.803	45.24325
528.005	48.51915
528.206	51.77808
528.407	53.93364
528.608	53.96316
528.81	53.77019
529.011	51.91086
529.212	51.95945
529.413	48.23947
529.614	44.25507
529.815	40.46205
530.017	36.77086
530.218	32.3932
530.419	29.69782
530.62	28.34674
530.821	26.89754
531.022	25.18349
531.223	26.23635
531.424	25.88033
531.625	26.50343
531.826	26.54823
532.027	28.58039
532.228	31.23602
532.429	32.8156
532.63	34.48627
532.831	36.36618
533.032	36.39479
533.233	37.38479
533.433	36.4568
533.634	36.42773
533.835	34.54672
534.036	32.97804
534.237	30.83912
534.438	28.5938
534.638	25.65558
534.839	24.23661
535.04	23.33429
535.241	23.02994
535.441	24.2127
535.642	24.39239
535.843	24.34454
536.043	25.23559
536.244	25.75219
536.445	26.19309
536.645	26.82997
536.846	26.38696
537.047	26.22015
537.247	24.56546
537.448	23.54409
537.648	22.93299
537.849	21.56107
538.049	21.86701
538.25	21.96167
538.451	22.18026
538.651	21.3822
538.851	22.23839
539.052	22.69584
539.252	22.70958
539.453	22.13356
539.653	22.45934
539.854	23.36655
540.054	25.55897
540.254	29.2722
540.455	33.01395
540.655	34.05338
540.855	37.597
541.056	39.44358
541.256	39.68119
541.456	40.56241
541.657	39.94852
541.857	39.93811
542.057	37.60215
542.257	35.58459
542.458	34.72233
542.658	32.54226
542.858	29.37373
543.058	28.03924
543.258	26.93671
543.458	24.7021
543.659	23.80167
543.859	23.98101
544.059	23.41579
544.259	22.05005
544.459	22.45115
544.659	21.66342
544.859	22.37585
545.059	21.96031
545.259	22.50536
545.459	22.5246
545.659	22.96862
545.859	22.70074
546.059	22.76292
546.259	22.06955
546.459	21.84301
546.659	21.93432
546.859	22.72775
547.059	22.58531
547.258	22.50565
547.458	22.54116
547.658	21.59198
547.858	21.6512
548.058	22.16085
548.258	21.92261
548.457	21.15044
548.657	23.25733
548.857	21.89331
549.057	22.44673
549.256	22.51869
549.456	21.73035
549.656	20.9088
549.855	23.60839
550.055	22.07721
550.255	23.52063
550.454	22.94977
550.654	22.748
550.853	23.22321
551.053	22.80684
551.253	22.67976
551.452	22.89413
551.652	21.92819
551.851	21.59162
552.051	22.4786
552.25	22.38342
552.45	22.24091
552.649	22.32951
552.849	22.17462
553.048	22.35511
553.248	22.78671
553.447	21.39104
553.646	22.57748
553.846	23.65677
554.045	23.19219
554.244	21.21602
554.444	23.49388
554.643	21.53635
554.842	23.53481
555.042	23.75786
555.241	21.94471
555.44	21.52397
555.64	22.84843
555.839	23.73904
556.038	22.78931
556.237	21.6947
556.436	22.32786
556.636	22.91916
556.835	21.58678
557.034	23.42918
557.233	22.15315
557.432	21.33123
557.631	23.44291
557.83	22.00235
558.029	22.0408
558.228	21.96229
558.427	21.79341
558.626	22.63031
558.825	22.05716
559.024	22.63678
559.223	24.04477
559.422	22.24159
559.621	22.66091
559.82	20.36423
560.019	22.69015
560.218	22.36302
560.417	20.23205
560.616	22.00776
560.815	25.25905
561.014	21.51616
561.212	23.85221
561.411	22.64414
561.61	21.44178
561.809	21.92056
562.008	23.4121
562.206	22.36202
562.405	23.23429
562.604	21.81559
562.803	22.52993
563.001	22.71839
563.2	21.23788
563.399	22.78304
563.597	21.41585
563.796	22.55554
563.995	21.55388
564.193	22.96319
564.392	22.37866
564.59	24.52797
564.789	21.63887
564.988	22.48785
565.186	23.13773
565.385	22.564
565.583	22.84151
565.782	22.83514
565.98	23.0102
566.179	22.92944
566.377	22.24019
566.575	22.40094
566.774	23.85541
566.972	23.15653
567.171	23.95804
567.369	23.37616
567.567	22.5723
567.766	22.84964
567.964	21.18763
568.162	22.55339
568.361	23.49693
568.559	22.69753
568.757	23.07339
568.956	22.96344
569.154	22.71551
569.352	23.14661
569.55	22.76685
569.748	22.6544
569.947	22.42931
570.145	22.18929
570.343	22.34565
570.541	23.92552
570.739	21.86935
570.937	23.04209
571.135	23.55229
571.333	24.72074
571.532	24.32469
571.73	23.59211
571.928	23.89051
572.126	23.55693
572.324	22.69452
572.522	23.7753
572.72	25.27116
572.918	22.84514
573.116	23.27984
573.313	22.71927
573.511	22.80413
573.709	22.34907
573.907	23.58664
574.105	22.75673
574.303	21.88797
574.501	21.93241
574.699	23.56467
574.896	23.47521
575.094	23.52515
575.292	21.7984
575.49	23.85064
575.688	22.64053
575.885	23.70234
576.083	24.30523
576.281	23.48408
576.478	21.73502
576.676	23.25128
576.874	21.48619
577.071	22.45868
577.269	24.5175
577.467	22.78639
577.664	22.58795
577.862	23.7127
578.059	22.03492
578.257	23.6259
578.455	22.49758
578.652	22.59969
578.85	20.75994
579.047	22.65533
579.245	22.96231
579.442	22.58503
579.64	22.76259
579.837	20.79578
580.034	25.07895
580.232	22.21395
580.429	21.01305
580.627	23.37262
580.824	23.47191
581.021	23.15689
581.219	22.52868
581.416	21.4559
581.613	24.12195
581.811	23.89074
582.008	21.7316
582.205	23.48337
582.402	23.13035
582.6	24.64975
582.797	22.36803
582.994	22.8831
583.191	23.58617
583.388	22.53169
583.586	23.59944
583.783	23.84014
583.98	22.11559
584.177	23.05325
584.374	19.69078
584.571	22.66285
584.768	22.64923
584.965	21.78386
585.162	23.31967
585.359	24.18352
585.556	22.87718
585.753	23.30315
585.95	21.12669
586.147	22.23193
586.344	23.20359
586.541	22.09837
586.738	21.35603
586.935	22.30332
587.132	21.97364
587.329	24.04891
587.526	22.9851
587.722	27.48986
587.919	21.43936
588.116	23.64177
588.313	24.35689
588.51	25.43951
588.706	22.68582
588.903	23.57047
589.1	23.7848
589.297	25.55612
589.493	23.06739
589.69	23.78524
589.887	22.56892
590.083	21.91029
590.28	22.30227
590.477	23.62857
590.673	23.60364
590.87	24.31545
591.067	22.65028
591.263	23.50338
591.46	23.29458
591.656	22.3277
591.853	24.26095
592.049	22.00336
592.246	22.75399
592.442	24.15556
592.639	23.82771
592.835	21.65194
593.032	23.47434
593.228	21.77242
593.425	21.90738
593.621	21.51522
593.817	22.93518
594.014	22.54384
594.21	23.16625
594.406	24.35411
594.603	23.29528
594.799	22.4346
594.995	20.74766
595.192	24.36446
595.388	22.6794
595.584	23.17713
595.78	22.38049
595.977	26.35569
596.173	25.38493
596.369	23.67548
596.565	22.80742
596.761	22.364
596.957	24.66539
597.154	22.60074
597.35	22.8993
597.546	22.40311
597.742	23.79906
597.938	23.10727
598.134	22.10359
598.33	22.76129
598.526	24.29766
598.722	23.36471
598.918	25.26038
599.114	23.70377
599.31	22.1408
599.506	23.25873
599.702	22.85226
599.898	23.21169
600.094	23.56051
600.29	23.81565
600.485	24.10642
600.681	22.84325
600.877	25.27223
601.073	23.20191
601.269	25.74541
601.465	24.94818
601.66	22.31612
601.856	21.51771
602.052	25.54878
602.248	22.77681
602.443	21.5852
602.639	22.30963
602.835	22.73918
603.03	22.94204
603.226	24.67426
603.422	22.94827
603.617	23.40681
603.813	23.46245
604.009	23.54548
604.204	25.13198
604.4	22.06787
604.595	24.7922
604.791	22.55125
604.986	23.87115
605.182	22.71028
605.377	22.87362
605.573	22.738
605.768	23.07851
605.964	23.78807
606.159	24.0339
606.355	24.16492
606.55	22.84142
606.746	24.70643
606.941	22.70843
607.136	25.6563
607.332	26.98504
607.527	21.56182
607.722	24.09487
607.918	23.25208
608.113	22.97134
608.308	24.93217
608.503	24.56851
608.699	24.78562
608.894	24.45405
609.089	23.0219
609.284	23.69686
609.479	23.31607
609.675	24.05648
609.87	23.43739
610.065	24.44076
610.26	24.63233
610.455	23.98405
610.65	22.78154
610.845	23.41926
611.04	24.11243
611.235	22.98594
611.43	22.52792
611.625	22.06959
611.82	25.41334
612.015	21.97062
612.21	24.96943
612.405	21.17553
612.6	25.77762
612.795	25.04076
612.99	24.09135
613.185	22.08571
613.38	22.29825
613.575	22.92867
613.77	27.06358
613.965	21.08487
614.159	22.21511
614.354	25.05621
614.549	24.53728
614.744	24.24938
614.938	22.04926
615.133	21.65346
615.328	24.99457
615.523	24.46377
615.717	27.26886
615.912	22.79668
616.107	23.18659
616.301	22.91503
616.496	22.38929
616.691	25.59309
616.885	24.65904
617.08	27.62488
617.274	25.49954
617.469	26.82128
617.664	24.15554
617.858	23.19241
618.053	24.04698
618.247	22.90778
618.442	20.51747
618.636	25.66008
618.831	22.58116
619.025	22.93067
619.219	27.23123
619.414	19.25694
619.608	23.03247
619.803	22.73252
619.997	26.32531
620.191	25.03279
620.386	23.48428
620.58	23.66839
620.774	21.62886
620.969	21.44235
621.163	23.52806
621.357	22.05205
621.551	23.33501
621.746	23.40037
621.94	23.08474
622.134	28.45682
622.328	26.72642
622.522	21.17794
622.716	25.0003
622.911	24.78949
623.105	24.64853
623.299	24.43739
623.493	28.39513
623.687	22.51352
623.881	23.05811
624.075	24.5952
624.269	25.39547
624.463	20.74705
624.657	21.61996
624.851	24.85613
625.045	25.49872
625.239	25.77623
625.433	23.72617
625.627	26.93241
625.821	22.95259
626.015	23.43627
626.209	24.10669
626.403	22.15099
626.596	24.65544
626.79	25.49913
626.984	22.4992
627.178	24.87541
627.372	24.6391
627.565	25.19855
627.759	22.0405
627.953	22.88669
628.147	24.55988
628.34	24.78155
628.534	27.05932
628.728	23.42213
628.921	25.20341
629.115	25.03256
629.309	25.61301
629.502	26.0559
629.696	24.33885
629.89	23.33314
630.083	24.10421
630.277	24.87054
630.47	26.68424
630.664	23.41297
630.857	21.46011
631.051	25.21617
631.244	26.01972
631.438	24.60339
631.631	22.52007
631.825	26.16566
632.018	25.00397
632.212	26.70575
632.405	25.98708
632.598	22.537
632.792	24.24188
632.985	21.14052
633.178	23.82156
633.372	24.55336
633.565	24.4796
633.758	26.28379
633.952	22.26166
634.145	23.19184
634.338	24.34997
634.531	23.5654
634.724	23.14603
634.918	23.98747
635.111	23.17502
635.304	22.97909
635.497	27.87716
635.69	24.42397
635.883	26.48599
636.077	22.49685
636.27	24.7281
636.463	24.33028
636.656	24.76834
636.849	23.3938
637.042	25.25288
637.235	27.26414
637.428	25.41891
637.621	26.09051
637.814	27.06137
638.007	27.17625
638.2	27.26344
638.393	27.93068
638.586	22.3248
638.778	23.92903
638.971	24.47158
639.164	27.9055
639.357	24.96305
639.55	27.43702
639.743	25.47842
639.935	25.61231
640.128	28.1616
640.321	24.94143
640.514	24.61015
640.707	28.99436
640.899	26.1231
641.092	21.23704
641.285	41.11062
641.477	21.09808
641.67	29.90492
641.863	26.96232
642.055	24.78774
642.248	24.18948
642.441	23.88074
642.633	25.18718
642.826	26.95075
643.018	27.56525
643.211	28.75004
643.403	28.67912
643.596	29.45288
643.788	28.61501
643.981	24.33349
644.173	26.68543
644.366	24.63696
644.558	21.48065
644.751	26.74482
644.943	23.0453
645.135	28.21495
645.328	28.07673
645.52	26.12169
645.712	27.28866
645.905	32.12744
646.097	23.56572
646.289	25.56193
646.482	29.61334
646.674	23.50148
646.866	27.69096
647.058	26.44414
647.251	23.23337
647.443	23.76317
647.635	24.99738
647.827	22.84748
648.019	23.16792
648.211	25.04385
648.404	25.57512
648.596	29.36724
648.788	26.18334
648.98	25.43433
649.172	26.39217
649.364	25.57195
649.556	22.01482
649.748	30.80984
649.94	23.44363
650.132	26.94106
650.324	23.21743
650.516	23.9412
650.708	28.5498
650.9	22.94199
651.092	24.21625
651.284	22.55194
651.476	22.97051
651.667	27.17481
651.859	28.44749
652.051	25.98494
652.243	25.64866
652.435	24.86
652.627	27.17344
652.818	26.61477
653.01	22.31386
653.202	23.19461
653.394	24.37322
653.585	26.23156
653.777	36.35377
653.969	27.92329
654.16	27.93285
654.352	22.78005
654.544	25.48907
654.735	28.51962
654.927	26.01879
655.118	28.88423
655.31	26.42664
655.502	27.86653
655.693	23.72922
655.885	27.70686
656.076	28.36503
656.268	26.27219
656.459	30.4406
656.651	29.17599
656.842	24.79763
657.034	24.76977
657.225	27.94826
657.416	28.98444
657.608	29.9236
657.799	26.66987
657.99	29.51701
658.182	25.4544
658.373	26.00441
658.564	28.88637
658.756	26.59259
658.947	26.21105
659.138	24.82114
659.33	25.34603
659.521	24.56976
659.712	25.99563
659.903	25.96527
660.094	24.72564
660.286	23.31634
660.477	29.95525
660.668	27.35313
660.859	26.31283
661.05	22.45483
661.241	28.05514
661.432	27.81221
661.623	25.94047
661.814	25.11763
662.006	22.8123
662.197	26.91619
662.388	29.2923
662.579	26.69271
662.77	30.15504
662.96	33.47669
663.151	28.23227
663.342	21.72865
663.533	26.79075
663.724	25.78213
663.915	31.23762
664.106	26.02589
664.297	30.79755
664.488	27.34987
664.678	24.81224
664.869	28.36891
665.06	28.96313
665.251	26.9605
665.442	28.21793
665.632	23.86126
665.823	32.0917
666.014	20.13045
666.204	29.02934
666.395	29.77056
666.586	35.8835
666.776	29.2352
666.967	31.73395
667.158	27.60083
667.348	31.20493
667.539	24.1355
667.729	29.64063
667.92	24.23639
668.111	29.15103
668.301	29.21184
668.492	26.17283
668.682	27.72946
668.873	27.04809
669.063	24.7845
669.253	27.58911
669.444	30.34693
669.634	26.77445
669.825	32.00721
670.015	30.32249
670.206	25.61634
670.396	32.56793
670.586	27.12499
670.777	28.55647
670.967	21.22074
671.157	26.65809
671.347	25.36909
671.538	32.12269
671.728	29.56434
671.918	33.44275
672.108	30.00123
672.299	26.38858
672.489	28.66977
672.679	26.02933
672.869	29.2909
673.059	33.04915
673.249	29.33824
673.44	24.68926
673.63	27.88297
673.82	31.23819
674.01	24.90412
674.2	29.37368
674.39	36.5327
674.58	30.15645
674.77	28.05473
674.96	28.59882
675.15	40.19271
675.34	32.13072
675.53	27.90953
675.72	27.70757
675.91	24.18529
676.099	34.27351
676.289	36.14082
676.479	31.14615
676.669	27.24662
676.859	29.87736
677.049	26.50376
677.238	28.22717
677.428	34.29526
677.618	30.13769
677.808	33.02707
677.997	30.60573
678.187	26.09817
678.377	28.79929
678.567	27.16424
678.756	27.94885
678.946	28.08525
679.136	24.96193
679.325	28.24767
679.515	26.38055
679.704	25.87539
679.894	30.90156
680.084	30.4567
680.273	32.48119
680.463	26.70583
680.652	26.58446
680.842	27.9865
681.031	31.4756
681.221	26.60319
681.41	30.19068
681.6	28.47707
681.789	31.39502
681.978	32.82081
682.168	30.61768
682.357	29.24764
682.547	30.29935
682.736	29.91439
682.925	33.52313
683.115	33.24754
683.304	31.53591
683.493	30.33055
683.682	31.71391
683.872	31.7218
684.061	33.41651
684.25	32.08912
684.439	36.57541
684.629	31.98193
684.818	41.45053
685.007	29.3304
685.196	28.51793
685.385	36.13263
685.574	30.83237
685.763	31.09938
685.952	31.16526
686.142	27.69975
686.331	34.13444
686.52	24.37152
686.709	36.07318
686.898	36.31592
687.087	32.4123
687.276	36.5003
687.465	35.01787
687.654	30.93975
687.842	36.04723
688.031	27.39564
688.22	36.19351
688.409	31.43935
688.598	31.579
688.787	40.08405
688.976	31.34984
689.165	37.94254
689.353	29.51914
689.542	31.75836
689.731	35.25349
689.92	40.3221
690.108	34.45875
690.297	30.58611
690.486	31.90175
690.675	34.60717
690.863	37.98627
691.052	37.01747
691.241	33.25702
691.429	32.14154
691.618	37.26264
691.806	27.57604
691.995	30.46005
692.184	31.40215
692.372	29.29792
692.561	32.53839
692.749	32.59777
692.938	42.99102
693.126	35.04699
693.315	31.53966
693.503	34.24192
693.692	35.37184
693.88	35.40784
694.068	41.39925
694.257	31.95655
694.445	34.81314
694.634	25.00319
694.822	36.4653
695.01	37.77026
695.199	40.23256
695.387	38.22111
695.575	36.44248
695.763	32.61259
695.952	31.53875
696.14	27.37238
696.328	31.12934
696.516	33.56002
696.705	34.28228
696.893	35.34019
697.081	25.88876
697.269	37.12948
697.457	31.02039
697.645	30.00991
697.833	36.32892
698.021	30.47364
698.21	32.32901
698.398	32.93817
698.586	29.42133
698.774	29.26749
698.962	32.52102
699.15	29.52814
699.338	27.8211
699.526	34.40178
699.714	30.13897
699.901	30.06272
700.089	36.25249
700.277	29.65423
700.465	33.85986
700.653	36.26752
700.841	34.08316
701.029	30.55632
701.217	37.61319
701.404	34.74618
701.592	40.54864
701.78	42.70158
701.968	34.12947
702.155	34.01946
702.343	26.92728
702.531	39.77352
702.718	35.60219
702.906	31.89138
703.094	30.96093
703.281	40.20941
703.469	33.90129
703.657	39.89326
703.844	48.86262
704.032	43.0164
704.219	31.40366
704.407	35.535
704.595	39.86343
704.782	35.48321
704.97	32.15182
705.157	31.55007
705.345	40.35258
705.532	48.64119
705.719	36.33424
705.907	40.71382
706.094	35.73518
706.282	42.20779
706.469	34.30221
706.656	36.83789
706.844	33.51341
707.031	40.21316
707.218	36.21535
707.406	42.8084
707.593	38.15115
707.78	39.40359
707.968	35.71923
708.155	30.71024
708.342	39.56097
708.529	39.42369
708.716	38.06338
708.904	43.96877
709.091	38.00065
709.278	30.07034
709.465	45.4925
709.652	44.61533
709.839	42.29455
710.026	37.86675
710.213	29.30608
710.4	38.97795
710.587	41.371
710.774	43.60094
710.961	41.49985
711.148	38.50444
711.335	42.86846
711.522	36.36609
711.709	39.63281
711.896	48.64158
712.083	40.78364
712.27	33.27454
712.457	38.48066
712.644	30.51191
712.831	48.1047
713.017	38.56993
713.204	41.58113
713.391	35.54362
713.578	44.37805
713.765	46.11273
713.951	41.94579
714.138	57.44414
714.325	41.46176
714.512	40.29225
714.698	35.34459
714.885	46.43295
715.072	40.54319
715.258	39.97759
715.445	36.32685
715.631	46.48003
715.818	27.55214
716.005	36.6353
716.191	43.41799
716.378	36.84155
716.564	43.15302
716.751	36.19798
716.937	36.11166
717.124	44.39347
717.31	35.67873
717.497	50.33885
717.683	35.62612
717.869	53.32495
718.056	38.84446
718.242	42.85514
718.429	40.30512
718.615	34.06519
718.801	40.39955
718.988	45.66533
719.174	43.30262
719.36	39.76857
719.547	44.72637
719.733	44.02041
719.919	40.64345
720.105	46.2954
720.291	40.33266
720.478	41.99617
720.664	39.11245
720.85	38.74725
721.036	57.25703
721.222	52.09553
721.408	39.73125
721.595	52.63403
721.781	52.27875
721.967	48.88098
722.153	52.33365
722.339	44.11113
722.525	43.97098
722.711	37.143
722.897	35.02634
723.083	38.67425
723.269	45.91088
723.455	58.5877
723.641	63.82016
723.827	43.53573
724.012	45.60733
724.198	40.469
724.384	50.90306
724.57	43.41702
724.756	34.34235
724.942	31.71799
725.127	49.45278
725.313	51.57066
725.499	51.91388
725.685	56.78038
725.87	43.25852
726.056	36.39747
726.242	51.60448
726.428	32.12687
726.613	49.65736
726.799	38.34795
726.985	36.68814
727.17	34.08804
727.356	56.2004
727.541	36.12386
727.727	42.67243
727.913	46.87033
728.098	40.47494
728.284	48.11495
728.469	34.70787
728.655	38.47427
728.84	49.24942
729.026	48.16031
729.211	49.02245
729.397	46.21001
729.582	47.71832
729.767	42.56788
729.953	44.69528
730.138	51.80494
730.323	29.93776
730.509	38.24922
730.694	53.7496
730.879	47.73935
731.065	43.33529
731.25	59.42489
731.435	48.05179
731.621	34.83635
731.806	40.93399
731.991	46.54079
732.176	34.46009
732.361	53.20629
732.547	47.97492
732.732	32.85557
732.917	60.33317
733.102	35.94186
733.287	40.30931
733.472	42.3093
733.657	45.64298
733.842	35.11895
734.027	40.3133
734.212	42.11689
734.397	39.30344
734.582	44.62936
734.767	51.48497
734.952	56.23074
735.137	30.55612
735.322	55.61846
735.507	43.41208
735.692	46.83337
735.877	61.46078
736.062	59.30429
736.247	48.14947
736.431	45.08608
736.616	51.54255
736.801	46.89725
736.986	46.14644
737.171	40.06562
737.355	33.48109
737.54	54.40005
737.725	46.56581
737.909	68.39718
738.094	42.56453
738.279	52.786
738.463	44.5626
738.648	50.76533
738.833	49.69641
739.017	62.42885
739.202	45.47405
739.386	46.32124
739.571	40.06815
739.756	53.60901
739.94	45.73991
740.125	54.73428
740.309	41.34315
740.494	51.96344
740.678	47.76346
740.863	51.0532
741.047	47.56965
741.231	57.33926
741.416	42.54776
741.6	59.93008
741.785	38.58098
741.969	53.47801
742.153	57.82738
742.338	30.97213
742.522	46.45306
742.706	53.89594
742.89	37.32074
743.075	48.73667
743.259	56.96041
743.443	58.02681
743.627	61.03134
743.812	68.38263
743.996	35.56853
744.18	46.03744
744.364	45.7472
744.548	70.13665
744.732	46.80684
744.916	56.68415
745.1	55.93949
745.285	47.53193
745.469	52.0673
745.653	65.98716
745.837	37.15334
746.021	69.65685
746.205	57.46105
746.389	49.67355
746.573	47.35162
746.757	63.70149
746.94	45.43837
747.124	59.78637
747.308	39.31035
747.492	58.52736
747.676	46.90533
747.86	71.37396
748.044	45.71215
748.227	32.65624
748.411	84.3472
748.595	51.00993
748.779	42.04143
748.963	52.91069
749.146	50.31397
749.33	42.84956
749.514	41.74877
749.697	59.99432
749.881	43.23112
750.065	40.3067
750.248	51.79614
750.432	73.04043
750.616	54.28563
750.799	37.25217
750.983	71.09757
751.166	77.32427
751.35	37.17843
751.533	53.80513
751.717	62.52209
751.9	64.1619
752.084	46.61564
752.267	38.43458
752.451	43.53609
752.634	48.18255
752.818	54.96494
753.001	60.77699
753.184	60.24333
753.368	54.78451
753.551	23.44716
753.734	43.00035
753.918	72.29107
754.101	43.60084
754.284	57.06967
754.467	46.13428
754.651	45.50408
754.834	44.20101
755.017	63.41252
755.2	59.92146
755.384	43.0138
755.567	57.8271
755.75	60.42228
755.933	47.0714
756.116	53.13781
756.299	46.63525
756.482	42.83617
756.665	58.80739
756.848	55.52202
757.032	58.18923
757.215	36.33402
757.398	43.30586
757.581	45.32196
757.764	79.35797
757.947	49.64183
758.129	65.81687
758.312	26.10343
758.495	51.0451
758.678	49.68025
758.861	50.17221
759.044	73.73401
759.227	47.50335
759.41	45.08826
759.592	59.32375
759.775	52.31345
759.958	60.30545
760.141	42.56883
760.324	76.56769
760.506	71.42784
760.689	61.27859
760.872	77.66155
761.054	58.76767
761.237	49.66442
761.42	56.0948
761.602	61.98847
761.785	58.66087
761.968	66.69929
762.15	71.6046
762.333	50.87964
762.515	54.80192
762.698	47.6441
762.88	59.28107
763.063	55.25294
763.245	61.74168
763.428	44.86073
763.61	46.71149
763.793	40.98158
763.975	55.17262
764.158	47.63166
764.34	46.94149
764.522	43.21375
764.705	49.31578
764.887	65.87334
765.069	38.52512
765.252	61.00275
765.434	62.4297
765.616	55.80098
765.799	47.18649
765.981	62.70379
766.163	46.83629
766.345	65.00331
766.528	50.13127
766.71	35.06995
766.892	54.76272
767.074	69.22027
767.256	53.54736
767.438	72.75624
767.62	59.17103
767.802	79.95673
767.985	67.01637
768.167	80.14947
768.349	52.46171
768.531	60.95359
768.713	59.02369
768.895	63.60927
769.077	60.0102
769.259	88.52609
769.441	118.71175
769.623	69.32583
769.804	77.4306
769.986	74.70346
770.168	93.25873
770.35	98.34476
770.532	84.62876
770.714	84.07795
770.896	88.04392
771.077	48.30461
771.259	93.0452
771.441	78.75268
771.623	96.20524
771.804	118.092
771.986	46.13126
772.168	61.77742
772.35	89.31558
772.531	121.21721
772.713	72.18361
772.894	101.30333
773.076	73.90456
773.258	64.33233
773.439	99.74441
773.621	105.0114
773.802	60.17107
773.984	77.52218
774.166	83.00835
774.347	110.27382
774.529	93.04639
774.71	43.46347
774.891	70.0143
775.073	69.05341
775.254	112.04422
775.436	65.22298
775.617	114.11654
775.799	62.22308
775.98	105.25359
776.161	110.2928
776.343	111.49169
776.524	74.62525
776.705	67.75038
776.886	45.94322
777.068	79.7942
777.249	135.30573
777.43	117.48077
777.611	55.44004
777.793	76.17941
777.974	109.27047
778.155	69.47031
778.336	60.37002
778.517	120.46102
778.698	65.66016
778.879	44.23504
779.061	28.76086
779.242	85.86406
779.423	86.55532
779.604	65.04931
779.785	75.19573
779.966	78.5859
780.147	98.73393
780.328	99.90835
780.509	131.66012
780.69	98.97792
780.871	68.01213
781.051	49.64384
781.232	83.98381
781.413	84.35093
781.594	68.71147
781.775	69.82011
781.956	63.16126
782.137	39.66233
782.317	66.44149
782.498	90.46619
782.679	85.41558
782.86	86.44327
783.04	64.87206
783.221	86.56632
783.402	122.11504
783.583	80.2655
783.763	99.348
783.944	74.15885
784.124	54.30306
784.305	110.44789
784.486	89.35849
784.666	81.36427
784.847	49.09155
785.027	140.53156
785.208	63.65666
785.388	70.16532
785.569	69.31512
785.749	73.79791
785.93	66.71389
786.11	51.26452
786.291	87.69675
786.471	84.80026
786.652	95.65613
786.832	77.05674
787.012	87.24157
787.193	55.67483
787.373	83.1624
787.553	70.95263
787.734	85.5652
787.914	73.07605
788.094	91.74859
788.275	85.19448
788.455	72.53496
788.635	52.48327
788.815	83.75867
788.995	57.51813
789.176	53.03017
789.356	63.61095
789.536	71.52705
789.716	86.20512
789.896	65.41981
790.076	69.84503
790.256	86.45167
790.436	38.36015
790.616	67.17786
790.796	86.17845
790.976	70.05143
791.156	65.27704
791.336	98.29069
791.516	85.51942
791.696	73.09612
791.876	53.00791
792.056	83.52565
792.236	103.14501
792.416	95.2511
792.596	88.10342
792.776	85.97772
792.956	96.29069
793.135	115.01087
793.315	63.69604
793.495	105.85017
793.675	93.83667
793.854	96.49934
794.034	103.17408
794.214	58.42562
794.394	93.69256
794.573	100.50093
794.753	80.19597
794.933	67.19535
795.112	86.24323
795.292	93.16585
795.472	111.5431
795.651	57.85304
795.831	80.05637
796.01	68.53269
796.19	72.86326
796.369	77.31009
796.549	92.90177
796.728	72.92725
796.908	57.74012
797.087	57.62789
797.267	72.08302
797.446	54.18094
797.626	86.52404
797.805	85.27777
797.984	70.11451
798.164	95.54604
798.343	64.95286
798.522	86.3017
798.702	79.65321
798.881	55.89344
799.06	74.85837
799.239	47.68934
799.419	64.32284
799.598	111.55466
799.777	89.79499
799.956	105.11379
800.136	73.16871
800.315	62.91461
800.494	92.90788
800.673	101.66212
800.852	93.82815
801.031	105.69323
801.21	94.81179
801.389	72.94184
801.568	81.14025
801.747	118.3625
801.926	84.98355
802.105	118.64035
802.284	76.01937
802.463	117.38399
802.642	90.04663
802.821	88.18642
803	103.34646
803.179	103.23127
803.358	109.06264
803.537	64.51696
803.716	88.9079
803.895	68.96495
804.073	84.4609
804.252	70.26851
804.431	86.72445
804.61	76.11328
804.789	114.44462
804.967	70.99934
805.146	74.04218
805.325	125.315
805.503	97.50821
805.682	60.25027
805.861	148.99076
806.039	111.7918
806.218	75.63994
806.397	92.31921
806.575	84.25362
806.754	92.90858
806.932	68.49114
807.111	119.00817
807.289	105.87694
807.468	89.5336
807.646	105.69255
807.825	96.42962
808.003	93.74725
808.182	107.58049
808.36	85.36277
808.539	67.82278
808.717	116.76894
808.895	62.15318
809.074	86.01666
809.252	84.24162
809.43	110.02602
809.609	114.23991
809.787	136.52628
809.965	79.02306
810.144	92.53656
810.322	85.21679
810.5	100.65931
810.678	83.15413
810.856	134.47123
811.035	115.10049
811.213	114.94806
811.391	111.64034
811.569	98.02864
811.747	171.31476
811.925	118.3672
812.103	66.88537
812.281	96.07786
812.459	139.51392
812.637	135.95676
812.816	112.26412
812.994	144.36475
813.171	119.65506
813.349	113.6026
813.527	124.26664
813.705	123.69086
813.883	141.29659
814.061	125.83489
814.239	142.01538
814.417	140.63406
814.595	107.53236
814.773	92.86476
814.95	98.45557
815.128	100.31001
815.306	99.07058
815.484	96.18075
815.662	73.7866
815.839	72.14265
816.017	78.32973
816.195	121.1995
816.372	86.59941
816.55	117.54129
816.728	135.24899
816.905	88.22115
817.083	129.6506
817.261	88.6941
817.438	169.72036
817.616	142.96229
817.793	75.1352
817.971	114.57402
818.148	107.84223
818.326	138.55039
818.503	106.77271
818.681	131.94002
818.858	84.46461
819.036	94.44995
819.213	96.42221
819.391	81.03689
819.568	75.70617
819.745	75.16096
819.923	107.28229
820.1	86.69949
820.277	77.36788
820.455	85.16091
820.632	85.93532
820.809	88.07495
820.986	63.59402
821.164	59.19712
821.341	55.15257
821.518	66.78704
821.695	56.57759
821.872	54.35223
822.05	50.04263
822.227	47.16331
822.404	47.64359
822.581	50.93932
822.758	47.89729
822.935	47.80137
823.112	51.07837
823.289	47.79691
823.466	52.6523
823.643	53.02881
823.82	58.72745
823.997	58.35574
824.174	63.91468
824.351	76.18152
824.528	75.42227
824.705	74.23354
824.882	80.29506
825.059	90.75664
825.236	81.36808
825.412	81.62625
825.589	89.16036
825.766	108.56456
825.943	82.46872
826.12	85.08914
826.296	69.22632
826.473	77.30924
826.65	74.30952
826.827	81.17889
827.003	64.47182
827.18	66.55832
827.357	70.87219
827.533	63.41232
827.71	50.13757
827.887	60.10789
828.063	67.21168
828.24	61.71423
828.416	71.57791
828.593	67.1514
828.769	86.40112
828.946	88.23693
829.122	92.33737
829.299	98.26245
829.475	71.31927
829.652	93.39652
829.828	127.50661
830.005	98.55726
830.181	118.77661
830.357	96.153
830.534	120.4396
830.71	101.98458
830.886	115.3307
831.063	113.22761
831.239	135.71027
831.415	81.53141
831.592	137.00234
831.768	94.22294
831.944	78.63878
832.12	139.73736
832.296	130.21202
832.473	111.67292
832.649	83.03927
832.825	104.77066
833.001	68.57771
833.177	92.64883
833.353	82.6186
833.529	59.64828
833.705	74.17028
833.881	60.88375
834.058	59.16507
834.234	63.23607
834.41	63.73504
834.586	55.95528
834.761	62.80585
834.937	67.86612
835.113	70.39355
835.289	65.8078
835.465	73.83578
835.641	68.77211
835.817	75.55851
835.993	117.7666
836.169	79.33266
836.344	105.54545
836.52	109.36287
836.696	120.63229
836.872	92.36274
837.048	191.6008
837.223	112.19701
837.399	169.60376
837.575	139.77253
837.75	140.34548
837.926	166.94136
838.102	245.57976
838.277	209.77202
838.453	261.16397
838.628	259.0148
838.804	114.42598
838.98	237.69542
839.155	119.34036
839.331	172.79845
839.506	117.98201
839.682	120.92013
839.857	142.84017
840.033	164.8978
840.208	90.97943
840.384	64.75081
840.559	92.60633
840.734	134.94811
840.91	166.3236
841.085	120.58417
841.26	118.32975
841.436	109.85113
841.611	111.40585
841.786	156.33141
841.962	186.69174
842.137	156.32114
842.312	103.48562
842.487	130.80939
842.663	116.72383
842.838	134.05359
843.013	346.9146
843.188	227.83448
843.363	158.85146
843.538	337.23679
843.714	389.50998
843.889	355.24651
844.064	339.93893
844.239	285.36624
844.414	497.99969
844.589	294.08993
844.764	417.45605
844.939	411.72367
845.114	430.59726
845.289	441.17934
845.464	508.54175
845.639	388.35125
845.814	215.38956
845.989	333.73463
846.163	262.26759
846.338	322.83229
846.513	443.8395
846.688	267.60977
846.863	326.355
847.038	253.27637
847.212	307.45157
847.387	366.07045
847.562	306.59168
847.737	478.56418
847.911	217.25201
848.086	204.04235
848.261	499.64072
848.435	283.82682
848.61	374.47093
848.785	228.48259
848.959	443.36247
849.134	506.27722
849.308	659.62122
849.483	335.63546
849.658	564.88526
849.832	280.57437
850.007	271.68854
850.181	696.07586
850.356	303.43033
850.53	801.0196
850.705	372.95188
850.879	182.93875
851.053	347.37801
851.228	328.32711
851.402	521.92711
851.577	498.44722
851.751	606.15969
851.925	354.89683
852.099	172.79411
852.274	260.20814
852.448	321.59528
852.622	502.08429
852.797	327.93078
852.971	353.17359
853.145	425.19544
853.319	774.58793
853.493	686.13585
853.668	501.52171
853.842	777.95144
854.016	486.47212
854.19	686.32719
854.364	367.40016
854.538	379.10168
854.712	780.58047
854.886	437.05602
855.06	327.65894
855.234	122.57132
855.408	657.74031
855.582	406.64498
855.756	655.57321
855.93	588.70195
856.104	676.80538
856.278	554.99121
856.452	366.29178
856.626	410.37884
856.8	964.62098
856.973	392.80205
857.147	471.40633
857.321	512.91054
857.495	535.76473
857.669	346.64133
857.842	422.69266
858.016	634.00527
858.19	276.71877
858.364	812.39987
858.537	414.81924
858.711	515.96273
858.885	452.33295
859.058	282.48975
859.232	152.90972
859.405	184.88974
859.579	515.71597
859.753	566.11459
859.926	254.65046
860.1	272.2842
860.273	394.56561
860.447	480.32613
860.62	389.24267
860.794	635.54013
860.967	363.55133
861.141	517.66248
861.314	803.59654
861.487	503.62886
861.661	485.95058
861.834	555.2926
862.008	683.19047
862.181	470.33077
862.354	521.45864
862.528	565.7164
862.701	333.84366
862.874	202.335
863.047	343.89831
863.221	278.30852
863.394	187.07442
863.567	453.90788
863.74	175.88342
863.913	489.23936
864.087	499.62354
864.26	480.87315
864.433	387.21172
864.606	603.81236
864.779	392.74923
864.952	182.0633
865.125	467.21127
865.298	345.22473
865.471	355.10483
865.644	758.80512
865.817	554.72618
865.99	502.08861
866.163	472.81292
866.336	262.65955
866.509	350.02195
866.682	568.84102
866.855	755.69311
867.028	235.30234
867.2	393.76021
867.373	172.68382
867.546	382.81234
867.719	700.793
867.892	487.85235
868.064	294.00287
868.237	344.8151
868.41	428.96119
868.583	242.17196
868.755	263.60268
868.928	442.89325
869.101	866.99659
869.273	547.13715
869.446	543.81888
869.619	612.58088
869.791	405.42175
869.964	543.33647
870.136	864.94511
870.309	373.44823
870.481	451.16759
870.654	211.69504
870.826	343.8845
870.999	235.19095
871.171	437.38572
871.344	286.18613
871.516	323.05863
871.689	272.34577
871.861	344.01235
872.033	306.49844
872.206	274.69775
872.378	364.73703
872.55	385.26867
872.723	211.46292
872.895	335.57867
873.067	488.49879
873.24	410.33983
873.412	373.28276
873.584	378.17941
873.756	324.84185
873.928	467.31439
874.101	357.01861
874.273	434.06372
874.445	140.12881
874.617	258.22187
874.789	351.39411
874.961	362.80088
875.133	383.20163
875.305	391.66514
875.477	337.92381
875.649	209.02397
875.821	236.21874
875.993	648.12104
876.165	338.4732
876.337	408.43364
876.509	298.95818
876.681	404.81017
876.853	371.31913
877.025	403.05915
877.197	275.16687
877.369	192.89794
877.541	372.43289
877.712	136.13865
877.884	225.54676
878.056	369.74001
878.228	233.35465
878.4	424.16511
878.571	201.01139
878.743	141.43587
878.915	306.61955
879.086	168.91771
879.258	209.54835
879.43	210.15015
879.601	175.48379
879.773	172.76622
879.945	67.14572
880.116	87.2314
880.288	58.58462
880.459	63.11611
880.631	57.63031
880.802	62.82562
880.974	58.73789
881.145	50.94331
881.317	59.17759
881.488	53.8647
881.66	55.89963
881.831	54.09757
882.002	62.96341
882.174	57.35345
882.345	63.70296
882.517	52.53483
882.688	75.01288
882.859	70.64952
883.03	89.10743
883.202	88.78024
883.373	92.43428
883.544	95.2656
883.715	125.00598
883.887	127.30951
884.058	122.72935
884.229	156.5568
884.4	157.99047
884.571	176.50959
884.742	167.53232
884.914	174.47792
885.085	209.39969
885.256	265.01743
885.427	243.88092
885.598	277.62372
885.769	265.3389
885.94	284.90624
886.111	214.75544
886.282	277.66435
886.453	264.33828
886.624	205.41089
886.795	313.23949
886.966	278.83489
887.136	305.45649
887.307	261.31382
887.478	384.12569
887.649	348.01943
887.82	336.24492
887.991	310.23119
888.161	437.44438
888.332	431.02608
888.503	201.14472
888.674	445.21361
888.844	598.68936
889.015	388.52235
889.186	291.52293
889.356	586.8664
889.527	250.50206
889.698	727.17341
889.868	321.88979
890.039	454.72674
890.209	336.97799
890.38	436.42733
890.551	372.46061
890.721	437.39352
890.892	498.26915
891.062	453.09548
891.233	603.53036
891.403	503.06622
891.574	330.17006
891.744	284.71869
891.914	406.1424
892.085	439.06362
892.255	154.01534
892.425	494.29177
892.596	336.81324
892.766	433.7613
892.936	495.3438
893.107	445.93012
893.277	202.34681
893.447	222.57308
893.618	182.98182
893.788	230.53339
893.958	169.81872
894.128	141.12634
894.298	159.51791
894.468	190.44453
894.639	104.58352
894.809	78.54789
894.979	104.81413
895.149	129.99052
895.319	106.39521
895.489	137.0572
895.659	175.98934
895.829	131.10232
895.999	130.34482
896.169	126.409
896.339	150.61572
896.509	249.33607
896.679	253.82063
896.849	308.82551
897.019	339.16329
897.189	317.4101
897.358	276.94192
897.528	433.42087
897.698	365.14361
897.868	413.87138
898.038	757.95095
898.208	722.05997
898.377	307.4977
898.547	1120.65393
898.717	1548.15593
898.886	521.20872
899.056	742.96234
899.226	1642.43191
899.395	900.77491
899.565	1353.67774
899.735	974.49012
899.904	1009.06742
900.074	1041.05119
900.244	343.13249
900.413	1357.938
900.583	462.76819
900.752	1353.78295
900.922	1072.14845
901.091	234.29083
901.261	1821.89958
901.43	600.72823
901.599	2379.56537
901.769	1408.46436
901.938	1152.73695
902.108	1736.49197
902.277	814.31037
902.446	472.82329
902.616	402.46183
902.785	600.17677
902.954	744.54161
903.124	566.29628
903.293	296.62726
903.462	167.39505
903.631	232.22869
903.801	181.62086
903.97	94.88687
904.139	151.0788
904.308	115.08315
904.477	96.99202
904.646	75.19467
904.816	103.05458
904.985	143.95773
905.154	192.63837
