Data from WindowProjectSample_Transmission__36__00036.txt Node

Date: Sat May 03 15:43:08 EDT 2025
User: jessi
Spectrometer: SR400872
Trigger mode: 0
Integration Time (sec): 5.000010E-1
Scans to average: 6
Electric dark correction enabled: true
Nonlinearity correction enabled: true
Boxcar width: 0
XAxis mode: Wavelengths
Number of Pixels in Spectrum: 3648
>>>>>Begin Spectral Data<<<<<
184.909	19030.7862
185.132	2720.11013
185.355	24749.03314
185.578	-8068.9636
185.801	188.07512
186.024	-1575.90098
186.247	880.07158
186.47	2072.47898
186.693	-137.97402
186.916	-2439.53962
187.139	-2727.44555
187.362	1699.87372
187.585	2927.74321
187.808	-3481.75224
188.031	-695.33281
188.254	-1377.32758
188.476	-863.15971
188.699	2607.18906
188.922	-949.02652
189.145	-9848.36276
189.368	-462.9999
189.591	-1360.48359
189.813	-1702.47321
190.036	1230.46668
190.259	1701.93324
190.482	582.16923
190.705	10903.95932
190.927	-1052.58803
191.15	3610.90861
191.373	2391.93358
191.595	-2511.40046
191.818	2562.25764
192.041	-314.91441
192.263	2785.38343
192.486	2184.94368
192.709	-5515.46834
192.931	3014.80576
193.154	-6210.16951
193.377	200431.7911
193.599	1406.57627
193.822	1924.63057
194.044	-2057.67849
194.267	453.67085
194.489	-276.15716
194.712	1397.06081
194.934	3319.27285
195.157	-15961.26886
195.379	753.34181
195.602	2272.95424
195.824	1991.01324
196.047	2217.97872
196.269	3039.53295
196.492	3656.84449
196.714	2616.03581
196.936	1236.68232
197.159	1414.39296
197.381	-2534.72603
197.604	-1261.65941
197.826	6617.92965
198.048	3016.9967
198.271	4329.704
198.493	2301.19419
198.715	-6273.57454
198.938	-614.38428
199.16	1909.5881
199.382	1475.81175
199.604	-635.4929
199.827	10013.47827
200.049	953.33868
200.271	-3120.00552
200.493	-54122.24011
200.715	2322.17312
200.938	6888.91177
201.16	-7323.16582
201.382	-2692.6501
201.604	-2234.369
201.826	6417.75627
202.048	896.52073
202.27	-16471.93099
202.492	5042.22414
202.715	-1169.27004
202.937	4833.93638
203.159	-2359.90287
203.381	892.66452
203.603	-3562.91375
203.825	-2962.79026
204.047	3630.2863
204.269	-2116.87519
204.491	2369.72981
204.713	1944.55969
204.935	15422.90893
205.156	1867.65479
205.378	-8967.72567
205.6	-4300.35716
205.822	9338.11305
206.044	-614.65501
206.266	4238.72286
206.488	1027.022
206.71	31193.07478
206.932	2587.6365
207.153	-4922.79241
207.375	-1797.02589
207.597	8861.76867
207.819	4548.98457
208.041	2307.28763
208.262	-2734.78283
208.484	-1134.52026
208.706	-2789.41915
208.927	29931.33632
209.149	917.20354
209.371	-6654.90725
209.593	1416.61745
209.814	5456.13338
210.036	-3033.00616
210.258	-5117.09204
210.479	-1320.56601
210.701	1060.5611
210.922	6659.72905
211.144	-1278.51039
211.366	-6004.15608
211.587	-612.37364
211.809	9867.47409
212.03	-1389.49538
212.252	-1495.2446
212.473	758.4882
212.695	-2632.90546
212.916	3001.34135
213.138	3500.84265
213.359	-1885.12237
213.581	6991.00371
213.802	-1928.5818
214.024	17768.33118
214.245	-3364.01501
214.466	-721.89488
214.688	1658.52007
214.909	1044.43092
215.131	-99403.90527
215.352	1743.73799
215.573	2569.9319
215.795	3030.8178
216.016	4412.00577
216.237	-605.31469
216.459	6881.55612
216.68	105121.17353
216.901	-80586.83661
217.122	2267.12658
217.344	6106.49697
217.565	-58825.05086
217.786	1501.05226
218.007	1665.54236
218.228	-1088.37598
218.45	-1271.87238
218.671	-1052.64183
218.892	1197.40479
219.113	-18488.72552
219.334	-411.31954
219.555	-5372.9893
219.776	1689.59512
219.997	3442.50209
220.219	1173.16127
220.44	2214.38673
220.661	-3111.81893
220.882	3589.6243
221.103	-1378.76645
221.324	988.59503
221.545	2353.17776
221.766	-5986.34123
221.987	3641.9275
222.208	-1747.93593
222.429	3478.67399
222.65	-201.71818
222.87	-612.86392
223.091	8321.5861
223.312	2591.50106
223.533	6450.46018
223.754	1854.8884
223.975	1506.25962
224.196	-11346.99888
224.417	1050.83373
224.637	998.14878
224.858	-816.26493
225.079	6515.09955
225.3	620.06946
225.521	2051.94873
225.741	1564.72566
225.962	786.96735
226.183	235.2641
226.404	661.5784
226.624	656.50645
226.845	378.1458
227.066	414.9791
227.286	195.90156
227.507	94.77878
227.728	84.75862
227.948	125.43673
228.169	44.3907
228.389	45.70587
228.61	26.04645
228.831	37.45528
229.051	3.50603
229.272	22.32428
229.492	31.71233
229.713	9.50117
229.933	22.39447
230.154	20.0451
230.374	32.67992
230.595	24.21895
230.815	14.75245
231.036	23.82474
231.256	-5.04388
231.477	47.44132
231.697	24.49442
231.917	25.347
232.138	37.9578
232.358	75.15715
232.579	64.03627
232.799	11.07172
233.019	65.10968
233.24	80.2702
233.46	25.22067
233.68	40.89167
233.901	31.99246
234.121	17.92342
234.341	9.01195
234.561	-4.47634
234.782	14.86355
235.002	45.01741
235.222	-2.29304
235.442	41.91407
235.662	22.87863
235.883	46.20877
236.103	38.78608
236.323	26.68744
236.543	18.95416
236.763	30.5919
236.983	28.84682
237.203	27.94183
237.423	45.31467
237.643	64.17161
237.864	54.63008
238.084	14.70099
238.304	21.54504
238.524	33.20921
238.744	32.95316
238.964	47.03108
239.184	45.35936
239.404	48.26174
239.624	24.57051
239.843	41.12421
240.063	24.29089
240.283	17.09466
240.503	17.84936
240.723	17.67857
240.943	9.30707
241.163	14.06175
241.383	6.62752
241.603	5.45395
241.822	6.72249
242.042	5.13939
242.262	5.76155
242.482	6.86472
242.702	8.42141
242.921	2.75935
243.141	5.82729
243.361	5.04715
243.581	7.45272
243.8	6.60052
244.02	4.32706
244.24	7.82848
244.459	7.90676
244.679	15.2299
244.899	9.46548
245.118	10.36892
245.338	9.16896
245.558	11.12139
245.777	6.4613
245.997	7.18664
246.216	7.58419
246.436	4.07775
246.655	3.28683
246.875	2.53762
247.094	4.82019
247.314	1.61544
247.533	2.63133
247.753	3.67451
247.972	2.76317
248.192	0.71649
248.411	1.90892
248.631	3.10788
248.85	3.94757
249.07	2.65104
249.289	5.37642
249.508	3.897
249.728	6.30157
249.947	6.85981
250.166	7.2523
250.386	4.19538
250.605	5.57741
250.824	8.67436
251.044	6.85566
251.263	20.83163
251.482	11.33743
251.701	10.53001
251.921	-0.11684
252.14	3.48599
252.359	3.76646
252.578	8.10519
252.798	3.07029
253.017	7.52063
253.236	4.1885
253.455	5.08724
253.674	9.63971
253.893	4.9641
254.112	6.55146
254.331	9.27632
254.551	7.92502
254.77	4.11628
254.989	11.10509
255.208	10.19433
255.427	12.08358
255.646	10.66767
255.865	17.18099
256.084	6.41833
256.303	8.09674
256.522	12.79879
256.741	2.94797
256.96	3.55211
257.179	8.08847
257.397	9.25299
257.616	4.63404
257.835	5.14032
258.054	12.29711
258.273	7.77612
258.492	8.79103
258.711	5.50928
258.93	2.44905
259.148	3.09024
259.367	3.66781
259.586	4.37408
259.805	2.2186
260.023	4.4235
260.242	3.3594
260.461	2.37408
260.68	1.2833
260.898	3.94916
261.117	1.37917
261.336	0.99769
261.554	3.39529
261.773	3.12995
261.992	0.53003
262.21	3.36093
262.429	3.99524
262.648	6.71045
262.866	7.12712
263.085	4.65122
263.303	4.44786
263.522	8.01388
263.74	8.37285
263.959	12.95584
264.178	7.09292
264.396	6.31988
264.615	4.744
264.833	10.35878
265.051	8.45295
265.27	8.5476
265.488	9.45574
265.707	6.13069
265.925	9.63729
266.144	4.24984
266.362	5.49234
266.58	5.62209
266.799	4.12705
267.017	5.38841
267.235	5.05181
267.454	3.2636
267.672	1.72802
267.89	3.64877
268.109	4.17096
268.327	3.89674
268.545	1.21391
268.763	3.60709
268.982	1.54583
269.2	4.50012
269.418	2.80607
269.636	1.86064
269.854	3.55887
270.073	3.18264
270.291	1.55852
270.509	1.7706
270.727	3.85331
270.945	5.97485
271.163	6.13973
271.381	1.53067
271.599	2.75357
271.817	4.52118
272.036	1.60939
272.254	2.91533
272.472	2.19885
272.69	2.07848
272.908	2.30586
273.126	3.67972
273.344	4.87858
273.562	1.89267
273.779	2.28942
273.997	3.3016
274.215	3.9711
274.433	2.68189
274.651	4.01929
274.869	4.46018
275.087	2.59138
275.305	3.96687
275.523	2.24975
275.74	3.06345
275.958	4.96513
276.176	7.27908
276.394	2.13276
276.612	2.7137
276.829	2.9839
277.047	2.26001
277.265	2.7052
277.483	3.32626
277.7	3.89322
277.918	3.27434
278.136	5.60112
278.353	2.92731
278.571	1.53067
278.789	4.47308
279.006	0.97137
279.224	2.83354
279.442	4.74791
279.659	3.15211
279.877	2.39495
280.094	4.89534
280.312	1.18069
280.529	3.20733
280.747	0.92763
280.964	2.3172
281.182	5.49147
281.399	2.46019
281.617	3.5266
281.834	2.55904
282.052	1.82651
282.269	2.7479
282.487	2.38768
282.704	1.84801
282.921	2.33069
283.139	3.01755
283.356	3.88148
283.574	3.35343
283.791	1.82351
284.008	4.61601
284.226	2.78889
284.443	2.98364
284.66	3.65451
284.877	3.0369
285.095	2.03035
285.312	1.46031
285.529	1.03743
285.746	0.74425
285.964	1.84509
286.181	1.18791
286.398	1.88175
286.615	2.56911
286.832	2.41405
287.05	0.9188
287.267	1.61059
287.484	2.0169
287.701	2.53148
287.918	2.42632
288.135	2.77855
288.352	1.39458
288.569	1.23071
288.786	2.10535
289.003	1.75322
289.22	2.46554
289.437	1.76087
289.654	2.75122
289.871	2.91507
290.088	2.76027
290.305	2.10692
290.522	1.68695
290.739	2.1393
290.956	2.96285
291.173	3.55509
291.39	3.27175
291.607	2.09167
291.824	1.84335
292.04	1.16487
292.257	2.79241
292.474	2.92492
292.691	1.71627
292.908	0.99655
293.125	1.91953
293.341	0.90695
293.558	4.9416
293.775	1.96987
293.992	2.06975
294.208	0.84523
294.425	1.10998
294.642	1.68882
294.858	2.38334
295.075	0.76076
295.292	1.77878
295.508	2.4293
295.725	3.49904
295.942	1.68846
296.158	1.31985
296.375	1.91077
296.591	1.48145
296.808	1.63085
297.024	1.91826
297.241	2.0445
297.458	2.39078
297.674	0.09836
297.891	1.79601
298.107	1.27406
298.323	1.12107
298.54	2.60106
298.756	1.29591
298.973	0.4927
299.189	2.641
299.406	1.17705
299.622	2.7175
299.838	2.68773
300.055	2.59856
300.271	0.67135
300.487	0.8795
300.704	1.26432
300.92	0.66901
301.136	3.6439
301.353	2.63652
301.569	1.85803
301.785	2.07186
302.001	2.50858
302.218	2.28288
302.434	2.17213
302.65	0.75297
302.866	1.6394
303.083	3.57577
303.299	3.42808
303.515	1.83188
303.731	1.87612
303.947	0.70267
304.163	1.06945
304.379	2.12467
304.595	2.37342
304.812	1.34294
305.028	1.10456
305.244	1.50965
305.46	2.63963
305.676	2.79027
305.892	3.08134
306.108	2.07606
306.324	1.4772
306.54	3.50825
306.756	2.45555
306.972	2.52407
307.187	1.62083
307.403	3.10994
307.619	1.27187
307.835	2.74144
308.051	3.14828
308.267	0.68188
308.483	2.8043
308.699	2.26047
308.914	1.96903
309.13	1.71145
309.346	0.54251
309.562	0.9469
309.778	0.63782
309.993	2.41433
310.209	1.77523
310.425	0.78226
310.641	1.49313
310.856	0.9692
311.072	0.89377
311.288	1.72601
311.503	1.94004
311.719	0.35075
311.935	0.17046
312.15	2.10062
312.366	1.89071
312.581	2.40806
312.797	1.93168
313.013	2.57549
313.228	1.44429
313.444	1.85882
313.659	1.28729
313.875	2.26262
314.09	1.68807
314.306	2.80408
314.521	2.57603
314.737	2.38911
314.952	2.21686
315.168	1.63421
315.383	2.39662
315.599	1.67497
315.814	1.61429
316.029	2.5584
316.245	0.71493
316.46	0.73933
316.675	2.96006
316.891	3.78689
317.106	4.40097
317.321	2.49445
317.537	2.31623
317.752	2.60736
317.967	2.62487
318.183	1.20994
318.398	1.72001
318.613	2.6677
318.828	3.18485
319.043	2.70335
319.259	1.46731
319.474	2.33913
319.689	2.89761
319.904	0.55573
320.119	2.71498
320.334	2.07599
320.549	1.6876
320.765	2.94101
320.98	2.28363
321.195	2.83862
321.41	1.80487
321.625	2.5621
321.84	3.75385
322.055	3.70671
322.27	1.5788
322.485	1.13553
322.7	1.91615
322.915	2.99756
323.13	1.29817
323.345	3.23514
323.56	2.57906
323.775	2.62608
323.989	2.42424
324.204	1.9943
324.419	2.65969
324.634	0.72406
324.849	1.87146
325.064	4.01357
325.279	2.81422
325.493	2.66559
325.708	2.93373
325.923	1.1078
326.138	1.35155
326.352	3.47575
326.567	2.92075
326.782	1.74425
326.997	1.34676
327.211	2.36661
327.426	2.30546
327.641	1.69828
327.855	0.45744
328.07	2.45408
328.285	3.41108
328.499	1.69578
328.714	2.56712
328.928	2.73452
329.143	2.14598
329.358	2.64231
329.572	3.03858
329.787	3.13549
330.001	4.51279
330.216	0.75005
330.43	3.48591
330.645	3.59664
330.859	2.70059
331.074	1.45078
331.288	2.13088
331.503	3.04612
331.717	1.1708
331.931	1.90425
332.146	2.23051
332.36	3.53662
332.575	2.77586
332.789	2.34559
333.003	1.96176
333.218	2.44309
333.432	1.58235
333.646	2.46488
333.86	3.36574
334.075	3.3864
334.289	1.7388
334.503	1.27539
334.717	2.38475
334.932	2.54797
335.146	3.19554
335.36	1.84619
335.574	2.60634
335.788	2.53713
336.003	3.23411
336.217	2.6436
336.431	2.61257
336.645	1.53477
336.859	1.01754
337.073	1.7953
337.287	2.25076
337.501	1.30765
337.715	2.24791
337.929	2.72026
338.143	1.14075
338.357	2.03589
338.571	1.16852
338.785	2.40796
338.999	1.55955
339.213	1.86439
339.427	0.65768
339.641	3.07338
339.855	1.81016
340.069	1.60263
340.283	3.10375
340.497	3.66271
340.711	2.52997
340.924	1.50457
341.138	1.13058
341.352	0.78805
341.566	2.14311
341.78	0.68975
341.993	1.60762
342.207	1.03132
342.421	2.16062
342.635	2.10056
342.848	1.52847
343.062	0.32371
343.276	1.58163
343.49	4.13667
343.703	1.50431
343.917	2.62202
344.131	2.71599
344.344	1.45753
344.558	1.4579
344.771	1.38197
344.985	3.15359
345.199	3.33555
345.412	2.05191
345.626	2.20838
345.839	0.68723
346.053	1.08379
346.266	1.08254
346.48	2.64906
346.693	2.183
346.907	2.48733
347.12	1.31264
347.334	2.28309
347.547	2.20434
347.76	1.58135
347.974	2.98045
348.187	2.34764
348.401	1.63307
348.614	1.46141
348.827	1.49004
349.041	2.43432
349.254	0.69891
349.467	1.73021
349.681	0.84742
349.894	1.4418
350.107	3.17834
350.32	3.14405
350.534	0.48116
350.747	1.66819
350.96	1.12961
351.173	1.42864
351.386	1.81514
351.6	1.49149
351.813	1.27618
352.026	2.01034
352.239	0.78294
352.452	1.34374
352.665	2.41404
352.878	1.66937
353.092	3.87754
353.305	2.34077
353.518	2.10973
353.731	1.17975
353.944	3.07939
354.157	1.29325
354.37	1.12638
354.583	0.97883
354.796	0.64797
355.009	2.74713
355.222	1.78081
355.435	1.78506
355.647	2.65516
355.86	0.84687
356.073	1.72585
356.286	1.3013
356.499	2.28296
356.712	1.77194
356.925	2.13156
357.138	2.50722
357.35	0.89116
357.563	1.44217
357.776	1.90687
357.989	1.18758
358.201	2.11338
358.414	1.71602
358.627	2.67385
358.84	1.41764
359.052	0.93905
359.265	0.79121
359.478	2.63601
359.69	-0.35565
359.903	2.08029
360.116	2.26658
360.328	0.40104
360.541	2.29225
360.753	0.92978
360.966	1.12598
361.179	1.13365
361.391	1.14311
361.604	0.71831
361.816	1.15514
362.029	0.91937
362.241	0.92346
362.454	1.04707
362.666	0.78489
362.879	1.3614
363.091	1.33198
363.304	0.81554
363.516	1.51304
363.728	0.57579
363.941	1.86187
364.153	0.87183
364.366	-0.0278
364.578	0.81466
364.79	1.84456
365.003	1.46171
365.215	1.30131
365.427	1.83208
365.639	2.45138
365.852	1.83996
366.064	3.13497
366.276	0.93372
366.488	2.05809
366.701	1.14989
366.913	1.31529
367.125	1.43368
367.337	1.03874
367.549	1.27782
367.762	1.51082
367.974	1.58702
368.186	0.78312
368.398	2.33386
368.61	1.91229
368.822	1.98688
369.034	1.71409
369.246	1.96459
369.458	3.42357
369.67	0.92981
369.882	2.87726
370.094	0.20763
370.306	2.8471
370.518	1.25902
370.73	0.89296
370.942	0.9741
371.154	1.13397
371.366	1.03568
371.578	1.59217
371.79	0.73001
372.002	2.52237
372.214	2.77166
372.425	1.59936
372.637	2.45677
372.849	1.41823
373.061	0.00112
373.273	1.71067
373.484	1.91973
373.696	2.24495
373.908	0.126
374.12	2.33258
374.331	1.94271
374.543	0.86827
374.755	0.76515
374.967	1.54582
375.178	2.06189
375.39	1.26858
375.602	1.53912
375.813	0.74671
376.025	0.37926
376.236	1.39107
376.448	1.57285
376.66	1.0004
376.871	1.11389
377.083	2.20842
377.294	2.16772
377.506	1.08674
377.717	2.35757
377.929	1.59088
378.14	0.76145
378.352	1.78757
378.563	1.72218
378.775	2.34474
378.986	0.9014
379.197	1.28988
379.409	1.21306
379.62	2.05218
379.832	1.64621
380.043	1.20621
380.254	1.44821
380.466	0.50392
380.677	3.64141
380.888	3.22769
381.1	3.26029
381.311	2.88405
381.522	1.38134
381.733	3.59293
381.945	1.23475
382.156	1.70534
382.367	1.19825
382.578	3.49237
382.789	3.45021
383.001	1.26256
383.212	2.17645
383.423	2.60723
383.634	2.33255
383.845	1.68148
384.056	1.12854
384.267	1.38728
384.478	1.28561
384.69	0.69049
384.901	1.75333
385.112	1.66029
385.323	2.39617
385.534	1.72799
385.745	1.64808
385.956	1.98383
386.167	0.71192
386.378	1.72086
386.588	0.58885
386.799	0.88909
387.01	0.24064
387.221	2.08256
387.432	1.25889
387.643	2.71391
387.854	1.27828
388.065	1.12026
388.275	1.26091
388.486	1.25002
388.697	1.41356
388.908	1.06382
389.119	2.3009
389.329	2.75266
389.54	1.57181
389.751	1.88765
389.962	2.27804
390.172	1.71045
390.383	1.02729
390.594	1.02901
390.804	0.9599
391.015	1.03098
391.226	1.54787
391.436	1.77637
391.647	1.76595
391.858	1.78523
392.068	0.38115
392.279	0.73551
392.489	1.45078
392.7	2.15318
392.91	0.80626
393.121	0.9066
393.331	1.95227
393.542	2.35528
393.752	1.88383
393.963	1.6478
394.173	1.57269
394.384	1.97564
394.594	1.38351
394.804	0.63684
395.015	1.55565
395.225	1.93032
395.436	0.82631
395.646	1.97753
395.856	1.08387
396.067	0.7132
396.277	2.31927
396.487	1.83051
396.697	1.70229
396.908	2.29677
397.118	2.22195
397.328	1.87477
397.538	2.47117
397.749	1.20186
397.959	2.29722
398.169	2.28695
398.379	0.70497
398.589	2.1194
398.8	1.86307
399.01	1.78928
399.22	1.69111
399.43	3.30739
399.64	1.52766
399.85	2.35195
400.06	1.76378
400.27	1.29046
400.48	1.68456
400.69	2.74835
400.9	1.49151
401.11	1.28206
401.32	2.44173
401.53	1.5956
401.74	2.85005
401.95	2.4708
402.16	1.47908
402.37	2.14452
402.58	1.58275
402.79	2.45195
403	2.36891
403.209	1.56404
403.419	2.68241
403.629	1.66608
403.839	2.72003
404.049	2.70493
404.258	1.71186
404.468	1.54286
404.678	2.61232
404.888	2.83057
405.097	1.92787
405.307	2.06
405.517	2.54536
405.727	2.43592
405.936	1.87993
406.146	2.50648
406.356	3.10352
406.565	2.26076
406.775	1.81912
406.984	1.99243
407.194	3.69645
407.404	2.4101
407.613	2.56318
407.823	2.93367
408.032	3.1815
408.242	3.00906
408.451	2.05435
408.661	2.11491
408.87	3.62889
409.08	2.00972
409.289	2.62978
409.499	2.72153
409.708	2.5307
409.918	1.1701
410.127	2.74076
410.336	3.52063
410.546	3.02808
410.755	2.30213
410.964	2.20101
411.174	1.90863
411.383	2.84128
411.592	2.82481
411.802	1.92707
412.011	3.09816
412.22	2.50299
412.429	3.74417
412.639	3.70862
412.848	3.43569
413.057	3.92971
413.266	3.32166
413.475	2.83074
413.685	3.30777
413.894	3.3036
414.103	3.4805
414.312	3.2452
414.521	2.7521
414.73	3.06932
414.939	4.19413
415.148	3.2655
415.357	3.01588
415.566	2.76915
415.776	2.7274
415.985	2.71283
416.194	3.419
416.403	4.18094
416.611	2.25882
416.82	2.62302
417.029	3.19061
417.238	2.58681
417.447	2.73655
417.656	2.98142
417.865	2.68676
418.074	3.22103
418.283	3.42165
418.492	4.32282
418.7	4.15547
418.909	5.28969
419.118	4.01014
419.327	4.59288
419.536	4.29947
419.744	4.07729
419.953	5.32784
420.162	5.47416
420.371	4.37488
420.579	4.63386
420.788	5.62591
420.997	5.8676
421.205	5.80579
421.414	5.49252
421.623	5.73252
421.831	5.16271
422.04	5.81347
422.249	4.91718
422.457	5.53531
422.666	4.74733
422.874	5.98362
423.083	5.88243
423.291	5.85798
423.5	5.64963
423.708	5.92609
423.917	6.41533
424.125	5.75378
424.334	5.42341
424.542	7.41332
424.751	6.67616
424.959	6.25522
425.167	6.78306
425.376	6.4958
425.584	5.63791
425.793	5.71892
426.001	4.73502
426.209	5.44564
426.418	4.34302
426.626	4.03898
426.834	3.87816
427.042	3.96704
427.251	3.64846
427.459	4.45078
427.667	4.02145
427.875	3.16466
428.084	3.50606
428.292	4.6081
428.5	4.20551
428.708	3.14098
428.916	3.34244
429.124	3.88536
429.333	3.79444
429.541	3.92273
429.749	4.02865
429.957	4.00801
430.165	5.50135
430.373	3.0056
430.581	4.03487
430.789	4.76834
430.997	3.83902
431.205	3.35459
431.413	4.15361
431.621	3.70557
431.829	4.45132
432.037	3.82236
432.245	3.98498
432.453	4.30491
432.661	3.99585
432.869	5.36097
433.076	3.79582
433.284	4.39388
433.492	5.10794
433.7	5.28339
433.908	4.38786
434.116	4.66553
434.323	4.58389
434.531	4.42981
434.739	4.5893
434.947	4.58537
435.154	4.8468
435.362	4.27807
435.57	4.11601
435.778	3.75584
435.985	4.37734
436.193	3.80856
436.401	5.01937
436.608	4.33371
436.816	3.93649
437.023	5.10604
437.231	5.28016
437.439	4.39157
437.646	4.76475
437.854	4.52223
438.061	4.78569
438.269	4.30465
438.476	4.85795
438.684	4.64359
438.891	4.61588
439.099	4.46695
439.306	4.18204
439.514	4.3763
439.721	5.71353
439.929	4.91513
440.136	5.99645
440.343	5.93604
440.551	5.45052
440.758	7.38626
440.965	6.08053
441.173	5.84386
441.38	5.36483
441.587	5.63308
441.795	5.29258
442.002	5.20054
442.209	5.28006
442.416	5.14517
442.624	4.98256
442.831	4.78084
443.038	4.27361
443.245	4.0259
443.452	4.28492
443.66	4.83538
443.867	4.23714
444.074	4.13276
444.281	4.35632
444.488	4.63654
444.695	4.96433
444.902	4.8139
445.109	5.98712
445.316	5.45824
445.523	5.84582
445.73	5.50463
445.937	6.43652
446.144	6.92289
446.351	7.29239
446.558	6.0659
446.765	7.70616
446.972	7.31377
447.179	6.63859
447.386	7.54844
447.593	6.10467
447.8	7.06387
448.007	5.80254
448.214	5.55177
448.42	5.05105
448.627	5.79095
448.834	4.93916
449.041	4.71682
449.248	4.58128
449.454	5.07506
449.661	5.65022
449.868	4.33521
450.075	4.13331
450.281	3.57475
450.488	3.9228
450.695	3.98261
450.901	3.93991
451.108	4.25935
451.315	5.18177
451.521	4.14013
451.728	5.22041
451.935	4.14909
452.141	4.46766
452.348	4.50694
452.554	4.54392
452.761	4.36082
452.967	5.64128
453.174	4.82154
453.38	4.61349
453.587	3.89162
453.793	4.70638
454	5.00981
454.206	5.90046
454.413	5.13536
454.619	4.91912
454.825	4.22738
455.032	4.86354
455.238	5.10392
455.445	3.90103
455.651	4.64472
455.857	3.55684
456.064	4.43118
456.27	4.43942
456.476	4.29114
456.682	3.80618
456.889	4.71344
457.095	4.74911
457.301	5.93045
457.507	4.68212
457.714	4.54456
457.92	4.63032
458.126	4.10312
458.332	4.56534
458.538	4.53359
458.744	4.86421
458.951	5.06361
459.157	7.10499
459.363	6.1827
459.569	6.3323
459.775	7.00404
459.981	6.29295
460.187	6.8361
460.393	7.09688
460.599	7.42112
460.805	6.24225
461.011	5.7999
461.217	6.04277
461.423	5.77426
461.629	4.89108
461.835	5.2672
462.041	4.68719
462.247	5.89322
462.453	4.55055
462.658	4.55316
462.864	5.22865
463.07	5.00501
463.276	4.81182
463.482	4.88765
463.688	5.71368
463.893	4.37368
464.099	4.50618
464.305	5.71816
464.511	4.47868
464.716	4.61348
464.922	5.33163
465.128	4.19582
465.333	5.74341
465.539	5.15906
465.745	5.05304
465.95	4.92342
466.156	6.68665
466.362	5.64528
466.567	4.85982
466.773	4.54325
466.978	5.78743
467.184	4.34159
467.389	3.84977
467.595	5.13493
467.8	4.46081
468.006	5.62039
468.211	5.73268
468.417	4.16485
468.622	5.12818
468.828	5.46705
469.033	5.13878
469.239	6.73541
469.444	4.48139
469.649	5.49429
469.855	4.79792
470.06	4.98652
470.266	4.10511
470.471	5.3867
470.676	5.16265
470.881	3.76792
471.087	5.95632
471.292	6.17694
471.497	4.0444
471.703	4.84037
471.908	4.4653
472.113	4.95172
472.318	5.57559
472.523	4.31362
472.729	5.18711
472.934	5.40483
473.139	4.73544
473.344	5.28507
473.549	5.9103
473.754	4.54721
473.959	6.54714
474.164	4.54307
474.369	4.70398
474.575	5.37269
474.78	5.10616
474.985	4.67679
475.19	3.76609
475.395	4.53978
475.6	4.90223
475.804	6.00474
476.009	4.95276
476.214	4.99269
476.419	4.72641
476.624	4.15311
476.829	4.50468
477.034	5.34207
477.239	4.71458
477.444	5.35289
477.648	5.41442
477.853	5.41998
478.058	4.8902
478.263	4.66137
478.468	4.53025
478.672	4.58333
478.877	6.0564
479.082	6.09244
479.287	5.3835
479.491	4.99275
479.696	4.51596
479.901	5.63203
480.105	5.464
480.31	4.66628
480.515	5.09753
480.719	6.53035
480.924	4.78431
481.128	4.5643
481.333	5.57915
481.538	5.64761
481.742	5.73147
481.947	6.97683
482.151	7.42452
482.356	7.72258
482.56	9.4243
482.765	10.29673
482.969	12.69657
483.174	14.28165
483.378	16.88351
483.582	17.17937
483.787	18.66806
483.991	18.87219
484.196	18.96956
484.4	18.70905
484.604	18.85931
484.809	16.80663
485.013	16.15499
485.217	14.48395
485.422	12.55118
485.626	11.41025
485.83	10.89372
486.034	10.31612
486.239	10.70934
486.443	10.99494
486.647	11.04743
486.851	12.25004
487.055	13.27774
487.26	12.97224
487.464	13.75903
487.668	13.10044
487.872	13.23223
488.076	13.81843
488.28	13.03259
488.484	12.05509
488.688	11.61933
488.892	11.27969
489.096	10.35046
489.3	9.48252
489.504	8.9733
489.708	8.70559
489.912	8.55098
490.116	8.25604
490.32	7.8295
490.524	8.70368
490.728	9.42935
490.932	9.5365
491.136	10.34037
491.34	11.51002
491.544	11.94539
491.748	11.52081
491.951	11.4895
492.155	10.93641
492.359	10.97044
492.563	9.37671
492.767	9.0081
492.97	8.14493
493.174	7.01534
493.378	6.50796
493.582	5.66793
493.785	5.57588
493.989	5.44991
494.193	5.27668
494.396	4.93685
494.6	5.2567
494.804	4.78803
495.007	4.95938
495.211	5.10878
495.414	5.10821
495.618	5.41611
495.822	6.04046
496.025	5.35107
496.229	5.77508
496.432	5.19636
496.636	5.65735
496.839	5.76145
497.043	6.50166
497.246	5.80143
497.45	5.62569
497.653	5.81026
497.856	5.66788
498.06	5.08424
498.263	5.35972
498.467	5.29601
498.67	5.93809
498.873	5.5142
499.077	5.35841
499.28	5.26811
499.483	5.54084
499.686	5.84518
499.89	5.47265
500.093	5.80899
500.296	4.84189
500.499	6.32936
500.703	5.2615
500.906	5.52791
501.109	6.47186
501.312	5.27683
501.515	5.23464
501.719	5.63709
501.922	5.97965
502.125	5.41154
502.328	5.26095
502.531	4.64423
502.734	5.33442
502.937	4.3862
503.14	5.33401
503.343	4.73729
503.546	5.20377
503.749	4.90234
503.952	5.62361
504.155	4.77593
504.358	5.6372
504.561	5.43114
504.764	4.6331
504.967	5.42173
505.17	5.22493
505.373	6.24982
505.576	5.10064
505.778	5.73463
505.981	4.7382
506.184	6.12112
506.387	4.34695
506.59	6.49738
506.793	5.93518
506.995	5.48869
507.198	4.08966
507.401	5.44086
507.604	5.50131
507.806	4.60008
508.009	4.86604
508.212	5.80082
508.414	4.93095
508.617	4.89794
508.82	5.31747
509.022	6.35852
509.225	5.59755
509.427	4.42973
509.63	6.11032
509.833	5.21606
510.035	5.10285
510.238	4.38155
510.44	6.20139
510.643	4.29911
510.845	6.46848
511.048	5.37329
511.25	5.04606
511.453	5.13184
511.655	5.58395
511.858	5.29132
512.06	5.91672
512.262	5.35456
512.465	5.96769
512.667	5.26929
512.869	4.65588
513.072	5.63121
513.274	5.74829
513.476	5.69364
513.679	6.01341
513.881	4.85795
514.083	6.15807
514.286	4.81245
514.488	4.79341
514.69	4.76318
514.892	4.44298
515.094	5.77008
515.297	4.90074
515.499	5.30252
515.701	4.76188
515.903	6.45693
516.105	6.28867
516.307	5.79745
516.509	4.16105
516.711	4.52428
516.913	5.35491
517.116	5.41218
517.318	5.15212
517.52	5.81164
517.722	5.68856
517.924	5.00404
518.126	6.11202
518.328	5.60297
518.529	6.28524
518.731	7.26132
518.933	5.55642
519.135	5.83854
519.337	6.56065
519.539	6.0233
519.741	4.52763
519.943	5.29425
520.145	5.17981
520.346	6.0367
520.548	5.23261
520.75	5.6849
520.952	5.13545
521.153	5.5899
521.355	5.68373
521.557	4.74968
521.759	5.38931
521.96	5.34269
522.162	4.57859
522.364	5.9503
522.565	4.77394
522.767	5.71006
522.969	5.95477
523.17	5.47029
523.372	5.31186
523.573	4.98279
523.775	5.31847
523.977	4.52041
524.178	6.53917
524.38	4.97861
524.581	5.69553
524.783	5.16596
524.984	6.15185
525.186	5.87103
525.387	6.57324
525.589	6.27114
525.79	6.20907
525.991	5.894
526.193	6.79652
526.394	5.91933
526.596	6.97335
526.797	7.13696
526.998	6.79687
527.2	6.84662
527.401	8.80826
527.602	9.3669
527.803	11.23948
528.005	12.16514
528.206	12.95242
528.407	13.76838
528.608	13.57539
528.81	13.81714
529.011	13.10773
529.212	14.06236
529.413	12.59783
529.614	11.80728
529.815	11.2931
530.017	10.18355
530.218	8.96861
530.419	7.73801
530.62	7.53
530.821	7.15523
531.022	5.84338
531.223	6.95668
531.424	6.76333
531.625	6.86114
531.826	6.71749
532.027	7.02615
532.228	8.39105
532.429	8.01616
532.63	8.27955
532.831	9.08184
533.032	8.88972
533.233	9.76968
533.433	9.26058
533.634	9.60925
533.835	8.93081
534.036	8.39634
534.237	7.91035
534.438	7.25998
534.638	6.31504
534.839	6.07375
535.04	6.14483
535.241	5.51832
535.441	6.79805
535.642	6.18225
535.843	5.47059
536.043	5.81282
536.244	6.07034
536.445	6.22159
536.645	7.0412
536.846	6.69574
537.047	7.30947
537.247	5.75647
537.448	5.82245
537.648	5.87304
537.849	5.42738
538.049	5.46714
538.25	5.80192
538.451	5.91377
538.651	4.73958
538.851	5.68402
539.052	6.13388
539.252	6.00493
539.453	5.21793
539.653	5.51653
539.854	5.45418
540.054	6.06608
540.254	7.38984
540.455	8.2397
540.655	7.82917
540.855	9.15459
541.056	10.07019
541.256	9.76826
541.456	10.63637
541.657	9.8129
541.857	10.68592
542.057	9.10111
542.257	8.6805
542.458	9.21821
542.658	8.92413
542.858	7.22213
543.058	7.88769
543.258	7.21293
543.458	5.73784
543.659	5.49341
543.859	6.45176
544.059	6.17978
544.259	5.48051
544.459	6.12908
544.659	5.21741
544.859	5.7138
545.059	5.05111
545.259	5.93862
545.459	5.47773
545.659	6.0221
545.859	5.48048
546.059	5.475
546.259	4.88102
546.459	4.67175
546.659	4.81035
546.859	6.02604
547.059	5.63614
547.258	5.74246
547.458	5.84602
547.658	4.96114
547.858	4.58592
548.058	5.6006
548.258	5.14626
548.457	4.57877
548.657	6.90663
548.857	5.14638
549.057	5.88507
549.256	5.73194
549.456	5.03733
549.656	3.7876
549.855	6.79818
550.055	4.9443
550.255	6.75806
550.454	5.65466
550.654	5.75102
550.853	6.47948
551.053	6.1137
551.253	5.43934
551.452	5.67149
551.652	4.47335
551.851	4.24286
552.051	5.09329
552.25	4.84599
552.45	4.7018
552.649	5.07388
552.849	4.74314
553.048	5.10073
553.248	5.66469
553.447	4.57424
553.646	5.88668
553.846	6.84114
554.045	6.05876
554.244	4.30874
554.444	6.58527
554.643	4.72281
554.842	6.50275
555.042	6.92953
555.241	4.81986
555.44	4.49839
555.64	5.81136
555.839	6.91191
556.038	5.88819
556.237	4.71474
556.436	5.48696
556.636	5.77949
556.835	4.70002
557.034	6.77233
557.233	5.37615
557.432	4.35248
557.631	6.13102
557.83	5.25225
558.029	4.83452
558.228	4.8175
558.427	4.4637
558.626	5.77063
558.825	4.47529
559.024	5.35798
559.223	6.84689
559.422	5.18591
559.621	5.88135
559.82	3.42234
560.019	5.27662
560.218	5.21867
560.417	2.95854
560.616	4.68174
560.815	7.95425
561.014	4.18673
561.212	6.75833
561.411	5.43005
561.61	3.94116
561.809	5.06312
562.008	6.31178
562.206	5.00809
562.405	5.79397
562.604	4.80501
562.803	5.57901
563.001	4.94621
563.2	4.08823
563.399	5.48403
563.597	4.37677
563.796	5.14271
563.995	4.17606
564.193	5.83848
564.392	4.87645
564.59	6.96384
564.789	3.63894
564.988	4.87402
565.186	5.3451
565.385	4.9574
565.583	4.95463
565.782	5.11842
565.98	5.04217
566.179	5.1545
566.377	4.41366
566.575	4.64906
566.774	6.27283
566.972	5.87023
567.171	6.83412
567.369	6.29792
567.567	5.56363
567.766	5.58528
567.964	3.57557
568.162	5.60009
568.361	6.20833
568.559	5.1204
568.757	5.62323
568.956	5.46592
569.154	5.29856
569.352	5.93045
569.55	5.11632
569.748	5.17194
569.947	4.44968
570.145	4.50721
570.343	4.34863
570.541	6.23051
570.739	4.02139
570.937	5.19581
571.135	5.62275
571.333	6.92136
571.532	6.62189
571.73	5.5256
571.928	6.22789
572.126	5.52524
572.324	4.64562
572.522	6.55564
572.72	7.64702
572.918	5.49286
573.116	5.75974
573.313	5.18685
573.511	5.33275
573.709	4.699
573.907	5.76669
574.105	5.04689
574.303	3.9127
574.501	4.05217
574.699	5.64186
574.896	5.7592
575.094	5.93483
575.292	3.96437
575.49	6.06643
575.688	5.20919
575.885	6.39754
576.083	7.14703
576.281	5.74468
576.478	4.5445
576.676	5.69085
576.874	3.9336
577.071	4.95186
577.269	7.55167
577.467	5.04222
577.664	5.33714
577.862	6.27059
578.059	4.38981
578.257	6.24642
578.455	5.0417
578.652	5.47499
578.85	3.37565
579.047	5.45219
579.245	5.35577
579.442	5.1229
579.64	5.36884
579.837	3.67349
580.034	7.82387
580.232	4.91134
580.429	4.24082
580.627	5.67105
580.824	6.65132
581.021	5.87433
581.219	4.82879
581.416	4.3473
581.613	6.73725
581.811	6.68707
582.008	4.45077
582.205	6.23355
582.402	5.69703
582.6	6.9742
582.797	5.36246
582.994	5.71325
583.191	5.99597
583.388	5.28865
583.586	6.12337
583.783	6.47875
583.98	4.72866
584.177	5.68482
584.374	2.59631
584.571	5.26509
584.768	5.38579
584.965	4.73584
585.162	5.97101
585.359	7.4953
585.556	5.37355
585.753	5.91841
585.95	4.17342
586.147	4.73124
586.344	6.07035
586.541	4.90051
586.738	4.00714
586.935	5.22325
587.132	4.7032
587.329	6.61389
587.526	5.10167
587.722	10.95813
587.919	4.02761
588.116	6.07438
588.313	7.06226
588.51	7.76478
588.706	5.30935
588.903	6.18045
589.1	6.36565
589.297	8.27724
589.493	5.54166
589.69	6.12214
589.887	4.71001
590.083	4.2796
590.28	4.60851
590.477	6.51799
590.673	6.66035
590.87	6.92248
591.067	5.33123
591.263	5.98242
591.46	5.69846
591.656	5.34444
591.853	6.84006
592.049	4.68573
592.246	4.8088
592.442	6.84236
592.639	6.47815
592.835	4.303
593.032	6.06645
593.228	3.96709
593.425	3.78597
593.621	3.50636
593.817	5.69349
594.014	4.58834
594.21	5.65455
594.406	6.71186
594.603	6.05291
594.799	4.90128
594.995	2.90768
595.192	6.85274
595.388	4.8718
595.584	5.04356
595.78	4.18818
595.977	7.99849
596.173	7.36118
596.369	5.2702
596.565	4.42244
596.761	3.89728
596.957	6.64808
597.154	4.59891
597.35	5.01285
597.546	4.68912
597.742	6.38049
597.938	5.61659
598.134	4.4784
598.33	5.76816
598.526	7.10153
598.722	5.95637
598.918	7.6534
599.114	6.00849
599.31	4.73666
599.506	5.58564
599.702	5.0332
599.898	5.73373
600.094	6.73564
600.29	6.43368
600.485	6.71752
600.681	4.80412
600.877	7.54001
601.073	5.81335
601.269	7.97934
601.465	7.12945
601.66	4.44395
601.856	3.19106
602.052	7.80259
602.248	5.11197
602.443	3.36246
602.639	3.9713
602.835	4.75983
603.03	4.45283
603.226	6.61761
603.422	4.41577
603.617	5.06999
603.813	5.14221
604.009	4.91262
604.204	6.73911
604.4	4.01453
604.595	6.53381
604.791	4.28402
604.986	5.80659
605.182	4.56428
605.377	5.07887
605.573	4.85477
605.768	5.66521
605.964	6.29194
606.159	6.2853
606.355	6.92969
606.55	5.19846
606.746	6.93623
606.941	5.05953
607.136	7.95465
607.332	9.46077
607.527	3.92772
607.722	5.73231
607.918	5.37072
608.113	4.71157
608.308	6.66561
608.503	6.03679
608.699	6.03136
608.894	6.2399
609.089	4.55492
609.284	5.88512
609.479	5.08358
609.675	6.3
609.87	5.24991
610.065	6.51476
610.26	6.60027
610.455	6.37259
610.65	5.42865
610.845	5.85271
611.04	6.61839
611.235	5.32623
611.43	4.97901
611.625	4.38189
611.82	7.89305
612.015	4.72731
612.21	7.80895
612.405	3.81946
612.6	8.36224
612.795	7.5245
612.99	6.62185
613.185	4.81381
613.38	4.86714
613.575	5.9246
613.77	9.58578
613.965	3.84043
614.159	5.01216
614.354	7.69075
614.549	7.37599
614.744	6.82547
614.938	4.71859
615.133	4.04081
615.328	7.9615
615.523	7.65832
615.717	9.89444
615.912	4.98381
616.107	5.95707
616.301	5.53086
616.496	4.76847
616.691	8.45043
616.885	7.35733
617.08	10.07302
617.274	7.80537
617.469	9.09072
617.664	7.15763
617.858	5.49631
618.053	6.7101
618.247	5.62639
618.442	2.89985
618.636	8.45217
618.831	5.33892
619.025	5.35015
619.219	10.37826
619.414	1.89693
619.608	5.79579
619.803	4.83841
619.997	9.08673
620.191	8.08168
620.386	6.96483
620.58	6.40704
620.774	3.82579
620.969	3.80755
621.163	6.04859
621.357	4.26659
621.551	5.67297
621.746	6.39409
621.94	5.62664
622.134	11.6114
622.328	9.54761
622.522	3.98825
622.716	8.13
622.911	7.71366
623.105	7.48143
623.299	6.42009
623.493	11.19787
623.687	4.71143
623.881	5.56716
624.075	7.24989
624.269	7.89606
624.463	3.32651
624.657	3.69326
624.851	6.95403
625.045	7.34707
625.239	7.84755
625.433	5.56036
625.627	8.55286
625.821	5.50689
626.015	4.8838
626.209	6.17422
626.403	3.64511
626.596	6.52104
626.79	7.4102
626.984	4.1222
627.178	6.72048
627.372	6.68318
627.565	7.32389
627.759	4.1381
627.953	4.37264
628.147	6.8697
628.34	7.2188
628.534	9.32208
628.728	6.16244
628.921	7.38734
629.115	7.56302
629.309	8.01981
629.502	7.92609
629.696	6.33185
629.89	6.46107
630.083	6.75967
630.277	7.25738
630.47	9.39501
630.664	5.84377
630.857	3.8629
631.051	7.8253
631.244	8.64515
631.438	7.99897
631.631	4.85336
631.825	9.28166
632.018	7.78443
632.212	9.1528
632.405	8.6577
632.598	5.51959
632.792	6.53195
632.985	2.79433
633.178	5.53262
633.372	6.44837
633.565	6.3625
633.758	9.03622
633.952	4.99263
634.145	4.98321
634.338	5.97773
634.531	5.40172
634.724	5.52273
634.918	6.44691
635.111	5.90067
635.304	5.35536
635.497	10.87428
635.69	6.73783
635.883	8.93072
636.077	5.0023
636.27	7.78277
636.463	7.08994
636.656	7.38314
636.849	5.95559
637.042	7.70085
637.235	9.86981
637.428	8.19937
637.621	8.49331
637.814	9.24422
638.007	9.81899
638.2	9.94956
638.393	10.61803
638.586	5.09676
638.778	6.04615
638.971	7.03339
639.164	10.45099
639.357	7.98609
639.55	9.9204
639.743	8.80493
639.935	8.17731
640.128	11.10874
640.321	8.06412
640.514	7.15248
640.707	12.04733
640.899	8.54912
641.092	4.16602
641.285	23.57638
641.477	3.48507
641.67	12.39148
641.863	9.8647
642.055	8.21516
642.248	7.32225
642.441	6.77796
642.633	9.07731
642.826	10.00599
643.018	10.18307
643.211	11.57942
643.403	11.47477
643.596	12.5616
643.788	11.71341
643.981	7.26189
644.173	9.87273
644.366	7.30111
644.558	3.84402
644.751	9.86272
644.943	4.90355
645.135	11.78111
645.328	12.3083
645.52	9.03055
645.712	10.47444
645.905	15.15823
646.097	5.82056
646.289	8.57183
646.482	12.87562
646.674	7.00158
646.866	11.34843
647.058	9.1105
647.251	5.57125
647.443	7.0139
647.635	7.75744
647.827	5.7279
648.019	6.64373
648.211	7.6926
648.404	8.21385
648.596	12.30123
648.788	8.96663
648.98	8.59989
649.172	9.10756
649.364	9.30707
649.556	4.49107
649.748	14.03488
649.94	6.27452
650.132	9.72329
650.324	6.03207
650.516	7.57762
650.708	10.63038
650.9	4.99025
651.092	4.07081
651.284	4.86143
651.476	5.10422
651.667	9.72643
651.859	10.804
652.051	7.33486
652.243	8.22879
652.435	6.74102
652.627	9.83689
652.818	9.24951
653.01	4.9113
653.202	6.16873
653.394	7.24002
653.585	9.28735
653.777	19.56766
653.969	12.25662
654.16	11.30552
654.352	5.49863
654.544	8.02127
654.735	10.89171
654.927	9.06603
655.118	12.27419
655.31	10.27575
655.502	11.32187
655.693	6.9796
655.885	10.04654
656.076	12.03474
656.268	8.75645
656.459	11.78355
656.651	11.97817
656.842	7.2406
657.034	6.75088
657.225	10.26103
657.416	11.41156
657.608	11.96211
657.799	8.78745
657.99	11.14823
658.182	6.74909
658.373	6.86411
658.564	10.39668
658.756	8.43311
658.947	7.98243
659.138	5.94687
659.33	7.0049
659.521	6.61594
659.712	8.044
659.903	7.5201
660.094	6.66449
660.286	5.01179
660.477	12.774
660.668	9.89324
660.859	8.37792
661.05	5.12829
661.241	10.01666
661.432	9.91767
661.623	8.0374
661.814	7.48828
662.006	4.68346
662.197	9.62972
662.388	12.15842
662.579	9.15926
662.77	12.0934
662.96	16.69756
663.151	11.6855
663.342	4.51298
663.533	10.13194
663.724	8.89729
663.915	13.28983
664.106	8.54391
664.297	14.63432
664.488	11.19307
664.678	8.0084
664.869	11.15599
665.06	12.58524
665.251	10.65213
665.442	10.56856
665.632	6.48617
665.823	14.61802
666.014	1.81607
666.204	11.22283
666.395	12.74306
666.586	17.12548
666.776	11.90831
666.967	13.99663
667.158	9.63593
667.348	13.86221
667.539	6.56599
667.729	11.69417
667.92	7.56211
668.111	12.16196
668.301	11.20119
668.492	9.03622
668.682	10.03759
668.873	9.36723
669.063	6.31364
669.253	10.0462
669.444	12.75752
669.634	9.12412
669.825	15.21713
670.015	12.24552
670.206	7.96158
670.396	15.78933
670.586	9.93521
670.777	11.39676
670.967	3.82943
671.157	9.99348
671.347	7.36898
671.538	15.15609
671.728	11.55822
671.918	15.93187
672.108	12.12591
672.299	9.69732
672.489	11.24797
672.679	8.74879
672.869	11.61149
673.059	16.68183
673.249	13.04641
673.44	6.9342
673.63	10.16016
673.82	13.60356
674.01	7.84018
674.2	12.07571
674.39	19.11705
674.58	12.91994
674.77	11.10437
674.96	10.53871
675.15	23.03655
675.34	14.63272
675.53	10.40014
675.72	9.81621
675.91	6.08489
676.099	16.77332
676.289	18.46614
676.479	13.38647
676.669	9.24279
676.859	11.93096
677.049	7.88051
677.238	11.69301
677.428	16.25597
677.618	12.47148
677.808	14.69665
677.997	12.4266
678.187	6.98789
678.377	10.22942
678.567	8.66734
678.756	9.2711
678.946	10.16373
679.136	6.4886
679.325	7.78392
679.515	7.5843
679.704	6.43948
679.894	12.05321
680.084	10.99508
680.273	13.37604
680.463	7.81561
680.652	7.38032
680.842	10.11503
681.031	12.33675
681.221	7.57765
681.41	11.71149
681.6	9.59846
681.789	12.60759
681.978	14.68227
682.168	11.66974
682.357	11.32962
682.547	12.52791
682.736	12.05384
682.925	15.00702
683.115	14.75453
683.304	13.39579
683.493	12.19506
683.682	12.80686
683.872	13.23358
684.061	15.6609
684.25	13.45223
684.439	18.70592
684.629	13.12707
684.818	23.995
685.007	12.25514
685.196	10.95368
685.385	16.92175
685.574	13.71738
685.763	13.28985
685.952	13.27256
686.142	8.82934
686.331	16.30792
686.52	5.99086
686.709	18.59752
686.898	18.26508
687.087	14.67086
687.276	17.71674
687.465	15.81833
687.654	11.83284
687.842	18.08023
688.031	7.57683
688.22	18.42713
688.409	13.39972
688.598	13.28163
688.787	22.75881
688.976	12.37995
689.165	19.62035
689.353	12.19879
689.542	13.98888
689.731	16.85775
689.92	20.76584
690.108	16.93085
690.297	11.95752
690.486	13.72423
690.675	17.07645
690.863	20.4631
691.052	19.75159
691.241	14.60523
691.429	14.37797
691.618	19.3539
691.806	8.96574
691.995	12.84138
692.184	14.16948
692.372	11.6005
692.561	14.04575
692.749	14.13324
692.938	25.20229
693.126	16.55925
693.315	14.5134
693.503	16.59525
693.692	16.76552
693.88	18.93021
694.068	23.09536
694.257	13.74866
694.445	16.846
694.634	6.89437
694.822	18.48219
695.01	19.68182
695.199	21.39186
695.387	20.6222
695.575	19.5536
695.763	14.38477
695.952	12.34918
696.14	8.57083
696.328	11.78003
696.516	14.48277
696.705	15.25928
696.893	15.33445
697.081	7.19688
697.269	17.62635
697.457	10.81402
697.645	8.63346
697.833	16.6807
698.021	10.80411
698.21	11.47141
698.398	12.24893
698.586	8.53753
698.774	8.73617
698.962	12.26233
699.15	8.79386
699.338	7.63701
699.526	14.11041
699.714	10.45514
699.901	10.32755
700.089	16.55186
700.277	9.81135
700.465	12.07206
700.653	16.49875
700.841	15.57342
701.029	9.43875
701.217	18.80905
701.404	13.73099
701.592	20.05052
701.78	23.38721
701.968	12.84294
702.155	14.78064
702.343	8.26105
702.531	20.56633
702.718	18.01017
702.906	15.05042
703.094	11.71745
703.281	20.73986
703.469	15.26476
703.657	20.20246
703.844	30.07891
704.032	23.91875
704.219	12.67833
704.407	18.16793
704.595	20.90728
704.782	16.78858
704.97	13.4744
705.157	14.46216
705.345	23.26061
705.532	30.36112
705.719	18.03018
705.907	22.64041
706.094	16.47115
706.282	25.46044
706.469	14.81746
706.656	16.68175
706.844	15.4572
707.031	21.74156
707.218	17.04297
707.406	24.56756
707.593	20.94114
707.78	20.84358
707.968	16.77301
708.155	12.40201
708.342	19.76798
708.529	20.48548
708.716	17.51546
708.904	25.51533
709.091	20.41327
709.278	11.67325
709.465	26.38034
709.652	26.09184
709.839	24.59547
710.026	19.90131
710.213	10.14658
710.4	18.97085
710.587	22.5802
710.774	23.89695
710.961	23.46522
711.148	18.33077
711.335	24.89087
711.522	17.68754
711.709	19.49677
711.896	29.48858
712.083	21.95014
712.27	14.3648
712.457	19.20996
712.644	11.38141
712.831	29.69579
713.017	19.552
713.204	21.82425
713.391	15.85339
713.578	24.88206
713.765	26.56633
713.951	21.54364
714.138	36.27753
714.325	22.75664
714.512	18.95001
714.698	16.24583
714.885	27.43028
715.072	21.34566
715.258	19.49687
715.445	17.07789
715.631	25.93715
715.818	6.69759
716.005	16.16865
716.191	23.74913
716.378	17.33763
716.564	24.14871
716.751	16.32322
716.937	16.5281
717.124	26.58483
717.31	16.04972
717.497	30.01064
717.683	16.35301
717.869	32.27718
718.056	17.50817
718.242	24.0052
718.429	20.54276
718.615	13.89369
718.801	20.45253
718.988	26.56679
719.174	23.27062
719.36	20.73266
719.547	28.40383
719.733	24.17343
719.919	22.75603
720.105	27.84943
720.291	21.12444
720.478	23.59078
720.664	20.31614
720.85	18.4501
721.036	38.82286
721.222	32.80128
721.408	21.31136
721.595	34.29019
721.781	34.07761
721.967	30.85178
722.153	33.54791
722.339	25.57615
722.525	25.21865
722.711	16.47612
722.897	13.88317
723.083	20.81927
723.269	27.12241
723.455	40.33346
723.641	43.78756
723.827	24.05178
724.012	25.783
724.198	20.16394
724.384	31.99757
724.57	26.84535
724.756	14.92155
724.942	11.25452
725.127	29.95637
725.313	32.13924
725.499	32.48514
725.685	37.55109
725.87	25.79351
726.056	16.89792
726.242	31.70097
726.428	13.4437
726.613	29.93103
726.799	21.4144
726.985	16.07928
727.17	12.95535
727.356	35.94687
727.541	17.4981
727.727	22.35897
727.913	28.86009
728.098	21.47843
728.284	28.73052
728.469	14.88308
728.655	17.11302
728.84	30.23395
729.026	27.70177
729.211	29.84888
729.397	26.6489
729.582	27.10818
729.767	23.11649
729.953	24.79064
730.138	31.37847
730.323	10.00569
730.509	16.25714
730.694	34.74361
730.879	27.27189
731.065	25.55522
731.25	40.10886
731.435	27.85522
731.621	14.10914
731.806	19.93136
731.991	25.22191
732.176	13.69684
732.361	33.13858
732.547	28.0762
732.732	11.90455
732.917	39.86913
733.102	16.56839
733.287	19.362
733.472	24.31799
733.657	24.6325
733.842	13.9456
734.027	19.01383
734.212	22.16225
734.397	19.15894
734.582	24.10984
734.767	29.36827
734.952	34.34928
735.137	7.30716
735.322	35.66464
735.507	25.51531
735.692	25.99179
735.877	41.2532
736.062	39.60063
736.247	28.01611
736.431	24.96268
736.616	35.08504
736.801	26.9567
736.986	26.08119
737.171	19.0356
737.355	15.33831
737.54	34.97857
737.725	25.96417
737.909	47.52464
738.094	21.91421
738.279	32.77772
738.463	25.1694
738.648	31.73326
738.833	29.2693
739.017	42.35078
739.202	25.7596
739.386	26.16943
739.571	21.27881
739.756	34.47476
739.94	25.93388
740.125	33.50933
740.309	20.35616
740.494	31.13807
740.678	27.35107
740.863	29.49078
741.047	28.58726
741.231	39.07447
741.416	19.56424
741.6	39.13679
741.785	20.97414
741.969	34.80632
742.153	37.56739
742.338	11.65544
742.522	25.78456
742.706	34.13788
742.89	17.40724
743.075	27.92113
743.259	37.50118
743.443	37.23557
743.627	39.36546
743.812	47.16927
743.996	7.65856
744.18	27.75229
744.364	22.43634
744.548	51.23596
744.732	28.54479
744.916	32.53687
745.1	32.85038
745.285	25.40036
745.469	32.30678
745.653	45.15741
745.837	19.13542
746.021	49.77529
746.205	36.0362
746.389	29.12963
746.573	24.24708
746.757	42.13785
746.94	25.02232
747.124	40.53616
747.308	18.29508
747.492	38.96866
747.676	25.39029
747.86	51.10342
748.044	26.99313
748.227	13.44577
748.411	69.12631
748.595	31.26575
748.779	23.70619
748.963	34.85853
749.146	31.26871
749.33	22.47363
749.514	18.93913
749.697	39.48935
749.881	22.27339
750.065	18.84413
750.248	30.68198
750.432	52.4884
750.616	32.0473
750.799	15.67865
750.983	49.13756
751.166	57.28915
751.35	15.24157
751.533	40.01708
751.717	44.68615
751.9	45.67388
752.084	24.6059
752.267	17.44794
752.451	22.29214
752.634	30.2937
752.818	33.78383
753.001	38.31689
753.184	39.66649
753.368	32.70916
753.551	-0.98984
753.734	21.99397
753.918	52.7547
754.101	22.25768
754.284	35.3919
754.467	25.76717
754.651	24.27258
754.834	25.19686
755.017	42.04084
755.2	40.65598
755.384	18.44025
755.567	37.86973
755.75	41.09639
755.933	25.07482
756.116	32.32906
756.299	23.1362
756.482	21.08291
756.665	38.69067
756.848	33.88474
757.032	38.09669
757.215	17.90751
757.398	20.99147
757.581	19.2729
757.764	55.15882
757.947	31.70125
758.129	43.25398
758.312	-0.63108
758.495	29.88702
758.678	27.42583
758.861	32.75044
759.044	55.48756
759.227	22.38213
759.41	22.76762
759.592	36.38037
759.775	29.90752
759.958	42.69854
760.141	17.05299
760.324	53.40143
760.506	46.59135
760.689	38.08848
760.872	56.79718
761.054	37.45871
761.237	26.01946
761.42	38.02148
761.602	39.8493
761.785	33.98304
761.968	40.08121
762.15	50.44808
762.333	28.57795
762.515	35.95037
762.698	23.32537
762.88	37.62411
763.063	32.70709
763.245	39.09209
763.428	22.1769
763.61	23.7672
763.793	19.83094
763.975	31.98279
764.158	24.25366
764.34	23.11092
764.522	17.85099
764.705	26.86861
764.887	41.23562
765.069	15.27225
765.252	37.58626
765.434	37.25447
765.616	28.41169
765.799	21.93662
765.981	35.31043
766.163	22.32659
766.345	39.16167
766.528	24.66962
766.71	6.49362
766.892	29.7769
767.074	45.28319
767.256	30.82447
767.438	49.97605
767.62	35.83055
767.802	55.64604
767.985	41.37456
768.167	54.45505
768.349	28.52668
768.531	37.02544
768.713	35.59881
768.895	44.68507
769.077	38.54044
769.259	65.8946
769.441	95.06944
769.623	46.50353
769.804	54.12924
769.986	52.15643
770.168	68.4405
770.35	78.71356
770.532	61.24934
770.714	62.78792
770.896	72.1878
771.077	25.58822
771.259	69.58855
771.441	59.99674
771.623	71.87211
771.804	100.1107
771.986	23.03468
772.168	42.46353
772.35	68.59938
772.531	101.36584
772.713	53.80198
772.894	80.28851
773.076	51.81675
773.258	40.64776
773.439	75.88889
773.621	82.73557
773.802	29.18112
773.984	54.21508
774.166	57.73158
774.347	89.02614
774.529	71.13109
774.71	17.18876
774.891	46.78991
775.073	47.4018
775.254	86.02801
775.436	39.62368
775.617	96.37424
775.799	46.01029
775.98	87.6474
776.161	86.77908
776.343	84.39353
776.524	57.41993
776.705	52.52416
776.886	25.19725
777.068	60.06671
777.249	114.90943
777.43	97.56611
777.611	33.26323
777.793	52.04794
777.974	89.86564
778.155	48.00105
778.336	42.77453
778.517	96.78343
778.698	40.32873
778.879	18.43807
779.061	4.2471
779.242	66.79421
779.423	60.85936
779.604	42.81412
779.785	50.62535
779.966	65.13495
780.147	76.23307
780.328	78.74792
780.509	106.83739
780.69	73.25604
780.871	48.08891
781.051	25.66023
781.232	57.19169
781.413	63.12252
781.594	45.7938
781.775	44.88245
781.956	44.43976
782.137	22.21007
782.317	38.9697
782.498	65.65316
782.679	64.89628
782.86	60.94424
783.04	40.71647
783.221	64.70907
783.402	96.70557
783.583	59.24595
783.763	74.49683
783.944	47.20556
784.124	26.8276
784.305	93.88001
784.486	68.55388
784.666	48.58106
784.847	23.15403
785.027	118.15934
785.208	38.70173
785.388	37.43714
785.569	39.89449
785.749	45.31301
785.93	46.08435
786.11	29.95178
786.291	64.06526
786.471	66.57996
786.652	68.41908
786.832	53.86357
787.012	62.52421
787.193	30.69763
787.373	56.89981
787.553	47.97043
787.734	59.68003
787.914	43.65006
788.094	66.54207
788.275	56.2771
788.455	47.2627
788.635	29.00554
788.815	59.34275
788.995	33.0235
789.176	28.97643
789.356	39.00885
789.536	47.69943
789.716	61.5472
789.896	35.84937
790.076	44.81347
790.256	58.25331
790.436	12.32688
790.616	36.30792
790.796	56.68392
790.976	44.45929
791.156	43.79667
791.336	68.01637
791.516	62.61819
791.696	49.16964
791.876	24.78266
792.056	58.43977
792.236	81.72623
792.416	72.25987
792.596	66.67549
792.776	63.43883
792.956	71.57813
793.135	88.16449
793.315	28.76673
793.495	82.35581
793.675	70.0612
793.854	77.72692
794.034	77.21533
794.214	32.26636
794.394	71.49019
794.573	76.69034
794.753	53.91845
794.933	46.13717
795.112	59.71414
795.292	72.98182
795.472	89.96171
795.651	37.74264
795.831	59.23159
796.01	46.92544
796.19	43.63775
796.369	47.8304
796.549	65.11941
796.728	46.91723
796.908	32.26484
797.087	34.52438
797.267	51.81946
797.446	31.57227
797.626	60.15736
797.805	62.35311
797.984	41.79815
798.164	62.48371
798.343	35.99125
798.522	57.5205
798.702	55.60849
798.881	29.26583
799.06	49.65958
799.239	18.49977
799.419	31.62169
799.598	87.6517
799.777	67.85652
799.956	72.52758
800.136	55.87205
800.315	40.39907
800.494	64.73396
800.673	71.27746
800.852	72.47738
801.031	79.92495
801.21	66.74949
801.389	41.60671
801.568	64.27951
801.747	90.08764
801.926	54.79081
802.105	89.45822
802.284	51.94283
802.463	86.71537
802.642	60.85757
802.821	66.42398
803	83.22734
803.179	79.61238
803.358	76.75663
803.537	40.98835
803.716	70.54579
803.895	38.88149
804.073	50.59
804.252	49.12084
804.431	65.90393
804.61	56.858
804.789	88.79928
804.967	46.52642
805.146	45.40668
805.325	103.10767
805.503	65.90585
805.682	32.56878
805.861	121.22192
806.039	89.69139
806.218	36.08408
806.397	64.88854
806.575	59.57763
806.754	64.46228
806.932	40.19477
807.111	91.11807
807.289	80.39831
807.468	62.41936
807.646	80.04242
807.825	63.94198
808.003	67.5282
808.182	78.28876
808.36	56.40453
808.539	43.09241
808.717	91.88676
808.895	34.96627
809.074	63.1538
809.252	53.05202
809.43	84.10271
809.609	91.18396
809.787	104.95597
809.965	51.33826
810.144	60.38305
810.322	48.86274
810.5	71.86144
810.678	62.63241
810.856	105.63688
811.035	90.8371
811.213	85.88239
811.391	82.60107
811.569	67.79815
811.747	132.1895
811.925	87.97728
812.103	49.1146
812.281	50.50088
812.459	111.86223
812.637	108.01724
812.816	95.52939
812.994	116.91827
813.171	96.33995
813.349	87.95116
813.527	106.61836
813.705	94.74668
813.883	112.7369
814.061	98.22791
814.239	120.07738
814.417	127.1497
814.595	85.30085
814.773	65.78291
814.95	78.01375
815.128	75.27528
815.306	59.27291
815.484	60.34412
815.662	44.01589
815.839	39.90945
816.017	54.31009
816.195	93.42791
816.372	58.71873
816.55	93.19187
816.728	108.43061
816.905	71.05367
817.083	103.26928
817.261	69.62263
817.438	143.99793
817.616	125.09574
817.793	47.06998
817.971	88.97793
818.148	77.20112
818.326	113.76433
818.503	79.10212
818.681	102.50899
818.858	52.63955
819.036	69.86868
819.213	74.5166
819.391	49.41524
819.568	44.51908
819.745	44.13488
819.923	79.37817
820.1	49.20633
820.277	44.52362
820.455	51.87269
820.632	53.67552
820.809	58.44393
820.986	32.56989
821.164	24.74109
821.341	20.86452
821.518	32.01516
821.695	23.01879
821.872	20.21354
822.05	17.03617
822.227	11.80142
822.404	13.58658
822.581	16.89726
822.758	13.1717
822.935	13.07961
823.112	15.42447
823.289	12.13582
823.466	15.64496
823.643	13.90947
823.82	18.21521
823.997	15.07027
824.174	19.23435
824.351	26.95072
824.528	25.72266
824.705	22.25838
824.882	25.92592
825.059	35.44759
825.236	22.74556
825.412	24.84757
825.589	31.24885
825.766	50.05113
825.943	25.41552
826.12	34.34872
826.296	20.00713
826.473	30.2784
826.65	29.04675
826.827	39.78341
827.003	24.17657
827.18	26.6864
827.357	31.29483
827.533	26.31912
827.71	11.46012
827.887	22.05215
828.063	28.11229
828.24	21.90588
828.416	32.27627
828.593	25.57211
828.769	40.40287
828.946	43.86822
829.122	45.7907
829.299	47.81385
829.475	16.76691
829.652	42.45885
829.828	72.29633
830.005	48.17384
830.181	60.27666
830.357	41.37606
830.534	69.54511
830.71	56.53061
830.886	73.52123
831.063	63.60984
831.239	86.43366
831.415	36.9896
831.592	102.45041
831.768	52.7577
831.944	44.7569
832.12	102.67026
832.296	97.21984
832.473	74.26191
832.649	46.97801
832.825	72.62319
833.001	40.32086
833.177	57.67062
833.353	53.31495
833.529	26.92764
833.705	43.05949
833.881	29.16413
834.058	27.60876
834.234	28.53562
834.41	31.18482
834.586	21.33501
834.761	28.84735
834.937	32.08753
835.113	34.05933
835.289	27.55633
835.465	35.69091
835.641	30.01577
835.817	35.8615
835.993	69.80429
836.169	28.76786
836.344	49.68908
836.52	64.3928
836.696	75.97
836.872	38.0563
837.048	146.37674
837.223	49.25593
837.399	129.25918
837.575	96.03345
837.75	81.41892
837.926	123.31409
838.102	203.21543
838.277	157.07181
838.453	214.20476
838.628	213.03138
838.804	52.58977
838.98	198.15888
839.155	90.91628
839.331	126.72889
839.506	96.42013
839.682	87.53811
839.857	104.03325
840.033	135.9093
840.208	52.8803
840.384	26.13166
840.559	60.77505
840.734	100.40801
840.91	134.23429
841.085	93.86538
841.26	94.34008
841.436	87.79248
841.611	69.9886
841.786	113.29813
841.962	158.51274
842.137	119.88962
842.312	54.14302
842.487	108.67522
842.663	78.12319
842.838	96.04513
843.013	301.28671
843.188	182.09692
843.363	122.08982
843.538	307.19953
843.714	343.42663
843.889	317.67162
844.064	298.60479
844.239	214.13779
844.414	473.56617
844.589	248.24668
844.764	395.28363
844.939	381.03169
845.114	404.84052
845.289	433.34254
845.464	498.30969
845.639	368.8305
845.814	167.4893
845.989	297.87172
846.163	232.92353
846.338	305.69453
846.513	421.07548
846.688	256.08756
846.863	314.49045
847.038	222.18705
847.212	277.01178
847.387	354.53196
847.562	283.85691
847.737	447.45563
847.911	181.5771
848.086	168.57241
848.261	355.47284
848.435	278.39722
848.61	347.4756
848.785	193.0101
848.959	413.85556
849.134	484.65136
849.308	659.69694
849.483	322.7076
849.658	519.75428
849.832	261.92662
850.007	219.64208
850.181	686.39952
850.356	283.89537
850.53	756.37266
850.705	360.44427
850.879	151.55015
851.053	277.00792
851.228	286.31808
851.402	488.51494
851.577	471.34467
851.751	611.16161
851.925	333.2458
852.099	144.25245
852.274	251.42482
852.448	317.62163
852.622	459.95621
852.797	343.46147
852.971	338.38814
853.145	419.64568
853.319	714.0526
853.493	652.96763
853.668	485.59865
853.842	769.80674
854.016	502.83237
854.19	686.31285
854.364	338.16232
854.538	324.87669
854.712	737.99479
854.886	413.75267
855.06	292.37365
855.234	103.95399
855.408	616.74004
855.582	402.40206
855.756	641.398
855.93	540.8904
856.104	641.97804
856.278	571.25935
856.452	388.41466
856.626	381.0842
856.8	946.29763
856.973	428.81006
857.147	487.13322
857.321	479.57559
857.495	504.87342
857.669	340.39069
857.842	439.53325
858.016	586.06661
858.19	228.07983
858.364	778.23148
858.537	412.00359
858.711	543.29845
858.885	407.51618
859.058	231.2494
859.232	164.0223
859.405	122.54866
859.579	468.05946
859.753	505.1689
859.926	232.48797
860.1	244.42266
860.273	405.65757
860.447	466.15564
860.62	387.29671
860.794	625.45586
860.967	335.26505
861.141	480.85894
861.314	800.37067
861.487	485.79428
861.661	467.92499
861.834	551.14699
862.008	651.08874
862.181	457.39109
862.354	512.80837
862.528	475.95431
862.701	340.31075
862.874	186.76388
863.047	310.94285
863.221	278.10839
863.394	170.86075
863.567	425.14199
863.74	107.24302
863.913	485.51735
864.087	517.93746
864.26	469.83237
864.433	346.78644
864.606	622.18247
864.779	368.17785
864.952	187.40116
865.125	394.46541
865.298	271.05239
865.471	335.22001
865.644	738.33076
865.817	481.92675
865.99	515.74739
866.163	456.82217
866.336	227.15298
866.509	323.20507
866.682	593.06793
866.855	716.68176
867.028	218.55778
867.2	395.70524
867.373	96.70455
867.546	359.69857
867.719	720.71738
867.892	438.9794
868.064	271.55971
868.237	311.25079
868.41	367.75883
868.583	164.37493
868.755	195.96495
868.928	395.54788
869.101	819.10572
869.273	517.2742
869.446	500.43866
869.619	591.09686
869.791	359.77818
869.964	496.21648
870.136	881.42245
870.309	343.73985
870.481	372.16807
870.654	210.85893
870.826	339.06923
870.999	224.08724
871.171	404.80921
871.344	252.95769
871.516	282.88672
871.689	238.5981
871.861	349.33138
872.033	278.8437
872.206	268.07904
872.378	330.61564
872.55	363.69016
872.723	188.16184
872.895	322.4028
873.067	432.92996
873.24	365.59883
873.412	322.85173
873.584	370.26269
873.756	330.15694
873.928	445.6805
874.101	337.76049
874.273	399.99855
874.445	126.31692
874.617	238.65225
874.789	304.81577
874.961	320.33466
875.133	368.43067
875.305	396.41586
875.477	272.38719
875.649	176.0317
875.821	177.30531
875.993	602.47215
876.165	321.49281
876.337	356.76844
876.509	316.66862
876.681	369.40791
876.853	345.41013
877.025	364.6322
877.197	232.86558
877.369	160.2521
877.541	327.79656
877.712	90.27452
877.884	183.39668
878.056	335.00706
878.228	182.37069
878.4	411.65074
878.571	163.29007
878.743	119.22294
878.915	269.99255
879.086	122.86682
879.258	182.71064
879.43	166.35558
879.601	131.2509
879.773	133.0571
879.945	19.54119
880.116	49.83121
880.288	27.48481
880.459	30.79667
880.631	21.95108
880.802	27.17553
880.974	24.41687
881.145	15.08924
881.317	22.33105
881.488	16.19987
881.66	17.97352
881.831	16.23131
882.002	24.01805
882.174	15.9388
882.345	22.12528
882.517	8.78834
882.688	27.18929
882.859	20.19092
883.03	37.48092
883.202	31.75181
883.373	25.8849
883.544	27.74473
883.715	52.20171
883.887	40.69359
884.058	34.83879
884.229	55.06125
884.4	53.97846
884.571	65.88002
884.742	54.54194
884.914	65.20062
885.085	96.89484
885.256	133.93544
885.427	117.53116
885.598	137.88687
885.769	130.69188
885.94	138.1377
886.111	68.21442
886.282	159.4262
886.453	153.43211
886.624	113.3021
886.795	209.46052
886.966	166.16176
887.136	190.3223
887.307	129.62663
887.478	305.45792
887.649	268.78505
887.82	253.67113
887.991	205.92013
888.161	338.82269
888.332	336.26903
888.503	163.04292
888.674	361.86958
888.844	537.71545
889.015	346.06038
889.186	235.76432
889.356	505.08282
889.527	224.64046
889.698	648.71902
889.868	258.99325
890.039	392.41585
890.209	299.12646
890.38	380.02527
890.551	343.39184
890.721	397.76682
890.892	450.37318
891.062	448.58161
891.233	526.60931
891.403	505.14992
891.574	300.0352
891.744	240.87227
891.914	320.42085
892.085	372.06841
892.255	97.94126
892.425	438.68532
892.596	316.55693
892.766	392.90828
892.936	457.35793
893.107	384.06401
893.277	155.57695
893.447	197.20138
893.618	107.62326
893.788	197.13534
893.958	112.95
894.128	90.13196
894.298	114.76774
894.468	160.31322
894.639	66.47717
894.809	33.04359
894.979	67.36803
895.149	79.61212
895.319	70.1328
895.489	94.15166
895.659	137.24685
895.829	75.76321
895.999	80.01275
896.169	72.67704
896.339	96.85371
896.509	190.86863
896.679	198.07879
896.849	207.41239
897.019	269.91954
897.189	243.83118
897.358	222.69271
897.528	337.77242
897.698	222.62851
897.868	288.66491
898.038	613.22785
898.208	599.81001
898.377	220.50231
898.547	981.91939
898.717	1411.30011
898.886	415.11124
899.056	627.09933
899.226	1450.41151
899.395	739.52888
899.565	1259.19439
899.735	861.15236
899.904	889.58297
900.074	999.72687
900.244	256.10642
900.413	1251.23241
900.583	373.02067
900.752	1243.50617
900.922	932.83904
901.091	169.88462
901.261	1789.04051
901.43	510.75668
901.599	2329.05724
901.769	1461.70528
901.938	1067.87881
902.108	1592.60629
902.277	808.55825
902.446	362.19798
902.616	358.65358
902.785	543.37264
902.954	715.75411
903.124	551.02003
903.293	289.78754
903.462	134.13541
903.631	205.89731
903.801	144.78832
903.97	59.48174
904.139	109.91596
904.308	87.12964
904.477	66.58522
904.646	28.1015
904.816	58.65662
904.985	93.52585
905.154	135.77965
