Data from WindowProjectSample_Transmission__68__00068__009703583812964267.txt Node

Date: Mon May 05 18:36:39 EDT 2025
User: jessi
Spectrometer: SR400872
Trigger mode: 0
Integration Time (sec): 5.000010E-1
Scans to average: 20
Electric dark correction enabled: true
Nonlinearity correction enabled: true
Boxcar width: 0
XAxis mode: Wavelengths
Number of Pixels in Spectrum: 3648
>>>>>Begin Spectral Data<<<<<
184.909	21666.93731
185.132	-5270.24104
185.355	-3039.62671
185.578	-18210.89835
185.801	1987.64456
186.024	10482.84648
186.247	-1977.21953
186.47	1181.94459
186.693	323.04235
186.916	436.14698
187.139	-3858.93602
187.362	3471.25303
187.585	4139.48753
187.808	3807.96256
188.031	40.78338
188.254	-52772.88533
188.476	-671.80509
188.699	6655.32001
188.922	719.23136
189.145	-15720.37045
189.368	-787.15885
189.591	-1402.93965
189.813	3242.64745
190.036	-52401.20216
190.259	-875.86468
190.482	-4853.61171
190.705	7201.36575
190.927	-2547.44036
191.15	13424.0138
191.373	3423.99008
191.595	-9214.00167
191.818	-4266.47785
192.041	-7723.53038
192.263	-3504.63184
192.486	-989.1993
192.709	-4071.2035
192.931	8089.32667
193.154	-29840.97379
193.377	-3029.72818
193.599	-2595.12946
193.822	-9570.94186
194.044	-2027.77012
194.267	1288.58058
194.489	300.62361
194.712	-45918.6872
194.934	-32214.28943
195.157	1262.85786
195.379	1500.87078
195.602	-7073.95885
195.824	-1351.30707
196.047	-9305.46779
196.269	2796.00026
196.492	-6508.56476
196.714	30160.98781
196.936	-8745.82452
197.159	-1254.7116
197.381	1145.47563
197.604	578.9282
197.826	11631.39503
198.048	-11082.53263
198.271	-2681.10128
198.493	7826.53884
198.715	2351.6263
198.938	-479.87347
199.16	7002.3765
199.382	-100617.56124
199.604	2927.74739
199.827	-1137.7535
200.049	-3046.57747
200.271	14207.03799
200.493	1284.98997
200.715	-38722.62458
200.938	-6172.04951
201.16	-4179.70321
201.382	20409.25165
201.604	2327.82449
201.826	2443.84064
202.048	-1822.23972
202.27	-1991.20044
202.492	-37568.28666
202.715	3086.47209
202.937	-4544.96133
203.159	-6331.67566
203.381	1502.94443
203.603	6911.5422
203.825	6816.89904
204.047	2269.88584
204.269	-2878.15926
204.491	2219.02804
204.713	6143.34189
204.935	-516826.58807
205.156	1216.17168
205.378	-3074.83017
205.6	1725.49398
205.822	160468.73897
206.044	-1089.26186
206.266	1641.91523
206.488	4893.17604
206.71	-5581.11408
206.932	1193.40274
207.153	12282.99565
207.375	-7237.46276
207.597	-38317.04525
207.819	-2905.31256
208.041	2563.18672
208.262	566.19413
208.484	779.68044
208.706	-776.35096
208.927	-945.60294
209.149	579.38786
209.371	-2934.08712
209.593	-323.69997
209.814	-761.70914
210.036	744.9817
210.258	-765.99808
210.479	1992.30835
210.701	1628.93584
210.922	3581.72593
211.144	-4064.12351
211.366	2160.87237
211.587	8019.8918
211.809	-8518.14694
212.03	2461.27566
212.252	467.34461
212.473	2102.07678
212.695	-6643.8516
212.916	2989.46518
213.138	-722.69358
213.359	3841.92827
213.581	5506.82907
213.802	-818.46997
214.024	1177.64569
214.245	2297.13227
214.466	3021.45186
214.688	-3190.98274
214.909	-1239.5486
215.131	-1744.09126
215.352	-3335.00197
215.573	14714.41533
215.795	5273.36689
216.016	5583.59327
216.237	773.52181
216.459	3762.79841
216.68	1929.5065
216.901	5192.53726
217.122	-3328.44621
217.344	-12205.7346
217.565	3529.48294
217.786	9228.62527
218.007	19895.81183
218.228	-752.58226
218.45	6176.65376
218.671	871.27233
218.892	36943.56839
219.113	1495.93979
219.334	-270.4775
219.555	10428.83851
219.776	3046.13181
219.997	23300.02086
220.219	2908.03144
220.44	-10871.41196
220.661	492.30916
220.882	1578.95208
221.103	-1203.79675
221.324	2243.23725
221.545	2309.63588
221.766	-9438.61706
221.987	976.60556
222.208	1952.03631
222.429	4382.57477
222.65	258.6842
222.87	18440.01828
223.091	772.80915
223.312	609.26429
223.533	1478.43779
223.754	1515.86235
223.975	1383.64087
224.196	1978.54737
224.417	1332.89212
224.637	713.72064
224.858	95.11352
225.079	1093.49374
225.3	661.17489
225.521	3811.26214
225.741	465.57072
225.962	549.68101
226.183	135.56345
226.404	666.14339
226.624	434.82549
226.845	658.50413
227.066	415.27728
227.286	256.87431
227.507	133.75872
227.728	121.37887
227.948	245.26558
228.169	75.8087
228.389	90.07582
228.61	48.30665
228.831	65.88321
229.051	3.60833
229.272	41.40081
229.492	58.21641
229.713	14.71164
229.933	38.35081
230.154	31.50942
230.374	56.22232
230.595	38.33455
230.815	24.04411
231.036	39.9381
231.256	-8.09111
231.477	71.47506
231.697	39.50986
231.917	42.98504
232.138	55.17866
232.358	115.48813
232.579	103.88267
232.799	18.95294
233.019	103.16861
233.24	115.34621
233.46	39.01285
233.68	65.79999
233.901	44.57821
234.121	27.06483
234.341	15.31563
234.561	-0.17562
234.782	23.6426
235.002	66.15631
235.222	-3.50021
235.442	63.48856
235.662	35.65653
235.883	64.06992
236.103	54.19337
236.323	40.30298
236.543	29.93104
236.763	40.54793
236.983	42.05935
237.203	40.37929
237.423	65.05777
237.643	90.64615
237.864	78.03575
238.084	20.68657
238.304	26.67816
238.524	45.24497
238.744	42.01806
238.964	75.89841
239.184	65.68855
239.404	64.78939
239.624	35.16846
239.843	60.74813
240.063	38.40447
240.283	23.60963
240.503	26.06412
240.723	25.27079
240.943	15.02481
241.163	21.07052
241.383	15.29618
241.603	7.65228
241.822	10.3654
242.042	7.13338
242.262	8.08876
242.482	9.62546
242.702	11.17016
242.921	2.97838
243.141	6.47862
243.361	6.28152
243.581	9.62109
243.8	7.28036
244.02	5.12136
244.24	9.39374
244.459	9.52258
244.679	18.04013
244.899	11.7936
245.118	12.75353
245.338	12.18485
245.558	14.37095
245.777	9.21896
245.997	10.78627
246.216	10.92438
246.436	6.60388
246.655	4.91276
246.875	3.41409
247.094	6.23842
247.314	2.19877
247.533	3.60261
247.753	4.39649
247.972	3.53807
248.192	1.40171
248.411	1.8798
248.631	3.56778
248.85	4.76236
249.07	4.08353
249.289	5.97016
249.508	5.37925
249.728	6.8566
249.947	6.77537
250.166	8.7549
250.386	4.44856
250.605	7.23712
250.824	11.27952
251.044	7.99049
251.263	29.28125
251.482	14.87355
251.701	11.84446
251.921	-0.0816
252.14	3.67378
252.359	3.91074
252.578	10.62142
252.798	3.30686
253.017	9.05572
253.236	4.51789
253.455	5.57822
253.674	10.85132
253.893	5.42847
254.112	7.61448
254.331	11.00487
254.551	8.85362
254.77	4.39814
254.989	13.67574
255.208	10.66252
255.427	15.51504
255.646	11.70355
255.865	22.39701
256.084	9.083
256.303	10.70616
256.522	14.40608
256.741	3.91623
256.96	2.97224
257.179	8.38366
257.397	11.19776
257.616	6.46383
257.835	6.50929
258.054	15.70408
258.273	11.01506
258.492	11.13336
258.711	6.96314
258.93	3.32176
259.148	4.90888
259.367	4.82204
259.586	5.6737
259.805	2.3982
260.023	5.34543
260.242	4.09187
260.461	2.85135
260.68	1.27005
260.898	4.57932
261.117	1.39301
261.336	1.07805
261.554	3.62418
261.773	3.53664
261.992	0.93672
262.21	3.64253
262.429	3.30687
262.648	7.44046
262.866	8.43843
263.085	5.96802
263.303	5.10426
263.522	9.12438
263.74	9.05929
263.959	15.46101
264.178	7.88744
264.396	6.41944
264.615	4.62444
264.833	10.82108
265.051	9.14675
265.27	11.1271
265.488	11.01412
265.707	6.34364
265.925	11.24567
266.144	5.05176
266.362	5.72544
266.58	5.44047
266.799	5.19812
267.017	6.31493
267.235	5.56233
267.454	3.70322
267.672	2.01222
267.89	4.11154
268.109	4.47
268.327	4.51873
268.545	0.91257
268.763	4.05927
268.982	1.63047
269.2	4.35765
269.418	3.08016
269.636	2.1325
269.854	4.93837
270.073	3.31009
270.291	1.96795
270.509	1.82173
270.727	4.44202
270.945	7.30961
271.163	7.2315
271.381	1.61987
271.599	3.45059
271.817	5.70217
272.036	1.86321
272.254	3.40863
272.472	2.34549
272.69	2.60187
272.908	2.43086
273.126	4.52577
273.344	5.37897
273.562	1.80307
273.779	2.55947
273.997	3.9432
274.215	4.33843
274.433	2.93525
274.651	4.53071
274.869	4.74015
275.087	3.03067
275.305	3.96248
275.523	2.52874
275.74	2.97028
275.958	5.58896
276.176	8.2845
276.394	2.67667
276.612	3.35645
276.829	3.25495
277.047	2.71133
277.265	3.13533
277.483	3.54197
277.7	4.51265
277.918	3.51515
278.136	6.23609
278.353	3.03214
278.571	1.84206
278.789	4.48384
279.006	0.96334
279.224	2.92042
279.442	5.36101
279.659	3.63064
279.877	2.60635
280.094	6.0185
280.312	0.99706
280.529	3.63808
280.747	1.05298
280.964	2.75247
281.182	6.16786
281.399	2.80062
281.617	3.87102
281.834	2.81383
282.052	2.00955
282.269	3.24364
282.487	2.56651
282.704	2.07675
282.921	2.28095
283.139	3.46492
283.356	4.14449
283.574	3.97642
283.791	1.89914
284.008	5.55787
284.226	3.14341
284.443	3.27581
284.66	4.37575
284.877	3.48881
285.095	2.08065
285.312	1.70204
285.529	0.86173
285.746	0.8932
285.964	2.07705
286.181	1.40931
286.398	1.95355
286.615	2.77586
286.832	2.67412
287.05	0.6124
287.267	1.92452
287.484	1.87095
287.701	2.63762
287.918	2.66966
288.135	2.74477
288.352	1.26628
288.569	1.51552
288.786	2.41065
289.003	2.10517
289.22	3.15395
289.437	1.79893
289.654	2.90491
289.871	3.11195
290.088	3.12458
290.305	2.43393
290.522	1.83226
290.739	2.02555
290.956	3.37696
291.173	3.68658
291.39	3.41938
291.607	2.3968
291.824	1.78552
292.04	1.3003
292.257	3.06574
292.474	3.28303
292.691	2.11238
292.908	1.09673
293.125	1.62193
293.341	1.14741
293.558	5.10398
293.775	2.0736
293.992	1.97608
294.208	0.86995
294.425	1.37478
294.642	1.99553
294.858	2.98782
295.075	0.72825
295.292	2.0665
295.508	2.4234
295.725	4.23856
295.942	1.84418
296.158	1.40324
296.375	2.29866
296.591	1.76429
296.808	1.93587
297.024	2.31528
297.241	2.57767
297.458	2.74503
297.674	0.55345
297.891	2.13924
298.107	1.87562
298.323	1.47945
298.54	3.52604
298.756	1.8388
298.973	1.14916
299.189	3.65978
299.406	1.78977
299.622	3.42119
299.838	3.36036
300.055	3.3561
300.271	1.39029
300.487	1.77302
300.704	2.08272
300.92	1.56927
301.136	5.13007
301.353	3.403
301.569	2.65421
301.785	3.01033
302.001	3.52371
302.218	3.08072
302.434	3.28079
302.65	1.72009
302.866	2.47717
303.083	5.07518
303.299	4.88057
303.515	3.08942
303.731	3.41019
303.947	1.75891
304.163	2.4223
304.379	3.28988
304.595	3.56634
304.812	2.40847
305.028	2.44838
305.244	2.92003
305.46	3.72919
305.676	3.83919
305.892	4.35183
306.108	3.59889
306.324	2.78697
306.54	4.90152
306.756	3.81431
306.972	3.56569
307.187	3.08239
307.403	4.51756
307.619	2.77321
307.835	4.38635
308.051	4.70662
308.267	2.35083
308.483	4.45318
308.699	3.84501
308.914	3.3436
309.13	3.23083
309.346	2.13714
309.562	2.49734
309.778	2.10847
309.993	3.86414
310.209	3.48405
310.425	2.3285
310.641	3.37594
310.856	2.57625
311.072	2.41945
311.288	3.34471
311.503	3.69874
311.719	1.90923
311.935	1.8972
312.15	3.92025
312.366	3.54699
312.581	3.82573
312.797	3.35909
313.013	4.1425
313.228	2.86955
313.444	3.26867
313.659	2.84725
313.875	3.96926
314.09	3.36233
314.306	4.69032
314.521	4.40731
314.737	4.26869
314.952	3.54815
315.168	3.55562
315.383	3.86335
315.599	3.32065
315.814	3.24821
316.029	4.1057
316.245	2.63358
316.46	2.08652
316.675	4.63213
316.891	5.19543
317.106	6.29325
317.321	3.79913
317.537	4.34004
317.752	4.4207
317.967	4.429
318.183	2.92667
318.398	3.28715
318.613	4.52069
318.828	4.95336
319.043	4.4118
319.259	3.55306
319.474	4.03349
319.689	4.77436
319.904	2.16166
320.119	4.58949
320.334	4.00846
320.549	3.54498
320.765	4.7739
320.98	4.20743
321.195	4.24193
321.41	3.77516
321.625	4.52441
321.84	5.40651
322.055	5.46256
322.27	3.27228
322.485	2.81847
322.7	4.2741
322.915	4.78709
323.13	3.38016
323.345	5.27113
323.56	4.7237
323.775	4.47348
323.989	4.39109
324.204	4.26223
324.419	5.04866
324.634	2.95851
324.849	3.93756
325.064	7.09307
325.279	4.94571
325.493	4.45725
325.708	4.78825
325.923	3.29412
326.138	3.77534
326.352	5.55376
326.567	4.89033
326.782	3.62042
326.997	3.60352
327.211	4.69248
327.426	4.2021
327.641	3.77766
327.855	2.81545
328.07	4.55715
328.285	5.79494
328.499	3.75391
328.714	4.31236
328.928	4.71997
329.143	4.00032
329.358	5.09263
329.572	5.19458
329.787	5.57678
330.001	6.6424
330.216	3.10634
330.43	6.16542
330.645	5.63997
330.859	5.03484
331.074	3.60024
331.288	4.40998
331.503	5.7207
331.717	3.42705
331.931	4.37018
332.146	4.6076
332.36	6.19693
332.575	4.6841
332.789	4.61308
333.003	4.76374
333.218	4.9453
333.432	3.86938
333.646	5.26405
333.86	6.24757
334.075	6.01264
334.289	3.90038
334.503	3.45036
334.717	4.96935
334.932	4.72793
335.146	5.19114
335.36	3.84169
335.574	5.04297
335.788	4.79014
336.003	5.32156
336.217	5.13599
336.431	5.0296
336.645	4.1147
336.859	3.54626
337.073	4.72421
337.287	4.9376
337.501	3.67991
337.715	5.122
337.929	5.40741
338.143	3.78253
338.357	4.56412
338.571	4.33837
338.785	5.39193
338.999	4.40035
339.213	4.2537
339.427	3.49392
339.641	5.9549
339.855	4.36969
340.069	4.08981
340.283	5.64661
340.497	6.42247
340.711	5.19421
340.924	4.88043
341.138	3.93977
341.352	3.82487
341.566	5.00794
341.78	3.5193
341.993	4.48953
342.207	4.12118
342.421	5.11801
342.635	4.75212
342.848	4.60079
343.062	3.0845
343.276	4.41037
343.49	6.53804
343.703	4.30893
343.917	5.91228
344.131	5.94936
344.344	4.3292
344.558	4.71155
344.771	3.97841
344.985	6.43489
345.199	6.5426
345.412	5.38352
345.626	5.44686
345.839	3.62696
346.053	4.14566
346.266	4.25514
346.48	5.50086
346.693	5.41434
346.907	5.27609
347.12	4.33927
347.334	5.14759
347.547	5.39585
347.76	4.98353
347.974	5.9755
348.187	5.27139
348.401	4.82709
348.614	4.42467
348.827	4.84453
349.041	5.49653
349.254	3.7901
349.467	4.90023
349.681	4.38006
349.894	4.60773
350.107	6.14254
350.32	6.8527
350.534	4.05137
350.747	4.96761
350.96	4.48144
351.173	4.55084
351.386	4.93251
351.6	4.59493
351.813	4.79454
352.026	4.9681
352.239	4.28832
352.452	4.81593
352.665	6.29372
352.878	5.19824
353.092	6.91856
353.305	5.98154
353.518	5.47855
353.731	4.46012
353.944	6.24168
354.157	5.01672
354.37	4.87292
354.583	4.43196
354.796	4.31275
355.009	6.00647
355.222	5.73107
355.435	5.47916
355.647	6.24682
355.86	4.89804
356.073	5.52354
356.286	5.00165
356.499	6.25705
356.712	6.05552
356.925	6.13691
357.138	6.18025
357.35	5.00624
357.563	5.34653
357.776	5.78619
357.989	5.6549
358.201	6.057
358.414	5.88639
358.627	6.71652
358.84	5.54537
359.052	4.74237
359.265	5.19851
359.478	6.45174
359.69	3.9302
359.903	6.37579
360.116	6.72588
360.328	4.74591
360.541	6.53955
360.753	5.42871
360.966	5.71173
361.179	5.93474
361.391	5.80383
361.604	5.65206
361.816	5.77408
362.029	5.69933
362.241	5.28709
362.454	5.70341
362.666	5.22328
362.879	6.26757
363.091	5.59148
363.304	5.35203
363.516	5.61702
363.728	5.12111
363.941	6.04845
364.153	5.90064
364.366	4.42489
364.578	5.19099
364.79	6.05597
365.003	5.9729
365.215	5.37978
365.427	6.30894
365.639	6.58847
365.852	5.93542
366.064	7.44719
366.276	5.78526
366.488	6.08729
366.701	5.6994
366.913	5.76421
367.125	5.80054
367.337	5.20075
367.549	5.4361
367.762	5.94213
367.974	5.97973
368.186	5.54361
368.398	6.4733
368.61	6.27478
368.822	6.43241
369.034	5.73227
369.246	6.47372
369.458	8.286
369.67	5.34774
369.882	7.25223
370.094	4.8115
370.306	7.15354
370.518	5.90905
370.73	5.63605
370.942	5.75094
371.154	6.00866
371.366	5.86438
371.578	6.4043
371.79	5.81759
372.002	6.84663
372.214	7.56286
372.425	5.99762
372.637	7.19586
372.849	6.34536
373.061	4.60546
373.273	6.33263
373.484	6.26025
373.696	6.65203
373.908	4.67462
374.12	6.91558
374.331	6.52718
374.543	5.49082
374.755	5.53369
374.967	6.23239
375.178	6.87605
375.39	5.95146
375.602	6.36986
375.813	5.05556
376.025	5.63789
376.236	6.53656
376.448	6.67113
376.66	6.15193
376.871	6.2042
377.083	7.29054
377.294	7.62288
377.506	6.03935
377.717	7.38891
377.929	6.57256
378.14	6.12982
378.352	6.56745
378.563	6.75906
378.775	7.4112
378.986	5.75876
379.197	6.27426
379.409	5.86648
379.62	6.84992
379.832	6.81665
380.043	6.17938
380.254	6.63827
380.466	5.75787
380.677	8.59619
380.888	7.71388
381.1	8.3087
381.311	8.27694
381.522	6.72159
381.733	8.45011
381.945	6.57685
382.156	6.43846
382.367	6.15171
382.578	8.54495
382.789	8.65742
383.001	6.0835
383.212	7.63301
383.423	7.9013
383.634	7.54112
383.845	7.35303
384.056	6.59006
384.267	6.8343
384.478	6.7877
384.69	6.07463
384.901	7.06078
385.112	7.00111
385.323	8.05592
385.534	7.04706
385.745	7.05806
385.956	6.9502
386.167	6.27001
386.378	7.19232
386.588	6.49687
386.799	6.36828
387.01	5.92501
387.221	7.44857
387.432	6.92544
387.643	7.89577
387.854	6.72866
388.065	6.55288
388.275	6.81164
388.486	6.49789
388.697	6.92565
388.908	6.54559
389.119	7.68609
389.329	7.89231
389.54	7.08038
389.751	7.13236
389.962	7.9018
390.172	7.17493
390.383	7.01451
390.594	6.65806
390.804	6.82732
391.015	6.88849
391.226	7.34662
391.436	7.62599
391.647	7.42836
391.858	7.55138
392.068	6.22307
392.279	6.46444
392.489	7.37485
392.7	7.81694
392.91	6.7924
393.121	6.71898
393.331	7.46074
393.542	7.95
393.752	7.74088
393.963	7.63058
394.173	7.44397
394.384	7.60015
394.594	7.41689
394.804	6.50562
395.015	7.38697
395.225	7.52255
395.436	6.63856
395.646	7.4817
395.856	6.87591
396.067	6.19687
396.277	7.82651
396.487	7.31634
396.697	7.48384
396.908	7.50519
397.118	7.52826
397.328	7.36174
397.538	7.85991
397.749	6.74803
397.959	7.74179
398.169	7.54595
398.379	6.49171
398.589	7.72436
398.8	7.5448
399.01	7.52915
399.22	7.19123
399.43	8.79943
399.64	7.34797
399.85	7.68229
400.06	7.47683
400.27	6.76046
400.48	7.28515
400.69	8.11855
400.9	6.93934
401.11	6.51211
401.32	7.84671
401.53	6.97294
401.74	8.34352
401.95	7.79094
402.16	7.0418
402.37	7.63306
402.58	7.32257
402.79	7.82275
403	8.29917
403.209	7.16684
403.419	8.3364
403.629	7.08779
403.839	8.26421
404.049	8.24833
404.258	7.31419
404.468	7.19413
404.678	7.93781
404.888	8.46433
405.097	7.47915
405.307	7.47575
405.517	8.05026
405.727	7.87362
405.936	7.45083
406.146	7.82698
406.356	8.41197
406.565	7.56206
406.775	7.34454
406.984	7.2251
407.194	8.71491
407.404	7.48322
407.613	7.95987
407.823	7.93502
408.032	8.21081
408.242	8.27465
408.451	7.38431
408.661	7.54
408.87	8.82036
409.08	7.16657
409.289	7.9713
409.499	7.9293
409.708	7.81979
409.918	6.59515
410.127	8.04494
410.336	8.74243
410.546	8.25803
410.755	7.53028
410.964	7.56469
411.174	7.12617
411.383	8.08458
411.592	7.97473
411.802	7.19335
412.011	8.11341
412.22	7.58272
412.429	8.77483
412.639	8.72631
412.848	8.4665
413.057	8.59786
413.266	8.64735
413.475	7.90941
413.685	8.15978
413.894	8.46698
414.103	8.61793
414.312	8.53347
414.521	7.97837
414.73	7.90437
414.939	9.43346
415.148	8.44224
415.357	8.2987
415.566	8.11721
415.776	8.09848
415.985	8.09047
416.194	8.70333
416.403	9.47935
416.611	7.5559
416.82	8.1565
417.029	8.52179
417.238	8.13741
417.447	8.07147
417.656	8.38148
417.865	8.23707
418.074	8.55323
418.283	8.57927
418.492	9.20019
418.7	8.98741
418.909	9.88205
419.118	9.05471
419.327	9.42578
419.536	9.30937
419.744	9.35494
419.953	10.56932
420.162	10.76077
420.371	10.15316
420.579	10.69342
420.788	11.51833
420.997	11.56998
421.205	11.75499
421.414	11.52579
421.623	11.63996
421.831	11.17838
422.04	11.57055
422.249	10.76165
422.457	11.18296
422.666	10.34335
422.874	11.16695
423.083	11.33414
423.291	11.34465
423.5	11.3961
423.708	11.70029
423.917	12.09521
424.125	11.6462
424.334	11.51573
424.542	12.95172
424.751	12.40964
424.959	12.0252
425.167	12.09967
425.376	11.86679
425.584	10.56958
425.793	10.51057
426.001	9.64237
426.209	9.72669
426.418	8.82832
426.626	8.5205
426.834	8.33809
427.042	8.68908
427.251	8.42051
427.459	9.17104
427.667	8.65444
427.875	8.04458
428.084	8.50104
428.292	9.45492
428.5	9.08295
428.708	8.25753
428.916	8.29629
429.124	8.86892
429.333	8.66024
429.541	8.81638
429.749	8.9097
429.957	8.94695
430.165	10.47108
430.373	8.1182
430.581	9.08416
430.789	9.83581
430.997	8.71933
431.205	8.60994
431.413	9.20456
431.621	8.88269
431.829	9.44162
432.037	9.13383
432.245	9.48299
432.453	9.42147
432.661	9.24481
432.869	10.38878
433.076	8.94988
433.284	9.2902
433.492	9.65434
433.7	9.87141
433.908	9.13226
434.116	9.28766
434.323	9.31259
434.531	9.06709
434.739	9.42969
434.947	9.63686
435.154	9.58814
435.362	9.20176
435.57	9.00551
435.778	8.81129
435.985	9.46244
436.193	8.94004
436.401	10.05268
436.608	9.25808
436.816	9.0472
437.023	10.19447
437.231	10.24628
437.439	9.57004
437.646	9.76907
437.854	9.60932
438.061	9.96959
438.269	9.4756
438.476	9.97271
438.684	9.64415
438.891	9.45525
439.099	9.29281
439.306	9.15212
439.514	9.15255
439.721	10.20243
439.929	9.88288
440.136	10.83426
440.343	10.84709
440.551	10.63405
440.758	12.11716
440.965	10.90509
441.173	10.58485
441.38	10.31027
441.587	10.13409
441.795	9.77934
442.002	9.61636
442.209	9.46839
442.416	9.68674
442.624	9.73617
442.831	9.59048
443.038	9.24609
443.245	8.98099
443.452	9.42991
443.66	9.91288
443.867	9.44324
444.074	9.43293
444.281	9.52466
444.488	9.74804
444.695	9.96342
444.902	9.7457
445.109	10.82791
445.316	10.66686
445.523	11.1388
445.73	11.25846
445.937	12.0691
446.144	12.56667
446.351	12.86548
446.558	11.91259
446.765	13.6077
446.972	12.90137
447.179	12.41536
447.386	12.94197
447.593	11.33889
447.8	12.07485
448.007	10.75499
448.214	10.13941
448.42	9.72349
448.627	10.06252
448.834	9.57632
449.041	9.37128
449.248	9.39108
449.454	9.92756
449.661	10.44857
449.868	9.2945
450.075	9.30309
450.281	8.51347
450.488	9.08909
450.695	9.13475
450.901	9.43307
451.108	9.4522
451.315	10.2394
451.521	9.60341
451.728	10.48394
451.935	9.54705
452.141	9.89873
452.348	9.85671
452.554	9.75346
452.761	9.5152
452.967	10.6998
453.174	9.8087
453.38	10.0594
453.587	9.16249
453.793	9.80357
454	10.20992
454.206	10.73185
454.413	10.28244
454.619	9.965
454.825	9.45592
455.032	10.18213
455.238	10.20043
455.445	9.28205
455.651	9.8469
455.857	8.98072
456.064	9.58639
456.27	9.54446
456.476	9.74826
456.682	9.17951
456.889	10.12706
457.095	10.25591
457.301	11.39841
457.507	10.08313
457.714	10.08598
457.92	10.24967
458.126	9.8283
458.332	10.25966
458.538	10.0416
458.744	10.33672
458.951	10.33567
459.157	12.38517
459.363	11.69286
459.569	11.98473
459.775	12.54969
459.981	12.29018
460.187	12.53219
460.393	12.67723
460.599	12.75751
460.805	11.74758
461.011	10.74939
461.217	10.63185
461.423	10.31853
461.629	9.7339
461.835	10.1248
462.041	9.80198
462.247	10.69265
462.453	9.76231
462.658	9.79044
462.864	10.34342
463.07	10.09602
463.276	10.11462
463.482	10.21317
463.688	10.88242
463.893	9.8513
464.099	10.13965
464.305	11.0089
464.511	9.98414
464.716	10.1458
464.922	10.72357
465.128	9.73311
465.333	11.20219
465.539	10.58803
465.745	10.25841
465.95	10.24718
466.156	11.81104
466.362	10.99561
466.567	10.32098
466.773	10.10968
466.978	11.18875
467.184	9.8718
467.389	9.2918
467.595	10.39508
467.8	9.98272
468.006	11.17654
468.211	10.92097
468.417	9.61246
468.622	10.50782
468.828	10.72234
469.033	10.57427
469.239	11.73208
469.444	10.06025
469.649	10.92868
469.855	10.37739
470.06	10.37741
470.266	9.9558
470.471	10.67181
470.676	10.66173
470.881	9.48923
471.087	11.19309
471.292	11.76571
471.497	9.85944
471.703	10.41246
471.908	10.18821
472.113	10.51422
472.318	10.99207
472.523	10.02581
472.729	10.72691
472.934	10.90441
473.139	10.26029
473.344	10.59278
473.549	11.15545
473.754	10.00523
473.959	11.92655
474.164	10.09602
474.369	10.39748
474.575	10.86423
474.78	10.52208
474.985	10.21787
475.19	9.68571
475.395	10.23855
475.6	10.6341
475.804	11.44353
476.009	10.80186
476.214	10.65534
476.419	10.5466
476.624	9.89165
476.829	10.2687
477.034	11.07852
477.239	10.36491
477.444	11.13323
477.648	11.04094
477.853	10.93959
478.058	10.50547
478.263	10.29505
478.468	10.1542
478.672	10.14662
478.877	11.46102
479.082	11.47243
479.287	10.92223
479.491	10.6882
479.696	10.29741
479.901	11.03639
480.105	11.14727
480.31	10.58018
480.515	10.95632
480.719	11.99506
480.924	10.73936
481.128	10.42499
481.333	11.30732
481.538	11.24468
481.742	11.65719
481.947	12.81564
482.151	14.11149
482.356	15.19018
482.56	17.89171
482.765	20.08794
482.969	23.71456
483.174	26.61487
483.378	30.39545
483.582	31.56716
483.787	33.49687
483.991	33.89431
484.196	33.8797
484.4	33.19175
484.604	33.06162
484.809	29.85918
485.013	27.8066
485.217	25.01212
485.422	22.20647
485.626	20.26148
485.83	19.33459
486.034	18.79108
486.239	19.45979
486.443	20.15727
486.647	20.84777
486.851	22.26932
487.055	23.86084
487.26	23.96664
487.464	25.0756
487.668	24.65328
487.872	25.15407
488.076	24.98967
488.28	23.99593
488.484	22.26622
488.688	21.63753
488.892	20.32264
489.096	18.75217
489.3	17.28921
489.504	16.21533
489.708	15.4789
489.912	15.1313
490.116	15.05354
490.32	14.94166
490.524	16.37693
490.728	17.51109
490.932	18.61626
491.136	19.76166
491.34	20.93196
491.544	21.40524
491.748	21.1723
491.951	21.16936
492.155	20.31364
492.359	19.6671
492.563	17.93823
492.767	16.56668
492.97	14.88962
493.174	13.26205
493.378	12.06134
493.582	10.84444
493.785	10.47699
493.989	10.68999
494.193	10.66116
494.396	10.57905
494.6	11.23301
494.804	10.95394
495.007	10.62453
495.211	10.90206
495.414	10.97686
495.618	11.39186
495.822	11.87768
496.025	11.29974
496.229	11.67851
496.432	10.99839
496.636	11.30706
496.839	11.27982
497.043	12.02642
497.246	11.40145
497.45	11.01301
497.653	11.22377
497.856	11.17735
498.06	10.73259
498.263	10.92378
498.467	10.8232
498.67	11.44318
498.873	11.25149
499.077	10.91551
499.28	10.94773
499.483	11.07494
499.686	11.32563
499.89	11.09067
500.093	11.40711
500.296	10.65305
500.499	11.86858
500.703	10.95752
500.906	11.26343
501.109	11.89912
501.312	11.22682
501.515	10.99047
501.719	11.33225
501.922	11.73019
502.125	11.30046
502.328	11.07073
502.531	10.63582
502.734	11.16579
502.937	10.49504
503.14	11.4255
503.343	10.94667
503.546	11.24159
503.749	10.88998
503.952	11.68287
504.155	10.90045
504.358	11.38597
504.561	11.28673
504.764	10.61338
504.967	11.26747
505.17	11.189
505.373	11.87298
505.576	11.18986
505.778	11.52508
505.981	10.73555
506.184	11.86223
506.387	10.41189
506.59	12.38156
506.793	11.89561
506.995	11.6446
507.198	10.55754
507.401	11.65571
507.604	11.77154
507.806	11.07553
508.009	11.09673
508.212	11.91067
508.414	11.10553
508.617	11.26741
508.82	11.35757
509.022	12.16406
509.225	11.47963
509.427	10.76418
509.63	12.05173
509.833	11.34939
510.035	11.04609
510.238	10.62323
510.44	11.89499
510.643	10.48406
510.845	12.21708
511.048	11.59396
511.25	11.08629
511.453	11.3374
511.655	11.55075
511.858	11.2325
512.06	11.90543
512.262	11.43006
512.465	11.78957
512.667	11.10054
512.869	10.72016
513.072	11.45408
513.274	11.53762
513.476	11.49138
513.679	11.63418
513.881	10.75305
514.083	12.11133
514.286	10.93894
514.488	10.97163
514.69	10.85381
514.892	10.62451
515.094	11.72802
515.297	10.96701
515.499	11.52894
515.701	10.98018
515.903	12.30897
516.105	12.34008
516.307	12.03702
516.509	10.72828
516.711	11.23435
516.913	11.81528
517.116	11.90639
517.318	11.52145
517.52	12.43282
517.722	12.14861
517.924	11.36025
518.126	12.08504
518.328	11.66738
518.529	12.35671
518.731	13.1364
518.933	11.59376
519.135	11.77741
519.337	12.33844
519.539	11.52455
519.741	10.54846
519.943	11.10532
520.145	11.0565
520.346	11.5668
520.548	10.87114
520.75	11.3021
520.952	11.10467
521.153	11.53
521.355	11.52423
521.557	10.98206
521.759	11.45825
521.96	11.23101
522.162	10.8167
522.364	12.12159
522.565	11.22647
522.767	11.84167
522.969	12.02075
523.17	11.88978
523.372	11.79485
523.573	11.38975
523.775	11.61572
523.977	11.35705
524.178	12.74933
524.38	11.65043
524.581	12.33202
524.783	11.92277
524.984	12.30852
525.186	12.08582
525.387	12.72881
525.589	12.80222
525.79	12.85313
525.991	12.86004
526.193	13.54923
526.394	12.97081
526.596	13.87308
526.797	14.24562
526.998	14.19729
527.2	15.07935
527.401	17.38883
527.602	18.95464
527.803	21.9237
528.005	23.58992
528.206	25.34597
528.407	26.62921
528.608	26.61476
528.81	26.85263
529.011	26.15899
529.212	26.54623
529.413	24.88577
529.614	23.05623
529.815	21.34244
530.017	19.4578
530.218	17.21917
530.419	15.41691
530.62	14.86768
530.821	14.17806
531.022	12.83445
531.223	13.48055
531.424	13.33969
531.625	13.54594
531.826	13.36669
532.027	14.18251
532.228	15.68527
532.429	16.22785
532.63	16.81682
532.831	17.93065
533.032	18.04813
533.233	18.90902
533.433	18.49867
533.634	18.62232
533.835	17.61927
534.036	16.86733
534.237	15.874
534.438	14.86814
534.638	13.35279
534.839	12.67654
535.04	12.30687
535.241	11.73734
535.441	12.70916
535.642	12.43448
535.843	12.15596
536.043	12.56203
536.244	12.78505
536.445	13.23157
536.645	13.86223
536.846	13.46368
537.047	13.85258
537.247	12.55767
537.448	12.17655
537.648	11.76623
537.849	11.36868
538.049	11.25599
538.25	11.53881
538.451	11.64497
538.651	11.14092
538.851	11.93472
539.052	12.32498
539.252	12.26207
539.453	12.10234
539.653	12.36668
539.854	12.37635
540.054	12.63798
540.254	14.72592
540.455	16.24632
540.655	16.81416
540.855	18.6559
541.056	19.88712
541.256	19.84432
541.456	20.81629
541.657	20.44898
541.857	20.92765
542.057	19.39701
542.257	18.45123
542.458	18.45719
542.658	17.55196
542.858	15.50095
543.058	15.21981
543.258	14.38333
543.458	12.92199
543.659	12.49282
543.859	12.76519
544.059	12.50517
544.259	11.73691
544.459	12.37325
544.659	11.59843
544.859	12.14859
545.059	11.75598
545.259	12.45405
545.459	12.30526
545.659	12.74108
545.859	12.29904
546.059	12.42781
546.259	11.85706
546.459	11.63491
546.659	11.68539
546.859	12.52178
547.059	12.23795
547.258	12.18464
547.458	12.11464
547.658	11.20287
547.858	11.02699
548.058	11.62987
548.258	11.29805
548.457	10.9876
548.657	12.74506
548.857	11.46398
549.057	11.9847
549.256	11.96293
549.456	11.40982
549.656	10.69853
549.855	12.87239
550.055	11.55888
550.255	12.8137
550.454	11.97288
550.654	12.33435
550.853	12.94427
551.053	12.36168
551.253	12.17568
551.452	12.38153
551.652	11.44864
551.851	11.32761
552.051	11.9929
552.25	11.75154
552.45	11.71601
552.649	11.93808
552.849	11.42932
553.048	11.93133
553.248	12.32516
553.447	11.22411
553.646	12.16228
553.846	13.22127
554.045	12.50214
554.244	10.83511
554.444	12.55631
554.643	10.93395
554.842	12.81011
555.042	12.95973
555.241	11.40181
555.44	11.08471
555.64	12.14069
555.839	12.7246
556.038	12.24958
556.237	11.3342
556.436	11.99362
556.636	11.96348
556.835	11.3507
557.034	12.75955
557.233	11.71057
557.432	10.81562
557.631	12.42808
557.83	11.55332
558.029	11.26134
558.228	11.28332
558.427	11.13967
558.626	11.97554
558.825	11.10058
559.024	11.68669
559.223	13.04345
559.422	11.68962
559.621	12.15303
559.82	10.17981
560.019	11.8383
560.218	11.5142
560.417	10.43813
560.616	11.43028
560.815	14.10702
561.014	10.94465
561.212	13.00418
561.411	11.95965
561.61	11.02161
561.809	11.63971
562.008	12.93964
562.206	11.45655
562.405	11.99886
562.604	11.62374
562.803	11.7968
563.001	11.50828
563.2	10.95015
563.399	12.089
563.597	11.03449
563.796	11.72372
563.995	11.07505
564.193	12.47491
564.392	11.65124
564.59	13.45292
564.789	10.8365
564.988	11.79115
565.186	12.43168
565.385	12.10573
565.583	11.9325
565.782	12.17139
565.98	11.97133
566.179	11.80643
566.377	11.45724
566.575	11.39323
566.774	12.67104
566.972	12.33464
567.171	13.00631
567.369	12.53884
567.567	11.77111
567.766	11.82028
567.964	10.36333
568.162	12.13023
568.361	12.55565
568.559	11.65036
568.757	11.95986
568.956	11.67197
569.154	11.87954
569.352	12.28758
569.55	11.7918
569.748	11.92828
569.947	11.43413
570.145	11.23704
570.343	11.40109
570.541	13.08
570.739	11.28547
570.937	12.08421
571.135	12.52925
571.333	13.69511
571.532	13.50448
571.73	12.30075
571.928	12.7136
572.126	12.37915
572.324	11.75676
572.522	12.64771
572.72	13.66614
572.918	11.86625
573.116	12.14738
573.313	11.57048
573.511	11.78443
573.709	11.37085
573.907	12.54502
574.105	11.58619
574.303	10.89001
574.501	11.04639
574.699	12.42622
574.896	12.25684
575.094	12.50988
575.292	10.97223
575.49	12.40714
575.688	11.75206
575.885	12.62078
576.083	13.45141
576.281	12.13556
576.478	11.0551
576.676	12.12231
576.874	10.68603
577.071	11.6141
577.269	13.31837
577.467	11.62573
577.664	11.61533
577.862	12.44849
578.059	11.01672
578.257	12.27497
578.455	11.42179
578.652	11.57842
578.85	10.18441
579.047	11.84832
579.245	11.56875
579.442	11.66625
579.64	11.3565
579.837	10.41049
580.034	13.96888
580.232	11.63303
580.429	10.90929
580.627	12.28603
580.824	12.71577
581.021	12.22908
581.219	11.44487
581.416	11.12122
581.613	12.89078
581.811	12.88596
582.008	11.12746
582.205	12.48243
582.402	12.0778
582.6	12.96506
582.797	11.89081
582.994	12.28718
583.191	12.46472
583.388	11.77309
583.586	12.47662
583.783	12.78502
583.98	11.07593
584.177	11.92897
584.374	9.76564
584.571	11.60846
584.768	11.62176
584.965	11.43095
585.162	12.49848
585.359	13.15115
585.556	11.8658
585.753	12.2772
585.95	10.80711
586.147	11.11767
586.344	12.12632
586.541	11.66638
586.738	10.95797
586.935	11.69041
587.132	11.45512
587.329	12.81619
587.526	11.91762
587.722	16.07062
587.919	10.88813
588.116	12.48955
588.313	13.09633
588.51	13.76135
588.706	11.93602
588.903	12.48292
589.1	12.85778
589.297	14.55684
589.493	12.01325
589.69	12.47671
589.887	11.36875
590.083	11.17866
590.28	11.35224
590.477	12.74654
590.673	12.41534
590.87	13.03125
591.067	11.27339
591.263	12.09839
591.46	12.09931
591.656	11.58865
591.853	13.03161
592.049	11.25531
592.246	11.42633
592.442	12.75494
592.639	13.21199
592.835	11.21895
593.032	12.30446
593.228	10.89083
593.425	10.98731
593.621	10.93252
593.817	12.26283
594.014	11.38541
594.21	12.32139
594.406	12.97431
594.603	12.264
594.799	11.37277
594.995	10.02616
595.192	12.89902
595.388	11.73472
595.584	11.92677
595.78	11.0561
595.977	14.71615
596.173	13.68479
596.369	12.22144
596.565	11.45401
596.761	11.65308
596.957	13.31161
597.154	11.63323
597.35	11.66669
597.546	11.38791
597.742	12.22764
597.938	11.90636
598.134	10.92085
598.33	11.5617
598.526	12.39624
598.722	11.60973
598.918	13.18795
599.114	12.07067
599.31	10.52675
599.506	11.50673
599.702	10.89024
599.898	12.01165
600.094	12.52885
600.29	12.55391
600.485	12.65719
600.681	11.26057
600.877	13.32622
601.073	12.06217
601.269	13.70157
601.465	13.3573
601.66	11.3401
601.856	10.43812
602.052	14.21481
602.248	11.89985
602.443	10.5204
602.639	11.15703
602.835	11.66283
603.03	11.66751
603.226	13.16805
603.422	11.66783
603.617	12.27059
603.813	12.12327
604.009	11.90796
604.204	13.32601
604.4	10.93143
604.595	13.04879
604.791	11.16072
604.986	12.22452
605.182	11.18871
605.377	11.44629
605.573	11.17858
605.768	11.57688
605.964	11.93906
606.159	11.91943
606.355	12.3633
606.55	11.24614
606.746	12.49893
606.941	11.4414
607.136	13.41325
607.332	14.48429
607.527	10.65774
607.722	12.17596
607.918	11.86245
608.113	11.46748
608.308	13.07712
608.503	12.87448
608.699	12.94972
608.894	12.98003
609.089	11.62231
609.284	12.756
609.479	12.17646
609.675	13.00689
609.87	12.08552
610.065	12.80162
610.26	12.92756
610.455	12.84937
610.65	12.13541
610.845	12.29164
611.04	12.85066
611.235	11.91133
611.43	12.14126
611.625	11.2039
611.82	13.60636
612.015	11.58265
612.21	13.89123
612.405	10.88988
612.6	13.97684
612.795	13.79603
612.99	12.8921
613.185	11.3531
613.38	11.47907
613.575	12.51239
613.77	15.39021
613.965	10.73865
614.159	11.3239
614.354	13.44441
614.549	13.38933
614.744	12.76168
614.938	10.82722
615.133	10.74557
615.328	13.64352
615.523	13.54639
615.717	15.44842
615.912	11.53149
616.107	12.10583
616.301	11.75924
616.496	11.37126
616.691	14.02473
616.885	12.99027
617.08	15.26734
617.274	13.26378
617.469	14.59963
617.664	12.93632
617.858	11.80982
618.053	12.70687
618.247	11.86745
618.442	9.76956
618.636	13.77938
618.831	11.47182
619.025	11.39482
619.219	15.5829
619.414	8.75593
619.608	11.92101
619.803	11.2077
619.997	14.71987
620.191	13.30201
620.386	12.62724
620.58	12.13298
620.774	10.10592
620.969	10.58048
621.163	12.15432
621.357	11.12149
621.551	11.91318
621.746	12.4204
621.94	11.73185
622.134	16.14839
622.328	14.59105
622.522	10.65489
622.716	13.40575
622.911	13.3115
623.105	13.31826
623.299	12.73316
623.493	16.02279
623.687	11.49753
623.881	11.63079
624.075	13.31636
624.269	13.76167
624.463	10.1233
624.657	10.60073
624.851	13.15467
625.045	13.28896
625.239	13.62401
625.433	11.90564
625.627	14.57588
625.821	11.96082
626.015	11.49061
626.209	12.68964
626.403	10.94187
626.596	12.97215
626.79	13.28519
626.984	11.12125
627.178	12.92419
627.372	12.76693
627.565	13.23114
627.759	10.63415
627.953	11.04761
628.147	12.31055
628.34	13.01253
628.534	14.56722
628.728	11.65077
628.921	13.1621
629.115	13.00041
629.309	13.26952
629.502	13.60828
629.696	12.29607
629.89	12.23721
630.083	12.74574
630.277	12.69696
630.47	14.31174
630.664	11.79207
630.857	10.45573
631.051	13.15929
631.244	13.70519
631.438	13.53064
631.631	11.47626
631.825	14.37902
632.018	12.91004
632.212	14.95571
632.405	14.15639
632.598	11.43867
632.792	12.74271
632.985	9.8684
633.178	12.20523
633.372	12.54289
633.565	12.24377
633.758	14.28576
633.952	11.54543
634.145	11.32478
634.338	12.33925
634.531	11.64475
634.724	10.95421
634.918	12.32848
635.111	12.03671
635.304	11.74006
635.497	15.31994
635.69	12.62053
635.883	13.87731
636.077	11.03983
636.27	12.90962
636.463	12.69823
636.656	12.65501
636.849	12.00318
637.042	13.22343
637.235	15.0431
637.428	13.62241
637.621	12.84064
637.814	14.3343
638.007	14.53264
638.2	14.31144
638.393	15.15783
638.586	10.52165
638.778	11.95258
638.971	12.31469
639.164	14.67222
639.357	13.03244
639.55	14.87073
639.743	13.83105
639.935	13.41397
640.128	16.08105
640.321	13.96562
640.514	12.89629
640.707	16.24341
640.899	13.78926
641.092	10.26416
641.285	28.38107
641.477	9.59434
641.67	16.65114
641.863	14.81955
642.055	13.14867
642.248	12.61021
642.441	12.33167
642.633	13.51648
642.826	14.47036
643.018	15.06508
643.211	15.82033
643.403	15.93926
643.596	16.34631
643.788	15.77302
643.981	12.41938
644.173	14.47929
644.366	12.35899
644.558	9.95894
644.751	14.56089
644.943	11.23954
645.135	15.50217
645.328	15.95524
645.52	14.07685
645.712	14.8208
645.905	17.94448
646.097	11.54437
646.289	13.75975
646.482	16.90886
646.674	12.10966
646.866	15.26399
647.058	14.27348
647.251	11.42258
647.443	12.40948
647.635	12.79752
647.827	11.62272
648.019	11.48617
648.211	13.0992
648.404	13.06563
648.596	16.12445
648.788	13.9043
648.98	13.55918
649.172	14.23271
649.364	14.2923
649.556	10.71087
649.748	18.02925
649.94	12.44197
650.132	14.72359
650.324	12.23137
650.516	12.27711
650.708	15.33903
650.9	11.40633
651.092	10.98212
651.284	11.38335
651.476	11.85383
651.667	14.3785
651.859	15.78905
652.051	13.56086
652.243	13.82703
652.435	12.77349
652.627	14.40353
652.818	14.17964
653.01	11.0298
653.202	11.92673
653.394	12.55926
653.585	14.20076
653.777	20.77793
653.969	16.19183
654.16	15.47003
654.352	11.94949
654.544	13.55572
654.735	15.41345
654.927	13.90524
655.118	16.30472
655.31	15.11316
655.502	15.86845
655.693	13.23903
655.885	14.32382
656.076	16.22645
656.268	14.24107
656.459	16.60806
656.651	16.34141
656.842	13.03341
657.034	12.69437
657.225	15.34404
657.416	16.81238
657.608	16.35958
657.799	14.52691
657.99	16.21407
658.182	13.28802
658.373	13.23703
658.564	16.60648
658.756	14.80196
658.947	14.01516
659.138	12.9029
659.33	13.35851
659.521	12.91364
659.712	13.49502
659.903	13.12877
660.094	12.78182
660.286	10.96728
660.477	16.33216
660.668	14.56976
660.859	13.24105
661.05	11.35547
661.241	14.5539
661.432	14.27233
661.623	13.38947
661.814	12.78192
662.006	11.3829
662.197	13.76679
662.388	16.03088
662.579	14.37078
662.77	16.25569
662.96	19.07452
663.151	15.69022
663.342	10.74684
663.533	15.21665
663.724	14.05372
663.915	17.76337
664.106	14.01512
664.297	17.47974
664.488	15.51664
664.678	12.70803
664.869	15.86136
665.06	15.95765
665.251	14.64743
665.442	15.34362
665.632	12.50598
665.823	18.09578
666.014	9.23325
666.204	15.80522
666.395	17.2748
666.586	19.04843
666.776	16.12525
666.967	18.13482
667.158	14.88031
667.348	17.72018
667.539	12.96523
667.729	16.38153
667.92	13.28307
668.111	16.66818
668.301	16.24695
668.492	14.40324
668.682	15.27169
668.873	14.63158
669.063	12.59281
669.253	15.25108
669.444	17.62015
669.634	14.65817
669.825	18.17833
670.015	17.08208
670.206	13.18351
670.396	18.86494
670.586	14.15084
670.777	15.63376
670.967	10.36276
671.157	14.16844
671.347	13.77971
671.538	18.15056
671.728	16.21441
671.918	19.031
672.108	17.14097
672.299	14.11915
672.489	15.46436
672.679	13.19614
672.869	16.31905
673.059	19.96306
673.249	16.02391
673.44	12.54223
673.63	14.50761
673.82	17.41218
674.01	12.86816
674.2	16.35729
674.39	21.23167
674.58	16.43562
674.77	15.4643
674.96	14.56525
675.15	24.28904
675.34	18.20246
675.53	15.42815
675.72	14.04764
675.91	11.96459
676.099	19.75309
676.289	21.00428
676.479	18.0425
676.669	14.6566
676.859	16.48768
677.049	14.14399
677.238	15.60401
677.428	19.38227
677.618	16.95366
677.808	19.70264
677.997	16.75142
678.187	13.74093
678.377	15.94547
678.567	14.26144
678.756	14.99827
678.946	15.58439
679.136	13.24795
679.325	14.59042
679.515	13.94652
679.704	13.05879
679.894	17.54677
680.084	16.38483
680.273	18.41544
680.463	13.79445
680.652	13.50733
680.842	15.38287
681.031	17.66632
681.221	13.6327
681.41	16.68445
681.6	14.94055
681.789	17.06606
681.978	18.05422
682.168	16.22693
682.357	16.47651
682.547	16.60819
682.736	16.31376
682.925	18.46395
683.115	18.72526
683.304	17.3639
683.493	16.21329
683.682	17.14383
683.872	16.83815
684.061	18.99772
684.25	17.33144
684.439	22.16524
684.629	18.23938
684.818	24.41782
685.007	16.54935
685.196	15.80937
685.385	21.27328
685.574	17.58485
685.763	17.56537
685.952	17.01407
686.142	13.90559
686.331	20.47173
686.52	13.36174
686.709	21.81547
686.898	21.31138
687.087	18.40228
687.276	21.35926
687.465	20.07521
687.654	16.57631
687.842	20.94042
688.031	14.33526
688.22	20.81663
688.409	17.80599
688.598	17.655
688.787	23.746
688.976	17.50046
689.165	22.65284
689.353	16.25207
689.542	18.42526
689.731	20.48005
689.92	23.82105
690.108	19.87073
690.297	16.58212
690.486	18.04715
690.675	19.73578
690.863	22.17562
691.052	21.57557
691.241	18.4818
691.429	18.49214
691.618	21.42147
691.806	14.85883
691.995	16.50639
692.184	17.64183
692.372	16.80669
692.561	18.01188
692.749	18.58267
692.938	27.17072
693.126	19.83781
693.315	17.3529
693.503	20.27915
693.692	21.16133
693.88	20.9813
694.068	24.14931
694.257	18.6369
694.445	20.11974
694.634	13.27864
694.822	20.4447
695.01	21.54957
695.199	24.16756
695.387	22.69288
695.575	22.59111
695.763	18.14071
695.952	17.65298
696.14	14.25289
696.328	16.82479
696.516	19.36046
696.705	19.44469
696.893	19.0782
697.081	14.28264
697.269	21.32729
697.457	16.01966
697.645	15.3727
697.833	21.34915
698.021	16.43302
698.21	17.41142
698.398	17.90345
698.586	15.24625
698.774	14.9177
698.962	17.75238
699.15	15.07189
699.338	13.82974
699.526	18.55724
699.714	15.56954
699.901	15.42816
700.089	18.96238
700.277	15.16268
700.465	16.85963
700.653	19.15609
700.841	18.78187
701.029	15.48777
701.217	21.56959
701.404	17.918
701.592	22.46546
701.78	25.5098
701.968	17.25099
702.155	17.8366
702.343	15.09574
702.531	22.26292
702.718	19.54386
702.906	17.37315
703.094	17.61214
703.281	22.74592
703.469	18.67596
703.657	22.55421
703.844	29.78181
704.032	25.2517
704.219	18.12559
704.407	21.37654
704.595	24.81032
704.782	21.73227
704.97	19.93848
705.157	19.81
705.345	27.45736
705.532	32.11435
705.719	23.94887
705.907	27.23634
706.094	23.82912
706.282	30.61677
706.469	24.29333
706.656	25.23624
706.844	23.70733
707.031	28.23259
707.218	27.4795
707.406	31.49298
707.593	29.08515
707.78	28.73267
707.968	27.33181
708.155	24.49698
708.342	28.87589
708.529	29.0511
708.716	28.04736
708.904	32.25459
709.091	29.41548
709.278	23.42961
709.465	33.39709
709.652	31.28531
709.839	30.78986
710.026	26.24172
710.213	21.07673
710.4	26.2623
710.587	27.46311
710.774	29.0753
710.961	29.18663
711.148	25.87939
711.335	29.02813
711.522	25.29175
711.709	28.33556
711.896	33.27896
712.083	29.61105
712.27	23.55849
712.457	27.35479
712.644	20.9796
712.831	33.44284
713.017	26.63413
713.204	28.52457
713.391	23.41321
713.578	28.595
713.765	30.62474
713.951	26.72031
714.138	36.31431
714.325	25.4386
714.512	24.24333
714.698	20.82288
714.885	29.317
715.072	23.7446
715.258	23.30424
715.445	21.13209
715.631	27.44398
715.818	13.3045
716.005	20.61297
716.191	25.34179
716.378	20.76556
716.564	25.40825
716.751	18.78354
716.937	20.85035
717.124	25.812
717.31	18.90351
717.497	29.96201
717.683	19.18773
717.869	30.32132
718.056	20.14072
718.242	24.45665
718.429	21.81951
718.615	17.77686
718.801	22.41551
718.988	27.22438
719.174	24.38419
719.36	21.5164
719.547	27.88895
719.733	24.24953
719.919	23.22529
720.105	24.52464
720.291	22.67632
720.478	24.17025
720.664	23.03323
720.85	21.12865
721.036	35.30977
721.222	30.17849
721.408	22.98947
721.595	30.37629
721.781	29.74792
721.967	27.70268
722.153	30.48724
722.339	26.071
722.525	25.0568
722.711	19.3667
722.897	18.1087
723.083	22.35334
723.269	27.99036
723.455	36.0759
723.641	41.7364
723.827	24.46265
724.012	26.09086
724.198	24.56372
724.384	30.21849
724.57	26.13958
724.756	18.41702
724.942	16.11515
725.127	29.06053
725.313	30.29648
725.499	29.46623
725.685	33.32083
725.87	25.44064
726.056	20.26834
726.242	29.51028
726.428	17.8198
726.613	28.95382
726.799	22.61874
726.985	19.56405
727.17	17.44434
727.356	34.10343
727.541	20.83969
727.727	24.32404
727.913	28.25703
728.098	22.36368
728.284	27.28117
728.469	19.7081
728.655	20.74804
728.84	29.6767
729.026	27.81809
729.211	28.13633
729.397	26.34058
729.582	27.77487
729.767	23.62708
729.953	26.45066
730.138	30.75819
730.323	14.43695
730.509	19.46812
730.694	32.38637
730.879	27.55555
731.065	25.8084
731.25	36.12862
731.435	27.94029
731.621	18.49708
731.806	22.15831
731.991	25.91375
732.176	18.31393
732.361	32.39662
732.547	26.40352
732.732	18.20501
732.917	36.03665
733.102	19.74715
733.287	21.96055
733.472	24.66548
733.657	24.48292
733.842	17.85361
734.027	21.56567
734.212	23.52054
734.397	20.62783
734.582	24.90047
734.767	29.93775
734.952	31.23292
735.137	13.49283
735.322	31.93085
735.507	26.83804
735.692	26.6047
735.877	35.89346
736.062	34.33559
736.247	26.64535
736.431	24.77436
736.616	30.96221
736.801	27.40375
736.986	25.10888
737.171	20.09011
737.355	19.41051
737.54	32.74985
737.725	26.38159
737.909	40.79068
738.094	23.71782
738.279	29.61275
738.463	24.49213
738.648	29.52224
738.833	28.36998
739.017	37.34174
739.202	24.9917
739.386	25.01488
739.571	21.08148
739.756	30.05639
739.94	25.38757
740.125	28.71672
740.309	22.26785
740.494	30.01508
740.678	27.02433
740.863	28.27516
741.047	26.70198
741.231	33.31612
741.416	22.96867
741.6	34.80698
741.785	22.84258
741.969	31.86499
742.153	34.41999
742.338	15.83193
742.522	25.50404
742.706	30.20527
742.89	20.37713
743.075	26.3349
743.259	33.90176
743.443	32.57559
743.627	33.86646
743.812	38.70296
743.996	18.29429
744.18	25.43045
744.364	24.8686
744.548	41.65355
744.732	26.05324
744.916	32.57294
745.1	29.33762
745.285	25.00104
745.469	30.79809
745.653	36.20385
745.837	20.18736
746.021	41.68028
746.205	33.74779
746.389	27.76541
746.573	26.10177
746.757	36.21691
746.94	24.84814
747.124	35.05915
747.308	20.79374
747.492	34.42467
747.676	23.07024
747.86	42.62854
748.044	24.46942
748.227	18.49719
748.411	51.32274
748.595	27.78314
748.779	22.39256
748.963	29.93627
749.146	28.593
749.33	22.61767
749.514	22.33025
749.697	34.73742
749.881	23.02116
750.065	22.05934
750.248	28.0089
750.432	41.47154
750.616	28.68817
750.799	20.91088
750.983	44.0046
751.166	42.01985
751.35	19.73183
751.533	32.45034
751.717	39.1228
751.9	37.23494
752.084	25.29455
752.267	23.18913
752.451	22.87445
752.634	27.24189
752.818	31.91644
753.001	32.22111
753.184	35.95709
753.368	30.86474
753.551	9.72527
753.734	23.09567
753.918	43.37163
754.101	24.38757
754.284	32.98769
754.467	24.94597
754.651	24.44711
754.834	22.46339
755.017	35.1011
755.2	35.50339
755.384	21.77688
755.567	34.03347
755.75	33.28642
755.933	26.26164
756.116	33.54172
756.299	24.13791
756.482	21.89227
756.665	32.03372
756.848	28.72821
757.032	30.89275
757.215	20.5372
757.398	22.9679
757.581	22.8266
757.764	45.6541
757.947	27.52372
758.129	34.65642
758.312	12.22032
758.495	27.60987
758.678	27.54122
758.861	26.42764
759.044	41.70003
759.227	21.95212
759.41	23.47359
759.592	34.39638
759.775	27.00513
759.958	34.83872
760.141	21.69453
760.324	44.4353
760.506	39.49522
760.689	35.13977
760.872	43.43847
761.054	31.12951
761.237	27.98708
761.42	30.04509
761.602	34.65104
761.785	31.88786
761.968	36.25938
762.15	41.16243
762.333	28.97569
762.515	32.79787
762.698	27.73176
762.88	35.46517
763.063	31.60249
763.245	36.63203
763.428	23.67633
763.61	26.13896
763.793	21.2722
763.975	30.60716
764.158	26.54607
764.34	24.69462
764.522	21.90576
764.705	26.70657
764.887	37.75841
765.069	18.69417
765.252	31.84725
765.434	31.78232
765.616	29.08325
765.799	23.77918
765.981	33.51581
766.163	23.82092
766.345	38.00022
766.528	24.25905
766.71	14.95001
766.892	29.45261
767.074	37.49808
767.256	25.65373
767.438	41.36637
767.62	30.36263
767.802	46.75613
767.985	33.01072
768.167	42.57709
768.349	24.99775
768.531	34.15037
768.713	32.18999
768.895	35.01801
769.077	31.69868
769.259	49.34053
769.441	67.80066
769.623	35.89401
769.804	41.15139
769.986	40.34142
770.168	47.66989
770.35	58.00945
770.532	43.7215
770.714	47.20341
770.896	48.2569
771.077	20.82437
771.259	51.96628
771.441	44.40964
771.623	53.65589
771.804	64.0533
771.986	24.38344
772.168	35.64892
772.35	49.50332
772.531	66.84556
772.713	43.09012
772.894	54.48573
773.076	43.88099
773.258	35.98027
773.439	56.37157
773.621	64.05542
773.802	30.23443
773.984	36.70593
774.166	44.48247
774.347	57.38461
774.529	51.41056
774.71	21.58889
774.891	40.45271
775.073	36.28421
775.254	55.73436
775.436	34.46411
775.617	68.05742
775.799	35.45249
775.98	56.73468
776.161	61.88019
776.343	62.72603
776.524	39.992
776.705	39.18082
776.886	23.09191
777.068	45.01198
777.249	92.97548
777.43	66.2805
777.611	28.89711
777.793	38.38013
777.974	64.62157
778.155	34.51493
778.336	28.96093
778.517	71.79843
778.698	33.20868
778.879	22.50107
779.061	13.10409
779.242	47.18538
779.423	48.39754
779.604	36.91864
779.785	38.41159
779.966	46.05354
780.147	56.46952
780.328	53.93717
780.509	74.87695
780.69	54.31755
780.871	34.73602
781.051	24.64087
781.232	43.09228
781.413	43.99461
781.594	37.89862
781.775	37.94283
781.956	32.49884
782.137	19.38012
782.317	36.73521
782.498	44.63444
782.679	40.42352
782.86	45.79845
783.04	35.0786
783.221	44.94205
783.402	67.1332
783.583	42.73978
783.763	51.73351
783.944	36.1
784.124	26.95322
784.305	64.10201
784.486	51.4538
784.666	40.68486
784.847	24.20869
785.027	86.49058
785.208	35.20518
785.388	35.88223
785.569	33.48581
785.749	38.51049
785.93	37.70085
786.11	24.89783
786.291	48.35021
786.471	45.75001
786.652	53.3388
786.832	39.01472
787.012	45.58761
787.193	28.94314
787.373	43.97292
787.553	36.53439
787.734	45.05232
787.914	38.13064
788.094	55.76428
788.275	45.1529
788.455	39.42595
788.635	29.97115
788.815	45.61272
788.995	31.55648
789.176	24.99236
789.356	32.37023
789.536	38.90796
789.716	47.55614
789.896	33.13154
790.076	36.04242
790.256	45.69088
790.436	19.15098
790.616	30.68817
790.796	45.13171
790.976	36.56445
791.156	32.01396
791.336	47.0919
791.516	44.88424
791.696	39.39488
791.876	25.86128
792.056	45.4058
792.236	52.92523
792.416	52.02609
792.596	47.41203
792.776	47.93914
792.956	50.6414
793.135	66.05555
793.315	30.14602
793.495	55.2336
793.675	50.62125
793.854	51.29678
794.034	54.96991
794.214	29.58463
794.394	52.65349
794.573	57.94462
794.753	43.59388
794.933	32.09978
795.112	43.82292
795.292	53.42352
795.472	65.65883
795.651	27.49946
795.831	41.82132
796.01	39.02925
796.19	38.61558
796.369	41.70561
796.549	48.29226
796.728	40.71872
796.908	26.62303
797.087	28.82469
797.267	39.14394
797.446	29.12601
797.626	47.24108
797.805	47.66283
797.984	33.6834
798.164	51.455
798.343	32.69675
798.522	44.15989
798.702	43.78562
798.881	28.70819
799.06	38.94064
799.239	22.07093
799.419	33.16132
799.598	63.27129
799.777	47.87061
799.956	55.48332
800.136	39.38141
800.315	33.20217
800.494	46.31152
800.673	55.44504
800.852	50.7041
801.031	57.87035
801.21	48.13737
801.389	36.42113
801.568	43.35474
801.747	65.12633
801.926	42.87366
802.105	60.51222
802.284	34.39168
802.463	63.3394
802.642	45.35302
802.821	44.88793
803	60.93858
803.179	54.42744
803.358	56.39681
803.537	33.06799
803.716	41.96507
803.895	34.20495
804.073	39.51142
804.252	32.79612
804.431	48.1882
804.61	41.5071
804.789	54.77509
804.967	37.25474
805.146	35.74702
805.325	72.20195
805.503	47.35945
805.682	28.02994
805.861	88.05536
806.039	59.83051
806.218	36.69442
806.397	44.51389
806.575	41.45606
806.754	47.15811
806.932	31.20672
807.111	58.1026
807.289	53.99399
807.468	42.61319
807.646	54.62464
807.825	51.03093
808.003	45.15985
808.182	57.36048
808.36	44.69368
808.539	34.30461
808.717	64.02583
808.895	34.1199
809.074	46.52272
809.252	43.32196
809.43	50.80684
809.609	58.21368
809.787	59.84855
809.965	42.16465
810.144	43.2232
810.322	42.40622
810.5	49.86393
810.678	38.57623
810.856	73.03785
811.035	57.95762
811.213	51.71982
811.391	62.05157
811.569	48.2004
811.747	97.56365
811.925	60.51817
812.103	36.37409
812.281	44.02248
812.459	70.6978
812.637	69.83958
812.816	56.8517
812.994	75.03941
813.171	64.62778
813.349	49.93256
813.527	59.53594
813.705	67.132
813.883	84.86351
814.061	59.58221
814.239	70.2204
814.417	79.1172
814.595	53.11924
814.773	51.66715
814.95	48.23502
815.128	53.94416
815.306	48.63006
815.484	43.41117
815.662	35.93049
815.839	30.07951
816.017	40.35246
816.195	63.55309
816.372	42.06132
816.55	57.50869
816.728	69.96084
816.905	44.41905
817.083	69.98931
817.261	46.20266
817.438	92.95989
817.616	71.58578
817.793	40.13866
817.971	57.34441
818.148	56.39383
818.326	65.63524
818.503	50.81953
818.681	71.94845
818.858	44.08703
819.036	46.67581
819.213	50.24251
819.391	40.48415
819.568	37.63606
819.745	34.05076
819.923	57.43934
820.1	42.41467
820.277	36.32112
820.455	41.98772
820.632	43.95681
820.809	47.34525
820.986	32.65084
821.164	27.61859
821.341	28.02426
821.518	36.93998
821.695	28.45041
821.872	26.39893
822.05	23.43324
822.227	20.40722
822.404	20.82189
822.581	22.84921
822.758	20.29739
822.935	20.08049
823.112	22.06792
823.289	19.01374
823.466	21.59364
823.643	19.97337
823.82	23.01012
823.997	20.51745
824.174	22.96357
824.351	29.47473
824.528	27.72776
824.705	25.92223
824.882	27.83633
825.059	35.60243
825.236	27.26522
825.412	28.51249
825.589	33.6043
825.766	46.08864
825.943	30.40753
826.12	35.14207
826.296	26.77236
826.473	33.24952
826.65	33.07369
826.827	38.43896
827.003	27.98718
827.18	30.48931
827.357	32.35873
827.533	28.58377
827.71	18.26596
827.887	25.80009
828.063	28.25335
828.24	24.55497
828.416	30.67465
828.593	26.38058
828.769	35.42657
828.946	35.74411
829.122	37.11668
829.299	35.73284
829.475	24.4653
829.652	35.34919
829.828	56.3516
830.005	37.15179
830.181	49.72988
830.357	39.48812
830.534	52.61471
830.71	40.52604
830.886	51.71503
831.063	52.37226
831.239	64.17622
831.415	32.87242
831.592	65.3838
831.768	42.43993
831.944	38.53891
832.12	69.71174
832.296	66.4122
832.473	55.58973
832.649	40.42964
832.825	55.81084
833.001	34.9688
833.177	49.50746
833.353	45.13658
833.529	29.24248
833.705	42.20275
833.881	29.59
834.058	28.38642
834.234	31.16476
834.41	29.8121
834.586	23.56746
834.761	28.29947
834.937	30.62445
835.113	30.83041
835.289	27.01519
835.465	31.50544
835.641	27.84243
835.817	31.82193
835.993	52.45138
836.169	28.7296
836.344	41.04026
836.52	46.67108
836.696	43.10653
836.872	36.8639
837.048	96.28808
837.223	39.14402
837.399	73.2343
837.575	56.57167
837.75	52.80642
837.926	73.67713
838.102	107.06922
838.277	87.275
838.453	115.67547
838.628	121.17218
838.804	47.20922
838.98	103.29401
839.155	60.13957
839.331	78.71024
839.506	53.74665
839.682	56.46401
839.857	76.79364
840.033	86.49361
840.208	45.71349
840.384	23.95813
840.559	42.59121
840.734	64.7252
840.91	83.68812
841.085	52.30452
841.26	53.48542
841.436	48.22157
841.611	47.39297
841.786	68.02458
841.962	91.08626
842.137	58.93161
842.312	37.48578
842.487	52.94109
842.663	44.64266
842.838	52.49313
843.013	158.82464
843.188	81.32246
843.363	85.62495
843.538	132.03618
843.714	135.50188
843.889	136.55323
844.064	136.31662
844.239	121.51308
844.414	143.87781
844.589	95.88579
844.764	172.43982
844.939	161.16592
845.114	182.09606
845.289	169.65181
845.464	235.88912
845.639	161.81404
845.814	82.05471
845.989	102.31193
846.163	118.5922
846.338	122.38683
846.513	167.22352
846.688	113.10998
846.863	117.53342
847.038	104.38225
847.212	120.35652
847.387	124.2064
847.562	125.36717
847.737	157.672
847.911	70.40756
848.086	79.03441
848.261	234.10245
848.435	106.06383
848.61	159.71991
848.785	84.54459
848.959	163.34463
849.134	225.38929
849.308	231.68807
849.483	130.36742
849.658	198.8045
849.832	108.96605
850.007	93.21375
850.181	255.90702
850.356	99.83698
850.53	247.69801
850.705	79.38864
850.879	48.74987
851.053	118.91944
851.228	106.67949
851.402	143.5974
851.577	178.34874
851.751	198.26345
851.925	131.62077
852.099	66.76068
852.274	95.27715
852.448	116.91564
852.622	156.08603
852.797	128.29589
852.971	117.21763
853.145	127.42391
853.319	363.86244
853.493	181.58756
853.668	103.8829
853.842	228.80819
854.016	187.5445
854.19	216.7103
854.364	132.53688
854.538	141.7167
854.712	189.34291
854.886	114.69254
855.06	112.93777
855.234	48.87771
855.408	212.32956
855.582	176.79007
855.756	176.39278
855.93	226.14927
856.104	164.71137
856.278	174.29373
856.452	126.49215
856.626	167.53135
856.8	274.66196
856.973	159.51389
857.147	147.15514
857.321	152.3108
857.495	190.28154
857.669	124.73479
857.842	117.70469
858.016	187.91373
858.19	103.84883
858.364	294.00557
858.537	116.74079
858.711	132.52811
858.885	118.95511
859.058	109.51964
859.232	65.50212
859.405	74.65432
859.579	177.75145
859.753	145.3319
859.926	96.9076
860.1	75.42543
860.273	140.82865
860.447	209.55682
860.62	118.36715
860.794	254.92673
860.967	145.28749
861.141	188.49934
861.314	274.53052
861.487	167.74362
861.661	207.43661
861.834	210.23959
862.008	191.71946
862.181	131.84137
862.354	145.54766
862.528	158.28514
862.701	113.45416
862.874	80.32824
863.047	116.86242
863.221	115.70079
863.394	60.56292
863.567	224.05808
863.74	51.85395
863.913	173.20256
864.087	147.90008
864.26	182.52015
864.433	126.12285
864.606	229.42193
864.779	140.82176
864.952	63.47297
865.125	110.99431
865.298	128.27858
865.471	136.77198
865.644	268.75914
865.817	214.33498
865.99	186.4727
866.163	203.34476
866.336	118.4972
866.509	132.00441
866.682	117.27696
866.855	199.51284
867.028	87.68243
867.2	171.08399
867.373	57.51409
867.546	151.04452
867.719	271.72466
867.892	175.05067
868.064	98.79376
868.237	163.60061
868.41	132.83396
868.583	76.83545
868.755	85.19942
868.928	134.96072
869.101	282.66393
869.273	206.55982
869.446	174.11112
869.619	200.03336
869.791	135.37302
869.964	201.71441
870.136	186.60191
870.309	145.32494
870.481	153.0471
870.654	76.6871
870.826	150.7735
870.999	117.81823
871.171	185.61613
871.344	115.50892
871.516	140.17894
871.689	98.45637
871.861	147.24173
872.033	102.43239
872.206	123.51391
872.378	192.79237
872.55	127.99615
872.723	83.64143
872.895	125.49459
873.067	194.51233
873.24	214.13798
873.412	112.21513
873.584	122.45326
873.756	118.66328
873.928	160.62742
874.101	159.50098
874.273	178.27633
874.445	61.52788
874.617	80.44528
874.789	150.66205
874.961	119.64439
875.133	172.21522
875.305	139.77238
875.477	99.42292
875.649	79.39896
875.821	97.20618
875.993	235.46089
876.165	94.74847
876.337	158.48189
876.509	123.21818
876.681	154.77173
876.853	149.48871
877.025	154.11157
877.197	104.32043
877.369	89.91186
877.541	184.04083
877.712	56.31136
877.884	84.47194
878.056	174.45107
878.228	93.36494
878.4	160.42885
878.571	92.82894
878.743	69.39715
878.915	152.2659
879.086	91.39322
879.258	112.48709
879.43	101.79736
879.601	90.63127
879.773	94.49968
879.945	28.30627
880.116	44.14419
880.288	30.46876
880.459	32.84626
880.631	26.78685
880.802	31.67304
880.974	29.76804
881.145	22.47056
881.317	28.55697
881.488	22.895
881.66	24.71604
881.831	22.45079
882.002	28.95317
882.174	22.88692
882.345	28.06014
882.517	17.48405
882.688	30.55801
882.859	26.87784
883.03	40.02438
883.202	37.84936
883.373	33.70797
883.544	33.14328
883.715	55.02344
883.887	45.10537
884.058	39.90278
884.229	56.96005
884.4	55.71143
884.571	64.82621
884.742	57.20956
884.914	61.30976
885.085	83.11576
885.256	108.72613
885.427	89.61124
885.598	103.41724
885.769	107.70368
885.94	107.55068
886.111	71.64831
886.282	125.05907
886.453	102.65078
886.624	72.05965
886.795	119.22919
886.966	101.03112
887.136	134.38993
887.307	101.76166
887.478	164.28888
887.649	146.13122
887.82	152.11799
887.991	123.29769
888.161	168.01589
888.332	155.85059
888.503	80.86744
888.674	209.74062
888.844	228.22611
889.015	175.21333
889.186	82.57227
889.356	207.54228
889.527	81.95716
889.698	352.70631
889.868	121.95419
890.039	150.79736
890.209	140.8413
890.38	182.39371
890.551	151.39502
890.721	219.55925
890.892	187.37372
891.062	130.29297
891.233	163.33119
891.403	126.33927
891.574	102.03202
891.744	133.75699
891.914	168.32886
892.085	139.88865
892.255	54.62103
892.425	217.09845
892.596	171.85059
892.766	159.84086
892.936	221.23788
893.107	186.6263
893.277	108.1808
893.447	77.28913
893.618	63.03792
893.788	124.14883
893.958	66.24595
894.128	72.36015
894.298	77.47712
894.468	105.14897
894.639	50.0478
894.809	38.54108
894.979	54.23215
895.149	66.03425
895.319	52.71266
895.489	70.00752
895.659	90.42801
895.829	60.55092
895.999	65.76461
896.169	48.14736
896.339	59.33531
896.509	120.09276
896.679	134.11488
896.849	128.40322
897.019	177.96367
897.189	137.75463
897.358	125.35958
897.528	182.34268
897.698	67.27312
897.868	164.95099
898.038	279.48264
898.208	265.77751
898.377	97.09685
898.547	267.60724
898.717	415.02928
898.886	169.68409
899.056	255.86605
899.226	386.33263
899.395	242.04748
899.565	298.93068
899.735	210.44274
899.904	336.27059
900.074	279.74617
900.244	131.63458
900.413	507.13701
900.583	126.8519
900.752	192.39119
900.922	315.63563
901.091	39.86696
901.261	270.00583
901.43	250.82314
901.599	267.3271
901.769	565.71525
901.938	309.7297
902.108	289.31617
902.277	370.0945
902.446	102.10013
902.616	121.18581
902.785	180.46295
902.954	295.71491
903.124	198.16605
903.293	169.80257
903.462	90.93787
903.631	127.32435
903.801	91.7747
903.97	52.47817
904.139	84.55184
904.308	65.78125
904.477	54.06438
904.646	34.42453
904.816	50.59114
904.985	69.61065
905.154	104.73161
